SpectraSuite Data File
++++++++++++++++++++++++++++++++++++
Date: Thu May 14 14:53:23 PDT 2015
User: schluterlab
Dark Spectrum Present: Yes
Reference Spectrum Present: Yes
Number of Sampled Component Spectra: 1
Spectrometers: USB2E3373
Integration Time (usec): 3000 (USB2E3373)
Spectra Averaged: 3 (USB2E3373)
Boxcar Smoothing: 0 (USB2E3373)
Correct for Electrical Dark: No (USB2E3373)
Strobe/Lamp Enabled: No (USB2E3373)
Correct for Detector Non-linearity: No (USB2E3373)
Correct for Stray Light: No (USB2E3373)
Number of Pixels in Processed Spectrum: 2048
>>>>>Begin Processed Spectral Data<<<<<
178.53	0.000
178.91	71.429
179.29	-900.000
179.67	-1400.000
180.04	178.571
180.42	80.000
180.80	280.000
181.18	-1200.000
181.56	0.000
181.94	175.000
182.31	-325.000
182.69	633.333
183.07	-350.000
183.45	300.000
183.83	-200.000
184.20	-400.000
184.58	700.000
184.96	-225.000
185.34	-88.889
185.72	-20.000
186.09	288.889
186.47	900.000
186.85	520.000
187.23	-244.444
187.61	-1700.000
187.98	120.000
188.36	350.000
188.74	-275.000
189.12	-400.000
189.49	-6.250
189.87	-125.000
190.25	-100.000
190.63	-120.000
191.00	-222.222
191.38	0.000
191.76	-500.000
192.14	-83.333
192.51	750.000
192.89	-233.333
193.27	0.000
193.65	-85.714
194.02	-2200.000
194.40	-71.429
194.78	185.714
195.15	0.000
195.53	-136.364
195.91	0.000
196.29	-250.000
196.66	-30.769
197.04	-1200.000
197.42	-214.286
197.79	-150.000
198.17	-112.500
198.55	-314.286
198.92	-22.222
199.30	-112.500
199.68	-18.182
200.05	-57.143
200.43	-300.000
200.81	228.571
201.18	0.000
201.56	211.111
201.94	0.000
202.31	333.333
202.69	-77.778
203.07	-0.000
203.44	-133.333
203.82	-325.000
204.19	-41.667
204.57	-216.667
204.95	-175.000
205.32	-800.000
205.70	225.000
206.08	-316.667
206.45	-116.667
206.83	460.000
207.20	-116.667
207.58	-540.000
207.96	-233.333
208.33	-133.333
208.71	116.667
209.08	-33.333
209.46	0.000
209.84	383.333
210.21	1000.000
210.59	500.000
210.96	333.333
211.34	-125.000
211.71	-137.500
212.09	-800.000
212.46	0.000
212.84	800.000
213.22	-400.000
213.59	-100.000
213.97	-50.000
214.34	-433.333
214.72	300.000
215.09	-375.000
215.47	0.000
215.84	242.857
216.22	750.000
216.59	-240.000
216.97	-280.000
217.34	-300.000
217.72	-150.000
218.09	-300.000
218.47	-400.000
218.84	0.000
219.22	360.000
219.59	-58.824
219.97	-25.000
220.34	1000.000
220.72	-166.667
221.09	-76.923
221.47	-400.000
221.84	-140.000
222.22	-228.571
222.59	0.000
222.97	-187.500
223.34	-380.000
223.72	-400.000
224.09	-350.000
224.46	-350.000
224.84	-100.000
225.21	-228.571
225.59	-475.000
225.96	-450.000
226.34	-23.077
226.71	350.000
227.08	-650.000
227.46	-66.667
227.83	-275.000
228.21	0.000
228.58	225.000
228.95	950.000
229.33	-125.000
229.70	-160.000
230.08	31.579
230.45	200.000
230.82	-533.333
231.20	-85.714
231.57	-100.000
231.95	-72.727
232.32	-9.091
232.69	-10.000
233.07	0.000
233.44	-35.294
233.81	-100.000
234.19	-5.556
234.56	-13.636
234.93	13.793
235.31	-26.316
235.68	-16.667
236.05	-50.000
236.43	26.923
236.80	-12.000
237.17	-11.111
237.55	-21.212
237.92	-150.000
238.29	-19.355
238.67	-6.818
239.04	5.556
239.41	-9.524
239.79	10.870
240.16	3.704
240.53	13.043
240.91	-3.922
241.28	18.033
241.65	19.403
242.02	18.919
242.40	3.077
242.77	17.333
243.14	10.976
243.51	0.000
243.89	14.103
244.26	20.792
244.63	25.490
245.00	25.234
245.38	14.912
245.75	19.469
246.12	27.778
246.49	15.504
246.87	27.143
247.24	23.841
247.61	18.421
247.98	20.134
248.36	27.160
248.73	23.926
249.10	25.137
249.47	31.841
249.84	29.843
250.22	21.244
250.59	32.778
250.96	29.091
251.33	20.408
251.70	23.932
252.08	26.250
252.45	25.410
252.82	27.686
253.19	22.266
253.56	30.038
253.94	26.538
254.31	26.894
254.68	31.469
255.05	32.573
255.42	22.789
255.79	25.890
256.16	26.490
256.54	26.821
256.91	27.541
257.28	23.607
257.65	24.204
258.02	25.074
258.39	28.490
258.76	28.135
259.14	27.586
259.51	29.683
259.88	28.329
260.25	27.778
260.62	29.863
260.99	30.874
261.36	28.418
261.73	29.178
262.10	29.670
262.47	29.491
262.85	31.818
263.22	26.234
263.59	28.684
263.96	26.087
264.33	30.179
264.70	28.889
265.07	30.310
265.44	31.519
265.81	30.324
266.18	30.612
266.55	29.911
266.92	29.385
267.29	29.978
267.66	34.146
268.03	33.406
268.40	28.601
268.77	28.474
269.14	29.736
269.51	32.237
269.88	31.967
270.25	29.577
270.62	30.802
270.99	28.889
271.36	29.505
271.73	26.916
272.10	32.665
272.47	30.261
272.84	26.908
273.21	28.457
273.58	28.831
273.95	29.231
274.32	26.996
274.69	28.433
275.06	29.853
275.43	27.357
275.80	30.159
276.17	26.852
276.54	25.000
276.91	27.013
277.28	28.752
277.65	30.700
278.02	28.860
278.39	28.442
278.76	27.592
279.13	28.014
279.50	29.897
279.87	28.801
280.23	26.761
280.60	26.441
280.97	28.454
281.34	28.183
281.71	29.780
282.08	28.239
282.45	26.514
282.82	26.688
283.19	26.494
283.56	27.377
283.92	29.880
284.29	28.752
284.66	28.736
285.03	26.923
285.40	27.512
285.77	26.780
286.14	27.786
286.51	26.636
286.87	26.382
287.24	26.807
287.61	27.653
287.98	24.471
288.35	26.775
288.72	26.775
289.08	26.647
289.45	25.444
289.82	23.946
290.19	26.293
290.56	25.915
290.93	26.248
291.29	25.482
291.66	25.758
292.03	23.881
292.40	24.898
292.77	23.989
293.13	23.681
293.50	23.784
293.87	24.966
294.24	23.867
294.60	23.388
294.97	21.879
295.34	23.047
295.71	22.320
296.08	22.997
296.44	22.549
296.81	23.143
297.18	21.918
297.55	22.052
297.91	23.962
298.28	20.498
298.65	22.473
299.02	21.842
299.38	22.769
299.75	22.196
300.12	21.528
300.48	22.235
300.85	21.822
301.22	20.805
301.59	20.091
301.95	20.452
302.32	22.889
302.69	20.591
303.05	21.763
303.42	21.508
303.79	20.312
304.15	21.241
304.52	21.564
304.89	21.885
305.25	20.290
305.62	20.585
305.99	21.443
306.35	19.254
306.72	22.234
307.09	21.929
307.45	20.083
307.82	18.668
308.19	20.283
308.55	21.601
308.92	20.156
309.29	20.498
309.65	18.908
310.02	20.297
310.38	21.260
310.75	21.165
311.12	21.093
311.48	20.430
311.85	21.652
312.22	19.450
312.58	20.094
312.95	18.929
313.31	19.422
313.68	20.604
314.05	21.951
314.41	21.038
314.78	22.252
315.14	20.236
315.51	21.699
315.87	21.872
316.24	20.274
316.61	21.492
316.97	19.910
317.34	19.224
317.70	20.524
318.07	20.547
318.43	21.173
318.80	20.401
319.16	20.086
319.53	19.109
319.89	19.544
320.26	20.730
320.62	20.656
320.99	20.683
321.35	19.686
321.72	21.581
322.08	20.198
322.45	20.777
322.81	21.300
323.18	21.416
323.54	20.172
323.91	21.352
324.27	20.654
324.64	21.495
325.00	19.569
325.37	21.540
325.73	20.909
326.10	21.655
326.46	21.906
326.83	21.777
327.19	20.866
327.56	21.818
327.92	20.220
328.29	21.290
328.65	21.357
329.01	20.981
329.38	20.977
329.74	21.832
330.11	19.949
330.47	21.483
330.84	21.189
331.20	22.000
331.56	21.837
331.93	21.172
332.29	21.271
332.66	22.757
333.02	21.776
333.38	21.728
333.75	21.380
334.11	21.935
334.48	21.205
334.84	21.920
335.20	20.487
335.57	20.152
335.93	21.488
336.29	21.963
336.66	21.026
337.02	20.234
337.38	21.344
337.75	21.157
338.11	20.101
338.47	22.911
338.84	20.981
339.20	19.124
339.56	19.440
339.93	20.854
340.29	19.968
340.65	20.600
341.02	20.910
341.38	20.776
341.74	19.935
342.11	21.158
342.47	19.778
342.83	21.337
343.20	20.850
343.56	21.091
343.92	20.576
344.28	19.766
344.65	20.930
345.01	19.423
345.37	20.918
345.73	19.719
346.10	20.359
346.46	19.620
346.82	20.075
347.19	20.703
347.55	20.106
347.91	19.465
348.27	19.803
348.63	20.411
349.00	20.507
349.36	20.074
349.72	20.089
350.08	20.282
350.45	19.620
350.81	19.608
351.17	20.752
351.53	20.925
351.89	20.425
352.26	20.149
352.62	19.776
352.98	19.542
353.34	19.119
353.70	20.570
354.07	19.523
354.43	18.831
354.79	18.923
355.15	20.015
355.51	20.029
355.87	19.970
356.24	19.696
356.60	18.404
356.96	20.311
357.32	19.257
357.68	18.887
358.04	18.862
358.40	20.299
358.77	19.956
359.13	18.242
359.49	19.257
359.85	20.160
360.21	19.943
360.57	20.818
360.93	19.182
361.29	20.281
361.66	19.044
362.02	19.624
362.38	19.606
362.74	18.506
363.10	19.876
363.46	19.114
363.82	19.602
364.18	19.071
364.54	19.640
364.90	19.732
365.26	19.379
365.62	19.400
365.98	18.584
366.35	18.322
366.71	18.571
367.07	20.095
367.43	19.304
367.79	19.509
368.15	20.201
368.51	19.215
368.87	19.334
369.23	19.467
369.59	18.989
369.95	19.405
370.31	20.054
370.67	19.670
371.03	19.044
371.39	18.603
371.75	18.913
372.11	18.835
372.47	18.619
372.83	20.353
373.19	18.946
373.55	18.360
373.91	18.950
374.27	19.276
374.63	19.147
374.99	19.098
375.35	19.545
375.71	18.903
376.07	18.657
376.42	18.829
376.78	19.764
377.14	18.715
377.50	19.418
377.86	19.027
378.22	19.341
378.58	19.441
378.94	18.662
379.30	19.566
379.66	19.577
380.02	18.984
380.38	20.104
380.74	18.592
381.09	19.280
381.45	19.489
381.81	19.906
382.17	19.596
382.53	19.474
382.89	19.074
383.25	19.695
383.61	18.461
383.97	18.433
384.32	19.019
384.68	18.561
385.04	18.681
385.40	19.800
385.76	20.457
386.12	18.492
386.48	18.706
386.83	19.130
387.19	19.003
387.55	18.369
387.91	18.950
388.27	18.822
388.62	19.072
388.98	18.274
389.34	18.975
389.70	19.349
390.06	19.597
390.42	18.976
390.77	19.266
391.13	18.779
391.49	19.988
391.85	18.485
392.20	19.158
392.56	20.024
392.92	19.138
393.28	19.790
393.64	19.553
393.99	19.117
394.35	19.743
394.71	19.222
395.07	17.665
395.42	17.875
395.78	19.988
396.14	19.251
396.50	18.943
396.85	19.022
397.21	18.757
397.57	19.022
397.92	18.843
398.28	17.436
398.64	18.707
399.00	17.853
399.35	19.110
399.71	19.022
400.07	19.034
400.42	19.325
400.78	19.155
401.14	18.725
401.49	19.045
401.85	18.547
402.21	18.946
402.57	19.425
402.92	18.735
403.28	18.618
403.63	17.959
403.99	18.349
404.35	19.045
404.70	19.433
405.06	17.717
405.42	18.794
405.77	19.575
406.13	18.260
406.49	18.806
406.84	18.947
407.20	18.390
407.55	17.807
407.91	18.416
408.27	18.610
408.62	18.906
408.98	18.398
409.34	17.243
409.69	18.727
410.05	19.050
410.40	18.677
410.76	18.172
411.11	18.761
411.47	18.673
411.83	19.518
412.18	18.675
412.54	18.791
412.89	18.219
413.25	19.187
413.60	18.093
413.96	19.114
414.31	18.074
414.67	18.128
415.03	18.154
415.38	18.474
415.74	17.654
416.09	18.199
416.45	18.347
416.80	17.870
417.16	18.263
417.51	18.182
417.87	18.087
418.22	18.802
418.58	17.906
418.93	19.034
419.29	18.064
419.64	18.968
420.00	18.516
420.35	18.697
420.71	18.495
421.06	17.941
421.42	18.349
421.77	17.986
422.12	17.706
422.48	18.126
422.83	19.003
423.19	18.249
423.54	18.418
423.90	18.056
424.25	18.240
424.61	17.738
424.96	18.342
425.31	18.790
425.67	17.606
426.02	19.148
426.38	18.485
426.73	18.192
427.09	18.051
427.44	17.477
427.79	17.468
428.15	18.037
428.50	17.416
428.85	18.312
429.21	18.883
429.56	18.115
429.92	18.722
430.27	18.072
430.62	18.124
430.98	17.757
431.33	18.280
431.68	18.056
432.04	18.588
432.39	18.211
432.74	17.466
433.10	17.902
433.45	18.004
433.80	18.240
434.16	18.647
434.51	18.499
434.86	18.295
435.22	18.863
435.57	18.868
435.92	18.475
436.28	17.804
436.63	19.006
436.98	18.143
437.34	18.151
437.69	18.657
438.04	18.139
438.39	18.093
438.75	17.488
439.10	18.816
439.45	17.719
439.81	17.797
440.16	18.231
440.51	17.670
440.86	18.177
441.22	17.846
441.57	17.977
441.92	18.041
442.27	17.980
442.63	18.430
442.98	18.677
443.33	18.043
443.68	18.831
444.03	18.532
444.39	18.632
444.74	18.173
445.09	18.753
445.44	18.599
445.79	18.630
446.15	18.294
446.50	18.036
446.85	17.461
447.20	18.617
447.55	18.776
447.91	17.696
448.26	18.869
448.61	18.013
448.96	18.509
449.31	17.922
449.66	17.865
450.02	18.513
450.37	18.753
450.72	18.138
451.07	18.394
451.42	17.678
451.77	17.843
452.12	18.341
452.47	17.528
452.83	18.356
453.18	17.863
453.53	18.093
453.88	17.835
454.23	18.927
454.58	18.282
454.93	18.143
455.28	18.302
455.63	19.215
455.98	17.877
456.34	17.668
456.69	18.519
457.04	18.322
457.39	17.461
457.74	17.953
458.09	18.396
458.44	18.157
458.79	17.999
459.14	18.249
459.49	18.223
459.84	18.206
460.19	18.046
460.54	18.796
460.89	18.581
461.24	18.218
461.59	18.539
461.94	18.083
462.29	17.581
462.64	18.105
462.99	18.205
463.34	17.586
463.69	18.523
464.04	18.232
464.39	18.442
464.74	18.130
465.09	18.339
465.44	17.972
465.79	18.562
466.14	18.187
466.49	18.211
466.84	18.567
467.19	17.919
467.54	17.803
467.89	17.701
468.24	18.449
468.59	16.792
468.94	17.075
469.29	17.157
469.64	17.928
469.99	18.547
470.34	16.832
470.68	18.045
471.03	18.468
471.38	18.378
471.73	16.710
472.08	18.020
472.43	18.423
472.78	18.136
473.13	17.889
473.48	18.308
473.83	18.804
474.17	18.640
474.52	18.220
474.87	17.829
475.22	18.310
475.57	18.069
475.92	18.218
476.27	19.010
476.61	18.172
476.96	18.196
477.31	18.366
477.66	18.678
478.01	17.895
478.36	17.498
478.70	17.783
479.05	18.405
479.40	18.213
479.75	18.924
480.10	17.764
480.45	18.596
480.79	18.367
481.14	18.704
481.49	18.174
481.84	18.233
482.19	18.452
482.53	18.365
482.88	18.432
483.23	18.631
483.58	18.559
483.92	17.243
484.27	18.417
484.62	17.904
484.97	18.313
485.31	17.740
485.66	17.391
486.01	17.452
486.36	18.169
486.70	19.380
487.05	19.592
487.40	19.225
487.75	18.931
488.09	19.217
488.44	17.972
488.79	18.617
489.13	18.284
489.48	18.058
489.83	17.907
490.17	17.861
490.52	17.857
490.87	18.486
491.22	18.328
491.56	18.089
491.91	18.491
492.26	18.607
492.60	18.321
492.95	18.166
493.30	18.422
493.64	18.922
493.99	18.289
494.34	17.814
494.68	19.015
495.03	17.930
495.37	17.665
495.72	18.186
496.07	18.142
496.41	18.104
496.76	18.515
497.11	18.217
497.45	18.300
497.80	18.481
498.14	17.642
498.49	17.969
498.84	18.327
499.18	18.534
499.53	18.475
499.87	18.242
500.22	17.631
500.56	18.174
500.91	18.719
501.26	18.955
501.60	18.250
501.95	18.454
502.29	18.166
502.64	18.277
502.98	18.292
503.33	18.056
503.67	17.881
504.02	18.520
504.36	18.722
504.71	18.650
505.06	17.508
505.40	17.779
505.75	18.579
506.09	18.831
506.44	18.338
506.78	18.578
507.13	18.903
507.47	19.185
507.82	18.277
508.16	18.738
508.51	18.237
508.85	18.942
509.19	18.806
509.54	18.780
509.88	18.650
510.23	18.941
510.57	19.526
510.92	19.158
511.26	18.615
511.61	18.542
511.95	18.253
512.30	19.055
512.64	18.991
512.98	18.359
513.33	19.758
513.67	19.072
514.02	19.009
514.36	19.437
514.70	19.010
515.05	19.135
515.39	18.950
515.74	19.406
516.08	18.542
516.42	19.152
516.77	19.611
517.11	19.288
517.46	19.194
517.80	19.027
518.14	19.478
518.49	19.252
518.83	19.319
519.17	19.655
519.52	18.658
519.86	18.743
520.20	19.595
520.55	19.441
520.89	19.200
521.23	19.430
521.58	18.814
521.92	19.660
522.26	19.645
522.61	19.387
522.95	20.415
523.29	19.138
523.64	19.002
523.98	20.536
524.32	20.745
524.66	19.977
525.01	19.592
525.35	18.265
525.69	19.432
526.04	19.001
526.38	19.713
526.72	20.185
527.06	20.000
527.41	19.534
527.75	19.656
528.09	20.189
528.43	19.183
528.78	19.942
529.12	19.266
529.46	19.224
529.80	20.309
530.15	19.942
530.49	19.514
530.83	20.838
531.17	19.952
531.51	20.036
531.86	20.252
532.20	20.671
532.54	19.090
532.88	19.636
533.22	20.035
533.57	20.312
533.91	20.483
534.25	20.520
534.59	21.092
534.93	20.713
535.27	20.169
535.62	20.296
535.96	19.930
536.30	20.858
536.64	20.541
536.98	20.910
537.32	20.432
537.66	20.898
538.01	20.604
538.35	20.219
538.69	19.952
539.03	21.030
539.37	20.730
539.71	20.420
540.05	20.624
540.39	20.049
540.73	18.944
541.07	19.559
541.42	20.378
541.76	20.403
542.10	19.723
542.44	19.306
542.78	19.830
543.12	20.679
543.46	21.062
543.80	19.365
544.14	20.108
544.48	19.976
544.82	21.065
545.16	20.811
545.50	20.971
545.84	20.208
546.18	21.173
546.52	20.255
546.86	20.440
547.20	20.293
547.54	20.662
547.88	21.218
548.22	20.819
548.56	20.129
548.90	21.313
549.24	20.365
549.58	20.505
549.92	20.344
550.26	21.489
550.60	20.038
550.94	20.505
551.28	20.000
551.62	20.822
551.96	19.482
552.30	21.287
552.64	20.348
552.98	20.399
553.32	20.772
553.66	20.450
554.00	20.744
554.34	20.849
554.68	19.948
555.02	20.565
555.36	20.973
555.69	20.051
556.03	20.429
556.37	21.026
556.71	20.292
557.05	21.278
557.39	20.637
557.73	20.476
558.07	20.265
558.41	20.266
558.75	20.081
559.08	21.921
559.42	19.136
559.76	20.624
560.10	19.692
560.44	20.119
560.78	21.188
561.12	21.490
561.45	20.803
561.79	20.452
562.13	20.764
562.47	19.544
562.81	21.076
563.15	20.391
563.48	20.758
563.82	20.677
564.16	20.230
564.50	20.262
564.84	20.885
565.17	20.588
565.51	20.656
565.85	20.665
566.19	19.643
566.52	20.597
566.86	20.939
567.20	20.446
567.54	19.862
567.88	21.101
568.21	21.196
568.55	20.671
568.89	20.291
569.23	21.124
569.56	21.297
569.90	20.706
570.24	21.248
570.57	20.911
570.91	20.882
571.25	20.856
571.59	21.124
571.92	21.269
572.26	20.911
572.60	21.103
572.93	20.707
573.27	20.539
573.61	20.937
573.95	20.709
574.28	21.023
574.62	20.737
574.96	20.225
575.29	20.621
575.63	20.790
575.97	20.743
576.30	20.947
576.64	20.592
576.98	20.706
577.31	20.959
577.65	20.863
577.98	20.858
578.32	20.390
578.66	20.675
578.99	20.950
579.33	21.098
579.67	21.192
580.00	20.634
580.34	21.335
580.67	20.918
581.01	21.030
581.35	20.943
581.68	20.586
582.02	20.798
582.35	21.210
582.69	20.954
583.02	20.968
583.36	21.010
583.70	21.336
584.03	21.094
584.37	20.538
584.70	20.831
585.04	20.484
585.37	20.813
585.71	20.604
586.04	20.784
586.38	21.100
586.72	20.958
587.05	20.619
587.39	20.992
587.72	20.981
588.06	20.914
588.39	20.986
588.73	20.741
589.06	20.909
589.40	21.266
589.73	20.437
590.07	20.723
590.40	21.467
590.73	21.138
591.07	21.370
591.40	20.334
591.74	20.628
592.07	21.072
592.41	20.820
592.74	20.518
593.08	20.669
593.41	21.289
593.75	20.862
594.08	21.266
594.41	21.090
594.75	20.757
595.08	20.659
595.42	20.747
595.75	20.730
596.09	21.518
596.42	21.175
596.75	21.034
597.09	21.293
597.42	20.501
597.75	20.855
598.09	21.032
598.42	20.949
598.76	20.290
599.09	20.719
599.42	20.818
599.76	20.898
600.09	21.154
600.42	20.521
600.76	21.400
601.09	20.246
601.42	21.284
601.76	20.931
602.09	20.801
602.42	20.829
602.76	20.148
603.09	20.925
603.42	20.845
603.76	20.648
604.09	21.327
604.42	20.991
604.76	20.472
605.09	20.941
605.42	20.574
605.75	21.346
606.09	21.053
606.42	20.978
606.75	20.540
607.09	20.353
607.42	20.501
607.75	20.750
608.08	21.034
608.42	20.758
608.75	21.103
609.08	20.331
609.41	20.335
609.75	21.384
610.08	21.108
610.41	20.773
610.74	20.714
611.07	21.758
611.41	20.538
611.74	21.155
612.07	20.757
612.40	20.865
612.73	20.733
613.07	21.076
613.40	21.030
613.73	20.992
614.06	21.443
614.39	21.186
614.72	20.718
615.06	20.693
615.39	20.541
615.72	20.474
616.05	20.350
616.38	21.443
616.71	21.369
617.05	21.140
617.38	20.546
617.71	21.112
618.04	20.669
618.37	21.038
618.70	20.928
619.03	19.952
619.36	20.715
619.69	20.115
620.03	19.900
620.36	21.227
620.69	21.098
621.02	21.982
621.35	21.843
621.68	21.403
622.01	20.854
622.34	20.781
622.67	21.168
623.00	20.445
623.33	21.898
623.66	21.920
623.99	20.474
624.32	21.637
624.65	20.914
624.99	22.042
625.32	21.946
625.65	21.173
625.98	20.746
626.31	20.978
626.64	20.586
626.97	19.505
627.30	21.260
627.63	20.405
627.96	22.973
628.29	22.568
628.62	20.487
628.95	20.333
629.28	19.626
629.61	22.222
629.94	20.251
630.26	21.441
630.59	20.121
630.92	20.952
631.25	21.199
631.58	20.810
631.91	20.619
632.24	21.710
632.57	21.252
632.90	21.264
633.23	21.531
633.56	19.082
633.89	19.731
634.22	20.166
634.55	20.146
634.88	21.645
635.20	23.251
635.53	20.791
635.86	21.560
636.19	23.436
636.52	22.152
636.85	21.450
637.18	21.310
637.51	21.290
637.83	21.816
638.16	21.659
638.49	21.948
638.82	21.421
639.15	21.306
639.48	21.363
639.81	20.785
640.13	21.790
640.46	21.818
640.79	18.873
641.12	21.615
641.45	19.950
641.77	21.823
642.10	21.522
642.43	22.606
642.76	20.732
643.09	21.781
643.41	20.868
643.74	19.586
644.07	22.621
644.40	20.792
644.73	22.351
645.05	19.971
645.38	22.734
645.71	20.821
646.04	20.660
646.36	21.022
646.69	19.172
647.02	20.031
647.35	21.832
647.67	23.188
648.00	20.860
648.33	20.721
648.66	20.542
648.98	20.408
649.31	22.327
649.64	22.311
649.96	21.751
650.29	21.140
650.62	20.226
650.94	22.823
651.27	20.210
651.60	20.614
651.92	21.581
652.25	20.405
652.58	20.495
652.90	19.767
653.23	20.423
653.56	21.969
653.88	20.927
654.21	21.268
654.54	21.676
654.86	20.680
655.19	20.326
655.52	22.506
655.84	22.100
656.17	25.973
656.49	36.966
656.82	40.638
657.15	31.608
657.47	24.137
657.80	17.897
658.13	13.951
658.45	18.716
658.78	22.563
659.10	21.194
659.43	20.557
659.75	19.862
660.08	18.543
660.41	17.618
660.73	19.612
661.06	19.236
661.38	21.531
661.71	20.345
662.03	20.811
662.36	21.825
662.68	20.826
663.01	20.885
663.33	21.361
663.66	23.260
663.98	19.038
664.31	23.077
664.63	21.965
664.96	21.416
665.28	21.234
665.61	23.601
665.93	20.536
666.26	23.297
666.58	19.557
666.91	21.682
667.23	22.286
667.56	20.907
667.88	21.400
668.21	19.727
668.53	18.919
668.86	22.004
669.18	21.181
669.50	23.062
669.83	19.800
670.15	19.291
670.48	22.421
670.80	21.033
671.13	20.605
671.45	22.047
671.77	20.339
672.10	20.000
672.42	21.197
672.75	22.273
673.07	20.746
673.39	21.109
673.72	23.658
674.04	22.759
674.37	22.361
674.69	23.104
675.01	22.667
675.34	20.992
675.66	21.348
675.98	20.149
676.31	22.070
676.63	22.433
676.95	21.456
677.28	17.540
677.60	19.488
677.92	21.689
678.25	23.035
678.57	21.174
678.89	23.720
679.22	20.732
679.54	21.026
679.86	20.678
680.18	20.066
680.51	19.969
680.83	19.967
681.15	20.517
681.48	24.007
681.80	23.316
682.12	20.105
682.44	20.868
682.77	21.454
683.09	20.265
683.41	21.899
683.73	19.924
684.06	20.111
684.38	21.288
684.70	21.185
685.02	21.859
685.34	19.135
685.67	20.189
685.99	21.319
686.31	18.895
686.63	22.275
686.96	22.240
687.28	21.661
687.60	21.549
687.92	18.971
688.24	20.367
688.56	20.000
688.89	22.323
689.21	21.526
689.53	20.196
689.85	21.893
690.17	21.296
690.49	22.311
690.82	20.792
691.14	19.636
691.46	21.989
691.78	21.915
692.10	22.202
692.42	20.893
692.74	20.145
693.06	19.444
693.39	23.909
693.71	20.677
694.03	20.632
694.35	21.714
694.67	19.507
694.99	21.277
695.31	19.647
695.63	18.615
695.95	20.290
696.27	19.121
696.59	22.566
696.91	20.045
697.23	24.176
697.56	19.756
697.88	22.159
698.20	18.832
698.52	23.864
698.84	22.037
699.16	22.857
699.48	21.130
699.80	21.915
700.12	19.869
700.44	19.816
700.76	21.378
701.08	22.518
701.40	22.539
701.72	22.886
702.04	24.064
702.36	23.037
702.68	18.582
703.00	22.738
703.32	21.182
703.64	25.183
703.96	21.718
704.28	20.885
704.60	24.557
704.91	21.684
705.23	24.110
705.55	19.220
705.87	23.030
706.19	23.620
706.51	19.277
706.83	17.579
707.15	20.370
707.47	19.860
707.79	21.397
708.11	18.856
708.43	21.075
708.74	21.429
709.06	21.346
709.38	23.944
709.70	23.077
710.02	20.930
710.34	23.936
710.66	20.950
710.98	19.126
711.29	20.604
711.61	20.904
711.93	23.077
712.25	21.351
712.57	26.254
712.89	21.176
713.20	23.373
713.52	20.809
713.84	18.663
714.16	25.526
714.48	22.165
714.80	23.117
715.11	23.360
715.43	24.138
715.75	20.789
716.07	19.337
716.39	21.311
716.70	17.470
717.02	21.639
717.34	16.725
717.66	20.134
717.97	18.493
718.29	15.120
718.61	16.776
718.93	18.770
719.24	21.429
719.56	18.405
719.88	20.420
720.20	20.968
720.51	19.565
720.83	18.125
721.15	18.092
721.46	18.151
721.78	20.000
722.10	21.359
722.42	19.463
722.73	19.355
723.05	18.246
723.37	20.486
723.68	22.939
724.00	23.827
724.32	20.775
724.63	19.930
724.95	23.759
725.27	21.254
725.58	21.201
725.90	26.552
726.22	17.241
726.53	20.130
726.85	17.610
727.16	19.940
727.48	19.878
727.80	20.199
728.11	16.254
728.43	21.886
728.74	20.736
729.06	22.848
729.38	20.455
729.69	19.128
730.01	22.321
730.32	17.273
730.64	21.069
730.96	19.565
731.27	24.302
731.59	20.330
731.90	18.182
732.22	17.969
732.53	17.403
732.85	20.857
733.16	18.768
733.48	21.951
733.80	18.384
734.11	22.792
734.43	20.811
734.74	24.304
735.06	20.352
735.37	19.730
735.69	20.811
736.00	20.904
736.32	20.755
736.63	19.167
736.95	21.264
737.26	20.606
737.58	18.182
737.89	20.294
738.21	18.654
738.52	18.689
738.83	25.256
739.15	19.504
739.46	23.810
739.78	22.699
740.09	22.063
740.41	20.408
740.72	21.667
741.04	19.741
741.35	19.649
741.66	23.137
741.98	23.361
742.29	23.431
742.61	20.614
742.92	19.231
743.23	20.939
743.55	22.868
743.86	16.400
744.18	14.876
744.49	13.924
744.80	18.519
745.12	21.097
745.43	20.325
745.74	20.259
746.06	20.339
746.37	27.426
746.68	24.797
747.00	21.667
747.31	22.747
747.62	24.615
747.94	19.433
748.25	20.482
748.56	19.592
748.88	23.932
749.19	24.138
749.50	18.615
749.82	24.498
750.13	25.979
750.44	17.667
750.75	20.000
751.07	23.385
751.38	18.297
751.69	18.850
752.01	20.065
752.32	22.222
752.63	22.449
752.94	20.415
753.26	18.216
753.57	18.519
753.88	20.599
754.19	23.473
754.51	17.363
754.82	21.222
755.13	25.246
755.44	23.891
755.75	19.079
756.07	22.687
756.38	25.157
756.69	22.289
757.00	18.837
757.31	21.311
757.63	20.205
757.94	20.657
758.25	21.896
758.56	18.519
758.87	19.318
759.18	22.667
759.50	22.380
759.81	22.129
760.12	21.833
760.43	24.219
760.74	21.182
761.05	20.000
761.36	19.759
761.67	18.782
761.99	20.270
762.30	19.817
762.61	16.172
762.92	18.657
763.23	23.970
763.54	21.583
763.85	20.275
764.16	22.559
764.47	21.831
764.78	19.808
765.10	22.874
765.41	23.077
765.72	19.841
766.03	23.164
766.34	19.122
766.65	16.376
766.96	17.928
767.27	25.806
767.58	17.413
767.89	24.519
768.20	20.657
768.51	18.981
768.82	19.679
769.13	20.833
769.44	16.538
769.75	23.466
770.06	18.846
770.37	23.622
770.68	15.319
770.99	14.170
771.30	22.593
771.61	20.913
771.92	18.519
772.23	19.838
772.54	17.593
772.85	23.502
773.16	25.238
773.47	17.989
773.78	20.000
774.09	19.886
774.39	25.500
774.70	20.765
775.01	16.463
775.32	18.824
775.63	22.086
775.94	8.280
776.25	18.065
776.56	21.795
776.87	21.769
777.18	15.862
777.48	18.881
777.79	24.324
778.10	5.882
778.41	17.361
778.72	16.552
779.03	19.753
779.34	14.545
779.65	18.135
779.95	18.889
780.26	18.750
780.57	18.710
780.88	29.710
781.19	25.806
781.50	24.118
781.80	19.355
782.11	19.577
782.42	21.212
782.73	15.569
783.04	18.994
783.34	11.515
783.65	14.379
783.96	21.118
784.27	15.476
784.57	19.205
784.88	15.000
785.19	9.449
785.50	11.811
785.81	16.541
786.11	15.385
786.42	12.950
786.73	12.230
787.04	27.068
787.34	18.033
787.65	20.000
787.96	15.672
788.26	18.881
788.57	20.280
788.88	19.079
789.19	20.915
789.49	18.493
789.80	21.277
790.11	11.811
790.41	18.750
790.72	26.271
791.03	6.796
791.33	16.522
791.64	26.316
791.95	15.179
792.25	7.619
792.56	10.714
792.87	16.667
793.17	16.071
793.48	17.708
793.79	9.639
794.09	14.679
794.40	17.431
794.70	23.129
795.01	19.481
795.32	17.808
795.62	20.423
795.93	18.939
796.23	17.213
796.54	21.429
796.85	5.319
797.15	13.043
797.46	-1.370
797.76	13.750
798.07	7.609
798.37	0.000
798.68	14.286
798.99	19.540
799.29	14.607
799.60	13.830
799.90	24.096
800.21	1.538
800.51	2.985
800.82	5.882
801.12	-5.479
801.43	2.941
801.73	13.559
802.04	-3.030
802.34	-8.333
802.65	3.390
802.95	10.448
803.26	0.000
803.56	19.178
803.87	7.143
804.17	12.329
804.48	-26.316
804.78	15.278
805.09	-10.345
805.39	4.054
805.70	4.225
806.00	21.951
806.30	9.639
806.61	4.110
806.91	14.423
807.22	7.778
807.52	9.195
807.83	15.278
808.13	16.867
808.43	12.360
808.74	3.750
809.04	0.000
809.35	17.333
809.65	11.429
809.95	13.699
810.26	1.754
810.56	-17.241
810.86	30.882
811.17	12.281
811.47	-1.639
811.77	-13.333
812.08	13.559
812.38	8.333
812.69	31.034
812.99	-15.094
813.29	-12.821
813.59	2.000
813.90	15.789
814.20	-5.455
814.50	26.761
814.81	25.641
815.11	9.836
815.41	17.910
815.72	18.966
816.02	19.643
816.32	31.111
816.62	11.364
816.93	-17.778
817.23	3.704
817.53	0.000
817.84	21.429
818.14	-29.412
818.44	-2.041
818.74	-8.889
819.04	-20.513
819.35	-25.714
819.65	-57.692
819.95	0.000
820.25	17.778
820.56	7.143
820.86	-9.375
821.16	-5.128
821.46	-6.977
821.76	-24.000
822.07	3.571
822.37	-28.261
822.67	-17.021
822.97	-45.946
823.27	-17.500
823.57	14.286
823.88	8.889
824.18	25.000
824.48	3.333
824.78	-36.000
825.08	0.000
825.38	0.000
825.69	-2.128
825.99	5.556
826.29	-45.714
826.59	-23.077
826.89	-6.977
827.19	-6.000
827.49	0.000
827.79	6.250
828.09	-35.135
828.39	-26.667
828.70	-34.146
829.00	-16.279
829.30	-25.000
829.60	-2.941
829.90	2.174
830.20	0.000
830.50	3.448
830.80	5.556
831.10	-38.462
831.40	8.824
831.70	0.000
832.00	0.000
832.30	-158.824
832.60	-62.500
832.90	-115.385
833.20	-47.368
833.50	-45.000
833.80	-31.579
834.10	-123.810
834.40	-13.889
834.70	0.000
835.00	-34.286
835.30	5.882
835.60	-60.000
835.90	0.000
836.20	-72.727
836.50	0.000
836.80	-30.303
837.10	-37.037
837.40	-25.926
837.70	-100.000
838.00	-7.143
838.30	-30.435
838.60	-6.897
838.90	-35.714
839.19	-69.565
839.49	-175.000
839.79	-47.826
840.09	-118.750
840.39	-50.000
840.69	0.000
840.99	-32.143
841.29	-26.667
841.59	-36.842
841.88	17.949
842.18	-42.308
842.48	-90.000
842.78	-45.000
843.08	-10.000
843.38	-3.226
843.68	-44.444
843.97	-2.941
844.27	-62.500
844.57	-52.632
844.87	-170.000
845.17	-73.333
845.47	19.048
845.76	-33.333
846.06	-133.333
846.36	-105.882
846.66	-11.538
846.96	-33.333
847.25	-70.588
847.55	-34.783
847.85	-15.000
848.15	-88.235
848.44	-145.455
848.74	-14.286
849.04	-62.500
849.34	-100.000
849.63	-47.826
849.93	1200.000
850.23	0.000
850.53	3.846
850.82	-63.636
851.12	-40.909
851.42	-72.727
851.71	-38.462
852.01	-55.000
852.31	-30.769
852.61	-10.526
852.90	0.000
853.20	11.111
853.50	-155.556
853.79	-38.095
854.09	-18.182
854.39	-158.333
854.68	-6.452
854.98	-15.385
855.28	-72.222
855.57	-21.429
855.87	0.000
856.17	-13.636
856.46	-7.407
856.76	-5.556
857.05	-52.174
857.35	-70.833
857.65	-115.385
857.94	-23.810
858.24	11.111
858.53	17.391
858.83	-58.824
859.13	-88.235
859.42	17.647
859.72	-28.571
860.01	-50.000
860.31	-166.667
860.60	-20.000
860.90	-53.333
861.20	-66.667
861.49	-53.846
861.79	-36.667
862.08	-69.231
862.38	3.125
862.67	11.765
862.97	-93.750
863.26	-155.556
863.56	-120.000
863.85	-81.818
864.15	-66.667
864.44	-466.667
864.74	-64.286
865.03	-43.750
865.33	-80.000
865.62	-38.710
865.92	-50.000
866.21	4.348
866.51	-64.286
866.80	-440.000
867.10	-125.000
867.39	-83.333
867.69	1900.000
867.98	-114.286
868.27	-94.118
868.57	-2300.000
868.86	-140.000
869.16	-38.095
869.45	-25.000
869.75	-36.364
870.04	-128.571
870.33	-75.000
870.63	-200.000
870.92	-200.000
871.22	-187.500
871.51	-90.909
871.80	-566.667
872.10	-850.000
>>>>>End Processed Spectral Data<<<<<
