SpectraSuite Data File
++++++++++++++++++++++++++++++++++++
Date: Thu May 14 14:49:12 PDT 2015
User: schluterlab
Dark Spectrum Present: Yes
Reference Spectrum Present: Yes
Number of Sampled Component Spectra: 1
Spectrometers: USB2E3373
Integration Time (usec): 3000 (USB2E3373)
Spectra Averaged: 3 (USB2E3373)
Boxcar Smoothing: 0 (USB2E3373)
Correct for Electrical Dark: No (USB2E3373)
Strobe/Lamp Enabled: No (USB2E3373)
Correct for Detector Non-linearity: No (USB2E3373)
Correct for Stray Light: No (USB2E3373)
Number of Pixels in Processed Spectrum: 2048
>>>>>Begin Processed Spectral Data<<<<<
178.53	0.000
178.91	114.286
179.29	-2400.000
179.67	-200.000
180.04	142.857
180.42	-0.000
180.80	180.000
181.18	-900.000
181.56	200.000
181.94	150.000
182.31	-25.000
182.69	300.000
183.07	-50.000
183.45	275.000
183.83	0.000
184.20	-33.333
184.58	-200.000
184.96	-150.000
185.34	-133.333
185.72	-20.000
186.09	144.444
186.47	700.000
186.85	380.000
187.23	-44.444
187.61	-1000.000
187.98	260.000
188.36	425.000
188.74	0.000
189.12	0.000
189.49	-6.250
189.87	-187.500
190.25	-33.333
190.63	60.000
191.00	-33.333
191.38	0.000
191.76	-225.000
192.14	66.667
192.51	100.000
192.89	116.667
193.27	0.000
193.65	57.143
194.02	-2200.000
194.40	42.857
194.78	85.714
195.15	0.000
195.53	-18.182
195.91	0.000
196.29	75.000
196.66	7.692
197.04	-900.000
197.42	-200.000
197.79	-400.000
198.17	-37.500
198.55	-100.000
198.92	-55.556
199.30	-62.500
199.68	-18.182
200.05	-7.143
200.43	-400.000
200.81	200.000
201.18	0.000
201.56	200.000
201.94	0.000
202.31	466.667
202.69	-66.667
203.07	200.000
203.44	11.111
203.82	-150.000
204.19	-8.333
204.57	-33.333
204.95	-100.000
205.32	-500.000
205.70	325.000
206.08	-33.333
206.45	116.667
206.83	200.000
207.20	-133.333
207.58	-280.000
207.96	-183.333
208.33	16.667
208.71	25.000
209.08	83.333
209.46	0.000
209.84	250.000
210.21	500.000
210.59	-100.000
210.96	333.333
211.34	-25.000
211.71	-75.000
212.09	-200.000
212.46	0.000
212.84	650.000
213.22	-200.000
213.59	-25.000
213.97	-40.000
214.34	100.000
214.72	116.667
215.09	-200.000
215.47	0.000
215.84	28.571
216.22	950.000
216.59	40.000
216.97	-40.000
217.34	-200.000
217.72	-50.000
218.09	-25.000
218.47	-200.000
218.84	0.000
219.22	40.000
219.59	58.824
219.97	0.000
220.34	500.000
220.72	-122.222
221.09	23.077
221.47	33.333
221.84	50.000
222.22	-42.857
222.59	0.000
222.97	12.500
223.34	-240.000
223.72	-400.000
224.09	-350.000
224.46	-225.000
224.84	-60.000
225.21	-100.000
225.59	-300.000
225.96	-250.000
226.34	-30.769
226.71	200.000
227.08	-50.000
227.46	-13.333
227.83	-200.000
228.21	-10.526
228.58	75.000
228.95	550.000
229.33	0.000
229.70	-60.000
230.08	21.053
230.45	40.000
230.82	233.333
231.20	0.000
231.57	75.000
231.95	27.273
232.32	45.455
232.69	25.000
233.07	-200.000
233.44	-29.412
233.81	-90.000
234.19	16.667
234.56	13.636
234.93	51.724
235.31	-5.263
235.68	5.556
236.05	-65.000
236.43	26.923
236.80	64.000
237.17	-7.407
237.55	30.303
237.92	-170.000
238.29	-9.677
238.67	-4.545
239.04	30.556
239.41	9.524
239.79	6.522
240.16	16.667
240.53	6.522
240.91	11.765
241.28	11.475
241.65	25.373
242.02	22.973
242.40	23.077
242.77	14.667
243.14	19.512
243.51	9.211
243.89	11.538
244.26	22.772
244.63	24.510
245.00	22.430
245.38	10.526
245.75	3.540
246.12	26.190
246.49	12.403
246.87	17.857
247.24	21.192
247.61	16.447
247.98	7.383
248.36	19.753
248.73	14.724
249.10	18.033
249.47	18.905
249.84	25.131
250.22	13.990
250.59	22.222
250.96	20.000
251.33	18.878
251.70	19.658
252.08	20.417
252.45	20.082
252.82	17.769
253.19	19.141
253.56	18.251
253.94	17.308
254.31	18.561
254.68	22.727
255.05	22.476
255.42	19.728
255.79	14.887
256.16	19.536
256.54	17.881
256.91	21.967
257.28	16.066
257.65	16.242
258.02	18.289
258.39	17.094
258.76	25.076
259.14	21.839
259.51	18.156
259.88	20.397
260.25	18.611
260.62	18.904
260.99	18.579
261.36	18.499
261.73	19.098
262.10	17.033
262.47	19.571
262.85	23.990
263.22	16.883
263.59	16.053
263.96	20.205
264.33	17.136
264.70	20.000
265.07	18.854
265.44	20.181
265.81	19.213
266.18	20.181
266.55	19.643
266.92	14.351
267.29	21.663
267.66	20.177
268.03	20.087
268.40	19.624
268.77	17.084
269.14	18.062
269.51	19.956
269.88	20.697
270.25	19.718
270.62	18.987
270.99	21.616
271.36	20.792
271.73	20.432
272.10	21.844
272.47	19.439
272.84	20.281
273.21	18.236
273.58	17.137
273.95	17.692
274.32	17.490
274.69	19.536
275.06	20.147
275.43	18.669
275.80	19.400
276.17	17.222
276.54	15.485
276.91	18.962
277.28	18.626
277.65	21.185
278.02	18.015
278.39	17.935
278.76	19.156
279.13	18.617
279.50	18.557
279.87	20.394
280.23	14.965
280.60	19.153
280.97	20.066
281.34	19.185
281.71	19.797
282.08	17.110
282.45	16.694
282.82	18.681
283.19	15.670
283.56	17.377
283.92	18.468
284.29	19.115
284.66	18.883
285.03	17.628
285.40	19.320
285.77	17.183
286.14	18.779
286.51	17.199
286.87	15.798
287.24	17.470
287.61	18.087
287.98	15.559
288.35	18.195
288.72	17.160
289.08	19.327
289.45	16.124
289.82	17.470
290.19	16.092
290.56	18.028
290.93	15.549
291.29	15.702
291.66	14.738
292.03	15.197
292.40	18.367
292.77	17.116
293.13	16.238
293.50	14.455
293.87	16.107
294.24	15.067
294.60	14.918
294.97	13.020
295.34	16.773
295.71	14.124
296.08	15.245
296.44	14.706
296.81	15.225
297.18	13.325
297.55	13.561
297.91	13.998
298.28	13.033
298.65	14.388
299.02	13.932
299.38	13.730
299.75	14.720
300.12	14.120
300.48	14.516
300.85	14.061
301.22	14.989
301.59	14.498
301.95	14.237
302.32	13.889
302.69	14.020
303.05	15.016
303.42	13.304
303.79	11.562
304.15	15.668
304.52	12.579
304.89	14.241
305.25	13.975
305.62	13.898
305.99	13.711
306.35	14.214
306.72	15.098
307.09	13.401
307.45	14.182
307.82	12.815
308.19	13.824
308.55	15.043
308.92	13.535
309.29	14.368
309.65	13.450
310.02	14.059
310.38	13.878
310.75	13.592
311.12	14.861
311.48	14.076
311.85	13.485
312.22	14.042
312.58	13.709
312.95	13.098
313.31	13.098
313.68	14.103
314.05	16.079
314.41	14.936
314.78	15.713
315.14	14.791
315.51	14.312
315.87	15.752
316.24	14.886
316.61	14.920
316.97	14.932
317.34	14.198
317.70	15.459
318.07	15.344
318.43	16.156
318.80	16.639
319.16	15.794
319.53	15.081
319.89	15.337
320.26	17.527
320.62	16.489
320.99	16.620
321.35	16.821
321.72	17.767
322.08	16.952
322.45	17.706
322.81	18.141
323.18	18.230
323.54	19.138
323.91	19.306
324.27	19.019
324.64	18.976
325.00	19.071
325.37	19.328
325.73	20.165
326.10	21.817
326.46	22.231
326.83	22.898
327.19	21.654
327.56	23.636
327.92	23.131
328.29	24.032
328.65	23.451
329.01	24.027
329.38	24.853
329.74	26.627
330.11	26.199
330.47	25.358
330.84	25.065
331.20	27.167
331.56	25.997
331.93	27.699
332.29	27.034
332.66	26.661
333.02	27.471
333.38	26.258
333.75	26.431
334.11	27.189
334.48	27.888
334.84	27.528
335.20	27.876
335.57	28.921
335.93	27.521
336.29	27.038
336.66	27.670
337.02	28.763
337.38	28.912
337.75	27.190
338.11	29.521
338.47	28.453
338.84	27.496
339.20	26.959
339.56	27.677
339.93	27.997
340.29	28.261
340.65	27.170
341.02	29.529
341.38	29.264
341.74	26.877
342.11	28.801
342.47	27.482
342.83	27.778
343.20	29.845
343.56	28.709
343.92	29.063
344.28	28.828
344.65	29.690
345.01	27.925
345.37	28.694
345.73	28.059
346.10	28.549
346.46	28.244
346.82	29.513
347.19	29.030
347.55	28.832
347.91	28.603
348.27	28.604
348.63	28.865
349.00	30.276
349.36	28.253
349.72	28.943
350.08	28.455
350.45	29.049
350.81	28.808
351.17	28.195
351.53	29.644
351.89	30.144
352.26	28.955
352.62	29.030
352.98	29.695
353.34	28.902
353.70	30.046
354.07	28.838
354.43	30.220
354.79	28.646
355.15	29.065
355.51	28.655
355.87	28.123
356.24	29.506
356.60	28.899
356.96	30.022
357.32	29.442
357.68	28.990
358.04	28.668
358.40	30.149
358.77	29.751
359.13	28.804
359.49	29.442
359.85	29.224
360.21	28.479
360.57	29.720
360.93	29.337
361.29	29.965
361.66	30.268
362.02	31.454
362.38	30.148
362.74	29.749
363.10	29.849
363.46	30.679
363.82	29.972
364.18	30.260
364.54	30.360
364.90	31.171
365.26	30.414
365.62	30.333
365.98	28.727
366.35	30.738
366.71	30.884
367.07	30.447
367.43	30.729
367.79	31.188
368.15	32.107
368.51	31.461
368.87	30.699
369.23	31.333
369.59	31.352
369.95	31.237
370.31	32.816
370.67	31.155
371.03	32.618
371.39	31.766
371.75	32.118
372.11	31.640
372.47	31.347
372.83	32.526
373.19	33.155
373.55	31.369
373.91	31.697
374.27	31.759
374.63	32.409
374.99	33.289
375.35	33.701
375.71	32.194
376.07	32.085
376.42	32.683
376.78	33.002
377.14	33.500
377.50	33.460
377.86	33.805
378.22	33.772
378.58	33.650
378.94	33.920
379.30	34.095
379.66	33.921
380.02	33.122
380.38	35.253
380.74	34.423
381.09	34.321
381.45	35.511
381.81	35.304
382.17	33.848
382.53	34.854
382.89	34.594
383.25	35.639
383.61	35.880
383.97	35.512
384.32	34.868
384.68	34.977
385.04	36.322
385.40	36.417
385.76	36.694
386.12	36.505
386.48	37.059
386.83	38.260
387.19	36.790
387.55	35.915
387.91	37.100
388.27	37.587
388.62	36.655
388.98	36.717
389.34	37.419
389.70	38.524
390.06	37.833
390.42	37.229
390.77	37.989
391.13	37.735
391.49	37.802
391.85	37.091
392.20	37.248
392.56	38.039
392.92	38.604
393.28	38.972
393.64	37.989
393.99	39.105
394.35	39.603
394.71	39.341
395.07	38.263
395.42	38.778
395.78	39.793
396.14	39.691
396.50	37.827
396.85	38.760
397.21	38.994
397.57	38.634
397.92	38.488
398.28	38.186
398.64	39.016
399.00	38.429
399.35	38.691
399.71	38.207
400.07	38.798
400.42	38.475
400.78	40.162
401.14	38.930
401.49	39.397
401.85	39.593
402.21	39.919
402.57	39.906
402.92	40.012
403.28	38.700
403.63	38.126
403.99	39.430
404.35	38.943
404.70	38.867
405.06	38.696
405.42	39.930
405.77	39.040
406.13	38.844
406.49	38.964
406.84	38.947
407.20	38.010
407.55	38.886
407.91	39.598
408.27	38.751
408.62	39.616
408.98	39.234
409.34	37.654
409.69	39.555
410.05	39.156
410.40	39.617
410.76	38.755
411.11	39.275
411.47	39.128
411.83	40.212
412.18	39.217
412.54	39.004
412.89	39.115
413.25	38.318
413.60	39.518
413.96	39.161
414.31	39.263
414.67	39.475
415.03	38.769
415.38	40.290
415.74	39.218
416.09	39.790
416.45	37.633
416.80	39.106
417.16	39.464
417.51	38.730
417.87	38.933
418.22	39.042
418.58	37.856
418.93	39.814
419.29	39.827
419.64	38.896
420.00	38.516
420.35	39.304
420.71	38.713
421.06	38.988
421.42	39.679
421.77	39.095
422.12	38.795
422.48	38.914
422.83	39.978
423.19	39.841
423.54	40.044
423.90	39.150
424.25	39.947
424.61	39.437
424.96	38.880
425.31	39.862
425.67	39.291
426.02	39.402
426.38	39.724
426.73	39.118
427.09	40.600
427.44	39.050
427.79	38.861
428.15	39.840
428.50	40.112
428.85	39.667
429.21	39.681
429.56	39.289
429.92	39.410
430.27	40.096
430.62	40.449
430.98	39.400
431.33	39.443
431.68	39.368
432.04	39.512
432.39	39.475
432.74	38.927
433.10	39.751
433.45	39.688
433.80	39.700
434.16	39.514
434.51	39.928
434.86	40.934
435.22	40.223
435.57	40.507
435.92	40.568
436.28	40.671
436.63	40.579
436.98	39.667
437.34	40.699
437.69	40.176
438.04	39.820
438.39	40.034
438.75	39.292
439.10	40.328
439.45	39.519
439.81	40.565
440.16	38.391
440.51	40.747
440.86	39.188
441.22	39.282
441.57	39.046
441.92	40.252
442.27	41.263
442.63	40.835
442.98	41.355
443.33	40.715
443.68	40.040
444.03	40.828
444.39	40.176
444.74	40.684
445.09	40.142
445.44	40.832
445.79	40.996
446.15	40.545
446.50	39.638
446.85	40.613
447.20	40.716
447.55	40.900
447.91	40.314
448.26	40.275
448.61	39.639
448.96	41.041
449.31	40.403
449.66	39.325
450.02	40.823
450.37	40.650
450.72	40.850
451.07	39.749
451.42	39.977
451.77	40.689
452.12	41.648
452.47	39.750
452.83	40.991
453.18	40.630
453.53	40.839
453.88	39.757
454.23	40.452
454.58	41.323
454.93	39.867
455.28	40.277
455.63	41.217
455.98	40.335
456.34	39.929
456.69	39.506
457.04	40.662
457.39	40.521
457.74	41.834
458.09	40.417
458.44	40.409
458.79	39.917
459.14	39.067
459.49	40.351
459.84	42.078
460.19	40.533
460.54	40.375
460.89	40.974
461.24	40.517
461.59	40.011
461.94	40.103
462.29	39.754
462.64	39.831
462.99	40.427
463.34	40.883
463.69	40.152
464.04	40.078
464.39	41.087
464.74	39.795
465.09	39.965
465.44	39.753
465.79	40.296
466.14	40.803
466.49	40.263
466.84	41.102
467.19	40.058
467.54	39.542
467.89	39.885
468.24	39.945
468.59	39.548
468.94	39.510
469.29	39.532
469.64	39.797
469.99	39.898
470.34	40.099
470.68	41.353
471.03	40.406
471.38	39.830
471.73	39.077
472.08	40.546
472.43	40.217
472.78	40.428
473.13	40.076
473.48	39.940
473.83	39.872
474.17	39.625
474.52	41.010
474.87	39.978
475.22	40.338
475.57	39.045
475.92	38.875
476.27	40.256
476.61	40.187
476.96	39.051
477.31	39.208
477.66	41.186
478.01	38.536
478.36	38.036
478.70	39.606
479.05	40.542
479.40	39.931
479.75	40.538
480.10	40.076
480.45	39.517
480.79	40.635
481.14	39.292
481.49	39.982
481.84	40.383
482.19	39.656
482.53	39.790
482.88	40.408
483.23	39.440
483.58	39.039
483.92	38.874
484.27	39.839
484.62	38.531
484.97	39.852
485.31	38.789
485.66	37.996
486.01	37.895
486.36	39.063
486.70	40.735
487.05	41.680
487.40	40.933
487.75	40.254
488.09	40.575
488.44	39.797
488.79	39.595
489.13	39.319
489.48	38.913
489.83	38.270
490.17	38.437
490.52	38.629
490.87	38.706
491.22	39.255
491.56	38.396
491.91	39.512
492.26	39.550
492.60	39.571
492.95	38.833
493.30	39.265
493.64	39.991
493.99	38.904
494.34	38.545
494.68	38.715
495.03	39.339
495.37	39.237
495.72	39.048
496.07	39.395
496.41	39.254
496.76	39.074
497.11	39.660
497.45	38.886
497.80	38.827
498.14	38.730
498.49	39.798
498.84	38.757
499.18	39.001
499.53	39.821
499.87	39.253
500.22	37.756
500.56	38.462
500.91	40.458
501.26	39.864
501.60	38.533
501.95	38.558
502.29	39.359
502.64	39.134
502.98	38.525
503.33	38.531
503.67	39.294
504.02	39.405
504.36	39.589
504.71	39.274
505.06	39.336
505.40	38.665
505.75	38.434
506.09	39.503
506.44	39.740
506.78	39.037
507.13	39.281
507.47	39.365
507.82	39.394
508.16	39.197
508.51	37.693
508.85	39.821
509.19	39.886
509.54	39.577
509.88	38.757
510.23	39.582
510.57	40.454
510.92	40.106
511.26	38.624
511.61	38.774
511.95	39.043
512.30	39.734
512.64	38.731
512.98	38.469
513.33	39.214
513.67	39.419
514.02	39.244
514.36	39.744
514.70	39.844
515.05	39.625
515.39	38.898
515.74	39.926
516.08	39.831
516.42	40.869
516.77	39.800
517.11	38.370
517.46	39.555
517.80	40.406
518.14	39.173
518.49	39.642
518.83	40.128
519.17	39.418
519.52	38.994
519.86	39.810
520.20	40.096
520.55	38.280
520.89	40.259
521.23	39.363
521.58	40.621
521.92	39.603
522.26	39.118
522.61	39.757
522.95	39.677
523.29	40.057
523.64	38.285
523.98	40.787
524.32	40.917
524.66	40.979
525.01	39.128
525.35	39.747
525.69	39.965
526.04	39.323
526.38	38.966
526.72	40.484
527.06	40.117
527.41	39.067
527.75	40.558
528.09	40.142
528.43	39.432
528.78	39.017
529.12	39.335
529.46	39.348
529.80	39.531
530.15	40.290
530.49	40.154
530.83	39.433
531.17	39.367
531.51	38.748
531.86	39.663
532.20	40.854
532.54	39.916
532.88	39.939
533.22	39.540
533.57	39.873
533.91	40.292
534.25	38.892
534.59	40.057
534.93	39.615
535.27	39.718
535.62	39.909
535.96	40.383
536.30	39.600
536.64	39.399
536.98	39.668
537.32	38.580
537.66	39.988
538.01	39.215
538.35	39.708
538.69	38.942
539.03	40.466
539.37	39.576
539.71	40.120
540.05	39.568
540.39	39.670
540.73	39.405
541.07	40.589
541.42	38.866
541.76	38.375
542.10	39.204
542.44	40.073
542.78	39.416
543.12	39.571
543.46	39.011
543.80	38.429
544.14	39.318
544.48	39.657
544.82	39.378
545.16	39.416
545.50	39.545
545.84	39.559
546.18	40.741
546.52	39.363
546.86	39.182
547.20	39.122
547.54	39.638
547.88	39.060
548.22	40.351
548.56	39.029
548.90	40.239
549.24	39.210
549.58	39.748
549.92	39.668
550.26	39.159
550.60	39.694
550.94	40.168
551.28	38.878
551.62	39.623
551.96	38.123
552.30	39.069
552.64	39.826
552.98	40.861
553.32	39.743
553.66	39.228
554.00	39.849
554.34	39.640
554.68	39.638
555.02	40.079
555.36	38.725
555.69	39.526
556.03	39.660
556.37	40.363
556.71	40.013
557.05	39.808
557.39	40.279
557.73	40.225
558.07	39.073
558.41	39.801
558.75	38.675
559.08	40.640
559.42	39.095
559.76	39.688
560.10	39.384
560.44	40.303
560.78	40.562
561.12	40.148
561.45	40.815
561.79	39.866
562.13	39.926
562.47	39.088
562.81	39.557
563.15	39.268
563.48	40.336
563.82	38.634
564.16	40.218
564.50	39.094
564.84	38.761
565.17	39.059
565.51	38.608
565.85	41.271
566.19	38.998
566.52	39.263
566.86	38.936
567.20	39.478
567.54	39.989
567.88	39.399
568.21	39.872
568.55	40.144
568.89	39.128
569.23	40.051
569.56	39.664
569.90	39.487
570.24	39.595
570.57	40.346
570.91	40.080
571.25	39.832
571.59	39.549
571.92	38.859
572.26	39.783
572.60	39.585
572.93	39.800
573.27	39.618
573.61	39.439
573.95	39.573
574.28	39.196
574.62	39.427
574.96	39.038
575.29	38.687
575.63	39.247
575.97	39.808
576.30	38.959
576.64	39.561
576.98	39.271
577.31	39.269
577.65	40.322
577.98	39.552
578.32	39.952
578.66	39.804
578.99	38.829
579.33	39.529
579.67	39.279
580.00	39.200
580.34	39.551
580.67	39.276
581.01	39.788
581.35	39.041
581.68	39.255
582.02	39.430
582.35	40.398
582.69	40.062
583.02	40.366
583.36	40.173
583.70	40.241
584.03	39.021
584.37	39.694
584.70	38.655
585.04	39.479
585.37	39.439
585.71	38.878
586.04	39.278
586.38	39.879
586.72	39.308
587.05	39.524
587.39	40.015
587.72	39.737
588.06	39.531
588.39	40.080
588.73	39.524
589.06	39.221
589.40	40.350
589.73	39.814
590.07	39.357
590.40	40.297
590.73	39.413
591.07	39.613
591.40	38.958
591.74	39.507
592.07	40.560
592.41	40.142
592.74	39.191
593.08	39.522
593.41	39.458
593.75	39.598
594.08	39.715
594.41	40.577
594.75	39.555
595.08	39.166
595.42	39.773
595.75	39.070
596.09	39.715
596.42	39.914
596.75	40.139
597.09	40.525
597.42	39.134
597.75	40.180
598.09	39.127
598.42	40.290
598.76	38.976
599.09	39.658
599.42	38.518
599.76	39.056
600.09	39.540
600.42	39.606
600.76	39.597
601.09	39.396
601.42	39.204
601.76	40.034
602.09	39.993
602.42	39.295
602.76	39.631
603.09	39.611
603.42	40.679
603.76	39.183
604.09	39.957
604.42	39.303
604.76	39.003
605.09	39.649
605.42	39.753
605.75	39.269
606.09	39.156
606.42	39.183
606.75	39.693
607.09	39.363
607.42	39.037
607.75	39.703
608.08	39.661
608.42	38.815
608.75	38.972
609.08	39.049
609.41	39.876
609.75	39.509
610.08	39.490
610.41	39.337
610.74	39.454
611.07	40.009
611.41	39.417
611.74	39.908
612.07	40.206
612.40	39.163
612.73	39.804
613.07	39.560
613.40	40.087
613.73	39.817
614.06	39.156
614.39	38.581
614.72	38.137
615.06	38.787
615.39	39.923
615.72	39.526
616.05	39.922
616.38	39.808
616.71	39.446
617.05	38.179
617.38	39.058
617.71	39.687
618.04	40.151
618.37	40.109
618.70	40.045
619.03	39.665
619.36	39.704
619.69	40.167
620.03	39.360
620.36	39.571
620.69	38.618
621.02	39.501
621.35	40.711
621.68	39.913
622.01	40.285
622.34	39.540
622.67	38.419
623.00	38.731
623.33	39.482
623.66	39.689
623.99	39.566
624.32	39.701
624.65	39.254
624.99	39.467
625.32	40.105
625.65	39.717
625.98	39.254
626.31	39.405
626.64	39.780
626.97	39.235
627.30	39.104
627.63	38.110
627.96	39.189
628.29	39.377
628.62	38.539
628.95	39.001
629.28	38.828
629.61	38.552
629.94	39.331
630.26	38.644
630.59	38.169
630.92	39.740
631.25	39.803
631.58	40.113
631.91	41.799
632.24	39.769
632.57	40.512
632.90	38.516
633.23	39.286
633.56	38.980
633.89	39.669
634.22	40.541
634.55	40.188
634.88	39.286
635.20	39.290
635.53	39.548
635.86	39.437
636.19	38.600
636.52	38.186
636.85	38.509
637.18	39.709
637.51	39.892
637.83	39.424
638.16	40.783
638.49	39.671
638.82	39.572
639.15	39.633
639.48	38.337
639.81	39.723
640.13	40.047
640.46	38.788
640.79	37.868
641.12	38.634
641.45	40.151
641.77	40.436
642.10	37.270
642.43	39.495
642.76	38.076
643.09	37.534
643.41	37.815
643.74	39.448
644.07	41.103
644.40	38.190
644.73	40.784
645.05	38.326
645.38	40.144
645.71	37.830
646.04	39.742
646.36	36.642
646.69	38.344
647.02	39.908
647.35	37.252
647.67	40.097
648.00	39.172
648.33	40.090
648.66	38.231
648.98	37.551
649.31	39.378
649.64	36.653
649.96	38.727
650.29	38.248
650.62	38.190
650.94	38.589
651.27	37.126
651.60	37.865
651.92	36.930
652.25	38.205
652.58	40.028
652.90	38.372
653.23	40.000
653.56	36.947
653.88	40.590
654.21	37.746
654.54	38.584
654.86	38.952
655.19	36.763
655.52	38.867
655.84	38.991
656.17	46.331
656.49	65.393
656.82	71.791
657.15	56.281
657.47	42.677
657.80	31.764
658.13	24.587
658.45	32.197
658.78	39.305
659.10	38.080
659.43	38.749
659.75	37.292
660.08	36.583
660.41	36.394
660.73	35.006
661.06	35.977
661.38	39.713
661.71	37.931
662.03	37.743
662.36	37.388
662.68	38.086
663.01	38.584
663.33	37.429
663.66	39.377
663.98	38.654
664.31	39.775
664.63	36.994
664.96	39.383
665.28	37.387
665.61	37.238
665.93	36.607
666.26	38.351
666.58	38.192
666.91	37.944
667.23	39.619
667.56	39.842
667.88	39.600
668.21	35.547
668.53	33.398
668.86	39.293
669.18	37.882
669.50	36.183
669.83	39.000
670.15	35.039
670.48	36.310
670.80	35.755
671.13	34.405
671.45	37.992
671.77	40.490
672.10	35.667
672.42	37.379
672.75	36.866
673.07	36.716
673.39	36.672
673.72	39.597
674.04	37.931
674.37	38.819
674.69	39.330
675.01	38.095
675.34	34.542
675.66	38.764
675.98	36.194
676.31	41.211
676.63	39.734
676.95	39.847
677.28	36.694
677.60	36.220
677.92	38.964
678.25	36.746
678.57	37.367
678.89	39.249
679.22	35.889
679.54	36.068
679.86	36.102
680.18	38.308
680.51	37.579
680.83	37.643
681.15	37.759
681.48	38.860
681.80	38.515
682.12	36.713
682.44	35.225
682.77	36.348
683.09	40.341
683.41	37.597
683.73	37.002
684.06	37.638
684.38	34.168
684.70	36.804
685.02	39.415
685.34	37.770
685.67	34.700
685.99	35.890
686.31	34.593
686.63	35.229
686.96	36.278
687.28	34.202
687.60	37.037
687.92	34.244
688.24	37.563
688.56	34.655
688.89	37.205
689.21	36.791
689.53	35.686
689.85	36.489
690.17	36.481
690.49	35.060
690.82	34.653
691.14	36.032
691.46	37.285
691.78	40.147
692.10	36.697
692.42	35.000
692.74	34.483
693.06	33.704
693.39	37.002
693.71	34.774
694.03	33.643
694.35	37.333
694.67	36.756
694.99	36.596
695.31	35.541
695.63	37.662
695.95	35.197
696.27	35.824
696.59	36.062
696.91	33.333
697.23	35.824
697.56	36.049
697.88	35.795
698.20	36.347
698.52	40.909
698.84	34.927
699.16	36.735
699.48	36.402
699.80	36.596
700.12	35.371
700.44	34.332
700.76	37.292
701.08	36.077
701.40	34.197
701.72	35.821
702.04	36.898
702.36	35.602
702.68	35.697
703.00	35.452
703.32	33.744
703.64	39.609
703.96	36.516
704.28	36.855
704.60	34.430
704.91	33.163
705.23	38.082
705.55	36.490
705.87	34.545
706.19	34.356
706.51	34.940
706.83	32.277
707.15	33.069
707.47	35.748
707.79	34.498
708.11	32.839
708.43	33.763
708.74	32.143
709.06	37.819
709.38	35.915
709.70	36.973
710.02	33.592
710.34	33.245
710.66	36.872
710.98	34.426
711.29	36.538
711.61	33.898
711.93	37.037
712.25	33.243
712.57	37.758
712.89	35.882
713.20	33.136
713.52	39.306
713.84	35.097
714.16	33.684
714.48	33.505
714.80	37.662
715.11	33.071
715.43	33.422
715.75	35.263
716.07	36.464
716.39	36.339
716.70	32.229
717.02	35.410
717.34	32.404
717.66	37.919
717.97	33.904
718.29	33.333
718.61	33.882
718.93	34.304
719.24	33.230
719.56	35.276
719.88	33.033
720.20	35.484
720.51	29.193
720.83	34.688
721.15	30.592
721.46	34.932
721.78	34.333
722.10	30.744
722.42	31.544
722.73	37.742
723.05	35.439
723.37	35.069
723.68	38.351
724.00	34.657
724.32	28.521
724.63	33.916
724.95	36.879
725.27	32.056
725.58	30.742
725.90	32.759
726.22	35.423
726.53	35.390
726.85	35.535
727.16	34.139
727.48	35.168
727.80	34.106
728.11	31.449
728.43	37.374
728.74	31.104
729.06	33.775
729.38	34.740
729.69	39.597
730.01	32.738
730.32	31.515
730.64	35.535
730.96	31.366
731.27	36.034
731.59	33.516
731.90	34.026
732.22	29.427
732.53	33.149
732.85	31.143
733.16	34.311
733.48	30.183
733.80	32.869
734.11	34.188
734.43	32.703
734.74	38.228
735.06	33.668
735.37	34.865
735.69	33.243
736.00	30.226
736.32	33.423
736.63	32.222
736.95	29.885
737.26	34.848
737.58	34.242
737.89	32.647
738.21	30.581
738.52	30.164
738.83	34.812
739.15	33.688
739.46	31.973
739.78	31.595
740.09	33.524
740.41	33.236
740.72	33.333
741.04	36.246
741.35	33.684
741.66	29.412
741.98	33.607
742.29	35.565
742.61	31.140
742.92	35.385
743.23	32.852
743.55	34.884
743.86	33.600
744.18	30.165
744.49	27.004
744.80	35.802
745.12	32.489
745.43	34.553
745.74	39.224
746.06	30.085
746.37	34.177
746.68	38.618
747.00	35.000
747.31	32.189
747.62	33.462
747.94	31.174
748.25	31.325
748.56	27.755
748.88	33.761
749.19	35.345
749.50	29.004
749.82	36.145
750.13	35.587
750.44	30.667
750.75	31.385
751.07	33.231
751.38	32.492
751.69	32.907
752.01	33.010
752.32	31.373
752.63	28.571
752.94	31.488
753.26	30.855
753.57	29.259
753.88	30.337
754.19	30.868
754.51	30.547
754.82	32.476
755.13	32.787
755.44	33.447
755.75	29.605
756.07	31.343
756.38	35.535
756.69	32.229
757.00	27.424
757.31	33.880
757.63	29.156
757.94	30.516
758.25	32.054
758.56	31.590
758.87	31.364
759.18	31.200
759.50	28.895
759.81	30.812
760.12	29.919
760.43	33.073
760.74	32.266
761.05	31.750
761.36	29.639
761.67	30.711
761.99	31.892
762.30	28.049
762.61	27.723
762.92	32.836
763.23	29.213
763.54	28.058
763.85	27.835
764.16	31.650
764.47	33.451
764.78	32.588
765.10	30.499
765.41	33.333
765.72	33.862
766.03	30.226
766.34	31.034
766.65	29.965
766.96	28.685
767.27	30.876
767.58	30.846
767.89	28.365
768.20	24.413
768.51	26.852
768.82	28.916
769.13	31.061
769.44	25.385
769.75	30.686
770.06	27.692
770.37	32.677
770.68	26.809
770.99	23.482
771.30	36.667
771.61	31.559
771.92	28.148
772.23	30.769
772.54	26.389
772.85	34.101
773.16	33.333
773.47	28.571
773.78	25.946
774.09	30.682
774.39	31.500
774.70	30.601
775.01	29.878
775.32	24.118
775.63	22.086
775.94	23.567
776.25	21.935
776.56	26.282
776.87	30.612
777.18	26.207
777.48	27.972
777.79	27.027
778.10	30.147
778.41	25.000
778.72	29.655
779.03	24.074
779.34	21.818
779.65	30.052
779.95	32.222
780.26	23.295
780.57	29.677
780.88	31.159
781.19	32.258
781.50	28.824
781.80	32.258
782.11	29.630
782.42	25.253
782.73	26.347
783.04	32.402
783.34	29.697
783.65	28.758
783.96	31.056
784.27	22.619
784.57	35.762
784.88	24.286
785.19	22.047
785.50	34.646
785.81	24.812
786.11	30.000
786.42	27.338
786.73	32.374
787.04	33.083
787.34	26.230
787.65	28.800
787.96	38.806
788.26	26.573
788.57	26.573
788.88	34.868
789.19	32.680
789.49	27.397
789.80	28.369
790.11	34.646
790.41	23.437
790.72	26.271
791.03	17.476
791.33	24.348
791.64	28.947
791.95	16.964
792.25	32.381
792.56	25.000
792.87	28.125
793.17	21.429
793.48	19.792
793.79	18.072
794.09	24.771
794.40	31.193
794.70	30.612
795.01	18.182
795.32	28.082
795.62	29.577
795.93	21.970
796.23	28.689
796.54	25.893
796.85	24.468
797.15	29.348
797.46	17.808
797.76	31.250
798.07	21.739
798.37	12.371
798.68	9.091
798.99	19.540
799.29	22.472
799.60	26.596
799.90	16.867
800.21	15.385
800.51	25.373
800.82	5.882
801.12	5.479
801.43	14.706
801.73	23.729
802.04	18.182
802.34	31.667
802.65	20.339
802.95	4.478
803.26	15.254
803.56	17.808
803.87	25.714
804.17	23.288
804.48	17.544
804.78	26.389
805.09	-5.172
805.39	14.865
805.70	9.859
806.00	19.512
806.30	31.325
806.61	10.959
806.91	17.308
807.22	31.111
807.52	22.989
807.83	29.167
808.13	36.145
808.43	13.483
808.74	25.000
809.04	14.706
809.35	21.333
809.65	35.714
809.95	16.438
810.26	19.298
810.56	25.862
810.86	39.706
811.17	17.544
811.47	3.279
811.77	26.667
812.08	28.814
812.38	28.333
812.69	13.793
812.99	13.208
813.29	-7.692
813.59	20.000
813.90	22.807
814.20	7.273
814.50	35.211
814.81	19.231
815.11	27.869
815.41	16.418
815.72	27.586
816.02	21.429
816.32	51.111
816.62	25.000
816.93	11.111
817.23	31.481
817.53	25.532
817.84	40.476
818.14	17.647
818.44	18.367
818.74	28.889
819.04	-7.692
819.35	2.857
819.65	0.000
819.95	7.547
820.25	28.889
820.56	33.333
820.86	15.625
821.16	7.692
821.46	-4.651
821.76	-8.000
822.07	7.143
822.37	8.696
822.67	19.149
822.97	-13.514
823.27	10.000
823.57	16.327
823.88	6.667
824.18	27.500
824.48	3.333
824.78	24.000
825.08	15.152
825.38	24.444
825.69	21.277
825.99	16.667
826.29	-14.286
826.59	0.000
826.89	6.977
827.19	-2.000
827.49	2.941
827.79	12.500
828.09	-27.027
828.39	3.333
828.70	19.512
829.00	4.651
829.30	21.429
829.60	32.353
829.90	34.783
830.20	-17.143
830.50	3.448
830.80	77.778
831.10	30.769
831.40	-8.824
831.70	0.000
832.00	41.935
832.30	-100.000
832.60	-8.333
832.90	-61.538
833.20	10.526
833.50	10.000
833.80	-15.789
834.10	-28.571
834.40	25.000
834.70	31.250
835.00	-17.143
835.30	8.824
835.60	-10.000
835.90	-40.000
836.20	-63.636
836.50	-8.000
836.80	-42.424
837.10	-44.444
837.40	-18.519
837.70	-81.250
838.00	32.143
838.30	-13.043
838.60	-31.034
838.90	-71.429
839.19	-86.957
839.49	-83.333
839.79	8.696
840.09	-50.000
840.39	-20.000
840.69	3.226
840.99	14.286
841.29	-13.333
841.59	5.263
841.88	25.641
842.18	-15.385
842.48	-140.000
842.78	-40.000
843.08	46.667
843.38	35.484
843.68	-33.333
843.97	8.824
844.27	-6.250
844.57	-5.263
844.87	-40.000
845.17	-26.667
845.47	52.381
845.76	14.286
846.06	0.000
846.36	-47.059
846.66	15.385
846.96	-66.667
847.25	-11.765
847.55	30.435
847.85	25.000
848.15	29.412
848.44	9.091
848.74	4.762
849.04	4.167
849.34	31.250
849.63	30.435
849.93	800.000
850.23	0.000
850.53	23.077
850.82	-27.273
851.12	18.182
851.42	-109.091
851.71	0.000
852.01	-45.000
852.31	-23.077
852.61	-36.842
852.90	-33.333
853.20	-33.333
853.50	-133.333
853.79	-4.762
854.09	-13.636
854.39	-33.333
854.68	-12.903
854.98	-23.077
855.28	-38.889
855.57	25.000
855.87	0.000
856.17	-13.636
856.46	48.148
856.76	-27.778
857.05	17.391
857.35	25.000
857.65	-38.462
857.94	66.667
858.24	29.630
858.53	43.478
858.83	5.882
859.13	17.647
859.42	-17.647
859.72	42.857
860.01	-5.000
860.31	-33.333
860.60	-30.000
860.90	-13.333
861.20	-38.889
861.49	-53.846
861.79	30.000
862.08	-23.077
862.38	28.125
862.67	-35.294
862.97	-25.000
863.26	-144.444
863.56	-20.000
863.85	-9.091
864.15	5.556
864.44	-300.000
864.74	57.143
865.03	-56.250
865.33	40.000
865.62	3.226
865.92	36.364
866.21	13.043
866.51	-28.571
866.80	-260.000
867.10	-16.667
867.39	-33.333
867.69	1200.000
867.98	-142.857
868.27	29.412
868.57	-900.000
868.86	-70.000
869.16	-4.762
869.45	-16.667
869.75	72.727
870.04	42.857
870.33	66.667
870.63	-271.429
870.92	125.000
871.22	-87.500
871.51	-45.455
871.80	-766.667
872.10	-600.000
>>>>>End Processed Spectral Data<<<<<
