SpectraSuite Data File
++++++++++++++++++++++++++++++++++++
Date: Thu May 14 14:57:37 PDT 2015
User: schluterlab
Dark Spectrum Present: Yes
Reference Spectrum Present: Yes
Number of Sampled Component Spectra: 1
Spectrometers: USB2E3373
Integration Time (usec): 3000 (USB2E3373)
Spectra Averaged: 3 (USB2E3373)
Boxcar Smoothing: 0 (USB2E3373)
Correct for Electrical Dark: No (USB2E3373)
Strobe/Lamp Enabled: No (USB2E3373)
Correct for Detector Non-linearity: No (USB2E3373)
Correct for Stray Light: No (USB2E3373)
Number of Pixels in Processed Spectrum: 2048
>>>>>Begin Processed Spectral Data<<<<<
178.53	0.000
178.91	314.286
179.29	-3400.000
179.67	-2300.000
180.04	292.857
180.42	270.000
180.80	480.000
181.18	-2300.000
181.56	-1700.000
181.94	475.000
182.31	-650.000
182.69	666.667
183.07	-800.000
183.45	575.000
183.83	-283.333
184.20	-733.333
184.58	2700.000
184.96	-475.000
185.34	-111.111
185.72	-300.000
186.09	411.111
186.47	1450.000
186.85	540.000
187.23	-277.778
187.61	-2000.000
187.98	440.000
188.36	500.000
188.74	-400.000
189.12	-600.000
189.49	-75.000
189.87	-200.000
190.25	-188.889
190.63	-420.000
191.00	-344.444
191.38	0.000
191.76	-700.000
192.14	-350.000
192.51	1100.000
192.89	-216.667
193.27	0.000
193.65	-300.000
194.02	-2700.000
194.40	-200.000
194.78	371.429
195.15	0.000
195.53	-72.727
195.91	0.000
196.29	-325.000
196.66	-115.385
197.04	-2700.000
197.42	-300.000
197.79	-750.000
198.17	-275.000
198.55	-442.857
198.92	-133.333
199.30	-287.500
199.68	-136.364
200.05	-7.143
200.43	-1450.000
200.81	285.714
201.18	0.000
201.56	433.333
201.94	0.000
202.31	400.000
202.69	-166.667
203.07	600.000
203.44	-200.000
203.82	-450.000
204.19	-116.667
204.57	-383.333
204.95	-237.500
205.32	-1500.000
205.70	325.000
206.08	-250.000
206.45	-400.000
206.83	600.000
207.20	-400.000
207.58	-520.000
207.96	-383.333
208.33	-250.000
208.71	175.000
209.08	-66.667
209.46	0.000
209.84	400.000
210.21	400.000
210.59	950.000
210.96	966.667
211.34	-550.000
211.71	-187.500
212.09	-2300.000
212.46	0.000
212.84	1550.000
213.22	-580.000
213.59	-525.000
213.97	-160.000
214.34	-766.667
214.72	400.000
215.09	-375.000
215.47	0.000
215.84	242.857
216.22	1350.000
216.59	-300.000
216.97	-380.000
217.34	-550.000
217.72	-312.500
218.09	-250.000
218.47	-700.000
218.84	0.000
219.22	500.000
219.59	-88.235
219.97	-50.000
220.34	1250.000
220.72	-133.333
221.09	-107.692
221.47	-466.667
221.84	-210.000
222.22	-342.857
222.59	0.000
222.97	-200.000
223.34	-300.000
223.72	-3100.000
224.09	-575.000
224.46	-450.000
224.84	-400.000
225.21	-457.143
225.59	-725.000
225.96	-600.000
226.34	-42.308
226.71	433.333
227.08	-950.000
227.46	-120.000
227.83	-525.000
228.21	-52.632
228.58	312.500
228.95	1300.000
229.33	-83.333
229.70	-220.000
230.08	-84.211
230.45	320.000
230.82	-633.333
231.20	-142.857
231.57	-83.333
231.95	-209.091
232.32	-163.636
232.69	-65.000
233.07	-700.000
233.44	-94.118
233.81	-250.000
234.19	-38.889
234.56	-109.091
234.93	-68.966
235.31	-110.526
235.68	-88.889
236.05	-165.000
236.43	-46.154
236.80	-40.000
237.17	-51.852
237.55	-12.121
237.92	-230.000
238.29	-67.742
238.67	-52.273
239.04	-63.889
239.41	-30.952
239.79	-47.826
240.16	-31.481
240.53	-28.261
240.91	-50.980
241.28	-16.393
241.65	0.000
242.02	-12.162
242.40	-29.231
242.77	-18.667
243.14	-29.268
243.51	-40.789
243.89	-33.333
244.26	-7.921
244.63	-8.824
245.00	-14.019
245.38	-14.912
245.75	-26.549
246.12	-15.079
246.49	-14.729
246.87	-4.286
247.24	-7.285
247.61	-7.895
247.98	-10.067
248.36	-11.111
248.73	-9.202
249.10	-7.650
249.47	-5.473
249.84	-4.188
250.22	-13.990
250.59	-11.111
250.96	-4.545
251.33	-12.755
251.70	-2.137
252.08	-6.250
252.45	-2.049
252.82	-5.372
253.19	-4.687
253.56	-6.084
253.94	-5.769
254.31	-3.788
254.68	-2.098
255.05	-3.257
255.42	-0.680
255.79	-5.825
256.16	-3.311
256.54	-5.629
256.91	-2.295
257.28	-4.918
257.65	-7.325
258.02	-5.605
258.39	-1.425
258.76	-0.612
259.14	-0.575
259.51	-2.594
259.88	-2.550
260.25	-2.778
260.62	0.548
260.99	-1.093
261.36	1.340
261.73	-5.305
262.10	-4.670
262.47	-0.804
262.85	0.000
263.22	-4.416
263.59	-7.368
263.96	-2.046
264.33	-4.348
264.70	-0.494
265.07	-1.909
265.44	0.227
265.81	-2.778
266.18	-0.680
266.55	-2.232
266.92	-3.645
267.29	-0.875
267.66	-1.552
268.03	-1.965
268.40	-0.626
268.77	-3.189
269.14	-1.322
269.51	-2.193
269.88	-0.410
270.25	-0.402
270.62	-2.321
270.99	0.404
271.36	1.386
271.73	-2.554
272.10	0.200
272.47	-1.002
272.84	-0.201
273.21	-1.804
273.58	-1.008
273.95	-1.346
274.32	-2.471
274.69	-3.482
275.06	0.000
275.43	-2.033
275.80	1.411
276.17	-1.296
276.54	-2.612
276.91	-1.789
277.28	-2.170
277.65	0.539
278.02	-0.368
278.39	-0.543
278.76	-0.351
279.13	-0.177
279.50	-1.546
279.87	-0.179
280.23	-2.113
280.60	-0.339
280.97	-1.480
281.34	-0.340
281.71	1.015
282.08	-0.664
282.45	0.164
282.82	-0.628
283.19	-3.393
283.56	-2.623
283.92	1.652
284.29	0.948
284.66	-0.328
285.03	-1.763
285.40	0.000
285.77	-0.929
286.14	0.763
286.51	-0.913
286.87	-1.264
287.24	0.602
287.61	-1.345
287.98	-1.360
288.35	0.000
288.72	-1.627
289.08	-0.439
289.45	-0.296
289.82	-0.602
290.19	-1.006
290.56	0.704
290.93	0.000
291.29	-0.826
291.66	-0.826
292.03	-0.678
292.40	0.544
292.77	0.000
293.13	1.083
293.50	-1.183
293.87	-0.805
294.24	0.800
294.60	0.632
294.97	-0.268
295.34	0.768
295.71	0.883
296.08	0.904
296.44	-0.735
296.81	-0.122
297.18	-1.245
297.55	-0.708
297.91	-0.712
298.28	-0.711
298.65	0.000
299.02	-0.354
299.38	0.458
299.75	0.350
300.12	-1.736
300.48	-0.115
300.85	0.900
301.22	0.336
301.59	0.000
301.95	0.678
302.32	1.778
302.69	0.110
303.05	0.762
303.42	0.443
303.79	1.667
304.15	-0.210
304.52	-0.317
304.89	0.733
305.25	0.104
305.62	0.627
305.99	2.165
306.35	0.101
306.72	1.138
307.09	1.218
307.45	1.346
307.82	1.312
308.19	1.413
308.55	2.314
308.92	0.779
309.29	2.682
309.65	0.877
310.02	0.099
310.38	1.378
310.75	2.330
311.12	2.972
311.48	2.248
311.85	2.849
312.22	2.941
312.58	2.723
312.95	2.390
313.31	3.252
313.68	3.297
314.05	3.794
314.41	4.098
314.78	4.360
315.14	4.537
315.51	5.263
315.87	4.860
316.24	4.018
316.61	4.973
316.97	3.891
317.34	5.820
317.70	6.638
318.07	6.085
318.43	7.398
318.80	7.525
319.16	6.094
319.53	6.084
319.89	6.310
320.26	8.363
320.62	7.624
320.99	7.849
321.35	8.133
321.72	9.953
322.08	9.107
322.45	9.214
322.81	9.206
323.18	10.177
323.54	10.431
323.91	12.011
324.27	12.392
324.64	13.266
325.00	11.774
325.37	13.514
325.73	14.380
326.10	15.085
326.46	15.309
326.83	16.974
327.19	16.535
327.56	17.233
327.92	16.208
328.29	18.065
328.65	18.844
329.01	18.359
329.38	18.197
329.74	21.147
330.11	20.548
330.47	20.556
330.84	21.016
331.20	21.750
331.56	21.404
331.93	22.343
332.29	21.525
332.66	23.339
333.02	21.943
333.38	22.483
333.75	24.327
334.11	24.103
334.48	23.762
334.84	23.704
335.20	23.006
335.57	23.862
335.93	22.727
336.29	23.794
336.66	24.390
337.02	23.662
337.38	24.745
337.75	23.884
338.11	23.633
338.47	23.656
338.84	24.027
339.20	23.926
339.56	23.888
339.93	23.563
340.29	23.188
340.65	24.169
341.02	24.741
341.38	23.686
341.74	23.325
342.11	25.422
342.47	22.716
342.83	24.960
343.20	24.693
343.56	24.619
343.92	24.179
344.28	24.141
344.65	24.186
345.01	23.011
345.37	24.028
345.73	24.240
346.10	24.181
346.46	22.864
346.82	24.045
347.19	23.988
347.55	24.810
347.91	23.328
348.27	23.520
348.63	24.219
349.00	24.012
349.36	24.015
349.72	23.810
350.08	24.443
350.45	23.954
350.81	23.982
351.17	23.985
351.53	24.640
351.89	24.146
352.26	22.687
352.62	24.627
352.98	24.427
353.34	24.272
353.70	24.884
354.07	24.069
354.43	24.070
354.79	23.785
355.15	23.547
355.51	24.196
355.87	24.607
356.24	25.399
356.60	24.021
356.96	23.795
357.32	23.346
357.68	23.499
358.04	24.551
358.40	23.881
358.77	25.073
359.13	24.668
359.49	23.197
359.85	24.438
360.21	24.892
360.57	24.192
360.93	24.894
361.29	24.351
361.66	25.054
362.02	25.539
362.38	24.596
362.74	24.930
363.10	25.172
363.46	24.654
363.82	24.645
364.18	24.701
364.54	25.311
364.90	24.682
365.26	24.690
365.62	25.133
365.98	25.391
366.35	26.040
366.71	26.122
367.07	25.710
367.43	25.148
367.79	25.680
368.15	26.221
368.51	24.899
368.87	25.343
369.23	25.467
369.59	25.615
369.95	25.355
370.31	27.346
370.67	25.447
371.03	25.069
371.39	25.856
371.75	26.616
372.11	26.558
372.47	26.134
372.83	26.113
373.19	26.084
373.55	26.626
373.91	26.789
374.27	26.714
374.63	27.199
374.99	25.862
375.35	26.818
375.71	27.097
376.07	27.502
376.42	27.456
376.78	28.278
377.14	27.823
377.50	27.008
377.86	27.525
378.22	27.425
378.58	28.062
378.94	28.462
379.30	27.709
379.66	28.042
380.02	27.813
380.38	28.859
380.74	28.000
381.09	27.875
381.45	28.239
381.81	29.274
382.17	29.038
382.53	29.415
382.89	28.555
383.25	29.484
383.61	29.051
383.97	29.329
384.32	30.203
384.68	27.726
385.04	29.902
385.40	30.112
385.76	30.539
386.12	29.025
386.48	30.118
386.83	30.751
387.19	29.432
387.55	29.812
387.91	30.537
388.27	30.716
388.62	30.813
388.98	30.457
389.34	30.407
389.70	31.028
390.06	30.255
390.42	30.060
390.77	31.487
391.13	30.282
391.49	30.737
391.85	31.273
392.20	30.902
392.56	30.774
392.92	31.189
393.28	31.012
393.64	31.061
393.99	31.261
394.35	30.315
394.71	31.078
395.07	31.018
395.42	30.840
395.78	31.749
396.14	31.373
396.50	31.295
396.85	31.008
397.21	30.710
397.57	30.978
397.92	32.016
398.28	31.668
398.64	32.094
399.00	30.890
399.35	32.670
399.71	31.739
400.07	32.678
400.42	31.956
400.78	32.407
401.14	32.499
401.49	32.973
401.85	33.372
402.21	33.140
402.57	33.568
402.92	32.329
403.28	31.616
403.63	32.160
403.99	32.720
404.35	31.666
404.70	32.465
405.06	32.391
405.42	32.260
405.77	33.370
406.13	32.793
406.49	33.164
406.84	33.352
407.20	32.979
407.55	33.313
407.91	33.438
408.27	32.980
408.62	33.973
408.98	33.662
409.34	33.372
409.69	34.487
410.05	33.177
410.40	33.469
410.76	33.483
411.11	34.366
411.47	34.275
411.83	33.216
412.18	34.277
412.54	33.017
412.89	33.993
413.25	34.086
413.60	34.922
413.96	34.033
414.31	34.618
414.67	34.049
415.03	34.031
415.38	35.372
415.74	34.942
416.09	35.287
416.45	34.314
416.80	34.272
417.16	35.568
417.51	36.301
417.87	34.948
418.22	35.269
418.58	35.440
418.93	35.332
419.29	35.573
419.64	36.074
420.00	35.312
420.35	36.047
420.71	36.071
421.06	36.630
421.42	36.411
421.77	35.918
422.12	36.152
422.48	37.686
422.83	38.335
423.19	37.294
423.54	38.772
423.90	36.775
424.25	38.080
424.61	38.175
424.96	37.836
425.31	37.527
425.67	37.896
426.02	38.240
426.38	38.289
426.73	37.388
427.09	40.023
427.44	37.957
427.79	38.972
428.15	38.813
428.50	39.663
428.85	39.093
429.21	39.521
429.56	39.635
429.92	39.115
430.27	39.470
430.62	40.010
430.98	40.089
431.33	40.469
431.68	39.416
432.04	41.138
432.39	40.761
432.74	39.726
433.10	39.968
433.45	39.465
433.80	39.646
434.16	40.186
434.51	41.624
434.86	42.617
435.22	41.711
435.57	40.566
435.92	42.181
436.28	40.899
436.63	43.091
436.98	41.385
437.34	42.334
437.69	41.992
438.04	41.301
438.39	41.470
438.75	41.339
439.10	42.389
439.45	43.264
439.81	42.260
440.16	43.164
440.51	42.642
440.86	41.301
441.22	41.479
441.57	43.134
441.92	42.726
442.27	43.586
442.63	42.772
442.98	43.223
443.33	43.398
443.68	43.954
444.03	43.086
444.39	43.782
444.74	43.798
445.09	43.842
445.44	44.468
445.79	44.301
446.15	43.782
446.50	44.186
446.85	43.239
447.20	43.714
447.55	43.724
447.91	43.770
448.26	44.239
448.61	44.261
448.96	44.850
449.31	44.380
449.66	43.845
450.02	43.724
450.37	44.379
450.72	44.941
451.07	45.729
451.42	44.772
451.77	44.636
452.12	45.034
452.47	45.039
452.83	45.552
453.18	45.126
453.53	46.065
453.88	43.954
454.23	45.254
454.58	45.328
454.93	45.752
455.28	46.598
455.63	45.594
455.98	45.419
456.34	46.172
456.69	45.855
457.04	46.336
457.39	45.067
457.74	46.309
458.09	45.470
458.44	46.013
458.79	44.714
459.14	44.520
459.49	44.992
459.84	46.747
460.19	45.697
460.54	46.735
460.89	47.380
461.24	45.862
461.59	45.877
461.94	44.552
462.29	46.585
462.64	45.142
462.99	45.888
463.34	46.723
463.69	45.076
464.04	46.804
464.39	45.684
464.74	45.952
465.09	45.732
465.44	45.815
465.79	45.479
466.14	45.753
466.49	44.368
466.84	46.997
467.19	46.301
467.54	45.535
467.89	45.115
468.24	46.482
468.59	45.397
468.94	45.221
469.29	45.471
469.64	46.090
469.99	46.335
470.34	46.720
470.68	46.890
471.03	45.776
471.38	45.389
471.73	45.514
472.08	46.320
472.43	45.575
472.78	46.222
473.13	46.271
473.48	45.136
473.83	46.257
474.17	46.190
474.52	47.565
474.87	46.179
475.22	46.085
475.57	46.989
475.92	45.694
476.27	47.231
476.61	46.106
476.96	47.132
477.31	47.327
477.66	48.111
478.01	46.619
478.36	46.012
478.70	45.862
479.05	47.342
479.40	46.742
479.75	46.158
480.10	46.045
480.45	46.445
480.79	46.667
481.14	45.772
481.49	46.706
481.84	45.735
482.19	46.753
482.53	46.830
482.88	46.256
483.23	47.265
483.58	47.074
483.92	45.789
484.27	46.444
484.62	45.215
484.97	46.306
485.31	45.055
485.66	42.209
486.01	42.678
486.36	45.064
486.70	46.885
487.05	48.594
487.40	47.156
487.75	47.074
488.09	47.056
488.44	44.852
488.79	44.924
489.13	45.909
489.48	44.777
489.83	45.956
490.17	45.727
490.52	45.567
490.87	46.066
491.22	46.231
491.56	45.904
491.91	45.573
492.26	46.127
492.60	46.305
492.95	46.117
493.30	45.988
493.64	47.350
493.99	47.018
494.34	45.688
494.68	46.124
495.03	46.211
495.37	46.605
495.72	46.939
496.07	46.100
496.41	45.517
496.76	46.247
497.11	46.412
497.45	46.957
497.80	46.291
498.14	46.259
498.49	46.599
498.84	46.344
499.18	46.154
499.53	46.771
499.87	46.242
500.22	46.438
500.56	46.829
500.91	45.767
501.26	46.818
501.60	46.133
501.95	46.287
502.29	46.731
502.64	46.961
502.98	45.945
503.33	45.227
503.67	45.835
504.02	45.841
504.36	47.051
504.71	46.256
505.06	46.794
505.40	46.024
505.75	46.448
506.09	46.915
506.44	46.982
506.78	46.422
507.13	45.505
507.47	46.234
507.82	46.307
508.16	46.272
508.51	46.085
508.85	46.339
509.19	46.187
509.54	46.590
509.88	46.576
510.23	46.576
510.57	47.318
510.92	46.396
511.26	46.176
511.61	45.727
511.95	46.755
512.30	46.480
512.64	46.627
512.98	45.373
513.33	46.875
513.67	46.150
514.02	47.317
514.36	45.985
514.70	47.031
515.05	45.985
515.39	46.772
515.74	46.713
516.08	46.646
516.42	47.462
516.77	46.845
517.11	46.209
517.46	46.978
517.80	47.942
518.14	47.769
518.49	46.909
518.83	45.024
519.17	46.311
519.52	46.436
519.86	46.727
520.20	45.527
520.55	45.893
520.89	47.072
521.23	46.790
521.58	48.475
521.92	46.686
522.26	46.793
522.61	47.743
522.95	45.905
523.29	46.494
523.64	46.525
523.98	47.404
524.32	48.711
524.66	46.955
525.01	46.602
525.35	45.836
525.69	46.346
526.04	45.924
526.38	46.322
526.72	45.617
527.06	47.155
527.41	45.539
527.75	47.387
528.09	46.281
528.43	46.063
528.78	45.665
529.12	46.216
529.46	45.306
529.80	46.682
530.15	45.681
530.49	45.136
530.83	46.281
531.17	45.460
531.51	44.645
531.86	46.214
532.20	45.244
532.54	45.302
532.88	46.000
533.22	44.490
533.57	45.528
533.91	44.781
534.25	45.336
534.59	45.690
534.93	43.916
535.27	43.944
535.62	45.878
535.96	46.775
536.30	44.830
536.64	45.586
536.98	45.510
537.32	45.556
537.66	45.727
538.01	44.592
538.35	43.910
538.69	45.312
539.03	44.880
539.37	43.993
539.71	46.066
540.05	44.424
540.39	43.949
540.73	43.777
541.07	44.022
541.42	44.300
541.76	43.238
542.10	44.391
542.44	44.336
542.78	43.796
543.12	43.623
543.46	43.407
543.80	43.825
544.14	43.028
544.48	43.440
544.82	44.584
545.16	43.769
545.50	44.098
545.84	43.601
546.18	44.630
546.52	43.439
546.86	43.585
547.20	43.321
547.54	42.135
547.88	42.435
548.22	42.164
548.56	43.476
548.90	43.821
549.24	43.161
549.58	42.965
549.92	42.921
550.26	43.560
550.60	42.183
550.94	43.661
551.28	43.168
551.62	42.925
551.96	41.165
552.30	43.658
552.64	43.124
552.98	42.296
553.32	43.537
553.66	42.122
554.00	42.497
554.34	41.763
554.68	42.092
555.02	42.050
555.36	42.801
555.69	42.473
556.03	40.731
556.37	41.615
556.71	42.042
557.05	42.109
557.39	40.743
557.73	41.678
558.07	41.589
558.41	42.193
558.75	43.408
559.08	42.797
559.42	41.838
559.76	41.180
560.10	41.393
560.44	40.633
560.78	41.062
561.12	42.057
561.45	42.214
561.79	41.575
562.13	41.035
562.47	39.519
562.81	40.696
563.15	39.710
563.48	40.771
563.82	40.750
564.16	40.097
564.50	39.869
564.84	39.705
565.17	39.176
565.51	38.895
565.85	38.420
566.19	37.961
566.52	39.789
566.86	39.389
567.20	38.227
567.54	39.671
567.88	39.908
568.21	38.439
568.55	39.616
568.89	38.765
569.23	38.572
569.56	38.492
569.90	37.527
570.24	36.863
570.57	37.300
570.91	36.344
571.25	36.795
571.59	36.710
571.92	37.020
572.26	36.845
572.60	36.992
572.93	36.209
573.27	36.696
573.61	36.183
573.95	35.421
574.28	35.389
574.62	35.243
574.96	35.090
575.29	35.250
575.63	35.089
575.97	35.569
576.30	34.592
576.64	34.837
576.98	34.670
577.31	35.370
577.65	34.771
577.98	34.657
578.32	33.958
578.66	34.508
578.99	34.426
579.33	34.838
579.67	34.701
580.00	34.120
580.34	33.944
580.67	33.981
581.01	34.487
581.35	33.645
581.68	33.913
582.02	33.567
582.35	34.117
582.69	34.502
583.02	34.349
583.36	34.997
583.70	34.379
584.03	34.101
584.37	33.745
584.70	33.252
585.04	33.504
585.37	33.230
585.71	33.182
586.04	32.959
586.38	33.403
586.72	33.367
587.05	33.333
587.39	33.508
587.72	33.469
588.06	33.221
588.39	33.109
588.73	32.778
589.06	33.634
589.40	33.712
589.73	33.612
590.07	33.654
590.40	33.232
590.73	33.934
591.07	33.917
591.40	33.243
591.74	33.188
592.07	33.171
592.41	32.650
592.74	32.410
593.08	32.962
593.41	33.071
593.75	33.103
594.08	32.869
594.41	32.981
594.75	32.116
595.08	32.402
595.42	32.597
595.75	32.289
596.09	32.938
596.42	32.999
596.75	32.883
597.09	32.566
597.42	31.983
597.75	32.144
598.09	31.984
598.42	32.489
598.76	30.837
599.09	31.328
599.42	31.445
599.76	31.727
600.09	31.532
600.42	31.431
600.76	31.440
601.09	31.198
601.42	30.896
601.76	31.517
602.09	31.237
602.42	31.080
602.76	31.255
603.09	30.323
603.42	31.322
603.76	30.726
604.09	31.476
604.42	31.046
604.76	31.164
605.09	30.874
605.42	31.021
605.75	30.231
606.09	30.982
606.42	30.500
606.75	30.735
607.09	30.223
607.42	30.405
607.75	30.559
608.08	29.400
608.42	30.351
608.75	30.473
609.08	29.796
609.41	30.922
609.75	30.179
610.08	31.266
610.41	30.289
610.74	30.630
611.07	30.817
611.41	30.897
611.74	30.762
612.07	30.108
612.40	29.420
612.73	30.709
613.07	29.682
613.40	30.221
613.73	29.658
614.06	29.244
614.39	29.640
614.72	29.306
615.06	29.355
615.39	28.855
615.72	29.621
616.05	29.675
616.38	30.525
616.71	30.251
617.05	29.180
617.38	29.802
617.71	30.022
618.04	30.221
618.37	30.055
618.70	29.412
619.03	29.928
619.36	29.346
619.69	29.404
620.03	29.316
620.36	29.141
620.69	29.426
621.02	29.724
621.35	30.479
621.68	29.935
622.01	28.683
622.34	29.219
622.67	29.897
623.00	27.530
623.33	29.662
623.66	29.183
623.99	28.242
624.32	29.565
624.65	28.636
624.99	29.649
625.32	29.654
625.65	29.467
625.98	29.966
626.31	28.703
626.64	29.084
626.97	29.182
627.30	27.942
627.63	29.557
627.96	29.505
628.29	28.482
628.62	28.044
628.95	29.798
629.28	29.822
629.61	28.704
629.94	28.452
630.26	28.390
630.59	28.843
630.92	28.745
631.25	29.785
631.58	29.284
631.91	28.960
632.24	29.875
632.57	29.127
632.90	28.586
633.23	29.184
633.56	30.204
633.89	27.686
634.22	29.938
634.55	28.184
634.88	28.571
635.20	29.817
635.53	28.927
635.86	28.927
636.19	28.420
636.52	29.325
636.85	26.966
637.18	28.794
637.51	28.172
637.83	28.904
638.16	29.147
638.49	29.460
638.82	28.298
639.15	27.721
639.48	30.370
639.81	28.060
640.13	28.975
640.46	25.697
640.79	28.554
641.12	27.578
641.45	29.611
641.77	29.653
642.10	27.822
642.43	29.388
642.76	27.507
643.09	29.041
643.41	28.852
643.74	27.172
644.07	31.172
644.40	26.025
644.73	26.851
645.05	28.194
645.38	27.914
645.71	28.739
646.04	28.264
646.36	26.423
646.69	27.147
647.02	29.052
647.35	30.382
647.67	27.536
648.00	27.866
648.33	26.727
648.66	27.247
648.98	26.803
649.31	26.116
649.64	26.693
649.96	25.729
650.29	25.313
650.62	26.591
650.94	25.075
651.27	24.701
651.60	24.854
651.92	26.596
652.25	27.352
652.58	26.547
652.90	26.599
653.23	27.324
653.56	25.107
653.88	27.949
654.21	25.211
654.54	26.590
654.86	24.646
655.19	23.839
655.52	25.778
655.84	23.628
656.17	27.602
656.49	38.528
656.82	42.046
657.15	33.169
657.47	25.299
657.80	18.804
658.13	14.545
658.45	19.057
658.78	22.778
659.10	22.037
659.43	20.916
659.75	20.673
660.08	19.720
660.41	21.919
660.73	22.007
661.06	21.880
661.38	24.402
661.71	25.517
662.03	24.339
662.36	25.045
662.68	23.265
663.01	24.425
663.33	24.386
663.66	27.839
663.98	24.423
664.31	24.765
664.63	23.892
664.96	25.590
665.28	23.775
665.61	26.748
665.93	25.893
666.26	23.835
666.58	24.539
666.91	26.729
667.23	26.476
667.56	26.233
667.88	26.000
668.21	25.195
668.53	21.622
668.86	24.558
669.18	21.792
669.50	23.260
669.83	22.800
670.15	23.622
670.48	26.587
670.80	24.665
671.13	24.386
671.45	24.606
671.77	24.482
672.10	21.167
672.42	22.168
672.75	21.198
673.07	23.433
673.39	22.804
673.72	25.336
674.04	24.310
674.37	24.329
674.69	23.457
675.01	23.810
675.34	19.847
675.66	23.970
675.98	23.507
676.31	24.414
676.63	23.764
676.95	25.479
677.28	23.387
677.60	19.094
677.92	23.417
678.25	23.766
678.57	25.623
678.89	23.720
679.22	21.603
679.54	20.513
679.86	20.508
680.18	22.388
680.51	21.698
680.83	23.077
681.15	21.207
681.48	22.453
681.80	22.453
682.12	23.252
682.44	20.200
682.77	20.922
683.09	21.591
683.41	21.124
683.73	22.581
684.06	21.218
684.38	20.036
684.70	23.160
685.02	23.924
685.34	18.636
685.67	20.662
685.99	20.092
686.31	21.076
686.63	19.905
686.96	20.978
687.28	20.684
687.60	21.380
687.92	19.453
688.24	21.536
688.56	19.483
688.89	22.142
689.21	21.918
689.53	20.588
689.85	18.343
690.17	20.000
690.49	19.323
690.82	19.802
691.14	19.433
691.46	20.650
691.78	20.994
692.10	18.349
692.42	19.107
692.74	19.056
693.06	19.444
693.39	21.063
693.71	18.797
694.03	20.818
694.35	20.381
694.67	19.507
694.99	20.000
695.31	18.543
695.63	20.779
695.95	18.841
696.27	20.440
696.59	19.469
696.91	21.622
697.23	22.857
697.56	19.756
697.88	19.886
698.20	22.411
698.52	19.886
698.84	18.919
699.16	23.673
699.48	19.247
699.80	21.064
700.12	19.214
700.44	19.816
700.76	19.477
701.08	20.581
701.40	20.725
701.72	20.149
702.04	20.588
702.36	18.848
702.68	18.337
703.00	18.582
703.32	17.241
703.64	21.027
703.96	20.525
704.28	18.428
704.60	20.506
704.91	16.071
705.23	21.918
705.55	16.713
705.87	21.212
706.19	19.632
706.51	16.566
706.83	14.121
707.15	16.931
707.47	16.822
707.79	16.594
708.11	14.831
708.43	17.634
708.74	16.518
709.06	16.937
709.38	17.606
709.70	20.844
710.02	18.863
710.34	21.011
710.66	17.039
710.98	16.940
711.29	14.011
711.61	19.209
711.93	16.809
712.25	16.757
712.57	21.239
712.89	17.941
713.20	15.089
713.52	17.630
713.84	16.992
714.16	17.895
714.48	16.237
714.80	19.740
715.11	17.848
715.43	14.324
715.75	19.211
716.07	15.746
716.39	13.934
716.70	15.964
717.02	13.443
717.34	11.498
717.66	14.765
717.97	12.329
718.29	15.464
718.61	18.092
718.93	15.858
719.24	17.702
719.56	15.644
719.88	14.114
720.20	16.129
720.51	17.081
720.83	14.688
721.15	17.763
721.46	13.356
721.78	14.333
722.10	11.003
722.42	12.416
722.73	16.129
723.05	15.088
723.37	16.667
723.68	15.771
724.00	14.079
724.32	12.676
724.63	12.587
724.95	17.376
725.27	13.937
725.58	10.247
725.90	15.172
726.22	15.987
726.53	16.883
726.85	16.038
727.16	14.502
727.48	16.208
727.80	15.894
728.11	12.367
728.43	14.478
728.74	13.712
729.06	12.583
729.38	14.610
729.69	16.443
730.01	12.798
730.32	11.818
730.64	14.465
730.96	12.112
731.27	18.994
731.59	16.484
731.90	14.545
732.22	13.281
732.53	11.050
732.85	12.286
733.16	14.663
733.48	11.890
733.80	13.370
734.11	13.105
734.43	14.865
734.74	15.190
735.06	13.065
735.37	15.135
735.69	14.865
736.00	13.559
736.32	13.208
736.63	12.222
736.95	12.069
737.26	13.333
737.58	15.152
737.89	16.176
738.21	7.034
738.52	12.459
738.83	15.017
739.15	14.184
739.46	12.245
739.78	12.577
740.09	14.327
740.41	11.953
740.72	13.667
741.04	12.621
741.35	15.789
741.66	12.549
741.98	13.115
742.29	15.063
742.61	13.158
742.92	11.154
743.23	10.830
743.55	10.078
743.86	8.800
744.18	4.959
744.49	11.814
744.80	16.461
745.12	5.907
745.43	10.569
745.74	13.793
746.06	7.203
746.37	13.502
746.68	16.667
747.00	11.667
747.31	9.871
747.62	12.308
747.94	11.741
748.25	10.040
748.56	5.306
748.88	9.829
749.19	12.069
749.50	6.926
749.82	12.450
750.13	16.726
750.44	11.000
750.75	13.538
751.07	13.538
751.38	11.041
751.69	15.655
752.01	12.945
752.32	12.418
752.63	11.224
752.94	11.073
753.26	7.063
753.57	12.222
753.88	11.610
754.19	9.003
754.51	13.826
754.82	12.862
755.13	13.115
755.44	9.215
755.75	12.829
756.07	15.821
756.38	11.635
756.69	12.349
757.00	9.141
757.31	10.656
757.63	9.719
757.94	12.676
758.25	13.093
758.56	13.943
758.87	14.773
759.18	13.067
759.50	13.881
759.81	11.765
760.12	11.860
760.43	10.156
760.74	13.300
761.05	12.250
761.36	12.771
761.67	9.898
761.99	12.973
762.30	13.720
762.61	9.571
762.92	12.687
763.23	11.985
763.54	12.230
763.85	10.997
764.16	11.448
764.47	9.155
764.78	15.016
765.10	11.144
765.41	14.615
765.72	9.259
766.03	10.452
766.34	12.226
766.65	8.711
766.96	7.968
767.27	10.599
767.58	0.995
767.89	11.538
768.20	11.737
768.51	9.259
768.82	8.835
769.13	9.091
769.44	6.538
769.75	10.108
770.06	8.462
770.37	10.236
770.68	4.681
770.99	6.073
771.30	13.333
771.61	10.646
771.92	10.000
772.23	8.502
772.54	3.704
772.85	10.138
773.16	11.905
773.47	4.233
773.78	4.865
774.09	4.545
774.39	8.000
774.70	4.918
775.01	4.878
775.32	0.588
775.63	11.656
775.94	-1.274
776.25	3.226
776.56	12.179
776.87	8.163
777.18	4.138
777.48	9.091
777.79	10.811
778.10	4.412
778.41	2.083
778.72	6.897
779.03	5.556
779.34	0.000
779.65	7.772
779.95	4.444
780.26	7.955
780.57	2.581
780.88	6.522
781.19	7.097
781.50	11.176
781.80	10.753
782.11	3.175
782.42	2.525
782.73	-1.198
783.04	5.028
783.34	-1.212
783.65	-3.922
783.96	-1.863
784.27	4.762
784.57	-7.947
784.88	1.429
785.19	3.150
785.50	0.000
785.81	6.015
786.11	5.385
786.42	-3.597
786.73	2.158
787.04	1.504
787.34	4.098
787.65	0.000
787.96	0.746
788.26	7.692
788.57	9.790
788.88	4.605
789.19	5.882
789.49	0.000
789.80	1.418
790.11	0.000
790.41	0.781
790.72	6.780
791.03	-8.738
791.33	-3.478
791.64	1.754
791.95	-5.357
792.25	5.714
792.56	0.893
792.87	-11.458
793.17	1.786
793.48	-8.333
793.79	-9.639
794.09	-8.257
794.40	-3.670
794.70	1.361
795.01	5.195
795.32	-0.685
795.62	7.042
795.93	-5.303
796.23	1.639
796.54	4.464
796.85	-4.255
797.15	-1.087
797.46	-19.178
797.76	-20.000
798.07	0.000
798.37	-13.402
798.68	-23.377
798.99	-2.299
799.29	-1.124
799.60	-1.064
799.90	-1.205
800.21	-24.615
800.51	-14.925
800.82	-39.706
801.12	-32.877
801.43	-25.000
801.73	-32.203
802.04	-22.727
802.34	-33.333
802.65	-15.254
802.95	-11.940
803.26	-22.034
803.56	-23.288
803.87	-7.143
804.17	-12.329
804.48	-49.123
804.78	-13.889
805.09	-15.517
805.39	-4.054
805.70	-19.718
806.00	-8.537
806.30	-7.229
806.61	-19.178
806.91	5.769
807.22	-5.556
807.52	-9.195
807.83	-6.944
808.13	3.614
808.43	-8.989
808.74	-7.500
809.04	-19.118
809.35	-24.000
809.65	-7.143
809.95	-13.699
810.26	-26.316
810.56	-17.241
810.86	-11.765
811.17	-31.579
811.47	-42.623
811.77	-37.778
812.08	-15.254
812.38	-8.333
812.69	-29.310
812.99	-58.491
813.29	-51.282
813.59	-26.000
813.90	-19.298
814.20	-21.818
814.50	1.408
814.81	-21.795
815.11	-22.951
815.41	2.985
815.72	-29.310
816.02	-17.857
816.32	-8.889
816.62	-25.000
816.93	-24.444
817.23	-18.519
817.53	-31.915
817.84	-21.429
818.14	-79.412
818.44	-26.531
818.74	-17.778
819.04	-76.923
819.35	-60.000
819.65	-61.538
819.95	-20.755
820.25	-26.667
820.56	-23.810
820.86	-59.375
821.16	-38.462
821.46	-41.860
821.76	-30.000
822.07	1.786
822.37	-32.609
822.67	-25.532
822.97	-56.757
823.27	-50.000
823.57	-36.735
823.88	-35.556
824.18	-27.500
824.48	-70.000
824.78	-68.000
825.08	-63.636
825.38	-4.444
825.69	-19.149
825.99	-36.111
826.29	-80.000
826.59	-38.462
826.89	-67.442
827.19	-22.000
827.49	-38.235
827.79	-12.500
828.09	-51.351
828.39	-53.333
828.70	-43.902
829.00	-46.512
829.30	-64.286
829.60	-35.294
829.90	-21.739
830.20	-65.714
830.50	-65.517
830.80	-88.889
831.10	-50.000
831.40	-58.824
831.70	-66.667
832.00	-25.806
832.30	-176.471
832.60	-66.667
832.90	-123.077
833.20	-47.368
833.50	-90.000
833.80	-142.105
834.10	-195.238
834.40	-30.556
834.70	-6.250
835.00	-91.429
835.30	-26.471
835.60	-56.667
835.90	-68.000
836.20	-154.545
836.50	-44.000
836.80	-54.545
837.10	-51.852
837.40	-37.037
837.70	-156.250
838.00	-67.857
838.30	-78.261
838.60	-62.069
838.90	-135.714
839.19	-91.304
839.49	-233.333
839.79	-69.565
840.09	-131.250
840.39	-110.000
840.69	-54.839
840.99	-60.714
841.29	-120.000
841.59	-126.316
841.88	-28.205
842.18	-100.000
842.48	-210.000
842.78	-125.000
843.08	-46.667
843.38	-6.452
843.68	-150.000
843.97	-50.000
844.27	-106.250
844.57	-131.579
844.87	-160.000
845.17	-113.333
845.47	-33.333
845.76	-95.238
846.06	-288.889
846.36	-141.176
846.66	-65.385
846.96	-126.667
847.25	-105.882
847.55	-43.478
847.85	-90.000
848.15	-135.294
848.44	-218.182
848.74	-80.952
849.04	-58.333
849.34	-106.250
849.63	-39.130
849.93	1000.000
850.23	-173.333
850.53	-26.923
850.82	-163.636
851.12	-45.455
851.42	-163.636
851.71	-92.308
852.01	-75.000
852.31	-84.615
852.61	-78.947
852.90	-91.667
853.20	-72.222
853.50	-355.556
853.79	-76.190
854.09	-86.364
854.39	-241.667
854.68	-38.710
854.98	-88.462
855.28	-66.667
855.57	-46.429
855.87	-48.000
856.17	-113.636
856.46	-62.963
856.76	-194.444
857.05	-117.391
857.35	-116.667
857.65	-115.385
857.94	-33.333
858.24	-59.259
858.53	-60.870
858.83	-70.588
859.13	-100.000
859.42	-94.118
859.72	-128.571
860.01	-125.000
860.31	-266.667
860.60	-200.000
860.90	-60.000
861.20	-122.222
861.49	-153.846
861.79	-50.000
862.08	-130.769
862.38	-15.625
862.67	-129.412
862.97	-68.750
863.26	-277.778
863.56	-240.000
863.85	-181.818
864.15	-83.333
864.44	-633.333
864.74	-121.429
865.03	-125.000
865.33	-270.000
865.62	-54.839
865.92	-50.000
866.21	-13.043
866.51	-128.571
866.80	-600.000
867.10	-166.667
867.39	-200.000
867.69	2200.000
867.98	-200.000
868.27	-123.529
868.57	-2900.000
868.86	-220.000
869.16	-85.714
869.45	-79.167
869.75	-172.727
870.04	-342.857
870.33	-116.667
870.63	-414.286
870.92	-425.000
871.22	-287.500
871.51	-181.818
871.80	-1133.333
872.10	-1000.000
>>>>>End Processed Spectral Data<<<<<
