SpectraSuite Data File
++++++++++++++++++++++++++++++++++++
Date: Thu May 14 14:50:44 PDT 2015
User: schluterlab
Dark Spectrum Present: Yes
Reference Spectrum Present: Yes
Number of Sampled Component Spectra: 1
Spectrometers: USB2E3373
Integration Time (usec): 3000 (USB2E3373)
Spectra Averaged: 3 (USB2E3373)
Boxcar Smoothing: 0 (USB2E3373)
Correct for Electrical Dark: No (USB2E3373)
Strobe/Lamp Enabled: No (USB2E3373)
Correct for Detector Non-linearity: No (USB2E3373)
Correct for Stray Light: No (USB2E3373)
Number of Pixels in Processed Spectrum: 2048
>>>>>Begin Processed Spectral Data<<<<<
178.53	0.000
178.91	142.857
179.29	-1800.000
179.67	-1400.000
180.04	192.857
180.42	50.000
180.80	140.000
181.18	-600.000
181.56	800.000
181.94	50.000
182.31	-175.000
182.69	333.333
183.07	-400.000
183.45	225.000
183.83	-100.000
184.20	133.333
184.58	800.000
184.96	-325.000
185.34	-33.333
185.72	-120.000
186.09	200.000
186.47	400.000
186.85	200.000
187.23	-33.333
187.61	-900.000
187.98	180.000
188.36	-0.000
188.74	100.000
189.12	-66.667
189.49	-6.250
189.87	-87.500
190.25	22.222
190.63	-80.000
191.00	-133.333
191.38	0.000
191.76	-150.000
192.14	-200.000
192.51	250.000
192.89	66.667
193.27	0.000
193.65	-85.714
194.02	-1200.000
194.40	14.286
194.78	28.571
195.15	0.000
195.53	-136.364
195.91	0.000
196.29	-75.000
196.66	-46.154
197.04	-500.000
197.42	-28.571
197.79	50.000
198.17	-62.500
198.55	-57.143
198.92	33.333
199.30	-87.500
199.68	-100.000
200.05	35.714
200.43	-600.000
200.81	185.714
201.18	0.000
201.56	177.778
201.94	0.000
202.31	400.000
202.69	-133.333
203.07	-100.000
203.44	-44.444
203.82	-150.000
204.19	-16.667
204.57	-66.667
204.95	-25.000
205.32	-600.000
205.70	150.000
206.08	-166.667
206.45	100.000
206.83	300.000
207.20	0.000
207.58	-100.000
207.96	-183.333
208.33	-66.667
208.71	108.333
209.08	-16.667
209.46	0.000
209.84	233.333
210.21	250.000
210.59	950.000
210.96	366.667
211.34	-200.000
211.71	-50.000
212.09	-1300.000
212.46	0.000
212.84	950.000
213.22	-200.000
213.59	-125.000
213.97	10.000
214.34	-466.667
214.72	266.667
215.09	-250.000
215.47	0.000
215.84	114.286
216.22	100.000
216.59	-40.000
216.97	-160.000
217.34	-50.000
217.72	0.000
218.09	-225.000
218.47	-275.000
218.84	0.000
219.22	220.000
219.59	11.765
219.97	-65.000
220.34	400.000
220.72	22.222
221.09	-38.462
221.47	-133.333
221.84	-60.000
222.22	-85.714
222.59	0.000
222.97	-25.000
223.34	-260.000
223.72	-800.000
224.09	-275.000
224.46	-325.000
224.84	20.000
225.21	-71.429
225.59	-450.000
225.96	-300.000
226.34	0.000
226.71	66.667
227.08	0.000
227.46	-20.000
227.83	0.000
228.21	31.579
228.58	100.000
228.95	550.000
229.33	-8.333
229.70	0.000
230.08	0.000
230.45	120.000
230.82	-33.333
231.20	-7.143
231.57	-41.667
231.95	-90.909
232.32	-9.091
232.69	-15.000
233.07	-150.000
233.44	-52.941
233.81	-100.000
234.19	0.000
234.56	4.545
234.93	41.379
235.31	-10.526
235.68	-50.000
236.05	-55.000
236.43	11.538
236.80	36.000
237.17	-18.519
237.55	-18.182
237.92	-100.000
238.29	-38.710
238.67	-13.636
239.04	-19.444
239.41	-16.667
239.79	2.174
240.16	-9.259
240.53	4.348
240.91	-21.569
241.28	-21.311
241.65	1.493
242.02	16.216
242.40	-15.385
242.77	-2.667
243.14	-7.317
243.51	-18.421
243.89	-10.256
244.26	3.960
244.63	0.980
245.00	-1.869
245.38	-0.877
245.75	-12.389
246.12	0.794
246.49	0.000
246.87	-8.571
247.24	-5.960
247.61	-1.974
247.98	4.027
248.36	-3.704
248.73	-4.294
249.10	-4.918
249.47	5.970
249.84	8.377
250.22	-3.109
250.59	-5.000
250.96	3.182
251.33	-3.571
251.70	2.564
252.08	1.250
252.45	2.869
252.82	-2.479
253.19	-0.781
253.56	2.662
253.94	-0.769
254.31	-4.167
254.68	1.748
255.05	4.560
255.42	1.701
255.79	-0.324
256.16	0.993
256.54	-2.318
256.91	1.311
257.28	-1.639
257.65	-0.955
258.02	-2.065
258.39	1.709
258.76	2.752
259.14	2.874
259.51	2.882
259.88	-1.983
260.25	-1.389
260.62	2.466
260.99	3.552
261.36	3.753
261.73	-2.122
262.10	-0.275
262.47	-1.072
262.85	2.525
263.22	0.000
263.59	-1.053
263.96	2.302
264.33	-1.023
264.70	3.704
265.07	1.671
265.44	3.628
265.81	-0.463
266.18	1.134
266.55	1.116
266.92	-1.367
267.29	2.407
267.66	1.774
268.03	1.528
268.40	1.044
268.77	-1.822
269.14	-0.220
269.51	1.096
269.88	3.074
270.25	4.225
270.62	1.899
270.99	3.636
271.36	2.574
271.73	2.161
272.10	2.204
272.47	1.202
272.84	1.004
273.21	1.603
273.58	1.210
273.95	0.000
274.32	-0.570
274.69	1.354
275.06	2.564
275.43	-0.555
275.80	2.293
276.17	-0.741
276.54	1.119
276.91	1.073
277.28	-0.723
277.65	0.898
278.02	1.103
278.39	0.906
278.76	-1.230
279.13	1.064
279.50	1.890
279.87	1.252
280.23	0.352
280.60	2.881
280.97	2.303
281.34	1.528
281.71	2.538
282.08	1.329
282.45	3.110
282.82	0.628
283.19	-0.485
283.56	-0.328
283.92	1.652
284.29	3.633
284.66	2.299
285.03	0.160
285.40	1.855
285.77	0.929
286.14	3.359
286.51	0.304
286.87	-0.632
287.24	1.205
287.61	2.093
287.98	-0.906
288.35	1.036
288.72	2.367
289.08	0.732
289.45	1.331
289.82	0.753
290.19	0.575
290.56	2.254
290.93	1.854
291.29	1.791
291.66	1.240
292.03	0.543
292.40	2.177
292.77	2.022
293.13	1.759
293.50	1.051
293.87	0.268
294.24	2.533
294.60	2.908
294.97	-0.268
295.34	2.817
295.71	2.144
296.08	2.067
296.44	0.613
296.81	1.827
297.18	0.623
297.55	1.179
297.91	1.305
298.28	0.829
298.65	0.832
299.02	0.826
299.38	2.174
299.75	0.701
300.12	1.042
300.48	1.382
300.85	1.462
301.22	1.902
301.59	1.370
301.95	1.469
302.32	2.000
302.69	1.972
303.05	2.394
303.42	1.330
303.79	1.458
304.15	3.260
304.52	1.268
304.89	1.466
305.25	1.863
305.62	1.567
305.99	2.062
306.35	0.806
306.72	1.965
307.09	2.335
307.45	2.795
307.82	1.514
308.19	1.211
308.55	3.375
308.92	1.266
309.29	2.874
309.65	1.170
310.02	1.485
310.38	1.575
310.75	1.748
311.12	2.685
311.48	1.662
311.85	1.519
312.22	3.510
312.58	2.347
312.95	2.103
313.31	2.529
313.68	3.388
314.05	4.246
314.41	4.189
314.78	3.451
315.14	2.813
315.51	3.509
315.87	4.410
316.24	4.018
316.61	4.707
316.97	2.896
317.34	2.734
317.70	3.668
318.07	4.938
318.43	5.102
318.80	5.686
319.16	4.721
319.53	3.599
319.89	5.521
320.26	5.338
320.62	4.610
320.99	5.355
321.35	4.898
321.72	6.791
322.08	6.673
322.45	6.323
322.81	6.047
323.18	5.929
323.54	5.862
323.91	7.473
324.27	7.659
324.64	8.564
325.00	7.214
325.37	7.371
325.73	9.091
326.10	9.084
326.46	9.039
326.83	10.088
327.19	9.921
327.56	9.486
327.92	9.284
328.29	9.839
328.65	10.385
329.01	10.152
329.38	11.289
329.74	11.729
330.11	12.158
330.47	12.047
330.84	11.197
331.20	12.833
331.56	12.392
331.93	12.134
332.29	12.881
332.66	13.123
333.02	12.563
333.38	13.423
333.75	13.047
334.11	12.344
334.48	13.614
334.84	14.104
335.20	13.350
335.57	15.008
335.93	13.223
336.29	14.060
336.66	13.457
337.02	13.127
337.38	15.051
337.75	13.802
338.11	15.643
338.47	14.392
338.84	13.536
339.20	14.153
339.56	14.745
339.93	15.025
340.29	14.573
340.65	14.031
341.02	14.366
341.38	14.794
341.74	15.174
342.11	14.562
342.47	13.900
342.83	13.849
343.20	13.900
343.56	14.996
343.92	15.132
344.28	14.453
344.65	15.039
345.01	14.275
345.37	14.774
345.73	13.484
346.10	14.899
346.46	13.924
346.82	15.506
347.19	15.279
347.55	15.630
347.91	14.339
348.27	14.492
348.63	15.918
349.00	14.914
349.36	15.242
349.72	14.732
350.08	14.487
350.45	14.221
350.81	13.801
351.17	14.737
351.53	14.784
351.89	15.414
352.26	14.328
352.62	15.224
352.98	14.198
353.34	13.891
353.70	14.407
354.07	15.201
354.43	14.199
354.79	15.557
355.15	14.275
355.51	14.985
355.87	14.959
356.24	14.297
356.60	14.560
356.96	14.381
357.32	14.572
357.68	14.129
358.04	14.596
358.40	15.597
358.77	16.009
359.13	14.032
359.49	15.465
359.85	14.576
360.21	15.208
360.57	15.937
360.93	16.008
361.29	15.439
361.66	15.930
362.02	16.214
362.38	15.671
362.74	16.061
363.10	16.919
363.46	15.512
363.82	16.406
364.18	16.115
364.54	15.975
364.90	16.054
365.26	14.759
365.62	15.733
365.98	15.793
366.35	15.705
366.71	17.075
367.07	16.441
367.43	16.743
367.79	16.523
368.15	15.786
368.51	17.591
368.87	16.329
369.23	16.600
369.59	16.257
369.95	17.512
370.31	16.948
370.67	17.744
371.03	15.859
371.39	16.320
371.75	16.300
372.11	16.802
372.47	17.129
372.83	18.717
373.19	17.612
373.55	18.089
373.91	16.905
374.27	17.529
374.63	17.727
374.99	17.042
375.35	18.506
375.71	18.129
376.07	19.303
376.42	18.136
376.78	18.832
377.14	18.902
377.50	18.659
377.86	19.458
378.22	19.820
378.58	19.857
378.94	19.073
379.30	19.918
379.66	20.223
380.02	19.446
380.38	20.334
380.74	20.169
381.09	20.151
381.45	20.284
381.81	21.721
382.17	20.843
382.53	21.228
382.89	20.485
383.25	21.454
383.61	20.891
383.97	21.614
384.32	21.411
384.68	21.462
385.04	21.862
385.40	22.746
385.76	22.274
386.12	22.023
386.48	23.059
386.83	22.527
387.19	23.059
387.55	23.415
387.91	22.774
388.27	23.557
388.62	23.597
388.98	23.745
389.34	24.514
389.70	23.940
390.06	24.038
390.42	24.217
390.77	24.383
391.13	23.709
391.49	24.758
391.85	23.273
392.20	24.081
392.56	25.162
392.92	24.864
393.28	25.207
393.64	24.804
393.99	26.380
394.35	25.058
394.71	26.168
395.07	25.389
395.42	24.615
395.78	26.325
396.14	25.074
396.50	24.822
396.85	25.343
397.21	25.562
397.57	25.324
397.92	25.544
398.28	25.964
398.64	25.629
399.00	25.445
399.35	26.021
399.71	26.033
400.07	25.547
400.42	25.960
400.78	25.463
401.14	26.010
401.49	26.208
401.85	25.465
402.21	26.593
402.57	26.408
402.92	25.709
403.28	26.230
403.63	25.955
403.99	25.831
404.35	26.151
404.70	26.969
405.06	25.109
405.42	26.230
405.77	27.045
406.13	25.716
406.49	26.689
406.84	25.651
407.20	25.601
407.55	25.984
407.91	25.707
408.27	25.795
408.62	26.411
408.98	26.756
409.34	25.865
409.69	26.267
410.05	26.671
410.40	25.812
410.76	26.584
411.11	26.885
411.47	27.027
411.83	25.985
412.18	26.084
412.54	26.497
412.89	25.786
413.25	26.185
413.60	26.709
413.96	26.573
414.31	25.892
414.67	26.834
415.03	26.092
415.38	27.112
415.74	26.512
416.09	26.589
416.45	26.362
416.80	26.377
417.16	26.245
417.51	27.024
417.87	27.529
418.22	26.886
418.58	27.138
418.93	27.416
419.29	27.189
419.64	26.831
420.00	27.774
420.35	26.109
420.71	26.364
421.06	25.934
421.42	27.351
421.77	26.171
422.12	27.326
422.48	27.343
422.83	27.492
423.19	27.427
423.54	27.544
423.90	27.278
424.25	26.827
424.61	27.382
424.96	27.073
425.31	28.025
425.67	27.590
426.02	27.836
426.38	28.071
426.73	27.009
427.09	28.431
427.44	26.652
427.79	27.971
428.15	27.397
428.50	28.427
428.85	27.727
429.21	28.564
429.56	28.134
429.92	27.912
430.27	28.530
430.62	28.432
430.98	28.677
431.33	27.322
431.68	27.969
432.04	28.542
432.39	28.656
432.74	28.653
433.10	29.584
433.45	27.536
433.80	28.326
434.16	28.616
434.51	28.212
434.86	29.750
435.22	29.277
435.57	30.130
435.92	29.104
436.28	28.783
436.63	28.291
436.98	27.268
437.34	28.692
437.69	28.398
438.04	28.821
438.39	29.294
438.75	29.164
439.10	28.805
439.45	29.011
439.81	28.757
440.16	28.954
440.51	29.654
440.86	28.516
441.22	29.153
441.57	29.193
441.92	29.146
442.27	30.354
442.63	30.055
442.98	29.562
443.33	29.458
443.68	29.435
444.03	30.386
444.39	30.005
444.74	30.424
445.09	29.853
445.44	30.400
445.79	30.125
446.15	29.908
446.50	29.457
446.85	30.350
447.20	29.594
447.55	30.753
447.91	30.209
448.26	30.180
448.61	29.862
448.96	30.365
449.31	29.692
449.66	30.229
450.02	30.538
450.37	30.794
450.72	30.463
451.07	30.695
451.42	30.791
451.77	30.962
452.12	29.797
452.47	29.709
452.83	30.405
453.18	30.648
453.53	30.672
453.88	30.260
454.23	29.831
454.58	30.818
454.93	29.976
455.28	30.464
455.63	31.040
455.98	31.229
456.34	30.506
456.69	31.041
457.04	30.969
457.39	30.044
457.74	31.488
458.09	31.027
458.44	31.789
458.79	30.531
459.14	30.414
459.49	31.579
459.84	30.745
460.19	30.150
460.54	31.119
460.89	31.339
461.24	29.885
461.59	30.659
461.94	30.918
462.29	31.187
462.64	30.537
462.99	30.571
463.34	31.798
463.69	30.363
464.04	31.351
464.39	31.110
464.74	30.445
465.09	30.623
465.44	30.579
465.79	30.830
466.14	30.224
466.49	30.789
466.84	31.350
467.19	31.098
467.54	29.318
467.89	30.632
468.24	31.136
468.59	31.036
468.94	30.361
469.29	30.174
469.64	30.642
469.99	30.147
470.34	30.817
470.68	30.349
471.03	31.107
471.38	31.524
471.73	29.909
472.08	31.155
472.43	30.223
472.78	29.849
473.13	30.088
473.48	30.816
473.83	31.399
474.17	29.953
474.52	31.449
474.87	31.617
475.22	30.310
475.57	30.685
475.92	31.110
476.27	29.979
476.61	30.426
476.96	30.396
477.31	31.040
477.66	31.270
478.01	30.707
478.36	30.758
478.70	30.443
479.05	31.033
479.40	30.997
479.75	31.076
480.10	29.844
480.45	30.720
480.79	30.476
481.14	30.882
481.49	30.668
481.84	31.375
482.19	32.215
482.53	31.788
482.88	31.192
483.23	31.258
483.58	31.048
483.92	30.408
484.27	30.694
484.62	30.322
484.97	29.977
485.31	30.869
485.66	28.841
486.01	29.492
486.36	30.491
486.70	31.856
487.05	32.349
487.40	31.809
487.75	31.043
488.09	31.136
488.44	30.302
488.79	30.590
489.13	30.847
489.48	29.786
489.83	30.141
490.17	30.539
490.52	29.721
490.87	30.330
491.22	30.806
491.56	31.357
491.91	30.440
492.26	30.463
492.60	30.389
492.95	30.452
493.30	30.928
493.64	30.442
493.99	31.360
494.34	29.791
494.68	30.621
495.03	30.881
495.37	30.715
495.72	29.615
496.07	30.894
496.41	30.674
496.76	30.651
497.11	30.531
497.45	31.118
497.80	29.898
498.14	30.023
498.49	29.871
498.84	30.347
499.18	31.219
499.53	30.628
499.87	30.418
500.22	30.365
500.56	30.544
500.91	30.481
501.26	30.818
501.60	30.270
501.95	30.135
502.29	30.671
502.64	30.695
502.98	30.026
503.33	29.676
503.67	30.920
504.02	30.342
504.36	30.206
504.71	30.684
505.06	29.195
505.40	30.027
505.75	30.055
506.09	31.492
506.44	30.826
506.78	30.459
507.13	31.074
507.47	30.602
507.82	30.019
508.16	29.924
508.51	30.474
508.85	29.806
509.19	30.838
509.54	30.548
509.88	29.917
510.23	31.229
510.57	31.513
510.92	30.672
511.26	30.255
511.61	29.020
511.95	30.161
512.30	30.970
512.64	30.035
512.98	29.965
513.33	30.897
513.67	30.240
514.02	30.148
514.36	29.668
514.70	30.677
515.05	30.553
515.39	30.184
515.74	31.177
516.08	30.111
516.42	30.403
516.77	30.336
517.11	30.119
517.46	30.488
517.80	30.679
518.14	30.686
518.49	30.857
518.83	29.377
519.17	29.995
519.52	30.294
519.86	29.039
520.20	30.351
520.55	29.956
520.89	30.124
521.23	29.481
521.58	31.017
521.92	29.972
522.26	30.069
522.61	29.861
522.95	30.046
523.29	30.460
523.64	29.877
523.98	30.006
524.32	31.003
524.66	30.677
525.01	29.728
525.35	30.615
525.69	30.162
526.04	29.162
526.38	29.080
526.72	29.873
527.06	30.264
527.41	29.155
527.75	30.938
528.09	30.519
528.43	29.307
528.78	29.306
529.12	29.243
529.46	29.061
529.80	29.748
530.15	29.623
530.49	30.902
530.83	30.756
531.17	30.705
531.51	30.866
531.86	30.168
532.20	30.549
532.54	30.820
532.88	30.000
533.22	29.935
533.57	29.660
533.91	30.303
534.25	29.169
534.59	30.632
534.93	28.976
535.27	29.972
535.62	29.619
535.96	31.028
536.30	29.671
536.64	30.270
536.98	30.750
537.32	30.679
537.66	30.256
538.01	29.305
538.35	29.537
538.69	29.147
539.03	30.656
539.37	30.801
539.71	29.970
540.05	29.976
540.39	30.012
540.73	28.780
541.07	30.227
541.42	29.297
541.76	29.656
542.10	30.277
542.44	28.928
542.78	28.893
543.12	29.797
543.46	29.304
543.80	29.137
544.14	29.503
544.48	30.319
544.82	30.521
545.16	29.457
545.50	28.640
545.84	29.455
546.18	31.481
546.52	29.045
546.86	30.126
547.20	29.262
547.54	29.026
547.88	29.355
548.22	29.708
548.56	29.666
548.90	30.149
549.24	30.517
549.58	30.410
549.92	29.719
550.26	29.126
550.60	29.100
550.94	29.754
551.28	28.185
551.62	30.189
551.96	30.485
552.30	30.720
552.64	30.367
552.98	30.942
553.32	30.868
553.66	30.354
554.00	30.517
554.34	29.408
554.68	28.470
555.02	30.618
555.36	30.243
555.69	29.340
556.03	30.832
556.37	30.163
556.71	30.247
557.05	29.712
557.39	30.126
557.73	29.260
558.07	29.470
558.41	29.834
558.75	30.764
559.08	30.689
559.42	29.835
559.76	29.579
560.10	30.275
560.44	31.069
560.78	30.000
561.12	29.926
561.45	30.535
561.79	30.586
562.13	30.129
562.47	30.271
562.81	29.747
563.15	30.303
563.48	30.702
563.82	28.900
564.16	29.316
564.50	30.036
564.84	29.735
565.17	30.294
565.51	29.689
565.85	30.285
566.19	29.608
566.52	29.608
566.86	30.334
567.20	29.418
567.54	30.218
567.88	30.785
568.21	30.484
568.55	30.264
568.89	30.549
569.23	29.827
569.56	30.246
569.90	30.684
570.24	30.219
570.57	30.244
570.91	29.486
571.25	29.390
571.59	29.697
571.92	29.691
572.26	29.936
572.60	30.030
572.93	29.919
573.27	29.840
573.61	30.122
573.95	29.328
574.28	29.876
574.62	29.263
574.96	29.180
575.29	29.390
575.63	29.406
575.97	29.629
576.30	29.509
576.64	29.563
576.98	29.180
577.31	29.851
577.65	30.066
577.98	29.687
578.32	29.399
578.66	29.721
578.99	29.449
579.33	29.702
579.67	30.077
580.00	29.310
580.34	29.450
580.67	29.259
581.01	29.533
581.35	29.515
581.68	29.991
582.02	29.902
582.35	30.566
582.69	30.465
583.02	30.555
583.36	29.801
583.70	30.130
584.03	29.326
584.37	30.239
584.70	29.340
585.04	29.110
585.37	29.761
585.71	29.256
586.04	30.031
586.38	29.898
586.72	30.033
587.05	30.340
587.39	30.566
587.72	29.641
588.06	30.126
588.39	30.246
588.73	30.370
589.06	30.051
589.40	30.608
589.73	30.238
590.07	30.305
590.40	30.358
590.73	30.152
591.07	30.231
591.40	29.705
591.74	30.286
592.07	30.775
592.41	30.205
592.74	30.032
593.08	30.446
593.41	30.738
593.75	30.575
594.08	30.718
594.41	30.545
594.75	29.857
595.08	29.812
595.42	30.390
595.75	29.932
596.09	31.345
596.42	30.921
596.75	29.911
597.09	31.515
597.42	30.989
597.75	30.772
598.09	29.841
598.42	30.438
598.76	30.225
599.09	30.367
599.42	29.467
599.76	30.109
600.09	29.796
600.42	30.464
600.76	30.713
601.09	30.501
601.42	30.484
601.76	30.310
602.09	30.450
602.42	29.880
602.76	29.779
603.09	30.764
603.42	29.697
603.76	30.444
604.09	30.908
604.42	30.642
604.76	30.251
605.09	30.355
605.42	30.702
605.75	30.385
606.09	30.534
606.42	29.624
606.75	29.048
607.09	30.031
607.42	30.829
607.75	30.832
608.08	31.492
608.42	30.149
608.75	30.887
609.08	29.542
609.41	31.231
609.75	30.536
610.08	30.343
610.41	30.756
610.74	30.336
611.07	30.417
611.41	30.897
611.74	31.547
612.07	30.528
612.40	29.848
612.73	30.709
613.07	29.682
613.40	30.269
613.73	30.188
614.06	31.158
614.39	28.912
614.72	30.713
615.06	30.558
615.39	30.691
615.72	30.000
616.05	30.257
616.38	30.928
616.71	29.676
617.05	29.606
617.38	30.123
617.71	31.533
618.04	30.383
618.37	31.475
618.70	30.147
619.03	29.809
619.36	30.456
619.69	30.365
620.03	30.697
620.36	29.755
620.69	30.290
621.02	31.890
621.35	32.003
621.68	31.164
622.01	30.249
622.34	29.777
622.67	30.584
623.00	29.892
623.33	30.856
623.66	31.193
623.99	30.546
624.32	31.254
624.65	30.952
624.99	30.494
625.32	30.699
625.65	30.614
625.98	31.051
626.31	31.396
626.64	29.597
626.97	29.632
627.30	29.613
627.63	30.008
627.96	31.081
628.29	30.195
628.62	30.059
628.95	30.061
629.28	29.227
629.61	30.387
629.94	29.623
630.26	29.576
630.59	29.706
630.92	29.870
631.25	30.143
631.58	33.051
631.91	31.865
632.24	32.373
632.57	30.835
632.90	31.294
633.23	30.714
633.56	29.592
633.89	30.165
634.22	31.185
634.55	29.541
634.88	30.411
635.20	30.571
635.53	30.734
635.86	30.444
636.19	31.707
636.52	31.751
636.85	29.418
637.18	29.938
637.51	30.000
637.83	31.008
638.16	29.724
638.49	29.108
638.82	29.087
639.15	31.157
639.48	30.254
639.81	29.446
640.13	32.155
640.46	29.333
640.79	29.534
641.12	32.174
641.45	29.235
641.77	31.322
642.10	30.446
642.43	31.516
642.76	30.759
643.09	32.055
643.41	28.852
643.74	28.138
644.07	32.276
644.40	30.835
644.73	28.882
645.05	29.662
645.38	29.209
645.71	31.378
646.04	32.281
646.36	29.343
646.69	31.595
647.02	31.651
647.35	31.298
647.67	32.206
648.00	29.777
648.33	30.180
648.66	30.813
648.98	29.932
649.31	30.447
649.64	32.138
649.96	31.167
650.29	30.737
650.62	29.703
650.94	30.030
651.27	28.892
651.60	27.778
651.92	31.003
652.25	30.680
652.58	28.886
652.90	28.779
653.23	30.423
653.56	28.388
653.88	30.758
654.21	29.577
654.54	30.491
654.86	31.445
655.19	30.489
655.52	31.285
655.84	31.564
656.17	37.382
656.49	52.500
656.82	57.241
657.15	44.313
657.47	33.280
657.80	24.411
658.13	18.633
658.45	24.223
658.78	29.205
659.10	27.916
659.43	27.499
659.75	27.199
660.08	26.611
660.41	25.889
660.73	26.112
661.06	28.488
661.38	29.027
661.71	29.483
662.03	30.688
662.36	31.843
662.68	31.707
663.01	28.496
663.33	29.301
663.66	30.586
663.98	30.577
664.31	31.144
664.63	29.865
664.96	29.764
665.28	27.768
665.61	31.119
665.93	29.821
666.26	31.362
666.58	28.967
666.91	32.523
667.23	32.571
667.56	30.375
667.88	31.200
668.21	28.516
668.53	28.764
668.86	28.094
669.18	31.568
669.50	31.412
669.83	28.000
670.15	29.134
670.48	29.762
670.80	30.784
671.13	28.922
671.45	33.661
671.77	30.132
672.10	27.333
672.42	29.935
672.75	29.339
673.07	27.910
673.39	28.197
673.72	30.537
674.04	30.172
674.37	28.980
674.69	32.099
675.01	28.571
675.34	33.015
675.66	27.903
675.98	28.731
676.31	29.688
676.63	31.559
676.95	31.034
677.28	29.435
677.60	28.346
677.92	30.710
678.25	29.982
678.57	31.317
678.89	29.352
679.22	28.746
679.54	28.889
679.86	27.627
680.18	29.851
680.51	30.660
680.83	29.787
681.15	30.000
681.48	31.434
681.80	30.570
682.12	28.846
682.44	28.047
682.77	30.674
683.09	27.652
683.41	29.070
683.73	27.324
684.06	29.151
684.38	27.728
684.70	30.700
685.02	29.948
685.34	25.458
685.67	32.019
685.99	28.528
686.31	27.471
686.63	27.330
686.96	28.864
687.28	28.827
687.60	28.283
687.92	29.421
688.24	29.215
688.56	29.655
688.89	29.401
689.21	30.333
689.53	26.863
689.85	29.586
690.17	27.778
690.49	27.092
690.82	30.693
691.14	26.721
691.46	29.637
691.78	29.650
692.10	27.890
692.42	26.786
692.74	27.586
693.06	25.926
693.39	29.032
693.71	27.632
694.03	29.554
694.35	30.286
694.67	27.926
694.99	27.447
695.31	26.490
695.63	30.303
695.95	26.501
696.27	28.791
696.59	30.531
696.91	27.252
697.23	31.209
697.56	28.310
697.88	27.841
698.20	29.379
698.52	31.818
698.84	27.443
699.16	27.755
699.48	27.615
699.80	28.298
700.12	28.821
700.44	26.037
700.76	28.266
701.08	30.024
701.40	27.720
701.72	27.861
702.04	27.005
702.36	24.869
702.68	29.095
703.00	27.139
703.32	26.601
703.64	28.362
703.96	28.401
704.28	26.536
704.60	27.089
704.91	28.571
705.23	28.767
705.55	28.969
705.87	27.273
706.19	29.448
706.51	23.795
706.83	25.360
707.15	23.016
707.47	26.636
707.79	25.983
708.11	25.424
708.43	27.742
708.74	24.107
709.06	28.306
709.38	26.526
709.70	29.280
710.02	25.581
710.34	27.394
710.66	29.050
710.98	24.317
711.29	26.923
711.61	29.096
711.93	25.641
712.25	29.189
712.57	30.383
712.89	27.941
713.20	27.811
713.52	29.480
713.84	24.513
714.16	27.895
714.48	29.381
714.80	31.948
715.11	26.509
715.43	28.382
715.75	26.316
716.07	28.729
716.39	28.689
716.70	26.205
717.02	25.902
717.34	27.875
717.66	25.839
717.97	22.603
718.29	26.117
718.61	28.618
718.93	26.214
719.24	28.261
719.56	25.153
719.88	22.222
720.20	25.806
720.51	26.398
720.83	23.438
721.15	25.658
721.46	27.397
721.78	27.667
722.10	24.919
722.42	24.497
722.73	27.097
723.05	27.719
723.37	25.694
723.68	31.183
724.00	28.159
724.32	21.127
724.63	22.378
724.95	27.305
725.27	28.223
725.58	23.322
725.90	29.310
726.22	26.019
726.53	25.974
726.85	28.616
727.16	29.607
727.48	26.300
727.80	28.808
728.11	22.968
728.43	27.946
728.74	25.084
729.06	26.490
729.38	27.597
729.69	26.510
730.01	26.488
730.32	22.727
730.64	28.302
730.96	27.019
731.27	27.374
731.59	28.571
731.90	27.532
732.22	23.698
732.53	24.862
732.85	26.857
733.16	26.100
733.48	27.439
733.80	27.298
734.11	28.205
734.43	29.189
734.74	26.835
735.06	26.884
735.37	27.297
735.69	24.865
736.00	26.271
736.32	24.259
736.63	25.556
736.95	26.149
737.26	30.303
737.58	25.455
737.89	27.059
738.21	23.242
738.52	24.262
738.83	24.573
739.15	28.723
739.46	25.170
739.78	28.528
740.09	24.928
740.41	25.656
740.72	28.333
741.04	27.832
741.35	27.018
741.66	23.922
741.98	31.557
742.29	19.665
742.61	28.947
742.92	25.000
743.23	28.881
743.55	25.969
743.86	27.600
744.18	22.314
744.49	24.051
744.80	29.218
745.12	22.785
745.43	24.797
745.74	25.000
746.06	25.847
746.37	30.802
746.68	27.642
747.00	25.417
747.31	26.180
747.62	27.692
747.94	25.101
748.25	27.309
748.56	22.857
748.88	24.786
749.19	30.603
749.50	26.407
749.82	27.309
750.13	27.402
750.44	24.000
750.75	24.923
751.07	25.846
751.38	27.129
751.69	23.003
752.01	27.184
752.32	25.490
752.63	27.211
752.94	24.221
753.26	23.420
753.57	25.556
753.88	27.341
754.19	27.331
754.51	25.402
754.82	27.653
755.13	30.492
755.44	31.058
755.75	29.605
756.07	27.463
756.38	24.214
756.69	30.723
757.00	24.100
757.31	25.683
757.63	22.251
757.94	27.230
758.25	29.797
758.56	24.837
758.87	27.727
759.18	25.333
759.50	25.496
759.81	26.611
760.12	25.876
760.43	25.260
760.74	26.601
761.05	26.000
761.36	22.410
761.67	24.619
761.99	26.486
762.30	23.780
762.61	22.772
762.92	25.000
763.23	28.090
763.54	21.942
763.85	23.024
764.16	26.599
764.47	24.296
764.78	27.476
765.10	28.152
765.41	27.692
765.72	25.397
766.03	25.141
766.34	23.511
766.65	20.906
766.96	25.100
767.27	27.189
767.58	24.378
767.89	25.000
768.20	20.657
768.51	23.611
768.82	24.900
769.13	27.652
769.44	20.385
769.75	27.798
770.06	26.538
770.37	31.102
770.68	26.809
770.99	18.623
771.30	30.000
771.61	27.376
771.92	21.481
772.23	27.530
772.54	19.907
772.85	26.267
773.16	27.143
773.47	20.106
773.78	21.622
774.09	30.114
774.39	30.500
774.70	22.404
775.01	17.683
775.32	24.118
775.63	18.405
775.94	17.834
776.25	23.871
776.56	25.641
776.87	22.449
777.18	22.069
777.48	28.671
777.79	23.649
778.10	22.794
778.41	22.222
778.72	21.379
779.03	22.840
779.34	26.667
779.65	26.943
779.95	21.111
780.26	23.864
780.57	27.097
780.88	27.536
781.19	24.516
781.50	24.706
781.80	25.806
782.11	22.751
782.42	22.222
782.73	17.365
783.04	19.553
783.34	18.788
783.65	22.222
783.96	14.286
784.27	19.048
784.57	17.219
784.88	22.143
785.19	18.898
785.50	30.709
785.81	20.301
786.11	25.385
786.42	13.669
786.73	12.230
787.04	20.301
787.34	17.213
787.65	20.800
787.96	25.373
788.26	32.168
788.57	21.678
788.88	22.368
789.19	23.529
789.49	17.808
789.80	26.950
790.11	22.047
790.41	19.531
790.72	18.644
791.03	16.505
791.33	12.174
791.64	21.930
791.95	16.071
792.25	20.000
792.56	17.857
792.87	13.542
793.17	17.857
793.48	10.417
793.79	18.072
794.09	9.174
794.40	22.936
794.70	25.850
795.01	17.532
795.32	19.178
795.62	23.239
795.93	16.667
796.23	19.672
796.54	12.500
796.85	14.894
797.15	15.217
797.46	15.068
797.76	11.250
798.07	21.739
798.37	8.247
798.68	11.688
798.99	20.690
799.29	22.472
799.60	19.149
799.90	21.687
800.21	26.154
800.51	29.851
800.82	20.588
801.12	-4.110
801.43	7.353
801.73	8.475
802.04	13.636
802.34	-3.333
802.65	18.644
802.95	8.955
803.26	23.729
803.56	0.000
803.87	32.857
804.17	24.658
804.48	1.754
804.78	11.111
805.09	8.621
805.39	31.081
805.70	1.408
806.00	15.854
806.30	21.687
806.61	1.370
806.91	18.269
807.22	12.222
807.52	11.494
807.83	18.056
808.13	22.892
808.43	22.472
808.74	21.250
809.04	8.824
809.35	16.000
809.65	22.857
809.95	20.548
810.26	3.509
810.56	8.621
810.86	8.824
811.17	5.263
811.47	19.672
811.77	6.667
812.08	18.644
812.38	20.000
812.69	25.862
812.99	5.660
813.29	10.256
813.59	20.000
813.90	14.035
814.20	5.455
814.50	22.535
814.81	26.923
815.11	16.393
815.41	4.478
815.72	-1.724
816.02	3.571
816.32	20.000
816.62	15.909
816.93	13.333
817.23	25.926
817.53	0.000
817.84	-4.762
818.14	2.941
818.44	2.041
818.74	2.222
819.04	-10.256
819.35	-28.571
819.65	7.692
819.95	16.981
820.25	-8.889
820.56	0.000
820.86	-21.875
821.16	-7.692
821.46	2.326
821.76	-8.000
822.07	12.500
822.37	10.870
822.67	31.915
822.97	-32.432
823.27	27.500
823.57	10.204
823.88	37.778
824.18	-5.000
824.48	-6.667
824.78	-12.000
825.08	27.273
825.38	26.667
825.69	4.255
825.99	8.333
826.29	-20.000
826.59	5.128
826.89	-4.651
827.19	36.000
827.49	11.765
827.79	14.583
828.09	-37.838
828.39	-6.667
828.70	-7.317
829.00	-9.302
829.30	3.571
829.60	11.765
829.90	17.391
830.20	14.286
830.50	-10.345
830.80	-33.333
831.10	-30.769
831.40	11.765
831.70	-38.095
832.00	58.065
832.30	-47.059
832.60	-33.333
832.90	38.462
833.20	-36.842
833.50	-55.000
833.80	-21.053
834.10	-61.905
834.40	13.889
834.70	6.250
835.00	-28.571
835.30	8.824
835.60	-43.333
835.90	24.000
836.20	-63.636
836.50	4.000
836.80	-48.485
837.10	0.000
837.40	18.519
837.70	-43.750
838.00	17.857
838.30	-13.043
838.60	10.345
838.90	-42.857
839.19	-65.217
839.49	-150.000
839.79	-8.696
840.09	-25.000
840.39	-40.000
840.69	6.452
840.99	-3.571
841.29	-6.667
841.59	-31.579
841.88	0.000
842.18	-3.846
842.48	-90.000
842.78	-10.000
843.08	0.000
843.38	16.129
843.68	-61.111
843.97	-5.882
844.27	-25.000
844.57	-5.263
844.87	-120.000
845.17	-46.667
845.47	9.524
845.76	14.286
846.06	-100.000
846.36	-41.176
846.66	0.000
846.96	-100.000
847.25	-41.176
847.55	13.043
847.85	-10.000
848.15	5.882
848.44	-9.091
848.74	-19.048
849.04	-20.833
849.34	-81.250
849.63	-26.087
849.93	150.000
850.23	13.333
850.53	23.077
850.82	-136.364
851.12	-18.182
851.42	-172.727
851.71	-7.692
852.01	-65.000
852.31	-123.077
852.61	-15.789
852.90	-58.333
853.20	-16.667
853.50	-100.000
853.79	-38.095
854.09	-54.545
854.39	-125.000
854.68	-6.452
854.98	-42.308
855.28	22.222
855.57	-39.286
855.87	-8.000
856.17	27.273
856.46	-11.111
856.76	-16.667
857.05	-30.435
857.35	-25.000
857.65	0.000
857.94	0.000
858.24	-14.815
858.53	-8.696
858.83	-35.294
859.13	29.412
859.42	-29.412
859.72	-7.143
860.01	-35.000
860.31	-122.222
860.60	-40.000
860.90	-73.333
861.20	-50.000
861.49	-23.077
861.79	13.333
862.08	-92.308
862.38	28.125
862.67	0.000
862.97	-18.750
863.26	-200.000
863.56	-100.000
863.85	-90.909
864.15	0.000
864.44	-266.667
864.74	-7.143
865.03	12.500
865.33	-100.000
865.62	-25.806
865.92	0.000
866.21	17.391
866.51	21.429
866.80	-220.000
867.10	-125.000
867.39	-41.667
867.69	1100.000
867.98	-100.000
868.27	17.647
868.57	-2000.000
868.86	-210.000
869.16	14.286
869.45	20.833
869.75	-27.273
870.04	-142.857
870.33	-75.000
870.63	-157.143
870.92	-200.000
871.22	-125.000
871.51	-81.818
871.80	-600.000
872.10	-700.000
>>>>>End Processed Spectral Data<<<<<
