SpectraSuite Data File
++++++++++++++++++++++++++++++++++++
Date: Thu May 14 14:27:00 PDT 2015
User: schluterlab
Dark Spectrum Present: Yes
Reference Spectrum Present: Yes
Number of Sampled Component Spectra: 1
Spectrometers: USB2E3373
Integration Time (usec): 3000 (USB2E3373)
Spectra Averaged: 3 (USB2E3373)
Boxcar Smoothing: 0 (USB2E3373)
Correct for Electrical Dark: No (USB2E3373)
Strobe/Lamp Enabled: No (USB2E3373)
Correct for Detector Non-linearity: No (USB2E3373)
Correct for Stray Light: No (USB2E3373)
Number of Pixels in Processed Spectrum: 2048
>>>>>Begin Processed Spectral Data<<<<<
178.53	0.000
178.91	-28.571
179.29	100.000
179.67	900.000
180.04	-0.000
180.42	-80.000
180.80	-180.000
181.18	500.000
181.56	1500.000
181.94	-300.000
182.31	275.000
182.69	-366.667
183.07	550.000
183.45	-350.000
183.83	150.000
184.20	366.667
184.58	-1300.000
184.96	250.000
185.34	144.444
185.72	220.000
186.09	-33.333
186.47	-200.000
186.85	-40.000
187.23	-88.889
187.61	700.000
187.98	-300.000
188.36	-200.000
188.74	250.000
189.12	566.667
189.49	93.750
189.87	150.000
190.25	200.000
190.63	260.000
191.00	155.556
191.38	0.000
191.76	225.000
192.14	133.333
192.51	-250.000
192.89	283.333
193.27	0.000
193.65	171.429
194.02	-200.000
194.40	142.857
194.78	-71.429
195.15	0.000
195.53	190.909
195.91	0.000
196.29	525.000
196.66	123.077
197.04	600.000
197.42	185.714
197.79	50.000
198.17	162.500
198.55	171.429
198.92	122.222
199.30	162.500
199.68	118.182
200.05	135.714
200.43	450.000
200.81	42.857
201.18	0.000
201.56	-0.000
201.94	0.000
202.31	-100.000
202.69	66.667
203.07	-600.000
203.44	155.556
203.82	200.000
204.19	50.000
204.57	-116.667
204.95	125.000
205.32	600.000
205.70	-250.000
206.08	383.333
206.45	300.000
206.83	-40.000
207.20	83.333
207.58	40.000
207.96	133.333
208.33	233.333
208.71	-66.667
209.08	150.000
209.46	0.000
209.84	-100.000
210.21	-700.000
210.59	-450.000
210.96	-133.333
211.34	375.000
211.71	37.500
212.09	300.000
212.46	0.000
212.84	200.000
213.22	40.000
213.59	175.000
213.97	130.000
214.34	600.000
214.72	-16.667
215.09	125.000
215.47	0.000
215.84	-185.714
216.22	-200.000
216.59	280.000
216.97	100.000
217.34	175.000
217.72	275.000
218.09	150.000
218.47	0.000
218.84	0.000
219.22	-200.000
219.59	100.000
219.97	95.000
220.34	-500.000
220.72	133.333
221.09	115.385
221.47	166.667
221.84	100.000
222.22	185.714
222.59	0.000
222.97	87.500
223.34	-40.000
223.72	1900.000
224.09	225.000
224.46	100.000
224.84	280.000
225.21	100.000
225.59	150.000
225.96	325.000
226.34	53.846
226.71	66.667
227.08	300.000
227.46	140.000
227.83	250.000
228.21	105.263
228.58	-137.500
228.95	-400.000
229.33	175.000
229.70	90.000
230.08	110.526
230.45	-40.000
230.82	466.667
231.20	107.143
231.57	133.333
231.95	54.545
232.32	45.455
232.69	30.000
233.07	75.000
233.44	100.000
233.81	30.000
234.19	122.222
234.56	90.909
234.93	79.310
235.31	57.895
235.68	61.111
236.05	20.000
236.43	76.923
236.80	108.000
237.17	55.556
237.55	48.485
237.92	50.000
238.29	9.677
238.67	29.545
239.04	33.333
239.41	21.429
239.79	28.261
240.16	25.926
240.53	23.913
240.91	21.569
241.28	21.311
241.65	32.836
242.02	40.541
242.40	18.462
242.77	16.000
243.14	1.220
243.51	9.211
243.89	11.538
244.26	22.772
244.63	28.431
245.00	17.757
245.38	6.140
245.75	10.619
246.12	15.873
246.49	12.403
246.87	15.000
247.24	16.556
247.61	14.474
247.98	10.738
248.36	8.025
248.73	11.656
249.10	12.568
249.47	13.433
249.84	17.801
250.22	11.399
250.59	12.778
250.96	13.636
251.33	8.673
251.70	9.829
252.08	12.083
252.45	13.525
252.82	9.504
253.19	8.203
253.56	8.365
253.94	5.769
254.31	9.848
254.68	15.035
255.05	11.726
255.42	7.483
255.79	7.767
256.16	9.934
256.54	5.298
256.91	8.525
257.28	7.869
257.65	5.414
258.02	6.785
258.39	8.262
258.76	8.869
259.14	10.057
259.51	7.781
259.88	7.932
260.25	8.889
260.62	9.041
260.99	9.290
261.36	11.260
261.73	9.284
262.10	4.396
262.47	7.775
262.85	10.354
263.22	8.052
263.59	5.789
263.96	7.928
264.33	5.882
264.70	7.407
265.07	8.831
265.44	11.565
265.81	6.019
266.18	9.751
266.55	10.045
266.92	8.200
267.29	10.503
267.66	7.095
268.03	6.550
268.40	7.933
268.77	3.872
269.14	5.727
269.51	7.237
269.88	8.197
270.25	7.243
270.62	7.173
270.99	8.081
271.36	8.317
271.73	7.269
272.10	8.417
272.47	9.419
272.84	7.028
273.21	5.812
273.58	6.855
273.95	7.308
274.32	4.563
274.69	7.157
275.06	5.678
275.43	6.470
275.80	8.289
276.17	6.111
276.54	5.037
276.91	6.798
277.28	7.233
277.65	8.438
278.02	7.537
278.39	6.522
278.76	4.921
279.13	7.092
279.50	8.419
279.87	6.082
280.23	4.577
280.60	6.441
280.97	6.414
281.34	4.924
281.71	9.475
282.08	5.980
282.45	6.056
282.82	5.651
283.19	4.200
283.56	4.918
283.92	7.057
284.29	7.109
284.66	7.718
285.03	5.449
285.40	6.491
285.77	5.573
286.14	6.107
286.51	4.262
286.87	6.477
287.24	7.078
287.61	6.129
287.98	4.985
288.35	4.290
288.72	7.249
289.08	8.053
289.45	4.734
289.82	4.970
290.19	6.897
290.56	9.014
290.93	6.847
291.29	6.612
291.66	6.612
292.03	6.784
292.40	8.980
292.77	6.469
293.13	7.713
293.50	4.599
293.87	6.040
294.24	7.067
294.60	7.838
294.97	5.503
295.34	7.554
295.71	5.422
296.08	7.752
296.44	6.127
296.81	7.308
297.18	5.604
297.55	6.486
297.91	6.287
298.28	6.754
298.65	6.659
299.02	6.375
299.38	7.208
299.75	7.009
300.12	7.176
300.48	7.028
300.85	6.749
301.22	7.942
301.59	5.479
301.95	6.215
302.32	8.222
302.69	6.791
303.05	6.964
303.42	8.647
303.79	7.187
304.15	8.307
304.52	7.294
304.89	7.853
305.25	7.143
305.62	7.732
305.99	7.835
306.35	7.661
306.72	7.135
307.09	8.020
307.45	7.143
307.82	8.779
308.19	7.770
308.55	8.293
308.92	8.179
309.29	9.674
309.65	8.869
310.02	8.416
310.38	9.547
310.75	8.932
311.12	9.300
311.48	7.331
311.85	9.402
312.22	9.677
312.58	10.610
312.95	9.178
313.31	10.569
313.68	10.073
314.05	11.382
314.41	11.202
314.78	11.444
315.14	11.162
315.51	12.096
315.87	12.421
316.24	12.785
316.61	12.700
316.97	11.312
317.34	11.464
317.70	12.664
318.07	13.668
318.43	13.520
318.80	13.629
319.16	13.476
319.53	12.082
319.89	13.760
320.26	14.947
320.62	13.564
320.99	13.758
321.35	14.880
321.72	16.744
322.08	15.239
322.45	16.350
322.81	17.419
323.18	16.283
323.54	16.810
323.91	18.594
324.27	17.126
324.64	19.312
325.00	18.159
325.37	18.100
325.73	19.256
326.10	19.140
326.46	20.358
326.83	21.137
327.19	20.630
327.56	21.186
327.92	19.984
328.29	22.419
328.65	21.692
329.01	22.589
329.38	23.336
329.74	25.000
330.11	24.315
330.47	25.190
330.84	24.289
331.20	24.083
331.56	25.130
331.93	25.774
332.29	25.932
332.66	26.080
333.02	25.377
333.38	25.839
333.75	26.010
334.11	27.106
334.48	25.990
334.84	27.443
335.20	26.952
335.57	28.499
335.93	27.438
336.29	27.205
336.66	27.166
337.02	28.177
337.38	27.976
337.75	28.099
338.11	28.848
338.47	28.619
338.84	27.919
339.20	28.222
339.56	27.348
339.93	27.997
340.29	27.375
340.65	28.062
341.02	28.731
341.38	28.537
341.74	28.249
342.11	29.525
342.47	29.388
342.83	29.952
343.20	30.090
343.56	28.468
343.92	29.544
344.28	28.594
344.65	28.915
345.01	28.783
345.37	28.538
345.73	28.839
346.10	29.407
346.46	28.402
346.82	29.288
347.19	28.189
347.55	29.742
347.91	29.866
348.27	27.769
348.63	28.865
349.00	28.486
349.36	29.963
349.72	29.539
350.08	29.643
350.45	29.354
350.81	29.940
351.17	29.248
351.53	29.113
351.89	29.689
352.26	29.104
352.62	29.776
352.98	29.160
353.34	28.753
353.70	29.815
354.07	28.987
354.43	30.144
354.79	29.394
355.15	30.390
355.51	30.848
355.87	29.095
356.24	30.342
356.60	30.229
356.96	30.245
357.32	29.368
357.68	29.941
358.04	30.240
358.40	30.896
358.77	29.094
359.13	30.724
359.49	29.740
359.85	30.964
360.21	29.914
360.57	30.294
360.93	30.254
361.29	30.105
361.66	30.485
362.02	31.454
362.38	30.569
362.74	30.656
363.10	31.087
363.46	30.748
363.82	31.605
364.18	31.527
364.54	32.019
364.90	31.438
365.26	31.586
365.62	32.133
365.98	31.858
366.35	31.074
366.71	32.109
367.07	31.935
367.43	32.436
367.79	32.250
368.15	32.174
368.51	33.018
368.87	31.679
369.23	31.067
369.59	32.514
369.95	31.440
370.31	32.208
370.67	33.081
371.03	32.825
371.39	32.438
371.75	33.012
372.11	33.198
372.47	33.311
372.83	33.115
373.19	33.089
373.55	34.214
373.91	33.470
374.27	34.023
374.63	34.235
374.99	33.554
375.35	35.000
375.71	33.806
376.07	34.861
376.42	34.068
376.78	34.991
377.14	34.186
377.50	35.231
377.86	34.483
378.22	34.611
378.58	35.850
378.94	34.448
379.30	34.739
379.66	35.744
380.02	35.718
380.38	36.636
380.74	35.268
381.09	36.237
381.45	36.250
381.81	36.475
382.17	35.511
382.53	36.257
382.89	36.456
383.25	36.870
383.61	35.937
383.97	37.633
384.32	38.098
384.68	36.369
385.04	37.710
385.40	37.949
385.76	38.277
386.12	37.283
386.48	38.000
386.83	37.843
387.19	37.370
387.55	38.498
387.91	37.842
388.27	38.395
388.62	37.743
388.98	37.676
389.34	38.656
389.70	38.931
390.06	37.892
390.42	37.892
390.77	38.170
391.13	38.908
391.49	38.285
391.85	39.091
392.20	39.383
392.56	39.929
392.92	39.586
393.28	39.856
393.64	38.436
393.99	38.931
394.35	39.895
394.71	39.281
395.07	38.323
395.42	38.892
395.78	40.829
396.14	39.632
396.50	39.489
396.85	38.998
397.21	40.473
397.57	40.047
397.92	40.206
398.28	39.598
398.64	39.989
399.00	39.319
399.35	39.529
399.71	39.837
400.07	39.304
400.42	40.105
400.78	39.931
401.14	40.637
401.49	40.250
401.85	39.942
402.21	41.078
402.57	40.376
402.92	39.953
403.28	41.101
403.63	40.811
403.99	40.083
404.35	40.421
404.70	39.717
405.06	39.293
405.42	40.164
405.77	39.967
406.13	40.249
406.49	39.471
406.84	40.499
407.20	39.687
407.55	40.339
407.91	40.289
408.27	40.577
408.62	40.663
408.98	40.279
409.34	39.355
409.69	41.038
410.05	41.383
410.40	41.183
410.76	39.540
411.11	40.503
411.47	40.848
411.83	41.093
412.18	41.084
412.54	41.375
412.89	40.629
413.25	40.914
413.60	41.183
413.96	41.026
414.31	39.943
414.67	40.906
415.03	40.677
415.38	41.866
415.74	41.784
416.09	41.333
416.45	40.952
416.80	40.820
417.16	41.379
417.51	41.656
417.87	41.324
418.22	42.455
418.58	42.069
418.93	42.666
419.29	42.232
419.64	41.056
420.00	41.662
420.35	42.841
420.71	42.677
421.06	41.921
421.42	43.865
421.77	41.357
422.12	41.543
422.48	42.652
422.83	41.950
423.19	43.979
423.54	43.971
423.90	42.518
424.25	43.733
424.61	43.341
424.96	44.811
425.31	44.214
425.67	43.800
426.02	44.826
426.38	44.489
426.73	42.913
427.09	45.040
427.44	44.457
427.79	45.384
428.15	43.550
428.50	44.607
428.85	44.087
429.21	46.649
429.56	45.607
429.92	43.931
430.27	45.928
430.62	44.895
430.98	45.548
431.33	45.064
431.68	45.690
432.04	45.607
432.39	45.956
432.74	46.005
433.10	47.215
433.45	46.488
433.80	47.157
434.16	47.314
434.51	48.715
434.86	48.480
435.22	49.256
435.57	49.646
435.92	47.746
436.28	48.805
436.63	49.863
436.98	48.792
437.34	49.098
437.69	49.257
438.04	49.127
438.39	49.569
438.75	48.478
439.10	49.683
439.45	49.245
439.81	49.887
440.16	49.115
440.51	50.334
440.86	51.084
441.22	51.768
441.57	49.738
441.92	50.194
442.27	50.202
442.63	49.627
442.98	51.387
443.33	50.973
443.68	52.279
444.03	53.010
444.39	52.011
444.74	52.272
445.09	50.887
445.44	52.740
445.79	52.059
446.15	52.980
446.50	52.351
446.85	53.648
447.20	52.805
447.55	52.824
447.91	54.241
448.26	53.805
448.61	52.550
448.96	55.365
449.31	52.969
449.66	52.832
450.02	54.747
450.37	54.395
450.72	54.575
451.07	54.727
451.42	53.611
451.77	56.420
452.12	56.546
452.47	54.308
452.83	56.757
453.18	53.649
453.53	54.566
453.88	55.715
454.23	55.593
454.58	56.820
454.93	55.583
455.28	58.459
455.63	55.600
455.98	56.927
456.34	57.362
456.69	56.790
457.04	57.506
457.39	56.098
457.74	58.501
458.09	56.343
458.44	57.058
458.79	56.988
459.14	57.105
459.49	57.838
459.84	57.922
460.19	57.524
460.54	57.922
460.89	58.920
461.24	58.276
461.59	58.163
461.94	57.216
462.29	58.959
462.64	57.695
462.99	58.820
463.34	60.610
463.69	59.555
464.04	60.256
464.39	57.735
464.74	58.780
465.09	58.593
465.44	59.442
465.79	58.699
466.14	58.364
466.49	58.947
466.84	59.559
467.19	59.884
467.54	58.637
467.89	59.138
468.24	59.280
468.59	59.931
468.94	59.324
469.29	60.408
469.64	61.093
469.99	61.632
470.34	60.520
470.68	61.791
471.03	62.213
471.38	60.889
471.73	61.443
472.08	62.183
472.43	60.987
472.78	61.335
473.13	61.631
473.48	61.752
473.83	62.159
474.17	61.489
474.52	62.658
474.87	61.296
475.22	62.254
475.57	60.177
475.92	61.424
476.27	61.768
476.61	60.800
476.96	60.792
477.31	60.743
477.66	64.008
478.01	62.735
478.36	61.266
478.70	61.872
479.05	62.219
479.40	63.327
479.75	62.296
480.10	62.198
480.45	61.531
480.79	61.905
481.14	61.673
481.49	61.608
481.84	62.010
482.19	62.151
482.53	62.221
482.88	63.491
483.23	63.628
483.58	63.624
483.92	63.520
484.27	62.362
484.62	62.376
484.97	62.597
485.31	61.844
485.66	60.762
486.01	57.987
486.36	57.630
486.70	58.253
487.05	59.212
487.40	60.111
487.75	62.061
488.09	61.736
488.44	61.652
488.79	62.833
489.13	64.265
489.48	63.107
489.83	63.662
490.17	62.940
490.52	62.233
490.87	63.409
491.22	64.341
491.56	63.865
491.91	64.893
492.26	64.474
492.60	64.889
492.95	64.019
493.30	64.859
493.64	65.265
493.99	64.079
494.34	64.460
494.68	63.769
495.03	64.758
495.37	64.758
495.72	66.576
496.07	65.557
496.41	64.908
496.76	64.554
497.11	65.563
497.45	64.566
497.80	64.949
498.14	64.989
498.49	65.074
498.84	66.362
499.18	65.092
499.53	65.650
499.87	65.802
500.22	65.183
500.56	65.767
500.91	66.407
501.26	66.909
501.60	66.240
501.95	65.002
502.29	65.687
502.64	65.107
502.98	64.107
503.33	64.795
503.67	64.762
504.02	65.280
504.36	65.639
504.71	66.330
505.06	65.302
505.40	65.631
505.75	66.621
506.09	66.068
506.44	66.899
506.78	67.248
507.13	65.652
507.47	66.651
507.82	67.377
508.16	66.826
508.51	65.729
508.85	67.548
509.19	67.125
509.54	67.051
509.88	66.731
510.23	67.654
510.57	67.811
510.92	67.489
511.26	66.041
511.61	65.234
511.95	66.715
512.30	67.307
512.64	66.617
512.98	67.834
513.33	68.448
513.67	67.874
514.02	69.085
514.36	68.440
514.70	69.167
515.05	69.447
515.39	69.344
515.74	69.618
516.08	68.516
516.42	69.492
516.77	69.558
517.11	67.303
517.46	68.770
517.80	70.016
518.14	69.423
518.49	68.221
518.83	68.600
519.17	69.898
519.52	69.759
519.86	69.113
520.20	68.903
520.55	69.606
520.89	70.608
521.23	69.626
521.58	71.243
521.92	71.161
522.26	69.702
522.61	70.139
522.95	70.358
523.29	71.264
523.64	70.404
523.98	70.850
524.32	71.691
524.66	70.518
525.01	68.969
525.35	69.443
525.69	70.650
526.04	70.551
526.38	70.977
526.72	70.012
527.06	71.730
527.41	71.312
527.75	69.952
528.09	70.956
528.43	70.101
528.78	70.289
529.12	69.438
529.46	68.859
529.80	70.023
530.15	70.029
530.49	70.581
530.83	71.311
531.17	69.235
531.51	72.142
531.86	70.012
532.20	70.122
532.54	69.838
532.88	71.515
533.22	69.417
533.57	70.571
533.91	69.024
534.25	69.361
534.59	69.310
534.93	69.044
535.27	68.282
535.62	69.528
535.96	70.250
536.30	70.035
536.64	70.991
536.98	70.295
537.32	70.062
537.66	70.181
538.01	68.822
538.35	69.428
538.69	69.351
539.03	70.632
539.37	67.432
539.71	69.970
540.05	69.904
540.39	68.032
540.73	68.913
541.07	69.160
541.42	68.045
541.76	67.260
542.10	68.456
542.44	69.854
542.78	69.526
543.12	69.547
543.46	68.376
543.80	67.266
544.14	68.701
544.48	68.203
544.82	68.761
545.16	68.336
545.50	69.623
545.84	68.524
546.18	69.630
546.52	68.981
546.86	68.742
547.20	67.939
547.54	68.414
547.88	69.017
548.22	67.602
548.56	68.344
548.90	67.821
549.24	68.450
549.58	69.274
549.92	69.515
550.26	68.673
550.60	67.964
550.94	68.887
551.28	69.373
551.62	70.889
551.96	67.961
552.30	69.981
552.64	68.202
552.98	69.432
553.32	69.775
553.66	69.389
554.00	69.609
554.34	69.176
554.68	69.400
555.02	69.251
555.36	69.165
555.69	68.674
556.03	67.528
556.37	68.335
556.71	69.372
557.05	68.371
557.39	70.139
557.73	69.683
558.07	69.007
558.41	70.365
558.75	69.439
559.08	70.494
559.42	69.684
559.76	70.014
560.10	69.591
560.44	68.536
560.78	69.187
561.12	67.796
561.45	67.397
561.79	68.926
562.13	68.762
562.47	66.584
562.81	67.911
563.15	67.551
563.48	67.122
563.82	68.682
564.16	67.777
564.50	67.640
564.84	68.496
565.17	67.118
565.51	65.478
565.85	67.340
566.19	65.899
566.52	66.530
566.86	66.157
567.20	65.633
567.54	66.490
567.88	65.800
568.21	64.773
568.55	65.468
568.89	64.140
569.23	62.949
569.56	62.524
569.90	61.903
570.24	60.405
570.57	60.455
570.91	59.890
571.25	58.577
571.59	59.672
571.92	58.849
572.26	59.185
572.60	58.777
572.93	59.365
573.27	59.764
573.61	59.238
573.95	58.801
574.28	57.860
574.62	57.208
574.96	57.874
575.29	56.466
575.63	57.611
575.97	57.677
576.30	57.760
576.64	57.767
576.98	57.813
577.31	57.490
577.65	57.511
577.98	57.003
578.32	56.518
578.66	55.956
578.99	56.646
579.33	57.025
579.67	57.570
580.00	57.676
580.34	56.850
580.67	57.568
581.01	57.789
581.35	56.809
581.68	57.019
582.02	55.749
582.35	56.462
582.69	56.620
583.02	56.756
583.36	56.480
583.70	57.896
584.03	57.595
584.37	58.381
584.70	58.068
585.04	56.801
585.37	57.070
585.71	56.893
586.04	57.001
586.38	56.871
586.72	56.856
587.05	57.508
587.39	57.691
587.72	57.656
588.06	57.640
588.39	58.576
588.73	57.540
589.06	58.663
589.40	59.250
589.73	59.094
590.07	59.881
590.40	60.311
590.73	59.738
591.07	61.095
591.40	59.720
591.74	61.566
592.07	61.226
592.41	59.740
592.74	58.715
593.08	59.140
593.41	58.268
593.75	57.557
594.08	58.800
594.41	58.846
594.75	58.519
595.08	59.354
595.42	59.545
595.75	59.122
596.09	59.404
596.42	60.695
596.75	60.787
597.09	61.697
597.42	59.793
597.75	60.368
598.09	60.159
598.42	60.555
598.76	59.534
599.09	59.203
599.42	58.029
599.76	58.336
600.09	59.493
600.42	58.392
600.76	58.454
601.09	58.712
601.42	58.119
601.76	59.310
602.09	59.006
602.42	58.924
602.76	59.077
603.09	60.426
603.42	60.007
603.76	59.408
604.09	59.936
604.42	59.780
604.76	59.056
605.09	60.351
605.42	59.609
605.75	59.115
606.09	59.574
606.42	58.701
606.75	58.883
607.09	57.565
607.42	58.728
607.75	58.304
608.08	58.840
608.42	59.492
608.75	59.328
609.08	60.739
609.41	61.535
609.75	60.357
610.08	61.170
610.41	59.601
610.74	59.076
611.07	60.080
611.41	60.628
611.74	61.109
612.07	61.711
612.40	60.741
612.73	61.271
613.07	60.244
613.40	61.261
613.73	60.809
614.06	60.648
614.39	60.690
614.72	60.116
615.06	60.154
615.39	60.754
615.72	60.237
616.05	60.855
616.38	60.848
616.71	61.651
617.05	61.395
617.38	62.386
617.71	63.067
618.04	61.738
618.37	62.240
618.70	63.292
619.03	63.262
619.36	62.824
619.69	63.805
620.03	63.277
620.36	63.190
620.69	64.590
621.02	64.764
621.35	66.401
621.68	67.245
622.01	66.192
622.34	64.923
622.67	64.880
623.00	63.630
623.33	65.428
623.66	63.294
623.99	63.134
624.32	64.263
624.65	63.771
624.99	63.914
625.32	64.010
625.65	64.801
625.98	63.661
626.31	65.273
626.64	66.300
626.97	65.266
627.30	66.743
627.63	65.941
627.96	66.892
628.29	66.459
628.62	68.346
628.95	71.253
629.28	68.564
629.61	69.529
629.94	66.276
630.26	67.627
630.59	67.876
630.92	68.831
631.25	70.751
631.58	70.904
631.91	70.197
632.24	70.989
632.57	69.829
632.90	71.515
633.23	71.735
633.56	72.143
633.89	68.802
634.22	72.141
634.55	72.025
634.88	71.537
635.20	72.121
635.53	74.802
635.86	71.614
636.19	72.110
636.52	70.781
636.85	70.889
637.18	69.231
637.51	72.043
637.83	72.425
638.16	71.429
638.49	73.826
638.82	70.124
639.15	71.134
639.48	72.979
639.81	71.940
640.13	72.320
640.46	71.879
640.79	71.569
641.12	73.540
641.45	72.773
641.77	78.434
642.10	73.491
642.43	75.000
642.76	71.274
643.09	73.973
643.41	74.510
643.74	74.483
644.07	77.931
644.40	75.389
644.73	74.165
645.05	77.680
645.38	77.266
645.71	74.780
646.04	78.049
646.36	75.036
646.69	77.301
647.02	77.217
647.35	77.557
647.67	78.422
648.00	78.662
648.33	75.976
648.66	75.321
648.98	70.884
649.31	73.342
649.64	72.643
649.96	71.618
650.29	73.713
650.62	73.126
650.94	72.673
651.27	74.102
651.60	72.953
651.92	73.556
652.25	72.504
652.58	71.527
652.90	72.674
653.23	74.225
653.56	72.611
653.88	73.034
654.21	69.859
654.54	71.532
654.86	73.796
655.19	66.374
655.52	59.457
655.84	48.045
656.17	57.359
656.49	80.664
656.82	89.191
657.15	70.438
657.47	53.668
657.80	40.127
658.13	32.406
658.45	43.266
658.78	52.725
659.10	54.145
659.43	55.476
659.75	58.411
660.08	60.560
660.41	64.185
660.73	67.617
661.06	74.743
661.38	72.568
661.71	74.138
662.03	74.780
662.36	76.386
662.68	77.674
663.01	73.274
663.33	78.828
663.66	77.839
663.98	79.808
664.31	79.737
664.63	76.108
664.96	76.588
665.28	75.318
665.61	72.902
665.93	73.571
666.26	75.627
666.58	74.354
666.91	75.514
667.23	76.000
667.56	77.909
667.88	78.000
668.21	76.172
668.53	75.290
668.86	78.978
669.18	76.782
669.50	77.336
669.83	74.800
670.15	78.740
670.48	77.381
670.80	76.482
671.13	73.724
671.45	79.134
671.77	77.401
672.10	68.000
672.42	72.168
672.75	70.200
673.07	70.299
673.39	69.954
673.72	72.987
674.04	75.517
674.37	73.345
674.69	73.721
675.01	76.762
675.34	72.710
675.66	72.472
675.98	72.575
676.31	78.516
676.63	74.525
676.95	75.670
677.28	77.621
677.60	73.622
677.92	73.512
678.25	72.761
678.57	72.598
678.89	72.355
679.22	72.125
679.54	69.915
679.86	70.339
680.18	69.818
680.51	70.440
680.83	69.558
681.15	72.069
681.48	70.984
681.80	71.157
682.12	71.503
682.44	69.115
682.77	70.745
683.09	72.348
683.41	74.225
683.73	68.501
684.06	72.878
684.38	69.589
684.70	70.557
685.02	68.847
685.34	68.220
685.67	66.404
685.99	63.497
686.31	64.535
686.63	68.088
686.96	65.457
687.28	68.241
687.60	67.172
687.92	66.238
688.24	66.945
688.56	66.552
688.89	69.873
689.21	72.798
689.53	70.588
689.85	73.964
690.17	67.963
690.49	69.522
690.82	71.683
691.14	70.648
691.46	71.319
691.78	67.956
692.10	66.422
692.42	65.357
692.74	68.421
693.06	65.741
693.39	69.260
693.71	68.609
694.03	68.401
694.35	67.810
694.67	73.922
694.99	66.596
695.31	72.406
695.63	70.346
695.95	66.874
696.27	72.088
696.59	71.018
696.91	69.369
697.23	75.165
697.56	69.450
697.88	65.720
698.20	68.362
698.52	70.076
698.84	72.349
699.16	68.980
699.48	68.410
699.80	68.723
700.12	72.052
700.44	70.276
700.76	74.347
701.08	68.281
701.40	73.575
701.72	70.896
702.04	74.332
702.36	73.298
702.68	72.616
703.00	70.905
703.32	69.212
703.64	73.105
703.96	70.406
704.28	71.007
704.60	71.899
704.91	70.663
705.23	75.068
705.55	71.866
705.87	81.818
706.19	81.902
706.51	74.398
706.83	75.504
707.15	69.841
707.47	64.252
707.79	62.882
708.11	62.924
708.43	66.882
708.74	63.616
709.06	62.413
709.38	70.423
709.70	72.953
710.02	66.925
710.34	71.809
710.66	72.905
710.98	71.858
711.29	68.132
711.61	71.469
711.93	72.365
712.25	68.649
712.57	75.221
712.89	72.059
713.20	72.781
713.52	71.965
713.84	67.131
714.16	68.684
714.48	65.979
714.80	73.506
715.11	68.504
715.43	66.844
715.75	67.368
716.07	68.785
716.39	71.311
716.70	72.590
717.02	76.393
717.34	72.125
717.66	72.819
717.97	71.918
718.29	74.227
718.61	72.697
718.93	69.579
719.24	70.186
719.56	68.098
719.88	67.568
720.20	74.194
720.51	67.391
720.83	70.313
721.15	71.053
721.46	69.521
721.78	72.000
722.10	70.550
722.42	70.470
722.73	73.226
723.05	76.140
723.37	69.097
723.68	74.552
724.00	72.202
724.32	69.718
724.63	68.182
724.95	70.922
725.27	68.641
725.58	66.784
725.90	72.069
726.22	65.831
726.53	72.078
726.85	71.069
727.16	67.674
727.48	69.725
727.80	65.563
728.11	65.371
728.43	71.717
728.74	68.227
729.06	70.530
729.38	67.208
729.69	68.456
730.01	61.905
730.32	63.636
730.64	68.553
730.96	64.907
731.27	65.642
731.59	65.934
731.90	61.818
732.22	60.417
732.53	60.497
732.85	60.857
733.16	66.862
733.48	69.207
733.80	62.117
734.11	59.544
734.43	61.351
734.74	63.544
735.06	60.804
735.37	64.865
735.69	58.919
736.00	62.429
736.32	63.342
736.63	63.611
736.95	62.356
737.26	62.121
737.58	65.152
737.89	62.941
738.21	64.832
738.52	63.607
738.83	64.164
739.15	64.539
739.46	62.245
739.78	65.951
740.09	61.032
740.41	65.598
740.72	63.667
741.04	63.430
741.35	65.614
741.66	71.765
741.98	70.082
742.29	71.548
742.61	72.807
742.92	68.462
743.23	65.704
743.55	68.992
743.86	76.800
744.18	67.769
744.49	72.152
744.80	70.782
745.12	68.776
745.43	70.732
745.74	67.672
746.06	76.695
746.37	76.371
746.68	71.951
747.00	72.083
747.31	75.107
747.62	68.462
747.94	72.065
748.25	69.478
748.56	68.980
748.88	64.530
749.19	71.121
749.50	71.429
749.82	75.904
750.13	65.125
750.44	63.000
750.75	63.385
751.07	64.308
751.38	62.145
751.69	65.815
752.01	61.165
752.32	65.033
752.63	67.347
752.94	64.360
753.26	68.030
753.57	65.926
753.88	69.288
754.19	63.987
754.51	62.058
754.82	64.630
755.13	66.885
755.44	66.212
755.75	59.868
756.07	62.985
756.38	63.836
756.69	62.651
757.00	57.895
757.31	59.836
757.63	56.010
757.94	56.808
758.25	58.465
758.56	57.952
758.87	54.773
759.18	60.267
759.50	60.623
759.81	58.263
760.12	56.604
760.43	62.500
760.74	59.113
761.05	54.250
761.36	56.627
761.67	57.614
761.99	56.486
762.30	61.280
762.61	58.086
762.92	63.806
763.23	64.794
763.54	63.669
763.85	59.450
764.16	63.973
764.47	62.324
764.78	61.661
765.10	57.771
765.41	54.359
765.72	56.085
766.03	58.475
766.34	56.740
766.65	58.885
766.96	65.339
767.27	70.968
767.58	73.632
767.89	66.346
768.20	66.667
768.51	67.593
768.82	65.060
769.13	61.364
769.44	58.462
769.75	59.928
770.06	61.538
770.37	62.992
770.68	56.596
770.99	58.704
771.30	62.593
771.61	65.019
771.92	63.333
772.23	67.206
772.54	66.204
772.85	69.124
773.16	60.476
773.47	66.667
773.78	69.189
774.09	72.159
774.39	66.500
774.70	71.585
775.01	67.073
775.32	65.882
775.63	70.552
775.94	64.331
776.25	71.613
776.56	71.795
776.87	68.707
777.18	68.276
777.48	69.930
777.79	74.324
778.10	77.206
778.41	72.222
778.72	72.414
779.03	66.667
779.34	61.818
779.65	57.513
779.95	67.778
780.26	61.364
780.57	70.968
780.88	83.333
781.19	68.387
781.50	61.176
781.80	66.667
782.11	59.259
782.42	57.071
782.73	65.868
783.04	59.777
783.34	59.394
783.65	64.706
783.96	66.460
784.27	64.286
784.57	65.563
784.88	63.571
785.19	75.591
785.50	59.055
785.81	71.429
786.11	63.077
786.42	55.396
786.73	64.029
787.04	71.429
787.34	76.230
787.65	67.200
787.96	62.687
788.26	67.832
788.57	73.427
788.88	65.789
789.19	62.092
789.49	64.384
789.80	73.050
790.11	70.866
790.41	60.937
790.72	56.780
791.03	69.903
791.33	73.043
791.64	67.544
791.95	73.214
792.25	69.524
792.56	67.857
792.87	71.875
793.17	66.964
793.48	66.667
793.79	59.036
794.09	57.798
794.40	61.468
794.70	65.986
795.01	59.740
795.32	61.644
795.62	59.155
795.93	60.606
796.23	69.672
796.54	56.250
796.85	73.404
797.15	70.652
797.46	78.082
797.76	72.500
798.07	68.478
798.37	61.856
798.68	70.130
798.99	73.563
799.29	66.292
799.60	65.957
799.90	72.289
800.21	81.538
800.51	92.537
800.82	79.412
801.12	56.164
801.43	60.294
801.73	69.492
802.04	92.424
802.34	81.667
802.65	83.051
802.95	77.612
803.26	79.661
803.56	64.384
803.87	94.286
804.17	84.932
804.48	82.456
804.78	70.833
805.09	79.310
805.39	86.486
805.70	42.254
806.00	69.512
806.30	66.265
806.61	80.822
806.91	53.846
807.22	72.222
807.52	63.218
807.83	84.722
808.13	80.723
808.43	59.551
808.74	75.000
809.04	88.235
809.35	74.667
809.65	80.000
809.95	68.493
810.26	73.684
810.56	86.207
810.86	80.882
811.17	63.158
811.47	65.574
811.77	86.667
812.08	74.576
812.38	80.000
812.69	98.276
812.99	50.943
813.29	76.923
813.59	106.000
813.90	57.895
814.20	80.000
814.50	73.239
814.81	76.923
815.11	78.689
815.41	76.119
815.72	91.379
816.02	92.857
816.32	91.111
816.62	100.000
816.93	108.889
817.23	68.519
817.53	89.362
817.84	114.286
818.14	102.941
818.44	91.837
818.74	71.111
819.04	76.923
819.35	100.000
819.65	115.385
819.95	77.358
820.25	86.667
820.56	76.190
820.86	100.000
821.16	92.308
821.46	67.442
821.76	50.000
822.07	67.857
822.37	73.913
822.67	74.468
822.97	83.784
823.27	90.000
823.57	79.592
823.88	93.333
824.18	117.500
824.48	90.000
824.78	148.000
825.08	78.788
825.38	66.667
825.69	74.468
825.99	97.222
826.29	77.143
826.59	76.923
826.89	95.349
827.19	66.000
827.49	94.118
827.79	83.333
828.09	67.568
828.39	83.333
828.70	75.610
829.00	81.395
829.30	121.429
829.60	91.176
829.90	80.435
830.20	125.714
830.50	96.552
830.80	150.000
831.10	126.923
831.40	94.118
831.70	152.381
832.00	129.032
832.30	123.529
832.60	83.333
832.90	161.538
833.20	142.105
833.50	115.000
833.80	157.895
834.10	80.952
834.40	102.778
834.70	112.500
835.00	60.000
835.30	111.765
835.60	110.000
835.90	108.000
836.20	72.727
836.50	112.000
836.80	69.697
837.10	85.185
837.40	107.407
837.70	125.000
838.00	75.000
838.30	82.609
838.60	68.966
838.90	135.714
839.19	30.435
839.49	108.333
839.79	86.957
840.09	87.500
840.39	70.000
840.69	122.581
840.99	64.286
841.29	126.667
841.59	136.842
841.88	69.231
842.18	69.231
842.48	170.000
842.78	100.000
843.08	80.000
843.38	90.323
843.68	66.667
843.97	79.412
844.27	118.750
844.57	157.895
844.87	170.000
845.17	113.333
845.47	100.000
845.76	76.190
846.06	144.444
846.36	58.824
846.66	96.154
846.96	80.000
847.25	111.765
847.55	108.696
847.85	125.000
848.15	158.824
848.44	181.818
848.74	76.190
849.04	66.667
849.34	112.500
849.63	100.000
849.93	-1000.000
850.23	126.667
850.53	119.231
850.82	172.727
851.12	127.273
851.42	227.273
851.71	230.769
852.01	45.000
852.31	61.538
852.61	52.632
852.90	133.333
853.20	100.000
853.50	177.778
853.79	90.476
854.09	90.909
854.39	150.000
854.68	80.645
854.98	61.538
855.28	122.222
855.57	85.714
855.87	88.000
856.17	72.727
856.46	125.926
856.76	83.333
857.05	104.348
857.35	104.167
857.65	115.385
857.94	100.000
858.24	96.296
858.53	117.391
858.83	100.000
859.13	47.059
859.42	147.059
859.72	185.714
860.01	70.000
860.31	188.889
860.60	220.000
860.90	126.667
861.20	150.000
861.49	184.615
861.79	73.333
862.08	100.000
862.38	71.875
862.67	158.824
862.97	137.500
863.26	233.333
863.56	170.000
863.85	190.909
864.15	116.667
864.44	666.667
864.74	157.143
865.03	93.750
865.33	60.000
865.62	38.710
865.92	100.000
866.21	108.696
866.51	142.857
866.80	140.000
867.10	91.667
867.39	58.333
867.69	-1000.000
867.98	271.429
868.27	41.176
868.57	1100.000
868.86	100.000
869.16	85.714
869.45	104.167
869.75	209.091
870.04	257.143
870.33	183.333
870.63	257.143
870.92	475.000
871.22	-50.000
871.51	127.273
871.80	100.000
872.10	500.000
>>>>>End Processed Spectral Data<<<<<
