SpectraSuite Data File
++++++++++++++++++++++++++++++++++++
Date: Thu May 14 15:18:05 PDT 2015
User: schluterlab
Dark Spectrum Present: Yes
Reference Spectrum Present: Yes
Number of Sampled Component Spectra: 1
Spectrometers: USB2E3373
Integration Time (usec): 3000 (USB2E3373)
Spectra Averaged: 3 (USB2E3373)
Boxcar Smoothing: 0 (USB2E3373)
Correct for Electrical Dark: No (USB2E3373)
Strobe/Lamp Enabled: No (USB2E3373)
Correct for Detector Non-linearity: No (USB2E3373)
Correct for Stray Light: No (USB2E3373)
Number of Pixels in Processed Spectrum: 2048
>>>>>Begin Processed Spectral Data<<<<<
178.53	0.000
178.91	600.000
179.29	-5000.000
179.67	-4800.000
180.04	464.286
180.42	400.000
180.80	820.000
181.18	-3300.000
181.56	-3700.000
181.94	1050.000
182.31	-950.000
182.69	1400.000
183.07	-2000.000
183.45	1225.000
183.83	-650.000
184.20	-1333.333
184.58	3600.000
184.96	-1100.000
185.34	-500.000
185.72	-680.000
186.09	522.222
186.47	2050.000
186.85	900.000
187.23	-566.667
187.61	-4700.000
187.98	920.000
188.36	1175.000
188.74	-950.000
189.12	-1600.000
189.49	-237.500
189.87	-487.500
190.25	-433.333
190.63	-900.000
191.00	-511.111
191.38	0.000
191.76	-1100.000
192.14	-766.667
192.51	2100.000
192.89	-450.000
193.27	0.000
193.65	-557.143
194.02	-4600.000
194.40	-514.286
194.78	628.571
195.15	0.000
195.53	-327.273
195.91	0.000
196.29	-775.000
196.66	-246.154
197.04	-3800.000
197.42	-757.143
197.79	-2250.000
198.17	-525.000
198.55	-485.714
198.92	-300.000
199.30	-512.500
199.68	-281.818
200.05	-242.857
200.43	-2050.000
200.81	700.000
201.18	0.000
201.56	511.111
201.94	0.000
202.31	1433.333
202.69	-477.778
203.07	3700.000
203.44	-344.444
203.82	-1025.000
204.19	-325.000
204.57	-750.000
204.95	-462.500
205.32	-3600.000
205.70	825.000
206.08	-633.333
206.45	-700.000
206.83	980.000
207.20	-650.000
207.58	-1040.000
207.96	-650.000
208.33	-566.667
208.71	425.000
209.08	-633.333
209.46	0.000
209.84	633.333
210.21	2250.000
210.59	1900.000
210.96	1600.000
211.34	-925.000
211.71	-612.500
212.09	-4600.000
212.46	0.000
212.84	2250.000
213.22	-780.000
213.59	-1000.000
213.97	-320.000
214.34	-1700.000
214.72	666.667
215.09	-925.000
215.47	0.000
215.84	614.286
216.22	2500.000
216.59	-820.000
216.97	-920.000
217.34	-1050.000
217.72	-612.500
218.09	-1150.000
218.47	-1100.000
218.84	0.000
219.22	820.000
219.59	-223.529
219.97	-150.000
220.34	2000.000
220.72	-388.889
221.09	-269.231
221.47	-1500.000
221.84	-460.000
222.22	-771.429
222.59	0.000
222.97	-500.000
223.34	-820.000
223.72	-3900.000
224.09	-1000.000
224.46	-1000.000
224.84	-800.000
225.21	-642.857
225.59	-1075.000
225.96	-1200.000
226.34	-96.154
226.71	716.667
227.08	-1900.000
227.46	-246.667
227.83	-1100.000
228.21	-184.211
228.58	575.000
228.95	2000.000
229.33	-341.667
229.70	-400.000
230.08	-136.842
230.45	540.000
230.82	-1433.333
231.20	-278.571
231.57	-316.667
231.95	-281.818
232.32	-354.545
232.69	-180.000
233.07	-1300.000
233.44	-241.176
233.81	-290.000
234.19	-161.111
234.56	-186.364
234.93	-137.931
235.31	-205.263
235.68	-211.111
236.05	-260.000
236.43	-126.923
236.80	-116.000
237.17	-148.148
237.55	-112.121
237.92	-420.000
238.29	-122.581
238.67	-75.000
239.04	-100.000
239.41	-109.524
239.79	-65.217
240.16	-66.667
240.53	-86.957
240.91	-88.235
241.28	-57.377
241.65	-46.269
242.02	-36.486
242.40	-64.615
242.77	-48.000
243.14	-51.220
243.51	-60.526
243.89	-56.410
244.26	-37.624
244.63	-42.157
245.00	-35.514
245.38	-35.965
245.75	-45.133
246.12	-30.952
246.49	-28.682
246.87	-25.714
247.24	-20.530
247.61	-17.763
247.98	-22.819
248.36	-27.160
248.73	-26.994
249.10	-19.672
249.47	-13.433
249.84	-13.089
250.22	-21.762
250.59	-25.556
250.96	-19.091
251.33	-29.592
251.70	-15.812
252.08	-12.500
252.45	-13.934
252.82	-13.636
253.19	-17.578
253.56	-11.787
253.94	-15.385
254.31	-12.879
254.68	-8.392
255.05	-5.212
255.42	-13.946
255.79	-14.563
256.16	-11.589
256.54	-14.570
256.91	-14.426
257.28	-15.738
257.65	-11.783
258.02	-13.274
258.39	-9.687
258.76	-9.174
259.14	-9.770
259.51	-8.069
259.88	-9.632
260.25	-9.444
260.62	-6.575
260.99	-6.831
261.36	-8.043
261.73	-10.080
262.10	-10.714
262.47	-9.920
262.85	-4.040
263.22	-9.870
263.59	-12.368
263.96	-7.928
264.33	-9.974
264.70	-7.654
265.07	-4.057
265.44	-5.669
265.81	-8.796
266.18	-6.122
266.55	-8.482
266.92	-9.795
267.29	-4.376
267.66	-6.874
268.03	-7.205
268.40	-5.637
268.77	-7.289
269.14	-11.013
269.51	-6.360
269.88	-5.533
270.25	-6.439
270.62	-7.173
270.99	-3.838
271.36	-5.545
271.73	-5.697
272.10	-5.411
272.47	-6.012
272.84	-5.020
273.21	-6.012
273.58	-4.435
273.95	-6.154
274.32	-6.844
274.69	-5.609
275.06	-5.311
275.43	-7.024
275.80	-4.762
276.17	-5.556
276.54	-4.478
276.91	-5.546
277.28	-4.882
277.65	-5.745
278.02	-4.412
278.39	-4.167
278.76	-4.921
279.13	-3.901
279.50	-2.749
279.87	-5.725
280.23	-8.979
280.60	-4.068
280.97	-4.770
281.34	-5.942
281.71	-4.569
282.08	-4.153
282.45	-3.601
282.82	-3.297
283.19	-4.847
283.56	-5.410
283.92	-3.303
284.29	-2.370
284.66	-3.941
285.03	-6.731
285.40	-3.091
285.77	-4.644
286.14	-2.595
286.51	-3.957
286.87	-4.897
287.24	-2.410
287.61	-4.036
287.98	-6.042
288.35	-4.882
288.72	-3.994
289.08	-3.807
289.45	-4.290
289.82	-3.464
290.19	-4.310
290.56	-3.380
290.93	-4.708
291.29	-3.306
291.66	-3.306
292.03	-4.206
292.40	-2.449
292.77	-3.908
293.13	-3.248
293.50	-3.548
293.87	-2.819
294.24	-3.067
294.60	-0.759
294.97	-5.101
295.34	-2.049
295.71	-3.531
296.08	-2.972
296.44	-1.348
296.81	-2.558
297.18	-3.985
297.55	-4.127
297.91	-2.728
298.28	-3.673
298.65	-2.616
299.02	-3.660
299.38	0.000
299.75	-3.271
300.12	-3.009
300.48	-3.456
300.85	-3.037
301.22	-2.125
301.59	-2.740
301.95	-2.373
302.32	-2.111
302.69	-2.519
303.05	-1.306
303.42	-2.439
303.79	-1.146
304.15	-2.419
304.52	-2.960
304.89	-1.885
305.25	-1.656
305.62	-1.776
305.99	-1.649
306.35	-2.419
306.72	-1.758
307.09	-2.234
307.45	-2.174
307.82	-2.220
308.19	-2.220
308.55	-1.446
308.92	-2.142
309.29	-0.670
309.65	-0.877
310.02	-1.386
310.38	-1.870
310.75	-1.359
311.12	-0.959
311.48	-1.466
311.85	-1.140
312.22	-1.803
312.58	-0.188
312.95	-1.721
313.31	-1.265
313.68	0.366
314.05	0.090
314.41	0.273
314.78	0.000
315.14	0.544
315.51	1.570
315.87	0.540
316.24	-0.183
316.61	2.043
316.97	0.543
317.34	0.088
317.70	1.135
318.07	2.028
318.43	2.806
318.80	3.428
319.16	3.433
319.53	1.371
319.89	2.542
320.26	4.715
320.62	3.103
320.99	4.247
321.35	4.621
321.72	4.558
322.08	3.877
322.45	5.239
322.81	5.686
323.18	4.779
323.54	6.379
323.91	8.007
324.27	6.627
324.64	9.236
325.00	8.126
325.37	9.091
325.73	10.083
326.10	10.624
326.46	11.564
326.83	12.810
327.19	12.205
327.56	14.229
327.92	11.880
328.29	12.984
328.65	14.154
329.01	14.975
329.38	16.007
329.74	16.353
330.11	17.295
330.47	16.765
330.84	17.227
331.20	18.333
331.56	18.631
331.93	17.992
332.29	18.475
332.66	18.522
333.02	18.593
333.38	19.295
333.75	20.118
334.11	19.099
334.48	20.215
334.84	20.731
335.20	20.907
335.57	20.826
335.93	21.653
336.29	21.381
336.66	21.194
337.02	20.819
337.38	22.364
337.75	21.074
338.11	22.372
338.47	22.581
338.84	22.758
339.20	22.578
339.56	21.911
339.93	22.742
340.29	21.900
340.65	22.141
341.02	22.745
341.38	21.989
341.74	22.195
342.11	22.607
342.47	22.160
342.83	23.349
343.20	22.322
343.56	23.416
343.92	24.019
344.28	23.359
344.65	22.248
345.01	22.855
345.37	23.561
345.73	22.603
346.10	24.259
346.46	23.497
346.82	24.270
347.19	22.765
347.55	23.672
347.91	23.551
348.27	23.445
348.63	23.610
349.00	23.788
349.36	22.825
349.72	23.363
350.08	23.700
350.45	23.346
350.81	24.057
351.17	23.985
351.53	25.019
351.89	24.981
352.26	24.254
352.62	24.328
352.98	23.817
353.34	24.122
353.70	24.884
354.07	24.963
354.43	24.677
354.79	23.934
355.15	23.767
355.51	25.219
355.87	24.757
356.24	24.867
356.60	24.316
356.96	25.056
357.32	24.535
357.68	24.378
358.04	24.401
358.40	24.851
358.77	25.000
359.13	25.775
359.49	24.684
359.85	25.308
360.21	24.390
360.57	25.700
360.93	24.612
361.29	26.246
361.66	25.851
362.02	26.444
362.38	25.509
362.74	25.628
363.10	27.029
363.46	25.208
363.82	25.639
364.18	27.657
364.54	27.040
364.90	26.689
365.26	26.759
365.62	28.000
365.98	26.685
366.35	26.443
366.71	27.755
367.07	27.808
367.43	27.905
367.79	26.742
368.15	27.893
368.51	27.199
368.87	27.694
369.23	27.533
369.59	28.210
369.95	27.654
370.31	28.022
370.67	28.129
371.03	28.324
371.39	28.005
371.75	27.854
372.11	28.659
372.47	28.436
372.83	28.730
373.19	28.753
373.55	29.133
373.91	28.153
374.27	28.849
374.63	29.296
374.99	28.979
375.35	29.416
375.71	29.161
376.07	28.728
376.42	30.793
376.78	28.900
377.14	31.067
377.50	30.044
377.86	31.404
378.22	30.359
378.58	31.629
378.94	30.751
379.30	31.049
379.66	31.746
380.02	32.314
380.38	32.776
380.74	31.944
381.09	32.927
381.45	32.500
381.81	33.314
382.17	32.838
382.53	32.573
382.89	32.731
383.25	34.994
383.61	34.259
383.97	33.746
384.32	34.749
384.68	32.657
385.04	33.545
385.40	34.414
385.76	34.291
386.12	33.932
386.48	34.235
386.83	35.757
387.19	34.009
387.55	34.683
387.91	35.331
388.27	35.450
388.62	34.765
388.98	35.251
389.34	36.653
389.70	36.549
390.06	35.583
390.42	36.386
390.77	37.146
391.13	36.385
391.49	36.171
391.85	36.182
392.20	36.714
392.56	36.917
392.92	36.260
393.28	37.424
393.64	36.480
393.99	37.420
394.35	37.091
394.71	37.485
395.07	37.425
395.42	35.808
395.78	37.355
396.14	37.493
396.50	38.124
396.85	36.494
397.21	36.805
397.57	37.279
397.92	38.660
398.28	37.154
398.64	37.357
399.00	36.387
399.35	37.068
399.71	37.826
400.07	37.844
400.42	37.078
400.78	37.674
401.14	38.418
401.49	37.976
401.85	38.663
402.21	38.876
402.57	38.556
402.92	36.702
403.28	37.237
403.63	37.589
403.99	37.352
404.35	36.327
404.70	37.677
405.06	36.848
405.42	36.768
405.77	38.222
406.13	38.682
406.49	37.669
406.84	37.673
407.20	38.010
407.55	37.856
407.91	36.141
408.27	37.397
408.62	37.813
408.98	37.319
409.34	37.067
409.69	37.145
410.05	37.691
410.40	37.703
410.76	37.072
411.11	38.515
411.47	38.022
411.83	38.154
412.18	37.711
412.54	37.285
412.89	37.136
413.25	38.036
413.60	36.760
413.96	38.345
414.31	36.884
414.67	37.448
415.03	37.477
415.38	38.209
415.74	38.180
416.09	39.852
416.45	37.696
416.80	36.169
417.16	37.739
417.51	37.360
417.87	38.320
418.22	37.964
418.58	38.910
418.93	38.882
419.29	39.457
419.64	39.256
420.00	38.516
420.35	39.079
420.71	37.220
421.06	37.895
421.42	38.647
421.77	38.665
422.12	38.848
422.48	39.375
422.83	40.197
423.19	39.469
423.54	39.657
423.90	39.315
424.25	39.893
424.61	39.667
424.96	39.813
425.31	40.234
425.67	39.023
426.02	39.790
426.38	39.552
426.73	39.900
427.09	40.657
427.44	40.033
427.79	39.635
428.15	39.897
428.50	40.169
428.85	39.954
429.21	40.904
429.56	39.832
429.92	40.639
430.27	41.880
430.62	40.205
430.98	40.482
431.33	41.300
431.68	41.140
432.04	40.681
432.39	41.457
432.74	40.925
433.10	41.806
433.45	41.862
433.80	40.665
434.16	40.599
434.51	42.446
434.86	43.757
435.22	42.242
435.57	42.630
435.92	42.627
436.28	42.264
436.63	43.310
436.98	42.244
437.34	42.616
437.69	41.827
438.04	42.623
438.39	42.734
438.75	42.059
439.10	42.865
439.45	42.594
439.81	43.559
440.16	42.091
440.51	42.865
440.86	41.134
441.22	42.658
441.57	42.872
441.92	42.338
442.27	42.879
442.63	42.971
442.98	43.970
443.33	43.398
443.68	43.905
444.03	44.638
444.39	43.227
444.74	44.206
445.09	43.538
445.44	43.309
445.79	44.828
446.15	44.347
446.50	43.721
446.85	44.309
447.20	44.197
447.55	44.247
447.91	43.613
448.26	43.552
448.61	44.049
448.96	45.011
449.31	43.690
449.66	43.028
450.02	44.357
450.37	44.379
450.72	43.326
451.07	45.330
451.42	43.270
451.77	44.247
452.12	43.962
452.47	42.602
452.83	45.327
453.18	44.892
453.53	45.261
453.88	43.733
454.23	45.198
454.58	44.689
454.93	44.539
455.28	44.672
455.63	44.343
455.98	43.911
456.34	44.405
456.69	44.680
457.04	44.917
457.39	44.401
457.74	44.351
458.09	44.152
458.44	43.858
458.79	44.301
459.14	44.468
459.49	45.501
459.84	45.068
460.19	43.698
460.54	45.429
460.89	45.050
461.24	43.793
461.59	44.715
461.94	43.411
462.29	45.353
462.64	43.452
462.99	44.444
463.34	45.295
463.69	44.725
464.04	44.803
464.39	45.235
464.74	43.900
465.09	45.156
465.44	43.670
465.79	43.310
466.14	43.877
466.49	44.000
466.84	45.234
467.19	44.277
467.54	43.772
467.89	44.080
468.24	44.155
468.59	43.138
468.94	43.240
469.29	44.571
469.64	44.501
469.99	45.762
470.34	44.307
470.68	45.591
471.03	43.877
471.38	44.670
471.73	44.148
472.08	45.558
472.43	44.190
472.78	44.207
473.13	44.185
473.48	44.532
473.83	44.922
474.17	44.197
474.52	45.219
474.87	45.017
475.22	45.465
475.57	45.171
475.92	45.246
476.27	45.048
476.61	44.496
476.96	44.891
477.31	45.050
477.66	45.540
478.01	44.840
478.36	43.420
478.70	44.286
479.05	46.524
479.40	45.212
479.75	45.101
480.10	44.197
480.45	45.214
480.79	44.762
481.14	44.715
481.49	44.980
481.84	45.170
482.19	45.634
482.53	45.081
482.88	45.370
483.23	44.509
483.58	44.323
483.92	43.972
484.27	44.242
484.62	44.142
484.97	45.023
485.31	43.893
485.66	40.832
486.01	41.348
486.36	43.548
486.70	45.922
487.05	47.761
487.40	46.366
487.75	45.344
488.09	44.322
488.44	44.081
488.79	43.373
489.13	43.845
489.48	43.883
489.83	43.501
490.17	44.431
490.52	43.678
490.87	44.628
491.22	45.061
491.56	45.435
491.91	44.701
492.26	44.223
492.60	44.731
492.95	45.064
493.30	45.361
493.64	44.328
493.99	44.693
494.34	44.774
494.68	44.668
495.03	44.626
495.37	44.829
495.72	43.810
496.07	45.311
496.41	44.788
496.76	45.538
497.11	45.563
497.45	44.756
497.80	44.514
498.14	44.308
498.49	43.980
498.84	44.516
499.18	45.344
499.53	44.753
499.87	44.967
500.22	44.791
500.56	45.569
500.91	44.256
501.26	45.227
501.60	43.615
501.95	45.419
502.29	44.449
502.64	46.436
502.98	43.917
503.33	44.536
503.67	44.963
504.02	44.133
504.36	45.219
504.71	45.200
505.06	44.793
505.40	44.378
505.75	45.128
506.09	44.475
506.44	45.218
506.78	45.550
507.13	45.781
507.47	45.287
507.82	44.555
508.16	45.220
508.51	43.507
508.85	45.347
509.19	45.287
509.54	45.389
509.88	44.876
510.23	45.896
510.57	45.529
510.92	45.283
511.26	45.358
511.61	44.423
511.95	45.876
512.30	44.953
512.64	44.078
512.98	45.373
513.33	45.565
513.67	45.283
514.02	45.938
514.36	45.831
514.70	45.312
515.05	46.350
515.39	45.564
515.74	45.705
516.08	45.061
516.42	45.631
516.77	45.163
517.11	44.043
517.46	45.493
517.80	46.018
518.14	45.212
518.49	45.011
518.83	45.184
519.17	44.480
519.52	45.650
519.86	45.248
520.20	45.793
520.55	44.524
520.89	46.115
521.23	45.673
521.58	45.706
521.92	44.703
522.26	45.361
522.61	46.181
522.95	45.675
523.29	44.943
523.64	45.852
523.98	45.864
524.32	46.017
524.66	45.589
525.01	45.017
525.35	45.204
525.69	46.172
526.04	45.637
526.38	45.000
526.72	45.675
527.06	45.337
527.41	46.006
527.75	46.200
528.09	45.396
528.43	46.004
528.78	44.277
529.12	45.011
529.46	44.857
529.80	45.595
530.15	45.449
530.49	45.552
530.83	45.868
531.17	44.265
531.51	45.487
531.86	46.154
532.20	46.220
532.54	45.302
532.88	45.091
533.22	44.490
533.57	44.489
533.91	45.230
534.25	44.941
534.59	45.747
534.93	44.709
535.27	44.789
535.62	44.798
535.96	45.671
536.30	44.595
536.64	45.105
536.98	45.633
537.32	45.432
537.66	45.602
538.01	44.773
538.35	45.128
538.69	44.471
539.03	44.329
539.37	45.230
539.71	44.565
540.05	44.125
540.39	44.132
540.73	43.412
541.07	43.286
541.42	43.887
541.76	44.187
542.10	43.727
542.44	43.240
542.78	45.255
543.12	43.623
543.46	43.712
543.80	43.465
544.14	42.609
544.48	44.504
544.82	45.003
545.16	44.603
545.50	45.117
545.84	45.132
546.18	45.000
546.52	44.777
546.86	44.465
547.20	44.975
547.54	45.568
547.88	44.244
548.22	44.094
548.56	44.119
548.90	44.119
549.24	44.377
549.58	44.101
549.92	44.005
550.26	45.113
550.60	44.225
550.94	44.179
551.28	43.366
551.62	46.024
551.96	43.495
552.30	44.678
552.64	43.933
552.98	44.479
553.32	44.180
553.66	45.209
554.00	44.830
554.34	45.109
554.68	43.706
555.02	44.087
555.36	43.984
555.69	43.818
556.03	44.704
556.37	45.807
556.71	43.627
557.05	45.112
557.39	44.924
557.73	44.188
558.07	44.172
558.41	44.518
558.75	44.963
559.08	44.676
559.42	44.376
559.76	45.183
560.10	44.206
560.44	45.449
560.78	44.938
561.12	45.135
561.45	45.438
561.79	45.360
562.13	45.102
562.47	43.280
562.81	45.633
563.15	44.697
563.48	44.562
563.82	43.894
564.16	44.397
564.50	44.160
564.84	44.248
565.17	44.529
565.51	42.865
565.85	43.824
566.19	44.585
566.52	43.417
566.86	44.199
567.20	42.958
567.54	43.707
567.88	44.801
568.21	43.281
568.55	43.213
568.89	43.486
569.23	42.374
569.56	43.845
569.90	43.051
570.24	43.137
570.57	42.656
570.91	41.580
571.25	41.944
571.59	42.026
571.92	41.578
572.26	41.662
572.60	42.069
572.93	41.998
573.27	41.135
573.61	41.318
573.95	40.617
574.28	40.505
574.62	40.814
574.96	40.472
575.29	40.427
575.63	40.702
575.97	40.527
576.30	40.242
576.64	40.802
576.98	40.273
577.31	40.889
577.65	41.168
577.98	40.531
578.32	40.559
578.66	40.841
578.99	40.590
579.33	41.285
579.67	41.092
580.00	40.234
580.34	40.205
580.67	40.711
581.01	40.891
581.35	40.775
581.68	40.266
582.02	40.619
582.35	41.516
582.69	41.926
583.02	41.450
583.36	41.220
583.70	41.241
584.03	40.293
584.37	40.410
584.70	40.073
585.04	39.781
585.37	40.654
585.71	40.302
586.04	40.665
586.38	40.970
586.72	41.188
587.05	41.034
587.39	41.536
587.72	41.029
588.06	41.078
588.39	41.051
588.73	41.534
589.06	40.717
589.40	41.272
589.73	41.742
590.07	40.981
590.40	41.413
590.73	40.862
591.07	42.703
591.40	41.291
591.74	42.091
592.07	42.387
592.41	41.956
592.74	41.250
593.08	41.911
593.41	42.374
593.75	41.667
594.08	41.866
594.41	43.077
594.75	41.548
595.08	41.521
595.42	42.175
595.75	41.427
596.09	41.850
596.42	41.634
596.75	42.493
597.09	42.141
597.42	42.114
597.75	41.905
598.09	41.389
598.42	40.852
598.76	41.383
599.09	41.937
599.42	41.401
599.76	41.004
600.09	41.842
600.42	42.109
600.76	41.744
601.09	41.653
601.42	41.607
601.76	40.966
602.09	41.923
602.42	41.330
602.76	41.587
603.09	41.667
603.42	41.871
603.76	41.508
604.09	42.867
604.42	42.275
604.76	41.857
605.09	41.444
605.42	41.986
605.75	41.615
606.09	41.209
606.42	41.299
606.75	41.942
607.09	40.822
607.42	41.773
607.75	42.399
608.08	41.792
608.42	41.556
608.75	42.620
609.08	41.426
609.41	42.523
609.75	42.902
610.08	41.689
610.41	41.589
610.74	41.639
611.07	43.295
611.41	41.794
611.74	42.910
612.07	42.637
612.40	42.205
612.73	43.667
613.07	42.152
613.40	43.407
613.73	42.369
614.06	43.229
614.39	42.517
614.72	42.698
615.06	41.675
615.39	42.049
615.72	43.318
616.05	41.282
616.38	42.987
616.71	42.163
617.05	43.184
617.38	42.429
617.71	43.035
618.04	43.065
618.37	43.169
618.70	43.665
619.03	43.190
619.36	42.910
619.69	43.242
620.03	44.068
620.36	43.313
620.69	44.540
621.02	43.570
621.35	45.210
621.68	44.758
622.01	43.416
622.34	44.351
622.67	44.536
623.00	42.308
623.33	44.791
623.66	44.553
623.99	43.647
624.32	44.379
624.65	43.887
624.99	44.278
625.32	43.958
625.65	43.763
625.98	43.390
626.31	45.074
626.64	45.495
626.97	44.336
627.30	43.584
627.63	43.736
627.96	44.970
628.29	42.646
628.62	46.012
628.95	45.486
629.28	44.350
629.61	45.370
629.94	44.268
630.26	45.085
630.59	45.682
630.92	45.022
631.25	44.365
631.58	47.269
631.91	45.642
632.24	46.013
632.57	45.256
632.90	46.439
633.23	46.531
633.56	47.245
633.89	43.905
634.22	46.570
634.55	46.660
634.88	46.645
635.20	46.717
635.53	48.814
635.86	47.021
636.19	46.660
636.52	45.042
636.85	45.557
637.18	45.010
637.51	46.774
637.83	46.844
638.16	47.350
638.49	45.892
638.82	45.547
639.15	45.132
639.48	48.152
639.81	45.843
640.13	47.468
640.46	45.091
640.79	46.078
641.12	45.839
641.45	48.432
641.77	49.679
642.10	45.932
642.43	47.606
642.76	44.986
643.09	47.123
643.41	47.479
643.74	48.552
644.07	49.793
644.40	46.393
644.73	47.315
645.05	46.990
645.38	47.194
645.71	47.214
646.04	47.633
646.36	45.693
646.69	46.319
647.02	49.235
647.35	49.618
647.67	48.470
648.00	50.478
648.33	50.150
648.66	47.076
648.98	44.082
649.31	47.361
649.64	46.614
649.96	45.093
650.29	45.758
650.62	44.979
650.94	46.847
651.27	46.407
651.60	45.614
651.92	47.112
652.25	46.744
652.58	46.355
652.90	46.221
653.23	47.606
653.56	47.361
653.88	48.596
654.21	45.211
654.54	46.098
654.86	45.467
655.19	44.166
655.52	47.965
655.84	46.254
656.17	50.250
656.49	68.933
656.82	72.987
657.15	56.306
657.47	43.406
657.80	31.679
658.13	24.298
658.45	31.311
658.78	36.687
659.10	34.567
659.43	33.423
659.75	32.712
660.08	31.709
660.41	33.499
660.73	36.944
661.06	41.263
661.38	43.222
661.71	45.517
662.03	43.739
662.36	47.227
662.68	45.591
663.01	47.434
663.33	46.125
663.66	47.985
663.98	48.269
664.31	48.030
664.63	45.279
664.96	46.461
665.28	43.920
665.61	45.280
665.93	48.036
666.26	47.670
666.58	43.542
666.91	50.093
667.23	46.667
667.56	47.929
667.88	48.400
668.21	45.117
668.53	42.857
668.86	44.990
669.18	47.047
669.50	47.913
669.83	46.000
670.15	46.260
670.48	45.833
670.80	43.403
671.13	43.856
671.45	44.094
671.77	48.964
672.10	45.000
672.42	44.984
672.75	45.776
673.07	42.836
673.39	41.602
673.72	48.154
674.04	45.862
674.37	46.869
674.69	44.974
675.01	45.905
675.34	44.466
675.66	43.820
675.98	47.015
676.31	47.266
676.63	46.198
676.95	46.552
677.28	47.379
677.60	44.685
677.92	47.217
678.25	42.048
678.57	46.797
678.89	45.222
679.22	44.948
679.54	44.444
679.86	43.898
680.18	43.615
680.51	46.069
680.83	42.390
681.15	43.621
681.48	44.214
681.80	47.668
682.12	43.357
682.44	44.407
682.77	42.908
683.09	43.561
683.41	44.380
683.73	43.264
684.06	44.096
684.38	41.324
684.70	44.345
685.02	44.234
685.34	42.097
685.67	43.218
685.99	43.098
686.31	41.134
686.63	44.866
686.96	44.637
687.28	42.508
687.60	43.603
687.92	41.318
688.24	44.908
688.56	41.207
688.89	43.376
689.21	45.988
689.53	43.333
689.85	42.998
690.17	43.704
690.49	41.235
690.82	42.376
691.14	41.498
691.46	43.595
691.78	42.541
692.10	43.486
692.42	39.821
692.74	43.376
693.06	40.741
693.39	44.402
693.71	42.481
694.03	43.123
694.35	42.286
694.67	41.273
694.99	42.553
695.31	41.501
695.63	45.455
695.95	42.029
696.27	41.758
696.59	42.257
696.91	42.793
697.23	45.275
697.56	45.214
697.88	42.424
698.20	41.055
698.52	44.697
698.84	42.412
699.16	40.204
699.48	41.004
699.80	43.617
700.12	43.886
700.44	42.166
700.76	42.518
701.08	43.826
701.40	45.078
701.72	41.542
702.04	47.326
702.36	41.885
702.68	39.853
703.00	42.787
703.32	43.350
703.64	43.032
703.96	42.721
704.28	40.049
704.60	42.025
704.91	42.347
705.23	42.192
705.55	40.947
705.87	47.879
706.19	39.877
706.51	44.277
706.83	44.380
707.15	41.799
707.47	39.720
707.79	42.140
708.11	37.076
708.43	39.785
708.74	39.955
709.06	37.819
709.38	43.192
709.70	41.439
710.02	33.850
710.34	42.819
710.66	40.782
710.98	39.344
711.29	40.659
711.61	39.266
711.93	43.875
712.25	40.270
712.57	42.478
712.89	45.000
713.20	38.166
713.52	38.728
713.84	43.454
714.16	37.632
714.48	39.691
714.80	41.558
715.11	36.483
715.43	40.849
715.75	37.368
716.07	38.950
716.39	43.716
716.70	38.253
717.02	42.623
717.34	40.418
717.66	37.584
717.97	34.932
718.29	37.801
718.61	35.855
718.93	34.628
719.24	39.441
719.56	34.969
719.88	37.237
720.20	38.710
720.51	36.335
720.83	38.125
721.15	36.513
721.46	34.589
721.78	37.333
722.10	37.540
722.42	35.906
722.73	36.774
723.05	38.246
723.37	38.889
723.68	40.502
724.00	35.379
724.32	38.028
724.63	35.315
724.95	36.879
725.27	37.282
725.58	36.396
725.90	42.069
726.22	35.110
726.53	38.312
726.85	35.849
727.16	37.764
727.48	36.391
727.80	37.086
728.11	34.629
728.43	36.700
728.74	38.796
729.06	32.119
729.38	36.688
729.69	37.248
730.01	33.929
730.32	33.939
730.64	35.535
730.96	35.404
731.27	39.106
731.59	35.989
731.90	35.844
732.22	32.812
732.53	34.530
732.85	37.429
733.16	36.364
733.48	36.585
733.80	36.212
734.11	34.473
734.43	35.135
734.74	41.013
735.06	33.668
735.37	38.108
735.69	31.892
736.00	35.028
736.32	33.693
736.63	33.889
736.95	31.897
737.26	33.030
737.58	35.455
737.89	38.529
738.21	33.333
738.52	32.459
738.83	36.177
739.15	32.979
739.46	32.653
739.78	34.969
740.09	30.946
740.41	35.860
740.72	33.667
741.04	34.951
741.35	37.193
741.66	36.863
741.98	35.656
742.29	35.146
742.61	35.526
742.92	35.385
743.23	35.379
743.55	31.783
743.86	33.200
744.18	26.860
744.49	29.536
744.80	34.568
745.12	32.911
745.43	35.366
745.74	30.603
746.06	29.661
746.37	32.911
746.68	37.805
747.00	33.333
747.31	37.339
747.62	34.231
747.94	34.008
748.25	32.530
748.56	29.388
748.88	25.641
749.19	33.621
749.50	30.736
749.82	38.153
750.13	36.655
750.44	27.667
750.75	33.538
751.07	33.846
751.38	34.069
751.69	35.463
752.01	32.039
752.32	35.621
752.63	31.633
752.94	31.142
753.26	33.457
753.57	28.148
753.88	33.333
754.19	34.405
754.51	33.441
754.82	36.334
755.13	32.787
755.44	36.519
755.75	33.553
756.07	33.433
756.38	33.648
756.69	36.145
757.00	30.748
757.31	34.426
757.63	32.737
757.94	29.108
758.25	34.086
758.56	30.065
758.87	33.409
759.18	30.667
759.50	31.728
759.81	36.975
760.12	33.423
760.43	33.594
760.74	35.961
761.05	30.000
761.36	29.880
761.67	28.934
761.99	31.622
762.30	29.573
762.61	30.033
762.92	32.836
763.23	31.461
763.54	30.576
763.85	29.897
764.16	35.354
764.47	31.690
764.78	34.824
765.10	30.792
765.41	33.590
765.72	30.423
766.03	31.921
766.34	28.840
766.65	27.178
766.96	28.287
767.27	32.258
767.58	26.368
767.89	32.212
768.20	25.822
768.51	25.000
768.82	28.112
769.13	26.894
769.44	26.923
769.75	28.881
770.06	26.538
770.37	31.496
770.68	22.553
770.99	26.316
771.30	30.000
771.61	28.517
771.92	21.481
772.23	32.794
772.54	23.148
772.85	29.493
773.16	23.333
773.47	20.106
773.78	24.324
774.09	28.409
774.39	26.000
774.70	21.858
775.01	29.268
775.32	18.824
775.63	22.086
775.94	20.382
776.25	22.581
776.56	23.718
776.87	21.088
777.18	24.138
777.48	28.671
777.79	16.892
778.10	7.353
778.41	26.389
778.72	22.759
779.03	22.222
779.34	22.424
779.65	21.762
779.95	18.333
780.26	20.455
780.57	19.355
780.88	25.362
781.19	23.871
781.50	23.529
781.80	24.731
782.11	22.222
782.42	18.182
782.73	13.174
783.04	21.229
783.34	14.545
783.65	24.183
783.96	11.180
784.27	17.262
784.57	21.192
784.88	8.571
785.19	11.811
785.50	13.386
785.81	16.541
786.11	23.077
786.42	5.755
786.73	7.914
787.04	20.301
787.34	13.934
787.65	9.600
787.96	13.433
788.26	15.385
788.57	25.874
788.88	13.816
789.19	22.876
789.49	19.863
789.80	17.730
790.11	17.323
790.41	7.813
790.72	4.237
791.03	-3.883
791.33	1.739
791.64	6.140
791.95	0.893
792.25	9.524
792.56	8.036
792.87	6.250
793.17	9.821
793.48	0.000
793.79	-22.892
794.09	-2.752
794.40	0.000
794.70	13.605
795.01	11.688
795.32	8.219
795.62	11.268
795.93	6.061
796.23	5.738
796.54	0.000
796.85	4.255
797.15	7.609
797.46	-16.438
797.76	0.000
798.07	7.609
798.37	-5.155
798.68	-11.688
798.99	0.000
799.29	-8.989
799.60	5.319
799.90	-12.048
800.21	-9.231
800.51	-7.463
800.82	-22.059
801.12	-28.767
801.43	-7.353
801.73	-16.949
802.04	0.000
802.34	-23.333
802.65	0.000
802.95	-5.970
803.26	-10.169
803.56	-8.219
803.87	-17.143
804.17	4.110
804.48	-47.368
804.78	-18.056
805.09	-34.483
805.39	-10.811
805.70	-22.535
806.00	-10.976
806.30	-6.024
806.61	-21.918
806.91	-1.923
807.22	-6.667
807.52	-11.494
807.83	-5.556
808.13	-8.434
808.43	3.371
808.74	-7.500
809.04	-16.176
809.35	-10.667
809.65	-25.714
809.95	-8.219
810.26	-40.351
810.56	-36.207
810.86	-16.176
811.17	-28.070
811.47	-19.672
811.77	-44.444
812.08	-25.424
812.38	-21.667
812.69	-12.069
812.99	-39.623
813.29	-74.359
813.59	-30.000
813.90	-26.316
814.20	-23.636
814.50	-5.634
814.81	-12.821
815.11	-19.672
815.41	-28.358
815.72	-1.724
816.02	-21.429
816.32	-44.444
816.62	-54.545
816.93	-64.444
817.23	-18.519
817.53	-68.085
817.84	-30.952
818.14	-70.588
818.44	-36.735
818.74	-57.778
819.04	-76.923
819.35	-85.714
819.65	-138.462
819.95	-47.170
820.25	-44.444
820.56	-52.381
820.86	-84.375
821.16	-66.667
821.46	-69.767
821.76	-56.000
822.07	-44.643
822.37	-43.478
822.67	-55.319
822.97	-75.676
823.27	-65.000
823.57	-44.898
823.88	-40.000
824.18	-47.500
824.48	-76.667
824.78	-104.000
825.08	-84.848
825.38	-46.667
825.69	-48.936
825.99	-77.778
826.29	-94.286
826.59	-64.103
826.89	-72.093
827.19	-40.000
827.49	-73.529
827.79	-29.167
828.09	-67.568
828.39	-106.667
828.70	-58.537
829.00	-83.721
829.30	-128.571
829.60	-70.588
829.90	-50.000
830.20	-71.429
830.50	-93.103
830.80	-172.222
831.10	-100.000
831.40	-64.706
831.70	-128.571
832.00	-70.968
832.30	-235.294
832.60	-145.833
832.90	-253.846
833.20	-168.421
833.50	-140.000
833.80	-147.368
834.10	-209.524
834.40	-63.889
834.70	-46.875
835.00	-97.143
835.30	-76.471
835.60	-126.667
835.90	-124.000
836.20	-181.818
836.50	-96.000
836.80	-87.879
837.10	-122.222
837.40	-129.630
837.70	-256.250
838.00	-82.143
838.30	-173.913
838.60	-79.310
838.90	-257.143
839.19	-234.783
839.49	-408.333
839.79	-134.783
840.09	-256.250
840.39	-190.000
840.69	-61.290
840.99	-96.429
841.29	-213.333
841.59	-184.211
841.88	-51.282
842.18	-119.231
842.48	-330.000
842.78	-180.000
843.08	-76.667
843.38	-64.516
843.68	-233.333
843.97	-82.353
844.27	-168.750
844.57	-178.947
844.87	-390.000
845.17	-280.000
845.47	-114.286
845.76	-142.857
846.06	-355.556
846.36	-200.000
846.66	-130.769
846.96	-260.000
847.25	-205.882
847.55	-134.783
847.85	-160.000
848.15	-205.882
848.44	-318.182
848.74	-100.000
849.04	-150.000
849.34	-268.750
849.63	-143.478
849.93	2350.000
850.23	-213.333
850.53	-53.846
850.82	-263.636
851.12	-136.364
851.42	-345.455
851.71	-215.385
852.01	-205.000
852.31	-284.615
852.61	-163.158
852.90	-241.667
853.20	-200.000
853.50	-388.889
853.79	-123.810
854.09	-168.182
854.39	-366.667
854.68	-119.355
854.98	-119.231
855.28	-155.556
855.57	-114.286
855.87	-120.000
856.17	-145.455
856.46	-122.222
856.76	-216.667
857.05	-152.174
857.35	-170.833
857.65	-300.000
857.94	-161.905
858.24	-100.000
858.53	-91.304
858.83	-188.235
859.13	-247.059
859.42	-158.824
859.72	-207.143
860.01	-160.000
860.31	-377.778
860.60	-410.000
860.90	-206.667
861.20	-211.111
861.49	-346.154
861.79	-106.667
862.08	-269.231
862.38	-109.375
862.67	-176.471
862.97	-225.000
863.26	-422.222
863.56	-290.000
863.85	-400.000
864.15	-216.667
864.44	-1133.333
864.74	-185.714
865.03	-193.750
865.33	-430.000
865.62	-116.129
865.92	-154.545
866.21	-152.174
866.51	-257.143
866.80	-860.000
867.10	-300.000
867.39	-341.667
867.69	4300.000
867.98	-514.286
868.27	-170.588
868.57	-4300.000
868.86	-430.000
869.16	-138.095
869.45	-154.167
869.75	-236.364
870.04	-471.429
870.33	-300.000
870.63	-700.000
870.92	-825.000
871.22	-550.000
871.51	-372.727
871.80	-1900.000
872.10	-2200.000
>>>>>End Processed Spectral Data<<<<<
