SpectraSuite Data File
++++++++++++++++++++++++++++++++++++
Date: Thu May 14 15:19:31 PDT 2015
User: schluterlab
Dark Spectrum Present: Yes
Reference Spectrum Present: Yes
Number of Sampled Component Spectra: 1
Spectrometers: USB2E3373
Integration Time (usec): 3000 (USB2E3373)
Spectra Averaged: 3 (USB2E3373)
Boxcar Smoothing: 0 (USB2E3373)
Correct for Electrical Dark: No (USB2E3373)
Strobe/Lamp Enabled: No (USB2E3373)
Correct for Detector Non-linearity: No (USB2E3373)
Correct for Stray Light: No (USB2E3373)
Number of Pixels in Processed Spectrum: 2048
>>>>>Begin Processed Spectral Data<<<<<
178.53	0.000
178.91	585.714
179.29	-4100.000
179.67	-3900.000
180.04	357.143
180.42	450.000
180.80	940.000
181.18	-3600.000
181.56	-3400.000
181.94	1000.000
182.31	-900.000
182.69	1433.333
183.07	-2150.000
183.45	1025.000
183.83	-616.667
184.20	-1333.333
184.58	4500.000
184.96	-1275.000
185.34	-466.667
185.72	-700.000
186.09	611.111
186.47	2400.000
186.85	900.000
187.23	-466.667
187.61	-4500.000
187.98	840.000
188.36	1075.000
188.74	-1025.000
189.12	-1266.667
189.49	-218.750
189.87	-500.000
190.25	-444.444
190.63	-740.000
191.00	-422.222
191.38	0.000
191.76	-1100.000
192.14	-600.000
192.51	2250.000
192.89	-633.333
193.27	0.000
193.65	-514.286
194.02	-4700.000
194.40	-614.286
194.78	657.143
195.15	0.000
195.53	-300.000
195.91	0.000
196.29	-750.000
196.66	-315.385
197.04	-4600.000
197.42	-542.857
197.79	-2000.000
198.17	-562.500
198.55	-542.857
198.92	-377.778
199.30	-537.500
199.68	-354.545
200.05	-192.857
200.43	-1900.000
200.81	600.000
201.18	0.000
201.56	488.889
201.94	0.000
202.31	1600.000
202.69	-466.667
203.07	2900.000
203.44	-466.667
203.82	-1300.000
204.19	-383.333
204.57	-816.667
204.95	-550.000
205.32	-4200.000
205.70	1075.000
206.08	-566.667
206.45	-633.333
206.83	1120.000
207.20	-633.333
207.58	-880.000
207.96	-716.667
208.33	-566.667
208.71	308.333
209.08	-550.000
209.46	0.000
209.84	650.000
210.21	1650.000
210.59	1950.000
210.96	1533.333
211.34	-975.000
211.71	-575.000
212.09	-4800.000
212.46	0.000
212.84	2550.000
213.22	-940.000
213.59	-1050.000
213.97	-370.000
214.34	-1233.333
214.72	650.000
215.09	-925.000
215.47	0.000
215.84	571.429
216.22	2200.000
216.59	-880.000
216.97	-720.000
217.34	-1050.000
217.72	-375.000
218.09	-1025.000
218.47	-1025.000
218.84	0.000
219.22	900.000
219.59	-217.647
219.97	-160.000
220.34	2350.000
220.72	-511.111
221.09	-207.692
221.47	-1133.333
221.84	-370.000
222.22	-642.857
222.59	0.000
222.97	-412.500
223.34	-720.000
223.72	-3600.000
224.09	-925.000
224.46	-1250.000
224.84	-840.000
225.21	-628.571
225.59	-1050.000
225.96	-1025.000
226.34	-80.769
226.71	716.667
227.08	-1950.000
227.46	-240.000
227.83	-925.000
228.21	-178.947
228.58	462.500
228.95	1700.000
229.33	-325.000
229.70	-360.000
230.08	-84.211
230.45	450.000
230.82	-1300.000
231.20	-228.571
231.57	-300.000
231.95	-227.273
232.32	-263.636
232.69	-175.000
233.07	-1100.000
233.44	-200.000
233.81	-440.000
234.19	-177.778
234.56	-127.273
234.93	-113.793
235.31	-184.211
235.68	-183.333
236.05	-215.000
236.43	-84.615
236.80	-68.000
237.17	-114.815
237.55	-66.667
237.92	-300.000
238.29	-87.097
238.67	-59.091
239.04	-66.667
239.41	-52.381
239.79	-39.130
240.16	-44.444
240.53	-54.348
240.91	-43.137
241.28	-26.230
241.65	-16.418
242.02	-1.351
242.40	-16.923
242.77	-6.667
243.14	-6.098
243.51	-13.158
243.89	2.564
244.26	13.861
244.63	9.804
245.00	3.738
245.38	4.386
245.75	6.195
246.12	12.698
246.49	8.527
246.87	12.857
247.24	17.881
247.61	21.053
247.98	22.148
248.36	26.543
248.73	23.926
249.10	21.311
249.47	33.831
249.84	35.602
250.22	22.798
250.59	23.333
250.96	29.091
251.33	25.000
251.70	27.350
252.08	24.583
252.45	25.410
252.82	27.686
253.19	27.734
253.56	25.856
253.94	29.615
254.31	35.606
254.68	33.916
255.05	32.899
255.42	28.571
255.79	30.421
256.16	32.450
256.54	31.788
256.91	32.459
257.28	33.115
257.65	33.121
258.02	28.909
258.39	35.043
258.76	36.391
259.14	38.793
259.51	34.582
259.88	32.011
260.25	33.889
260.62	36.164
260.99	36.612
261.36	35.925
261.73	33.687
262.10	35.165
262.47	35.657
262.85	36.364
263.22	30.649
263.59	34.737
263.96	35.550
264.33	34.783
264.70	37.284
265.07	38.902
265.44	39.229
265.81	33.565
266.18	38.322
266.55	37.054
266.92	33.030
267.29	36.761
267.66	37.029
268.03	37.773
268.40	35.282
268.77	37.130
269.14	35.903
269.51	37.500
269.88	35.246
270.25	34.608
270.62	36.498
270.99	40.808
271.36	35.446
271.73	37.917
272.10	38.677
272.47	36.273
272.84	34.337
273.21	34.669
273.58	34.476
273.95	34.038
274.32	33.460
274.69	34.236
275.06	37.546
275.43	32.532
275.80	33.333
276.17	33.704
276.54	35.261
276.91	35.778
277.28	35.081
277.65	34.111
278.02	35.110
278.39	35.507
278.76	31.810
279.13	37.766
279.50	36.254
279.87	34.347
280.23	33.627
280.60	36.780
280.97	35.362
281.34	36.672
281.71	36.717
282.08	34.718
282.45	33.552
282.82	34.066
283.19	32.795
283.56	34.918
283.92	34.084
284.29	35.229
284.66	36.453
285.03	33.173
285.40	35.703
285.77	36.223
286.14	34.046
286.51	33.029
286.87	34.439
287.24	35.392
287.61	34.081
287.98	34.139
288.35	34.615
288.72	32.396
289.08	33.236
289.45	32.692
289.82	32.681
290.19	31.897
290.56	32.113
290.93	34.237
291.29	32.645
291.66	33.471
292.03	30.258
292.40	32.245
292.77	28.841
293.13	32.476
293.50	30.618
293.87	29.933
294.24	29.600
294.60	29.077
294.97	29.128
295.34	28.809
295.71	28.752
296.08	30.233
296.44	30.760
296.81	28.745
297.18	27.646
297.55	28.066
297.91	28.470
298.28	27.844
298.65	28.181
299.02	28.217
299.38	27.231
299.75	28.855
300.12	27.199
300.48	26.382
300.85	28.909
301.22	28.300
301.59	26.712
301.95	27.232
302.32	28.778
302.69	26.616
303.05	27.748
303.42	27.273
303.79	27.292
304.15	26.498
304.52	27.061
304.89	26.806
305.25	27.433
305.62	26.019
305.99	27.423
306.35	26.411
306.72	27.611
307.09	26.802
307.45	27.122
307.82	25.227
308.19	26.942
308.55	28.062
308.92	25.706
309.29	26.628
309.65	27.778
310.02	26.931
310.38	28.051
310.75	28.544
311.12	28.955
311.48	28.543
311.85	29.820
312.22	29.507
312.58	28.263
312.95	28.298
313.31	27.462
313.68	29.121
314.05	29.539
314.41	29.235
314.78	28.247
315.14	29.855
315.51	29.640
315.87	28.083
316.24	29.772
316.61	29.663
316.97	27.873
317.34	29.630
317.70	30.742
318.07	32.011
318.43	30.612
318.80	31.856
319.16	31.330
319.53	30.677
319.89	29.974
320.26	32.206
320.62	31.383
320.99	32.041
321.35	31.701
321.72	35.256
322.08	32.732
322.45	33.966
322.81	35.560
323.18	35.044
323.54	35.862
323.91	35.765
324.27	35.628
324.64	36.440
325.00	35.406
325.37	35.463
325.73	35.785
326.10	35.929
326.46	35.749
326.83	36.589
327.19	35.827
327.56	37.233
327.92	36.979
328.29	36.532
328.65	37.437
329.01	38.156
329.38	38.922
329.74	38.870
330.11	38.699
330.47	39.090
330.84	38.071
331.20	39.333
331.56	39.775
331.93	39.749
332.29	40.254
332.66	40.615
333.02	38.610
333.38	40.604
333.75	40.572
334.11	39.950
334.48	40.594
334.84	41.121
335.20	38.623
335.57	41.400
335.93	40.331
336.29	40.183
336.66	41.548
337.02	41.555
337.38	41.582
337.75	41.240
338.11	40.706
338.47	39.537
338.84	40.948
339.20	39.764
339.56	40.774
339.93	40.558
340.29	39.130
340.65	41.444
341.02	41.341
341.38	41.148
341.74	40.355
342.11	40.386
342.47	40.905
342.83	42.995
343.20	42.191
343.56	42.342
343.92	41.393
344.28	40.703
344.65	42.326
345.01	41.108
345.37	41.680
345.73	41.543
346.10	42.044
346.46	43.196
346.82	41.573
347.19	42.170
347.55	41.882
347.91	41.976
348.27	41.426
348.63	42.803
349.00	42.506
349.36	41.561
349.72	41.667
350.08	42.719
350.45	43.194
350.81	42.685
351.17	42.556
351.53	42.835
351.89	42.597
352.26	43.284
352.62	42.836
352.98	43.130
353.34	41.673
353.70	44.299
354.07	43.443
354.43	42.749
354.79	42.483
355.15	43.782
355.51	42.032
355.87	43.082
356.24	44.259
356.60	43.237
356.96	43.884
357.32	42.825
357.68	43.777
358.04	43.713
358.40	43.731
358.77	44.152
359.13	45.199
359.49	44.015
359.85	43.655
360.21	44.261
360.57	43.862
360.93	43.583
361.29	44.772
361.66	44.533
362.02	46.207
362.38	44.624
362.74	45.531
363.10	44.567
363.46	46.537
363.82	46.733
364.18	46.305
364.54	46.404
364.90	46.689
365.26	46.621
365.62	45.600
365.98	46.698
366.35	46.779
366.71	46.667
367.07	47.632
367.43	47.341
367.79	47.976
368.15	47.893
368.51	47.497
368.87	46.375
369.23	48.067
369.59	49.454
369.95	49.020
370.31	48.683
370.67	48.212
371.03	47.715
371.39	47.280
371.75	48.968
372.11	48.509
372.47	49.018
372.83	49.149
373.19	48.032
373.55	48.848
373.91	49.012
374.27	49.418
374.63	50.880
374.99	49.801
375.35	49.805
375.71	50.258
376.07	51.001
376.42	50.378
376.78	52.144
377.14	50.156
377.50	52.372
377.86	52.463
378.22	51.677
378.58	51.130
378.94	51.526
379.30	51.904
379.66	53.380
380.02	53.606
380.38	53.687
380.74	52.000
381.09	53.310
381.45	52.955
381.81	54.684
382.17	54.157
382.53	53.918
382.89	53.273
383.25	55.041
383.61	55.266
383.97	54.122
384.32	56.100
384.68	53.596
385.04	57.316
385.40	55.333
385.76	58.089
386.12	55.416
386.48	57.059
386.83	57.032
387.19	56.199
387.55	56.866
387.91	56.678
388.27	57.910
388.62	56.415
388.98	56.853
389.34	58.456
389.70	58.629
390.06	56.424
390.42	57.771
390.77	57.556
391.13	57.864
391.49	57.790
391.85	58.000
392.20	58.007
392.56	58.240
392.92	58.833
393.28	58.264
393.64	57.989
393.99	59.442
394.35	59.930
394.71	58.802
395.07	59.581
395.42	59.794
395.78	60.695
396.14	60.844
396.50	60.808
396.85	59.571
397.21	60.888
397.57	60.247
397.92	59.507
398.28	58.772
398.64	60.584
399.00	59.162
399.35	60.471
399.71	60.380
400.07	60.752
400.42	61.641
400.78	61.169
401.14	59.704
401.49	61.683
401.85	61.337
402.21	61.587
402.57	63.322
402.92	61.052
403.28	60.129
403.63	60.561
403.99	61.223
404.35	60.773
404.70	61.643
405.06	61.087
405.42	60.012
405.77	62.377
406.13	61.264
406.49	61.599
406.84	61.053
407.20	60.872
407.55	60.872
407.91	60.214
408.27	61.837
408.62	61.315
408.98	60.360
409.34	61.701
409.69	62.917
410.05	62.251
410.40	63.457
410.76	62.199
411.11	62.011
411.47	61.302
411.83	63.786
412.18	63.133
412.54	63.426
412.89	62.049
413.25	61.795
413.60	62.148
413.96	63.811
414.31	61.700
414.67	62.612
415.03	61.169
415.38	63.619
415.74	62.615
416.09	63.294
416.45	59.987
416.80	61.750
417.16	63.091
417.51	64.134
417.87	62.170
418.22	63.054
418.58	63.879
418.93	63.620
419.29	63.748
419.64	62.845
420.00	64.451
420.35	62.942
420.71	63.699
421.06	63.197
421.42	64.392
421.77	62.089
422.12	62.104
422.48	64.260
422.83	65.882
423.19	64.509
423.54	66.372
423.90	63.666
424.25	65.760
424.61	63.777
424.96	66.172
425.31	64.384
425.67	65.808
426.02	65.744
426.38	65.729
426.73	64.007
427.09	66.551
427.44	64.500
427.79	65.837
428.15	65.068
428.50	65.899
428.85	66.762
429.21	66.489
429.56	66.831
429.92	65.405
430.27	66.602
430.62	67.025
430.98	67.585
431.33	66.276
431.68	66.810
432.04	68.461
432.39	68.024
432.74	67.295
433.10	67.929
433.45	66.109
433.80	67.275
434.16	67.045
434.51	69.579
434.86	70.575
435.22	70.351
435.57	69.163
435.92	68.559
436.28	68.203
436.63	69.416
436.98	67.042
437.34	68.884
437.69	68.134
438.04	70.175
438.39	68.639
438.75	69.895
439.10	69.239
439.45	68.753
439.81	69.379
440.16	69.598
440.51	68.450
440.86	68.038
441.22	67.685
441.57	69.444
441.92	69.011
442.27	71.061
442.63	69.945
442.98	71.345
443.33	70.700
443.68	70.862
444.03	71.167
444.39	70.596
444.74	71.873
445.09	69.589
445.44	71.286
445.79	70.594
446.15	71.994
446.50	71.163
446.85	70.963
447.20	70.309
447.55	70.659
447.91	70.995
448.26	71.142
448.61	70.988
448.96	72.479
449.31	70.520
449.66	71.024
450.02	70.464
450.37	71.870
450.72	72.121
451.07	71.697
451.42	72.097
451.77	70.873
452.12	72.630
452.47	71.539
452.83	74.550
453.18	70.520
453.53	71.568
453.88	70.845
454.23	71.017
454.58	72.954
454.93	71.541
455.28	71.403
455.63	71.632
455.98	73.352
456.34	72.497
456.69	71.311
457.04	73.109
457.39	72.339
457.74	73.154
458.09	71.774
458.44	71.929
458.79	72.357
459.14	72.155
459.49	72.383
459.84	72.770
460.19	72.293
460.54	73.367
460.89	74.378
461.24	70.172
461.59	72.773
461.94	70.850
462.29	73.404
462.64	72.420
462.99	72.881
463.34	74.043
463.69	69.812
464.04	72.540
464.39	72.365
464.74	71.380
465.09	72.318
465.44	73.337
465.79	72.237
466.14	72.486
466.49	72.579
466.84	73.664
467.19	73.526
467.54	71.504
467.89	72.701
468.24	73.684
468.59	72.322
468.94	72.319
469.29	72.166
469.64	73.681
469.99	74.570
470.34	72.834
470.68	75.256
471.03	73.477
471.38	73.120
471.73	74.382
472.08	71.891
472.43	72.246
472.78	73.741
473.13	74.083
473.48	73.535
473.83	73.941
474.17	71.923
474.52	74.865
474.87	73.034
475.22	74.592
475.57	73.884
475.92	74.017
476.27	73.749
476.61	73.832
476.96	73.306
477.31	73.515
477.66	75.341
478.01	73.462
478.36	72.084
478.70	75.714
479.05	75.767
479.40	74.926
479.75	73.247
480.10	74.183
480.45	73.838
480.79	75.465
481.14	74.449
481.49	75.239
481.84	75.631
482.19	75.355
482.53	74.945
482.88	76.207
483.23	75.011
483.58	74.148
483.92	73.980
484.27	74.005
484.62	73.020
484.97	72.939
485.31	73.319
485.66	68.323
486.01	68.735
486.36	72.157
486.70	77.762
487.05	81.280
487.40	79.336
487.75	76.692
488.09	76.021
488.44	73.705
488.79	73.524
489.13	72.918
489.48	73.553
489.83	72.877
490.17	73.269
490.52	73.276
490.87	73.773
491.22	75.087
491.56	74.104
491.91	74.182
492.26	75.335
492.60	73.765
492.95	75.603
493.30	74.899
493.64	76.259
493.99	75.219
494.34	74.390
494.68	74.176
495.03	74.405
495.37	75.943
495.72	74.966
496.07	73.970
496.41	73.960
496.76	75.813
497.11	75.117
497.45	75.744
497.80	75.300
498.14	75.283
498.49	75.046
498.84	75.091
499.18	75.439
499.53	74.664
499.87	75.165
500.22	76.714
500.56	75.709
500.91	77.620
501.26	76.773
501.60	75.475
501.95	75.380
502.29	75.998
502.64	76.913
502.98	75.496
503.33	74.989
503.67	77.453
504.02	75.482
504.36	77.659
504.71	77.079
505.06	76.535
505.40	76.371
505.75	76.412
506.09	76.796
506.44	78.505
506.78	78.257
507.13	76.579
507.47	77.546
507.82	77.746
508.16	77.772
508.51	75.246
508.85	77.752
509.19	77.357
509.54	78.674
509.88	77.756
510.23	79.213
510.57	79.797
510.92	78.084
511.26	78.355
511.61	76.968
511.95	79.063
512.30	79.124
512.64	76.962
512.98	79.090
513.33	79.536
513.67	79.194
514.02	79.561
514.36	80.256
514.70	80.729
515.05	79.823
515.39	80.735
515.74	81.230
516.08	80.666
516.42	81.580
516.77	81.178
517.11	80.299
517.46	82.025
517.80	83.271
518.14	82.807
518.49	82.646
518.83	79.670
519.17	80.883
519.52	82.128
519.86	81.415
520.20	81.683
520.55	82.092
520.89	81.644
521.23	82.245
521.58	82.994
521.92	81.076
522.26	81.787
522.61	83.681
522.95	82.757
523.29	83.333
523.64	81.670
523.98	84.598
524.32	85.100
524.66	84.861
525.01	82.899
525.35	84.032
525.69	83.933
526.04	82.147
526.38	83.908
526.72	82.757
527.06	83.871
527.41	83.965
527.75	85.214
528.09	83.530
528.43	83.304
528.78	83.642
529.12	83.257
529.46	84.767
529.80	84.725
530.15	85.913
530.49	85.172
530.83	83.648
531.17	84.588
531.51	84.958
531.86	84.675
532.20	84.878
532.54	83.902
532.88	84.000
533.22	83.029
533.57	83.497
533.91	84.456
534.25	84.963
534.59	86.149
534.93	86.474
535.27	84.676
535.62	84.594
535.96	84.776
536.30	85.194
536.64	85.886
536.98	85.793
537.32	84.630
537.66	85.714
538.01	83.625
538.35	84.592
538.69	84.976
539.03	85.837
539.37	82.862
539.71	85.526
540.05	84.293
540.39	84.841
540.73	83.364
541.07	84.856
541.42	82.753
541.76	83.096
542.10	84.680
542.44	85.201
542.78	84.489
543.12	83.731
543.46	83.822
543.80	83.094
544.14	83.603
544.48	84.929
544.82	86.116
545.16	85.450
545.50	84.422
545.84	84.446
546.18	86.790
546.52	84.968
546.86	83.836
547.20	85.242
547.54	82.709
547.88	83.424
548.22	83.918
548.56	84.435
548.90	86.567
549.24	86.383
549.58	84.101
549.92	84.758
550.26	85.437
550.60	84.110
550.94	84.799
551.28	84.092
551.62	86.119
551.96	83.430
552.30	85.022
552.64	85.314
552.98	85.465
553.32	86.559
553.66	85.531
554.00	84.805
554.34	84.427
554.68	83.990
555.02	85.085
555.36	85.865
555.69	83.664
556.03	84.805
556.37	86.358
556.71	83.767
557.05	85.495
557.39	85.003
557.73	85.271
558.07	85.298
558.41	84.252
558.75	86.342
559.08	87.613
559.42	85.254
559.76	84.735
560.10	84.461
560.44	87.401
560.78	84.938
561.12	86.700
561.45	85.523
561.79	86.264
562.13	87.184
562.47	85.327
562.81	85.759
563.15	84.912
563.48	85.643
563.82	84.885
564.16	84.070
564.50	84.982
564.84	84.366
565.17	85.824
565.51	83.832
565.85	85.808
566.19	84.908
566.52	84.611
566.86	85.795
567.20	84.502
567.54	85.502
567.88	86.340
568.21	85.277
568.55	86.043
568.89	86.064
569.23	84.495
569.56	85.815
569.90	84.070
570.24	85.261
570.57	86.177
570.91	85.364
571.25	84.408
571.59	84.498
571.92	84.435
572.26	84.251
572.60	84.848
572.93	84.609
573.27	83.591
573.61	83.880
573.95	83.564
574.28	82.971
574.62	83.129
574.96	82.642
575.29	82.970
575.63	83.068
575.97	83.545
576.30	82.433
576.64	82.606
576.98	82.141
577.31	82.939
577.65	83.677
577.98	83.170
578.32	82.846
578.66	83.321
578.99	83.617
579.33	84.260
579.67	83.522
580.00	83.300
580.34	82.417
580.67	82.480
581.01	82.713
581.35	81.492
581.68	83.141
582.02	82.638
582.35	85.054
582.69	85.580
583.02	85.050
583.36	85.007
583.70	84.322
584.03	82.793
584.37	83.560
584.70	82.054
585.04	81.214
585.37	82.987
585.71	82.309
586.04	83.091
586.38	84.169
586.72	84.156
587.05	83.807
587.39	84.867
587.72	85.239
588.06	84.139
588.39	83.346
588.73	84.021
589.06	84.509
589.40	85.648
589.73	83.805
590.07	84.350
590.40	83.232
590.73	84.164
591.07	85.108
591.40	83.320
591.74	84.817
592.07	84.734
592.41	84.582
592.74	83.138
593.08	84.172
593.41	84.223
593.75	84.971
594.08	85.822
594.41	85.833
594.75	84.922
595.08	85.262
595.42	85.649
595.75	84.501
596.09	85.564
596.42	85.202
596.75	84.832
597.09	84.768
597.42	84.545
597.75	84.281
598.09	84.603
598.42	84.881
598.76	84.715
599.09	84.122
599.42	83.842
599.76	84.483
600.09	85.452
600.42	83.817
600.76	84.577
601.09	83.770
601.42	83.934
601.76	84.172
602.09	84.775
602.42	83.788
602.76	83.948
603.09	85.279
603.42	85.477
603.76	85.201
604.09	86.480
604.42	85.982
604.76	84.855
605.09	85.321
605.42	84.769
605.75	84.462
606.09	84.061
606.42	82.780
606.75	83.883
607.09	83.449
607.42	84.432
607.75	85.346
608.08	83.978
608.42	83.837
608.75	84.494
609.08	83.659
609.41	84.561
609.75	84.688
610.08	85.928
610.41	84.494
610.74	83.277
611.07	84.680
611.41	83.946
611.74	85.589
612.07	85.367
612.40	84.933
612.73	86.112
613.07	84.694
613.40	85.274
613.73	83.967
614.06	85.427
614.39	84.208
614.72	83.164
615.06	83.638
615.39	83.132
615.72	85.498
616.05	85.915
616.38	85.873
616.71	85.632
617.05	83.280
617.38	83.949
617.71	85.907
618.04	84.080
618.37	86.448
618.70	85.747
619.03	84.827
619.36	84.957
619.69	84.881
620.03	84.746
620.36	84.663
620.69	85.873
621.02	85.302
621.35	87.881
621.68	87.491
622.01	85.694
622.34	85.425
622.67	85.017
623.00	85.695
623.33	86.795
623.66	86.706
623.99	85.978
624.32	86.810
624.65	85.006
624.99	87.971
625.32	85.369
625.65	85.367
625.98	84.610
626.31	85.897
626.64	85.568
626.97	85.371
627.30	85.573
627.63	84.921
627.96	86.336
628.29	87.393
628.62	85.642
628.95	89.045
629.28	85.472
629.61	86.700
629.94	85.021
630.26	84.407
630.59	86.356
630.92	86.667
631.25	87.030
631.58	87.476
631.91	88.660
632.24	88.569
632.57	88.615
632.90	87.763
633.23	87.551
633.56	86.122
633.89	86.570
634.22	87.838
634.55	85.908
634.88	87.338
635.20	88.159
635.53	88.814
635.86	86.674
636.19	86.744
636.52	87.764
636.85	85.393
637.18	85.031
637.51	87.634
637.83	86.600
638.16	88.249
638.49	87.089
638.82	85.682
639.15	87.514
639.48	85.797
639.81	87.298
640.13	86.101
640.46	84.485
640.79	85.172
641.12	88.323
641.45	88.582
641.77	88.703
642.10	87.795
642.43	88.830
642.76	89.566
643.09	85.342
643.41	87.255
643.74	87.310
644.07	89.517
644.40	85.714
644.73	87.518
645.05	89.134
645.38	89.209
645.71	86.364
646.04	86.801
646.36	86.569
646.69	89.571
647.02	88.532
647.35	87.023
647.67	91.304
648.00	90.924
648.33	87.087
648.66	86.448
648.98	84.490
649.31	88.633
649.64	88.579
649.96	84.748
650.29	83.032
650.62	84.866
650.94	88.589
651.27	84.731
651.60	84.064
651.92	86.626
652.25	84.949
652.58	86.107
652.90	85.320
653.23	85.775
653.56	86.020
653.88	84.972
654.21	86.056
654.54	86.850
654.86	86.119
655.19	85.445
655.52	93.376
655.84	92.737
656.17	98.991
656.49	100.034
656.82	99.203
657.15	99.194
657.47	99.466
657.80	100.000
658.13	83.199
658.45	66.017
658.78	79.469
659.10	74.637
659.43	70.108
659.75	67.572
660.08	63.529
660.41	65.674
660.73	71.722
661.06	77.974
661.38	82.297
661.71	83.793
662.03	83.951
662.36	84.794
662.68	87.992
663.01	83.717
663.33	89.792
663.66	88.095
663.98	87.115
664.31	89.118
664.63	85.164
664.96	86.207
665.28	83.122
665.61	82.168
665.93	82.679
666.26	86.559
666.58	85.055
666.91	87.664
667.23	82.667
667.56	87.574
667.88	85.600
668.21	84.570
668.53	83.398
668.86	80.943
669.18	87.780
669.50	84.891
669.83	86.400
670.15	83.858
670.48	85.119
670.80	83.556
671.13	82.987
671.45	83.858
671.77	87.947
672.10	80.167
672.42	85.761
672.75	82.642
673.07	80.746
673.39	79.661
673.72	84.899
674.04	86.897
674.37	86.225
674.69	84.656
675.01	87.429
675.34	85.496
675.66	84.082
675.98	85.634
676.31	88.281
676.63	84.791
676.95	83.142
677.28	85.282
677.60	80.709
677.92	83.301
678.25	83.912
678.57	85.231
678.89	82.082
679.22	79.791
679.54	79.829
679.86	81.525
680.18	84.245
680.51	82.862
680.83	81.669
681.15	84.655
681.48	84.111
681.80	83.592
682.12	81.119
682.44	78.631
682.77	78.723
683.09	83.902
683.41	85.078
683.73	80.835
684.06	79.705
684.38	82.290
684.70	84.022
685.02	82.100
685.34	82.862
685.67	81.703
685.99	78.374
686.31	79.070
686.63	83.254
686.96	79.653
687.28	80.619
687.60	83.670
687.92	78.778
688.24	80.134
688.56	80.000
688.89	81.851
689.21	83.757
689.53	82.157
689.85	82.840
690.17	78.889
690.49	83.068
690.82	80.792
691.14	81.174
691.46	81.071
691.78	82.689
692.10	81.468
692.42	76.250
692.74	77.858
693.06	77.222
693.39	81.784
693.71	80.263
694.03	77.138
694.35	78.667
694.67	79.466
694.99	78.298
695.31	80.132
695.63	79.654
695.95	77.847
696.27	79.780
696.59	80.752
696.91	76.802
697.23	83.297
697.56	78.004
697.88	78.220
698.20	79.849
698.52	80.682
698.84	82.328
699.16	80.816
699.48	76.151
699.80	77.660
700.12	77.948
700.44	78.802
700.76	79.097
701.08	81.114
701.40	80.829
701.72	78.358
702.04	82.086
702.36	77.225
702.68	73.594
703.00	77.995
703.32	73.892
703.64	78.484
703.96	79.236
704.28	73.464
704.60	78.481
704.91	73.724
705.23	77.534
705.55	75.209
705.87	78.485
706.19	77.607
706.51	78.614
706.83	81.556
707.15	77.249
707.47	78.037
707.79	76.856
708.11	76.059
708.43	76.989
708.74	74.777
709.06	75.174
709.38	75.352
709.70	76.179
710.02	74.419
710.34	76.330
710.66	75.698
710.98	80.328
711.29	80.220
711.61	75.706
711.93	76.923
712.25	69.730
712.57	80.826
712.89	74.706
713.20	74.556
713.52	75.434
713.84	72.981
714.16	73.947
714.48	71.134
714.80	78.442
715.11	71.654
715.43	74.005
715.75	73.421
716.07	74.862
716.39	75.956
716.70	68.373
717.02	75.410
717.34	74.216
717.66	72.483
717.97	73.630
718.29	76.632
718.61	75.987
718.93	74.757
719.24	71.118
719.56	72.699
719.88	72.973
720.20	76.129
720.51	69.255
720.83	71.875
721.15	69.079
721.46	75.000
721.78	73.000
722.10	67.961
722.42	71.477
722.73	67.742
723.05	72.982
723.37	68.403
723.68	72.401
724.00	74.368
724.32	68.662
724.63	67.483
724.95	73.050
725.27	72.474
725.58	70.318
725.90	77.931
726.22	70.846
726.53	73.377
726.85	74.528
727.16	64.350
727.48	66.972
727.80	68.874
728.11	67.845
728.43	73.737
728.74	69.565
729.06	70.530
729.38	70.130
729.69	75.839
730.01	73.512
730.32	64.545
730.64	76.415
730.96	67.081
731.27	70.950
731.59	72.253
731.90	70.390
732.22	67.448
732.53	68.232
732.85	66.857
733.16	72.141
733.48	71.646
733.80	69.638
734.11	68.661
734.43	72.432
734.74	73.924
735.06	64.070
735.37	68.649
735.69	68.649
736.00	70.056
736.32	62.264
736.63	67.500
736.95	68.966
737.26	73.636
737.58	64.242
737.89	66.176
738.21	66.972
738.52	64.590
738.83	66.894
739.15	68.085
739.46	73.469
739.78	68.098
740.09	67.049
740.41	68.805
740.72	64.333
741.04	61.812
741.35	66.667
741.66	69.412
741.98	69.262
742.29	62.343
742.61	71.491
742.92	69.615
743.23	62.094
743.55	64.729
743.86	63.200
744.18	67.355
744.49	64.979
744.80	63.374
745.12	67.511
745.43	69.512
745.74	65.948
746.06	67.797
746.37	72.996
746.68	63.821
747.00	69.167
747.31	66.524
747.62	70.000
747.94	76.113
748.25	70.281
748.56	64.082
748.88	68.803
749.19	64.655
749.50	73.593
749.82	72.289
750.13	70.463
750.44	70.667
750.75	64.000
751.07	64.615
751.38	66.246
751.69	64.856
752.01	68.932
752.32	67.647
752.63	70.068
752.94	67.820
753.26	65.056
753.57	68.148
753.88	68.539
754.19	68.167
754.51	68.489
754.82	62.379
755.13	66.230
755.44	70.990
755.75	67.763
756.07	64.478
756.38	67.296
756.69	73.494
757.00	61.219
757.31	64.481
757.63	66.752
757.94	61.033
758.25	63.657
758.56	63.181
758.87	62.727
759.18	64.267
759.50	65.439
759.81	68.067
760.12	65.768
760.43	64.844
760.74	68.719
761.05	67.500
761.36	60.482
761.67	59.137
761.99	61.351
762.30	61.280
762.61	61.386
762.92	61.940
763.23	65.543
763.54	65.468
763.85	64.948
764.16	67.340
764.47	67.606
764.78	64.856
765.10	65.689
765.41	63.590
765.72	59.524
766.03	61.017
766.34	57.994
766.65	62.718
766.96	61.753
767.27	63.134
767.58	59.701
767.89	59.615
768.20	55.399
768.51	59.259
768.82	56.225
769.13	59.091
769.44	60.000
769.75	61.011
770.06	55.000
770.37	64.961
770.68	57.021
770.99	58.704
771.30	68.148
771.61	59.696
771.92	59.259
772.23	63.968
772.54	50.926
772.85	55.760
773.16	57.619
773.47	60.847
773.78	58.919
774.09	55.114
774.39	62.500
774.70	58.470
775.01	49.390
775.32	52.353
775.63	55.215
775.94	45.860
776.25	52.903
776.56	44.872
776.87	46.259
777.18	46.207
777.48	57.343
777.79	39.189
778.10	41.912
778.41	42.361
778.72	51.034
779.03	46.296
779.34	53.939
779.65	52.850
779.95	56.111
780.26	58.523
780.57	54.194
780.88	58.696
781.19	47.097
781.50	58.235
781.80	59.677
782.11	50.265
782.42	48.990
782.73	52.695
783.04	50.838
783.34	46.667
783.65	42.484
783.96	54.037
784.27	46.429
784.57	52.318
784.88	46.429
785.19	40.945
785.50	51.181
785.81	45.113
786.11	50.000
786.42	46.043
786.73	43.165
787.04	51.880
787.34	38.525
787.65	52.000
787.96	47.761
788.26	48.951
788.57	43.357
788.88	40.789
789.19	49.020
789.49	50.685
789.80	36.170
790.11	40.157
790.41	36.719
790.72	33.051
791.03	30.097
791.33	32.174
791.64	30.702
791.95	15.179
792.25	31.429
792.56	33.929
792.87	23.958
793.17	38.393
793.48	23.958
793.79	30.120
794.09	38.532
794.40	37.615
794.70	40.816
795.01	43.506
795.32	37.671
795.62	41.549
795.93	43.182
796.23	31.148
796.54	23.214
796.85	23.404
797.15	19.565
797.46	27.397
797.76	13.750
798.07	32.609
798.37	11.340
798.68	10.390
798.99	24.138
799.29	24.719
799.60	19.149
799.90	16.867
800.21	6.154
800.51	19.403
800.82	17.647
801.12	5.479
801.43	-5.882
801.73	16.949
802.04	18.182
802.34	16.667
802.65	8.475
802.95	10.448
803.26	16.949
803.56	19.178
803.87	20.000
804.17	13.699
804.48	-10.526
804.78	9.722
805.09	-13.793
805.39	21.622
805.70	11.268
806.00	15.854
806.30	16.867
806.61	21.918
806.91	24.038
807.22	33.333
807.52	9.195
807.83	25.000
808.13	19.277
808.43	19.101
808.74	21.250
809.04	10.294
809.35	25.333
809.65	12.857
809.95	19.178
810.26	-22.807
810.56	20.690
810.86	5.882
811.17	1.754
811.47	-14.754
811.77	-35.556
812.08	-10.169
812.38	-3.333
812.69	3.448
812.99	-15.094
813.29	-28.205
813.59	-8.000
813.90	-8.772
814.20	-14.545
814.50	21.127
814.81	19.231
815.11	11.475
815.41	14.925
815.72	6.897
816.02	-16.071
816.32	8.889
816.62	-6.818
816.93	-4.444
817.23	5.556
817.53	-12.766
817.84	2.381
818.14	-50.000
818.44	-12.245
818.74	-17.778
819.04	-28.205
819.35	-48.571
819.65	-73.077
819.95	-20.755
820.25	-24.444
820.56	-35.714
820.86	-43.750
821.16	-10.256
821.46	-27.907
821.76	-8.000
822.07	-26.786
822.37	-8.696
822.67	-14.894
822.97	-37.838
823.27	-22.500
823.57	0.000
823.88	-6.667
824.18	-25.000
824.48	-70.000
824.78	-104.000
825.08	-48.485
825.38	-20.000
825.69	-19.149
825.99	-33.333
826.29	-80.000
826.59	-20.513
826.89	-37.209
827.19	-30.000
827.49	-26.471
827.79	-22.917
828.09	-45.946
828.39	-56.667
828.70	-48.780
829.00	-16.279
829.30	-100.000
829.60	-50.000
829.90	-54.348
830.20	-80.000
830.50	-41.379
830.80	-144.444
831.10	-107.692
831.40	-64.706
831.70	-90.476
832.00	-38.710
832.30	-223.529
832.60	-79.167
832.90	-246.154
833.20	-136.842
833.50	-125.000
833.80	-100.000
834.10	-152.381
834.40	-61.111
834.70	-53.125
835.00	-85.714
835.30	-58.824
835.60	-83.333
835.90	-44.000
836.20	-154.545
836.50	-112.000
836.80	-78.788
837.10	-74.074
837.40	-88.889
837.70	-218.750
838.00	-75.000
838.30	-117.391
838.60	-93.103
838.90	-228.571
839.19	-173.913
839.49	-300.000
839.79	-100.000
840.09	-206.250
840.39	-155.000
840.69	-48.387
840.99	-121.429
841.29	-120.000
841.59	-142.105
841.88	-43.590
842.18	-153.846
842.48	-320.000
842.78	-170.000
843.08	-70.000
843.38	-64.516
843.68	-194.444
843.97	-50.000
844.27	-168.750
844.57	-173.684
844.87	-370.000
845.17	-280.000
845.47	-109.524
845.76	-147.619
846.06	-400.000
846.36	-241.176
846.66	-111.538
846.96	-173.333
847.25	-170.588
847.55	-95.652
847.85	-125.000
848.15	-111.765
848.44	-309.091
848.74	-138.095
849.04	-158.333
849.34	-181.250
849.63	-86.957
849.93	1950.000
850.23	-240.000
850.53	-80.769
850.82	-272.727
851.12	-104.545
851.42	-318.182
851.71	-146.154
852.01	-170.000
852.31	-238.462
852.61	-152.632
852.90	-266.667
853.20	-177.778
853.50	-466.667
853.79	-180.952
854.09	-150.000
854.39	-258.333
854.68	-77.419
854.98	-123.077
855.28	-122.222
855.57	-132.143
855.87	-92.000
856.17	-86.364
856.46	-88.889
856.76	-172.222
857.05	-108.696
857.35	-129.167
857.65	-276.923
857.94	-119.048
858.24	-100.000
858.53	-143.478
858.83	-182.353
859.13	-158.824
859.42	-211.765
859.72	-185.714
860.01	-145.000
860.31	-322.222
860.60	-310.000
860.90	-260.000
861.20	-155.556
861.49	-269.231
861.79	-106.667
862.08	-292.308
862.38	-75.000
862.67	-141.176
862.97	-175.000
863.26	-444.444
863.56	-380.000
863.85	-245.455
864.15	-127.778
864.44	-933.333
864.74	-250.000
865.03	-150.000
865.33	-430.000
865.62	-109.677
865.92	-127.273
866.21	-156.522
866.51	-250.000
866.80	-840.000
867.10	-358.333
867.39	-416.667
867.69	4400.000
867.98	-428.571
868.27	-170.588
868.57	-4100.000
868.86	-410.000
869.16	-190.476
869.45	-133.333
869.75	-309.091
870.04	-400.000
870.33	-300.000
870.63	-657.143
870.92	-875.000
871.22	-487.500
871.51	-418.182
871.80	-1666.667
872.10	-2000.000
>>>>>End Processed Spectral Data<<<<<
