SpectraSuite Data File
++++++++++++++++++++++++++++++++++++
Date: Thu May 14 14:32:40 PDT 2015
User: schluterlab
Dark Spectrum Present: Yes
Reference Spectrum Present: Yes
Number of Sampled Component Spectra: 1
Spectrometers: USB2E3373
Integration Time (usec): 3000 (USB2E3373)
Spectra Averaged: 3 (USB2E3373)
Boxcar Smoothing: 0 (USB2E3373)
Correct for Electrical Dark: No (USB2E3373)
Strobe/Lamp Enabled: No (USB2E3373)
Correct for Detector Non-linearity: No (USB2E3373)
Correct for Stray Light: No (USB2E3373)
Number of Pixels in Processed Spectrum: 2048
>>>>>Begin Processed Spectral Data<<<<<
178.53	0.000
178.91	-257.143
179.29	1800.000
179.67	2400.000
180.04	21.429
180.42	-110.000
180.80	-300.000
181.18	1600.000
181.56	2300.000
181.94	-475.000
182.31	550.000
182.69	-466.667
183.07	1050.000
183.45	-325.000
183.83	316.667
184.20	500.000
184.58	-1900.000
184.96	350.000
185.34	155.556
185.72	560.000
186.09	-200.000
186.47	-750.000
186.85	-280.000
187.23	122.222
187.61	800.000
187.98	-280.000
188.36	-225.000
188.74	650.000
189.12	700.000
189.49	112.500
189.87	250.000
190.25	155.556
190.63	300.000
191.00	211.111
191.38	0.000
191.76	175.000
192.14	250.000
192.51	-500.000
192.89	383.333
193.27	0.000
193.65	271.429
194.02	300.000
194.40	371.429
194.78	-257.143
195.15	0.000
195.53	236.364
195.91	0.000
196.29	675.000
196.66	153.846
197.04	700.000
197.42	57.143
197.79	800.000
198.17	237.500
198.55	257.143
198.92	211.111
199.30	112.500
199.68	218.182
200.05	128.571
200.43	450.000
200.81	-85.714
201.18	0.000
201.56	-55.556
201.94	0.000
202.31	-466.667
202.69	88.889
203.07	-1700.000
203.44	244.444
203.82	500.000
204.19	108.333
204.57	200.000
204.95	87.500
205.32	1300.000
205.70	-450.000
206.08	433.333
206.45	366.667
206.83	-80.000
207.20	366.667
207.58	140.000
207.96	166.667
208.33	333.333
208.71	-100.000
209.08	350.000
209.46	0.000
209.84	-116.667
210.21	-800.000
210.59	-850.000
210.96	-266.667
211.34	525.000
211.71	275.000
212.09	1700.000
212.46	0.000
212.84	-450.000
213.22	240.000
213.59	525.000
213.97	260.000
214.34	533.333
214.72	-200.000
215.09	275.000
215.47	0.000
215.84	-300.000
216.22	-900.000
216.59	400.000
216.97	400.000
217.34	525.000
217.72	300.000
218.09	475.000
218.47	475.000
218.84	0.000
219.22	-500.000
219.59	123.529
219.97	115.000
220.34	-200.000
220.72	233.333
221.09	184.615
221.47	666.667
221.84	180.000
222.22	114.286
222.59	0.000
222.97	287.500
223.34	140.000
223.72	1500.000
224.09	250.000
224.46	75.000
224.84	260.000
225.21	214.286
225.59	275.000
225.96	575.000
226.34	50.000
226.71	-100.000
227.08	400.000
227.46	93.333
227.83	525.000
228.21	115.789
228.58	-262.500
228.95	-550.000
229.33	250.000
229.70	190.000
230.08	178.947
230.45	-140.000
230.82	666.667
231.20	128.571
231.57	175.000
231.95	145.455
232.32	200.000
232.69	125.000
233.07	300.000
233.44	170.588
233.81	240.000
234.19	127.778
234.56	104.545
234.93	100.000
235.31	89.474
235.68	77.778
236.05	70.000
236.43	107.692
236.80	80.000
237.17	81.481
237.55	66.667
237.92	190.000
238.29	74.194
238.67	25.000
239.04	61.111
239.41	50.000
239.79	39.130
240.16	29.630
240.53	34.783
240.91	25.490
241.28	32.787
241.65	34.328
242.02	33.784
242.40	12.308
242.77	29.333
243.14	28.049
243.51	7.895
243.89	17.949
244.26	29.703
244.63	24.510
245.00	22.430
245.38	15.789
245.75	13.274
246.12	19.841
246.49	20.155
246.87	20.714
247.24	16.556
247.61	17.763
247.98	14.094
248.36	12.963
248.73	13.497
249.10	20.219
249.47	23.881
249.84	21.466
250.22	13.990
250.59	18.333
250.96	16.818
251.33	13.265
251.70	15.385
252.08	15.833
252.45	12.295
252.82	12.810
253.19	10.938
253.56	15.589
253.94	11.154
254.31	14.015
254.68	15.035
255.05	16.612
255.42	13.265
255.79	9.061
256.16	14.901
256.54	12.583
256.91	10.820
257.28	12.131
257.65	8.599
258.02	7.080
258.39	11.111
258.76	12.232
259.14	15.805
259.51	12.104
259.88	9.348
260.25	11.389
260.62	11.507
260.99	12.842
261.36	10.724
261.73	10.345
262.10	8.516
262.47	10.188
262.85	11.364
263.22	8.571
263.59	8.947
263.96	11.509
264.33	9.974
264.70	12.593
265.07	13.365
265.44	12.925
265.81	9.028
266.18	9.977
266.55	8.259
266.92	8.656
267.29	10.503
267.66	11.308
268.03	10.262
268.40	9.603
268.77	10.934
269.14	10.793
269.51	10.307
269.88	10.451
270.25	8.853
270.62	12.447
270.99	12.323
271.36	9.901
271.73	9.823
272.10	10.421
272.47	9.218
272.84	9.839
273.21	9.419
273.58	10.081
273.95	9.231
274.32	10.266
274.69	5.996
275.06	9.524
275.43	7.763
275.80	9.171
276.17	9.444
276.54	9.515
276.91	7.871
277.28	8.318
277.65	8.259
278.02	9.191
278.39	8.152
278.76	8.787
279.13	7.624
279.50	10.997
279.87	9.302
280.23	6.866
280.60	10.339
280.97	8.882
281.34	8.319
281.71	10.829
282.08	9.468
282.45	8.511
282.82	8.791
283.19	6.624
283.56	7.213
283.92	11.111
284.29	10.900
284.66	9.524
285.03	7.853
285.40	8.501
285.77	7.585
286.14	9.771
286.51	10.350
286.87	7.425
287.24	8.886
287.61	6.577
287.98	9.517
288.35	9.615
288.72	8.284
289.08	9.224
289.45	7.544
289.82	6.777
290.19	8.333
290.56	8.169
290.93	8.131
291.29	8.264
291.66	8.815
292.03	8.141
292.40	8.435
292.77	7.547
293.13	6.766
293.50	5.256
293.87	8.054
294.24	9.200
294.60	8.597
294.97	7.517
295.34	8.195
295.71	8.323
296.08	6.331
296.44	7.598
296.81	8.526
297.18	6.849
297.55	7.429
297.91	7.829
298.28	5.687
298.65	7.848
299.02	7.084
299.38	8.467
299.75	6.308
300.12	6.019
300.48	7.258
300.85	9.674
301.22	7.718
301.59	7.192
301.95	7.684
302.32	8.333
302.69	6.462
303.05	9.140
303.42	7.650
303.79	6.146
304.15	7.466
304.52	6.660
304.89	6.806
305.25	6.936
305.62	6.792
305.99	7.423
306.35	6.956
306.72	5.895
307.09	5.178
307.45	7.867
307.82	7.265
308.19	8.174
308.55	7.136
308.92	7.498
309.29	8.142
309.65	7.505
310.02	7.624
310.38	6.988
310.75	6.505
311.12	7.670
311.48	7.136
311.85	5.603
312.22	7.495
312.58	7.324
312.95	6.597
313.31	7.949
313.68	7.143
314.05	8.672
314.41	7.650
314.78	8.084
315.14	8.258
315.51	8.403
315.87	8.281
316.24	7.945
316.61	8.437
316.97	7.783
317.34	7.407
317.70	8.908
318.07	8.554
318.43	9.099
318.80	9.365
319.16	8.240
319.53	8.912
319.89	8.852
320.26	9.075
320.62	8.865
320.99	9.234
321.35	9.519
321.72	10.977
322.08	10.640
322.45	10.569
322.81	10.650
323.18	9.381
323.54	11.034
323.91	9.964
324.27	10.843
324.64	11.335
325.00	11.443
325.37	11.220
325.73	11.901
326.10	12.003
326.46	12.459
326.83	12.330
327.19	11.575
327.56	12.727
327.92	11.802
328.29	12.742
328.65	12.898
329.01	13.113
329.38	13.816
329.74	13.784
330.11	13.870
330.47	13.901
330.84	14.729
331.20	13.917
331.56	13.865
331.93	15.230
332.29	15.085
332.66	15.781
333.02	14.405
333.38	14.178
333.75	15.572
334.11	14.846
334.48	15.842
334.84	15.973
335.20	15.785
335.57	16.020
335.93	16.612
336.29	15.890
336.66	16.316
337.02	16.555
337.38	17.177
337.75	15.950
338.11	15.896
338.47	16.708
338.84	15.736
339.20	15.586
339.56	16.722
339.93	16.913
340.29	17.150
340.65	15.977
341.02	16.281
341.38	18.432
341.74	16.465
342.11	17.699
342.47	15.647
342.83	17.150
343.20	17.253
343.56	16.279
343.92	17.454
344.28	17.969
344.65	17.442
345.01	16.537
345.37	18.040
345.73	15.744
346.10	16.693
346.46	17.247
346.82	16.779
347.19	16.654
347.55	17.527
347.91	17.459
348.27	16.768
348.63	17.593
349.00	16.033
349.36	17.993
349.72	16.667
350.08	17.756
350.45	16.730
350.81	16.290
351.17	17.444
351.53	17.210
351.89	18.375
352.26	17.313
352.62	17.910
352.98	17.252
353.34	17.102
353.70	18.028
354.07	17.586
354.43	17.692
354.79	17.277
355.15	16.115
355.51	17.398
355.87	17.726
356.24	18.403
356.60	17.738
356.96	16.457
357.32	18.736
357.68	16.984
358.04	17.440
358.40	17.537
358.77	17.325
359.13	17.430
359.49	17.249
359.85	18.129
360.21	18.364
360.57	17.301
360.93	18.406
361.29	18.526
361.66	17.886
362.02	18.511
362.38	18.412
362.74	18.017
363.10	18.776
363.46	18.560
363.82	18.892
364.18	18.367
364.54	18.326
364.90	19.064
365.26	17.862
365.62	19.533
365.98	18.652
366.35	18.456
366.71	19.252
367.07	18.877
367.43	19.238
367.79	19.376
368.15	19.866
368.51	19.418
368.87	19.007
369.23	19.133
369.59	19.809
369.95	20.149
370.31	19.581
370.67	19.945
371.03	19.945
371.39	19.409
371.75	20.426
372.11	20.393
372.47	20.718
372.83	21.335
373.19	20.680
373.55	20.664
373.91	20.723
374.27	20.246
374.63	20.907
374.99	19.695
375.35	19.935
375.71	20.774
376.07	21.110
376.42	21.788
376.78	21.504
377.14	21.709
377.50	21.379
377.86	21.860
378.22	21.916
378.58	21.938
378.94	21.362
379.30	21.910
379.66	21.046
380.02	21.293
380.38	22.235
380.74	21.915
381.09	22.532
381.45	22.386
381.81	22.541
382.17	22.328
382.53	22.865
382.89	22.799
383.25	23.564
383.61	22.859
383.97	22.438
384.32	22.967
384.68	22.506
385.04	23.829
385.40	24.632
385.76	24.326
386.12	24.476
386.48	24.353
386.83	24.851
387.19	24.276
387.55	24.296
387.91	25.057
388.27	25.982
388.62	24.971
388.98	24.027
389.34	25.751
389.70	25.973
390.06	25.163
390.42	25.241
390.77	25.768
391.13	25.998
391.49	25.664
391.85	25.394
392.20	25.208
392.56	25.635
392.92	25.900
393.28	25.484
393.64	25.810
393.99	26.380
394.35	26.402
394.71	26.467
395.07	25.868
395.42	26.328
395.78	26.264
396.14	26.322
396.50	26.960
396.85	26.714
397.21	26.686
397.57	26.855
397.92	28.121
398.28	26.181
398.64	26.831
399.00	25.916
399.35	26.911
399.71	27.663
400.07	27.120
400.42	27.125
400.78	27.025
401.14	27.718
401.49	27.345
401.85	27.733
402.21	27.520
402.57	28.697
402.92	28.369
403.28	27.518
403.63	27.506
403.99	27.494
404.35	27.914
404.70	27.819
405.06	27.500
405.42	28.513
405.77	28.244
406.13	28.147
406.49	27.759
406.84	27.812
407.20	27.781
407.55	28.165
407.91	27.907
408.27	27.680
408.62	28.389
408.98	28.323
409.34	27.683
409.69	27.874
410.05	28.136
410.40	28.770
410.76	28.211
411.11	28.638
411.47	29.361
411.83	28.748
412.18	28.735
412.54	28.512
412.89	29.511
413.25	28.837
413.60	29.179
413.96	28.788
414.31	28.555
414.67	29.756
415.03	29.046
415.38	29.760
415.74	29.627
416.09	30.105
416.45	28.741
416.80	29.253
417.16	29.310
417.51	30.573
417.87	30.104
418.22	30.359
418.58	29.988
418.93	31.024
419.29	30.949
419.64	30.312
420.00	30.504
420.35	31.611
420.71	30.155
421.06	30.075
421.42	31.881
421.77	30.749
422.12	30.285
422.48	29.954
422.83	31.106
423.19	30.769
423.54	31.969
423.90	31.253
424.25	30.880
424.61	31.630
424.96	31.466
425.31	31.316
425.67	31.723
426.02	31.655
426.38	31.401
426.73	31.752
427.09	33.506
427.44	32.114
427.79	32.062
428.15	31.336
428.50	32.809
428.85	32.090
429.21	32.766
429.56	32.132
429.92	32.776
430.27	32.916
430.62	33.366
430.98	32.218
431.33	32.796
431.68	32.328
432.04	33.012
432.39	34.065
432.74	33.505
433.10	33.369
433.45	33.389
433.80	33.798
434.16	33.678
434.51	33.607
434.86	32.953
435.22	33.847
435.57	34.670
435.92	34.669
436.28	35.040
436.63	35.008
436.98	34.353
437.34	35.400
437.69	34.728
438.04	34.426
438.39	34.922
438.75	35.086
439.10	35.307
439.45	35.215
439.81	34.915
440.16	34.531
440.51	36.176
440.86	33.963
441.22	35.745
441.57	34.906
441.92	34.481
442.27	35.657
442.63	35.271
442.98	35.752
443.33	35.245
443.68	36.422
444.03	36.171
444.39	36.153
444.74	36.141
445.09	36.036
445.44	36.196
445.79	36.159
446.15	36.023
446.50	36.072
446.85	36.527
447.20	36.847
447.55	36.768
447.91	36.440
448.26	36.364
448.61	36.982
448.96	37.339
449.31	36.426
449.66	37.092
450.02	37.922
450.37	37.080
450.72	36.760
451.07	37.415
451.42	37.319
451.77	38.188
452.12	37.980
452.47	36.007
452.83	37.950
453.18	36.427
453.53	38.024
453.88	38.266
454.23	37.288
454.58	37.899
454.93	38.350
455.28	37.869
455.63	38.260
455.98	38.324
456.34	37.220
456.69	36.743
457.04	37.825
457.39	37.694
457.74	38.982
458.09	38.276
458.44	38.093
458.79	37.958
459.14	38.490
459.49	39.276
459.84	38.510
460.19	37.701
460.54	38.785
460.89	38.327
461.24	38.103
461.59	38.683
461.94	37.422
462.29	39.194
462.64	38.986
462.99	38.858
463.34	38.806
463.69	39.390
464.04	38.966
464.39	38.677
464.74	38.255
465.09	38.293
465.44	38.573
465.79	38.710
466.14	38.666
466.49	38.158
466.84	39.118
467.19	38.497
467.54	38.895
467.89	39.080
468.24	39.391
468.59	38.680
468.94	38.054
469.29	38.812
469.64	38.779
469.99	39.771
470.34	39.171
470.68	40.465
471.03	39.620
471.38	40.353
471.73	40.182
472.08	40.038
472.43	40.578
472.78	41.436
473.13	39.507
473.48	39.456
473.83	40.627
474.17	39.742
474.52	39.868
474.87	38.151
475.22	39.662
475.57	39.668
475.92	38.975
476.27	39.510
476.61	39.252
476.96	40.042
477.31	40.248
477.66	41.448
478.01	39.858
478.36	40.379
478.70	40.394
479.05	40.235
479.40	39.832
479.75	40.730
480.10	40.076
480.45	39.790
480.79	39.592
481.14	40.717
481.49	38.937
481.84	40.426
482.19	40.258
482.53	39.878
482.88	40.097
483.23	40.240
483.58	40.524
483.92	39.583
484.27	40.051
484.62	39.810
484.97	39.541
485.31	39.810
485.66	38.158
486.01	36.565
486.36	36.936
486.70	36.593
487.05	37.460
487.40	38.124
487.75	38.779
488.09	39.391
488.44	38.594
488.79	40.405
489.13	40.406
489.48	39.612
489.83	39.799
490.17	40.057
490.52	40.722
490.87	40.736
491.22	40.815
491.56	40.742
491.91	40.645
492.26	40.891
492.60	39.571
492.95	40.939
493.30	40.923
493.64	40.999
493.99	40.789
494.34	39.939
494.68	40.642
495.03	41.013
495.37	40.524
495.72	40.726
496.07	40.885
496.41	40.626
496.76	41.034
497.11	40.679
497.45	40.958
497.80	41.537
498.14	40.408
498.49	40.947
498.84	41.271
499.18	40.621
499.53	42.063
499.87	41.934
500.22	40.650
500.56	40.981
500.91	40.549
501.26	41.909
501.60	40.477
501.95	40.860
502.29	40.983
502.64	41.889
502.98	39.776
503.33	40.562
503.67	41.518
504.02	40.981
504.36	42.270
504.71	41.433
505.06	41.382
505.40	41.910
505.75	41.302
506.09	42.403
506.44	41.968
506.78	42.294
507.13	41.770
507.47	41.686
507.82	41.714
508.16	42.065
508.51	41.210
508.85	42.324
509.19	40.928
509.54	41.979
509.88	41.476
510.23	43.128
510.57	43.403
510.92	42.090
511.26	42.424
511.61	41.864
511.95	43.338
512.30	42.688
512.64	42.079
512.98	42.921
513.33	43.952
513.67	42.427
514.02	43.127
514.36	43.120
514.70	43.854
515.05	43.379
515.39	42.467
515.74	43.796
516.08	42.895
516.42	43.799
516.77	43.270
517.11	42.032
517.46	43.531
517.80	44.254
518.14	43.308
518.49	45.119
518.83	43.055
519.17	42.057
519.52	43.239
519.86	43.453
520.20	43.237
520.55	42.497
520.89	43.919
521.23	44.444
521.58	44.068
521.92	44.136
522.26	44.101
522.61	45.486
522.95	44.060
523.29	44.770
523.64	44.339
523.98	45.408
524.32	44.241
524.66	44.223
525.01	43.658
525.35	43.021
525.69	44.374
526.04	43.685
526.38	44.310
526.72	43.829
527.06	44.633
527.41	43.440
527.75	45.606
528.09	45.100
528.43	44.168
528.78	43.699
529.12	44.037
529.46	43.620
529.80	44.336
530.15	43.652
530.49	44.484
530.83	43.625
531.17	44.086
531.51	44.826
531.86	43.870
532.20	44.817
532.54	44.345
532.88	44.242
533.22	44.137
533.57	44.374
533.91	43.715
534.25	41.832
534.59	44.080
534.93	43.916
535.27	44.169
535.62	42.922
535.96	44.509
536.30	44.477
536.64	45.045
536.98	46.064
537.32	44.815
537.66	45.041
538.01	45.317
538.35	44.823
538.69	44.832
539.03	45.248
539.37	45.406
539.71	44.144
540.05	43.765
540.39	44.682
540.73	43.959
541.07	44.880
541.42	43.060
541.76	42.883
542.10	44.632
542.44	44.336
542.78	44.830
543.12	44.636
543.46	43.040
543.80	44.305
544.14	44.165
544.48	43.617
544.82	44.345
545.16	44.544
545.50	45.416
545.84	45.132
546.18	45.185
546.52	43.631
546.86	43.899
547.20	45.356
547.54	44.944
547.88	44.304
548.22	43.743
548.56	43.300
548.90	44.716
549.24	44.742
549.58	43.722
549.92	45.408
550.26	44.142
550.60	45.310
550.94	45.213
551.28	45.017
551.62	45.485
551.96	44.207
552.30	46.590
552.64	44.680
552.98	44.042
553.32	45.531
553.66	46.367
554.00	46.028
554.34	44.595
554.68	44.222
555.02	45.664
555.36	45.431
555.69	44.843
556.03	44.262
556.37	45.244
556.71	45.339
557.05	45.879
557.39	45.919
557.73	46.103
558.07	45.828
558.41	45.515
558.75	45.233
559.08	45.790
559.42	45.062
559.76	45.726
560.10	46.417
560.44	45.383
560.78	45.188
561.12	44.458
561.45	44.282
561.79	45.543
562.13	44.670
562.47	43.711
562.81	45.190
563.15	45.707
563.48	46.116
563.82	45.103
564.16	43.307
564.50	44.815
564.84	44.661
565.17	44.706
565.51	44.419
565.85	45.249
566.19	43.491
566.52	44.997
566.86	44.652
567.20	43.393
567.54	44.025
567.88	43.323
568.21	44.071
568.55	42.878
568.89	43.441
569.23	41.318
569.56	42.243
569.90	41.554
570.24	41.113
570.57	40.218
570.91	39.620
571.25	40.121
571.59	39.967
571.92	39.632
572.26	39.121
572.60	39.722
572.93	39.939
573.27	39.871
573.61	39.201
573.95	39.403
574.28	39.267
574.62	39.222
574.96	38.333
575.29	38.577
575.63	38.346
575.97	39.018
576.30	39.082
576.64	38.750
576.98	38.474
577.31	39.466
577.65	38.877
577.98	38.667
578.32	37.967
578.66	38.353
578.99	38.439
579.33	39.217
579.67	38.917
580.00	39.065
580.34	39.332
580.67	38.835
581.01	38.944
581.35	38.652
581.68	37.924
582.02	37.818
582.35	38.573
582.69	38.265
583.02	38.479
583.36	38.838
583.70	39.355
584.03	39.861
584.37	39.422
584.70	39.487
585.04	39.363
585.37	39.041
585.71	39.094
586.04	39.036
586.38	38.487
586.72	39.133
587.05	39.499
587.39	39.367
587.72	39.545
588.06	39.845
588.39	39.632
588.73	39.524
589.06	40.265
589.40	41.242
589.73	40.778
590.07	40.617
590.40	41.143
590.73	40.862
591.07	42.442
591.40	40.980
591.74	42.329
592.07	41.616
592.41	41.364
592.74	40.114
593.08	40.064
593.41	40.041
593.75	39.885
594.08	40.291
594.41	40.449
594.75	39.854
595.08	41.184
595.42	40.909
595.75	40.555
596.09	41.749
596.42	41.455
596.75	42.030
597.09	42.586
597.42	41.398
597.75	42.023
598.09	41.984
598.42	41.938
598.76	40.810
599.09	40.548
599.42	39.591
599.76	39.650
600.09	40.507
600.42	40.874
600.76	40.852
601.09	39.861
601.42	40.233
601.76	40.483
602.09	40.958
602.42	40.204
602.76	40.590
603.09	41.079
603.42	41.113
603.76	40.134
604.09	41.164
604.42	41.431
604.76	41.020
605.09	41.005
605.42	41.986
605.75	41.038
606.09	41.060
606.42	40.022
606.75	40.742
607.09	40.246
607.42	41.464
607.75	41.266
608.08	40.568
608.42	41.274
608.75	41.418
609.08	41.681
609.41	43.361
609.75	42.857
610.08	42.260
610.41	40.994
610.74	42.269
611.07	42.140
611.41	43.139
611.74	42.818
612.07	42.403
612.40	41.778
612.73	43.227
613.07	41.956
613.40	43.263
613.73	42.513
614.06	43.131
614.39	42.225
614.72	42.989
615.06	42.204
615.39	42.001
615.72	42.844
616.05	42.691
616.38	42.684
616.71	42.738
617.05	43.770
617.38	42.750
617.71	44.330
618.04	44.468
618.37	44.262
618.70	45.023
619.03	45.818
619.36	44.205
619.69	44.779
620.03	45.637
620.36	44.417
620.69	44.725
621.02	45.144
621.35	47.896
621.68	47.505
622.01	45.623
622.34	45.607
622.67	45.361
623.00	43.117
623.33	45.654
623.66	45.720
623.99	45.490
624.32	46.394
624.65	45.109
624.99	45.254
625.32	45.983
625.65	46.190
625.98	46.373
626.31	46.563
626.64	46.593
626.97	46.812
627.30	45.786
627.63	45.836
627.96	47.673
628.29	48.716
628.62	47.187
628.95	49.781
629.28	47.154
629.61	46.044
629.94	47.280
630.26	48.390
630.59	47.323
630.92	46.840
631.25	49.463
631.58	50.753
631.91	49.859
632.24	49.280
632.57	48.387
632.90	50.853
633.23	51.224
633.56	51.122
633.89	50.517
634.22	50.520
634.55	51.983
634.88	50.541
635.20	50.915
635.53	51.412
635.86	49.837
636.19	50.795
636.52	50.738
636.85	48.110
637.18	50.312
637.51	49.355
637.83	51.717
638.16	51.959
638.49	50.822
638.82	51.522
639.15	51.775
639.48	52.425
639.81	50.693
640.13	52.179
640.46	51.030
640.79	51.838
641.12	53.540
641.45	52.070
641.77	54.814
642.10	54.331
642.43	55.319
642.76	55.420
643.09	54.110
643.41	54.482
643.74	52.414
644.07	55.310
644.40	53.465
644.73	56.604
645.05	55.653
645.38	54.101
645.71	54.692
646.04	53.945
646.36	52.555
646.69	54.755
647.02	55.352
647.35	54.198
647.67	56.200
648.00	58.439
648.33	56.456
648.66	52.924
648.98	51.020
649.31	51.962
649.64	52.191
649.96	52.255
650.29	50.765
650.62	53.607
650.94	54.054
651.27	52.994
651.60	48.830
651.92	52.888
652.25	54.703
652.58	54.058
652.90	52.762
653.23	52.958
653.56	51.783
653.88	53.511
654.21	52.394
654.54	54.191
654.86	52.125
655.19	48.306
655.52	42.298
655.84	34.226
656.17	41.802
656.49	59.486
656.82	67.116
657.15	53.098
657.47	40.463
657.80	30.254
658.13	24.425
658.45	32.661
658.78	40.516
659.10	41.311
659.43	42.250
659.75	45.399
660.08	45.770
660.41	47.643
660.73	52.338
661.06	53.451
661.38	51.515
661.71	56.552
662.03	56.437
662.36	55.098
662.68	56.848
663.01	53.982
663.33	57.656
663.66	54.212
663.98	58.077
664.31	56.285
664.63	55.299
664.96	54.991
665.28	54.628
665.61	54.545
665.93	55.536
666.26	56.272
666.58	54.244
666.91	55.327
667.23	56.381
667.56	60.158
667.88	55.800
668.21	57.422
668.53	56.371
668.86	58.350
669.18	58.452
669.50	57.256
669.83	59.000
670.15	55.315
670.48	60.913
670.80	55.067
671.13	56.333
671.45	56.890
671.77	58.380
672.10	52.000
672.42	52.751
672.75	49.923
673.07	49.552
673.39	52.696
673.72	55.872
674.04	55.000
674.37	54.562
674.69	55.379
675.01	57.333
675.34	56.107
675.66	54.869
675.98	56.157
676.31	55.859
676.63	57.605
676.95	56.322
677.28	53.427
677.60	55.315
677.92	57.965
678.25	55.393
678.57	54.270
678.89	54.778
679.22	50.697
679.54	53.333
679.86	51.356
680.18	52.902
680.51	50.786
680.83	51.227
681.15	50.172
681.48	54.750
681.80	53.886
682.12	53.497
682.44	51.753
682.77	51.418
683.09	55.682
683.41	54.070
683.73	52.941
684.06	53.137
684.38	51.521
684.70	52.783
685.02	53.528
685.34	53.411
685.67	49.842
685.99	49.847
686.31	48.547
686.63	50.553
686.96	47.634
687.28	51.792
687.60	49.832
687.92	51.608
688.24	51.753
688.56	51.552
688.89	52.995
689.21	54.990
689.53	53.529
689.85	53.254
690.17	48.704
690.49	52.191
690.82	54.653
691.14	50.405
691.46	55.067
691.78	53.959
692.10	53.028
692.42	51.786
692.74	50.454
693.06	50.370
693.39	55.598
693.71	53.008
694.03	49.257
694.35	54.476
694.67	50.513
694.99	53.404
695.31	54.305
695.63	52.381
695.95	49.689
696.27	51.429
696.59	54.425
696.91	54.505
697.23	54.945
697.56	51.324
697.88	50.568
698.20	52.354
698.52	50.189
698.84	54.470
699.16	54.898
699.48	52.929
699.80	52.979
700.12	52.402
700.44	54.839
700.76	54.157
701.08	54.722
701.40	57.254
701.72	56.468
702.04	56.684
702.36	53.141
702.68	53.790
703.00	54.279
703.32	55.665
703.64	56.235
703.96	52.029
704.28	56.757
704.60	56.203
704.91	55.357
705.23	57.260
705.55	54.875
705.87	58.788
706.19	60.736
706.51	57.229
706.83	59.942
707.15	53.439
707.47	52.336
707.79	50.218
708.11	46.186
708.43	49.677
708.74	48.661
709.06	52.668
709.38	53.756
709.70	54.591
710.02	55.039
710.34	54.521
710.66	56.983
710.98	55.191
711.29	51.648
711.61	55.367
711.93	56.410
712.25	54.865
712.57	59.882
712.89	63.529
713.20	54.142
713.52	52.890
713.84	53.203
714.16	52.895
714.48	55.155
714.80	54.026
715.11	52.231
715.43	54.642
715.75	54.737
716.07	54.696
716.39	57.377
716.70	53.614
717.02	58.033
717.34	58.537
717.66	55.034
717.97	57.192
718.29	59.450
718.61	54.934
718.93	57.605
719.24	53.727
719.56	54.294
719.88	56.757
720.20	60.968
720.51	55.901
720.83	52.813
721.15	53.289
721.46	54.110
721.78	54.000
722.10	57.929
722.42	55.034
722.73	53.548
723.05	57.193
723.37	54.514
723.68	59.857
724.00	58.484
724.32	54.225
724.63	55.944
724.95	58.156
725.27	58.188
725.58	54.770
725.90	54.828
726.22	49.843
726.53	59.091
726.85	51.887
727.16	54.683
727.48	55.657
727.80	50.993
728.11	56.184
728.43	54.545
728.74	51.839
729.06	55.629
729.38	51.948
729.69	56.376
730.01	52.976
730.32	50.000
730.64	54.717
730.96	52.174
731.27	51.117
731.59	49.451
731.90	49.870
732.22	47.656
732.53	47.238
732.85	51.714
733.16	53.079
733.48	53.354
733.80	47.911
734.11	50.712
734.43	52.162
734.74	50.127
735.06	47.236
735.37	51.081
735.69	50.811
736.00	49.435
736.32	45.553
736.63	52.500
736.95	51.149
737.26	54.848
737.58	51.515
737.89	50.882
738.21	49.847
738.52	54.426
738.83	52.218
739.15	56.383
739.46	55.442
739.78	52.147
740.09	48.711
740.41	52.478
740.72	55.333
741.04	49.191
741.35	58.947
741.66	54.118
741.98	56.557
742.29	56.485
742.61	60.965
742.92	52.692
743.23	59.206
743.55	58.527
743.86	60.400
744.18	56.612
744.49	58.650
744.80	59.259
745.12	59.916
745.43	55.285
745.74	58.621
746.06	56.356
746.37	56.118
746.68	59.350
747.00	56.667
747.31	61.803
747.62	58.077
747.94	52.227
748.25	53.414
748.56	54.286
748.88	56.410
749.19	59.914
749.50	54.545
749.82	58.233
750.13	60.498
750.44	50.667
750.75	54.154
751.07	51.692
751.38	52.050
751.69	49.840
752.01	52.751
752.32	52.941
752.63	51.020
752.94	57.785
753.26	59.108
753.57	51.481
753.88	52.434
754.19	50.161
754.51	50.161
754.82	51.768
755.13	56.066
755.44	53.584
755.75	48.355
756.07	49.851
756.38	52.830
756.69	52.711
757.00	43.213
757.31	47.541
757.63	44.246
757.94	47.418
758.25	47.630
758.56	47.059
758.87	45.000
759.18	48.533
759.50	52.408
759.81	47.059
760.12	48.248
760.43	50.781
760.74	46.552
761.05	47.000
761.36	43.855
761.67	47.716
761.99	49.189
762.30	48.780
762.61	48.185
762.92	51.866
763.23	50.936
763.54	48.561
763.85	52.577
764.16	48.485
764.47	52.113
764.78	48.562
765.10	51.026
765.41	50.769
765.72	47.354
766.03	49.718
766.34	49.530
766.65	49.826
766.96	52.988
767.27	57.604
767.58	55.721
767.89	59.615
768.20	53.521
768.51	57.870
768.82	52.610
769.13	46.212
769.44	46.154
769.75	52.708
770.06	53.462
770.37	53.543
770.68	50.638
770.99	54.656
771.30	50.000
771.61	50.190
771.92	48.148
772.23	53.846
772.54	55.093
772.85	57.143
773.16	61.429
773.47	57.143
773.78	55.676
774.09	56.250
774.39	58.000
774.70	58.470
775.01	54.878
775.32	55.294
775.63	53.988
775.94	52.229
776.25	66.452
776.56	67.308
776.87	65.306
777.18	54.483
777.48	61.538
777.79	56.757
778.10	52.941
778.41	54.861
778.72	62.069
779.03	59.259
779.34	57.576
779.65	48.705
779.95	58.333
780.26	51.136
780.57	51.613
780.88	68.841
781.19	61.290
781.50	57.059
781.80	62.366
782.11	55.026
782.42	48.485
782.73	59.880
783.04	55.307
783.34	60.000
783.65	54.902
783.96	54.037
784.27	53.571
784.57	58.940
784.88	67.143
785.19	57.480
785.50	66.142
785.81	53.383
786.11	68.462
786.42	51.079
786.73	65.468
787.04	63.158
787.34	66.393
787.65	62.400
787.96	62.687
788.26	67.832
788.57	62.238
788.88	57.895
789.19	56.863
789.49	57.534
789.80	64.539
790.11	61.417
790.41	53.125
790.72	55.085
791.03	49.515
791.33	59.130
791.64	59.649
791.95	55.357
792.25	66.667
792.56	59.821
792.87	55.208
793.17	63.393
793.48	61.458
793.79	51.807
794.09	60.550
794.40	62.385
794.70	63.946
795.01	50.000
795.32	55.479
795.62	56.338
795.93	52.273
796.23	58.197
796.54	56.250
796.85	61.702
797.15	61.957
797.46	71.233
797.76	73.750
798.07	64.130
798.37	52.577
798.68	72.727
798.99	65.517
799.29	68.539
799.60	69.149
799.90	59.036
800.21	73.846
800.51	79.104
800.82	69.118
801.12	60.274
801.43	63.235
801.73	72.881
802.04	71.212
802.34	78.333
802.65	83.051
802.95	85.075
803.26	81.356
803.56	72.603
803.87	68.571
804.17	76.712
804.48	64.912
804.78	66.667
805.09	67.241
805.39	55.405
805.70	59.155
806.00	68.293
806.30	74.699
806.61	75.342
806.91	63.462
807.22	62.222
807.52	56.322
807.83	86.111
808.13	72.289
808.43	61.798
808.74	67.500
809.04	76.471
809.35	60.000
809.65	62.857
809.95	69.863
810.26	66.667
810.56	75.862
810.86	72.059
811.17	77.193
811.47	78.689
811.77	84.444
812.08	96.610
812.38	83.333
812.69	84.483
812.99	77.358
813.29	76.923
813.59	86.000
813.90	77.193
814.20	85.455
814.50	81.690
814.81	70.513
815.11	78.689
815.41	64.179
815.72	89.655
816.02	78.571
816.32	95.556
816.62	100.000
816.93	95.556
817.23	79.630
817.53	114.894
817.84	88.095
818.14	126.471
818.44	112.245
818.74	97.778
819.04	92.308
819.35	120.000
819.65	130.769
819.95	62.264
820.25	86.667
820.56	88.095
820.86	121.875
821.16	94.872
821.46	65.116
821.76	82.000
822.07	89.286
822.37	95.652
822.67	76.596
822.97	59.459
823.27	67.500
823.57	73.469
823.88	86.667
824.18	105.000
824.48	120.000
824.78	132.000
825.08	84.848
825.38	97.778
825.69	87.234
825.99	91.667
826.29	45.714
826.59	71.795
826.89	81.395
827.19	42.000
827.49	102.941
827.79	97.917
828.09	86.486
828.39	100.000
828.70	73.171
829.00	86.047
829.30	110.714
829.60	105.882
829.90	71.739
830.20	85.714
830.50	68.966
830.80	133.333
831.10	134.615
831.40	94.118
831.70	138.095
832.00	141.935
832.30	141.176
832.60	100.000
832.90	138.462
833.20	142.105
833.50	160.000
833.80	147.368
834.10	138.095
834.40	108.333
834.70	125.000
835.00	60.000
835.30	123.529
835.60	73.333
835.90	132.000
836.20	118.182
836.50	140.000
836.80	66.667
837.10	85.185
837.40	92.593
837.70	100.000
838.00	92.857
838.30	121.739
838.60	106.897
838.90	207.143
839.19	104.348
839.49	175.000
839.79	113.043
840.09	112.500
840.39	110.000
840.69	135.484
840.99	75.000
841.29	186.667
841.59	100.000
841.88	94.872
842.18	126.923
842.48	130.000
842.78	135.000
843.08	110.000
843.38	103.226
843.68	105.556
843.97	120.588
844.27	162.500
844.57	89.474
844.87	200.000
845.17	160.000
845.47	171.429
845.76	100.000
846.06	233.333
846.36	111.765
846.66	88.462
846.96	166.667
847.25	117.647
847.55	134.783
847.85	155.000
848.15	176.471
848.44	200.000
848.74	142.857
849.04	75.000
849.34	118.750
849.63	126.087
849.93	-950.000
850.23	106.667
850.53	142.308
850.82	172.727
851.12	140.909
851.42	209.091
851.71	215.385
852.01	110.000
852.31	238.462
852.61	126.316
852.90	183.333
853.20	116.667
853.50	122.222
853.79	114.286
854.09	95.455
854.39	108.333
854.68	109.677
854.98	100.000
855.28	188.889
855.57	78.571
855.87	124.000
856.17	100.000
856.46	144.444
856.76	72.222
857.05	73.913
857.35	87.500
857.65	161.538
857.94	157.143
858.24	111.111
858.53	139.130
858.83	135.294
859.13	123.529
859.42	158.824
859.72	171.429
860.01	135.000
860.31	322.222
860.60	220.000
860.90	146.667
861.20	183.333
861.49	230.769
861.79	130.000
862.08	138.462
862.38	75.000
862.67	164.706
862.97	131.250
863.26	300.000
863.56	190.000
863.85	236.364
864.15	133.333
864.44	1133.333
864.74	200.000
865.03	87.500
865.33	200.000
865.62	64.516
865.92	109.091
866.21	108.696
866.51	128.571
866.80	360.000
867.10	175.000
867.39	75.000
867.69	-1300.000
867.98	314.286
868.27	158.824
868.57	1400.000
868.86	180.000
869.16	85.714
869.45	116.667
869.75	200.000
870.04	300.000
870.33	241.667
870.63	114.286
870.92	650.000
871.22	237.500
871.51	145.455
871.80	500.000
872.10	1300.000
>>>>>End Processed Spectral Data<<<<<
