SpectraSuite Data File
++++++++++++++++++++++++++++++++++++
Date: Thu May 14 14:43:47 PDT 2015
User: schluterlab
Dark Spectrum Present: Yes
Reference Spectrum Present: Yes
Number of Sampled Component Spectra: 1
Spectrometers: USB2E3373
Integration Time (usec): 3000 (USB2E3373)
Spectra Averaged: 3 (USB2E3373)
Boxcar Smoothing: 0 (USB2E3373)
Correct for Electrical Dark: No (USB2E3373)
Strobe/Lamp Enabled: No (USB2E3373)
Correct for Detector Non-linearity: No (USB2E3373)
Correct for Stray Light: No (USB2E3373)
Number of Pixels in Processed Spectrum: 2048
>>>>>Begin Processed Spectral Data<<<<<
178.53	0.000
178.91	-100.000
179.29	-400.000
179.67	900.000
180.04	78.571
180.42	-10.000
180.80	100.000
181.18	-200.000
181.56	900.000
181.94	-25.000
182.31	200.000
182.69	-333.333
183.07	600.000
183.45	25.000
183.83	233.333
184.20	-166.667
184.58	200.000
184.96	-175.000
185.34	55.556
185.72	140.000
186.09	44.444
186.47	500.000
186.85	320.000
187.23	66.667
187.61	-100.000
187.98	80.000
188.36	-75.000
188.74	75.000
189.12	233.333
189.49	81.250
189.87	100.000
190.25	0.000
190.63	100.000
191.00	-122.222
191.38	0.000
191.76	75.000
192.14	83.333
192.51	-0.000
192.89	183.333
193.27	0.000
193.65	214.286
194.02	300.000
194.40	71.429
194.78	85.714
195.15	0.000
195.53	18.182
195.91	0.000
196.29	150.000
196.66	7.692
197.04	-500.000
197.42	-14.286
197.79	-200.000
198.17	-75.000
198.55	28.571
198.92	200.000
199.30	50.000
199.68	109.091
200.05	14.286
200.43	100.000
200.81	-0.000
201.18	0.000
201.56	-33.333
201.94	0.000
202.31	133.333
202.69	-44.444
203.07	100.000
203.44	-11.111
203.82	125.000
204.19	50.000
204.57	-16.667
204.95	125.000
205.32	-800.000
205.70	-150.000
206.08	50.000
206.45	133.333
206.83	240.000
207.20	150.000
207.58	20.000
207.96	-50.000
208.33	150.000
208.71	58.333
209.08	66.667
209.46	0.000
209.84	100.000
210.21	-50.000
210.59	-300.000
210.96	200.000
211.34	100.000
211.71	62.500
212.09	700.000
212.46	0.000
212.84	400.000
213.22	-140.000
213.59	75.000
213.97	40.000
214.34	233.333
214.72	133.333
215.09	-25.000
215.47	0.000
215.84	42.857
216.22	400.000
216.59	40.000
216.97	120.000
217.34	-25.000
217.72	200.000
218.09	-25.000
218.47	125.000
218.84	0.000
219.22	-140.000
219.59	76.471
219.97	100.000
220.34	600.000
220.72	-22.222
221.09	153.846
221.47	0.000
221.84	100.000
222.22	-14.286
222.59	0.000
222.97	75.000
223.34	-160.000
223.72	0.000
224.09	75.000
224.46	-25.000
224.84	200.000
225.21	-28.571
225.59	-150.000
225.96	-25.000
226.34	46.154
226.71	133.333
227.08	250.000
227.46	66.667
227.83	-75.000
228.21	31.579
228.58	75.000
228.95	-200.000
229.33	0.000
229.70	80.000
230.08	110.526
230.45	-0.000
230.82	-133.333
231.20	64.286
231.57	141.667
231.95	0.000
232.32	136.364
232.69	95.000
233.07	100.000
233.44	0.000
233.81	110.000
234.19	66.667
234.56	77.273
234.93	51.724
235.31	36.842
235.68	38.889
236.05	10.000
236.43	92.308
236.80	88.000
237.17	33.333
237.55	0.000
237.92	-10.000
238.29	6.452
238.67	34.091
239.04	63.889
239.41	33.333
239.79	23.913
240.16	22.222
240.53	34.783
240.91	17.647
241.28	21.311
241.65	53.731
242.02	27.027
242.40	13.846
242.77	36.000
243.14	36.585
243.51	34.211
243.89	33.333
244.26	40.594
244.63	34.314
245.00	33.645
245.38	26.316
245.75	25.664
246.12	40.476
246.49	24.806
246.87	26.429
247.24	30.464
247.61	26.316
247.98	29.530
248.36	25.926
248.73	20.245
249.10	30.601
249.47	26.368
249.84	30.366
250.22	29.016
250.59	35.556
250.96	25.455
251.33	28.571
251.70	30.342
252.08	29.583
252.45	28.279
252.82	21.074
253.19	23.828
253.56	28.517
253.94	24.231
254.31	30.682
254.68	27.273
255.05	29.967
255.42	30.952
255.79	23.948
256.16	28.146
256.54	24.503
256.91	26.885
257.28	23.607
257.65	26.752
258.02	24.779
258.39	29.345
258.76	25.994
259.14	27.299
259.51	24.207
259.88	29.178
260.25	29.167
260.62	27.671
260.99	29.508
261.36	30.563
261.73	29.973
262.10	29.670
262.47	26.542
262.85	29.798
263.22	25.714
263.59	20.263
263.96	27.621
264.33	26.598
264.70	28.148
265.07	27.208
265.44	28.345
265.81	25.463
266.18	28.571
266.55	28.348
266.92	25.968
267.29	29.759
267.66	27.494
268.03	27.948
268.40	29.019
268.77	28.246
269.14	26.211
269.51	26.754
269.88	29.098
270.25	26.761
270.62	29.325
270.99	30.505
271.36	26.931
271.73	25.344
272.10	26.253
272.47	27.054
272.84	24.900
273.21	27.255
273.58	25.806
273.95	25.385
274.32	26.426
274.69	23.404
275.06	24.725
275.43	24.954
275.80	26.631
276.17	23.519
276.54	23.881
276.91	23.435
277.28	29.295
277.65	25.494
278.02	25.735
278.39	26.268
278.76	26.889
279.13	27.305
279.50	26.804
279.87	24.866
280.23	23.768
280.60	25.593
280.97	27.467
281.34	25.637
281.71	25.888
282.08	22.924
282.45	24.059
282.82	23.391
283.19	23.748
283.56	23.934
283.92	28.679
284.29	25.434
284.66	26.437
285.03	22.756
285.40	24.884
285.77	23.684
286.14	27.328
286.51	24.201
286.87	23.223
287.24	26.657
287.61	23.019
287.98	23.112
288.35	23.817
288.72	23.669
289.08	24.744
289.45	23.077
289.82	24.096
290.19	23.994
290.56	23.662
290.93	24.108
291.29	22.727
291.66	23.278
292.03	21.981
292.40	22.857
292.77	22.102
293.13	23.004
293.50	20.631
293.87	20.805
294.24	22.800
294.60	20.733
294.97	18.658
295.34	21.767
295.71	20.681
296.08	20.026
296.44	20.466
296.81	21.072
297.18	20.672
297.55	20.047
297.91	19.098
298.28	18.483
298.65	20.571
299.02	20.543
299.38	20.481
299.75	19.743
300.12	20.139
300.48	20.622
300.85	20.022
301.22	19.239
301.59	18.493
301.95	17.853
302.32	20.889
302.69	17.963
303.05	19.369
303.42	20.732
303.79	18.750
304.15	18.086
304.52	19.556
304.89	18.743
305.25	19.358
305.62	19.436
305.99	18.660
306.35	20.262
306.72	19.235
307.09	19.188
307.45	18.323
307.82	18.971
308.19	18.365
308.55	20.347
308.92	18.111
309.29	19.540
309.65	20.370
310.02	19.802
310.38	20.177
310.75	20.291
311.12	20.614
311.48	19.453
311.85	20.418
312.22	20.968
312.58	19.624
312.95	21.224
313.31	21.771
313.68	22.802
314.05	22.945
314.41	22.313
314.78	22.797
315.14	23.049
315.51	23.361
315.87	24.482
316.24	23.379
316.61	24.600
316.97	22.805
317.34	23.633
317.70	26.463
318.07	24.780
318.43	25.510
318.80	26.505
319.16	26.352
319.53	26.478
319.89	26.906
320.26	27.758
320.62	27.748
320.99	29.178
321.35	28.928
321.72	30.977
322.08	29.576
322.45	31.888
322.81	31.949
323.18	32.212
323.54	34.052
323.91	34.342
324.27	34.337
324.64	37.112
325.00	36.070
325.37	36.691
325.73	38.926
326.10	39.822
326.46	39.169
326.83	43.155
327.19	42.913
327.56	43.636
327.92	43.509
328.29	44.274
328.65	45.729
329.01	47.208
329.38	49.115
329.74	49.829
330.11	50.685
330.47	49.705
330.84	52.024
331.20	53.167
331.56	53.986
331.93	55.816
332.29	55.339
332.66	56.561
333.02	55.025
333.38	57.299
333.75	57.071
334.11	56.631
334.48	57.838
334.84	58.114
335.20	57.347
335.57	58.853
335.93	59.421
336.29	59.068
336.66	60.639
337.02	61.037
337.38	59.609
337.75	60.165
338.11	62.489
338.47	59.967
338.84	60.745
339.20	59.141
339.56	60.956
339.93	60.591
340.29	58.696
340.65	59.205
341.02	60.814
341.38	61.601
341.74	59.726
342.11	61.545
342.47	60.763
342.83	61.031
343.20	63.778
343.56	63.512
343.92	62.210
344.28	62.266
344.65	62.248
345.01	61.232
345.37	63.453
345.73	61.652
346.10	62.793
346.46	61.867
346.82	61.723
347.19	61.650
347.55	62.974
347.91	63.150
348.27	62.367
348.63	61.919
349.00	61.298
349.36	62.156
349.72	62.500
350.08	62.704
350.45	64.487
350.81	62.745
351.17	63.759
351.53	64.973
351.89	63.933
352.26	63.955
352.62	64.776
352.98	65.191
353.34	62.808
353.70	66.102
354.07	63.934
354.43	65.604
354.79	64.847
355.15	65.121
355.51	66.228
355.87	63.201
356.24	65.703
356.60	62.158
356.96	65.901
357.32	64.312
357.68	65.813
358.04	67.590
358.40	65.821
358.77	65.058
359.13	66.174
359.49	65.725
359.85	65.917
360.21	66.571
360.57	65.398
360.93	65.515
361.29	65.193
361.66	66.618
362.02	67.850
362.38	67.323
362.74	66.969
363.10	67.675
363.46	67.313
363.82	67.756
364.18	68.754
364.54	67.082
364.90	69.164
365.26	68.552
365.62	68.533
365.98	68.278
366.35	68.121
366.71	68.707
367.07	69.486
367.43	68.746
367.79	69.808
368.15	69.565
368.51	69.689
368.87	68.060
369.23	69.600
369.59	72.609
369.95	70.791
370.31	71.708
370.67	71.114
371.03	71.260
371.39	70.248
371.75	72.215
372.11	72.087
372.47	71.429
372.83	72.317
373.19	71.114
373.55	72.561
373.91	72.802
374.27	73.286
374.63	74.087
374.99	73.740
375.35	75.714
375.71	73.548
376.07	73.596
376.42	74.181
376.78	75.575
377.14	74.298
377.50	75.712
377.86	74.076
378.22	76.407
378.58	76.516
378.94	75.880
379.30	76.567
379.66	77.778
380.02	76.515
380.38	77.650
380.74	78.310
381.09	79.094
381.45	78.295
381.81	79.625
382.17	79.276
382.53	79.357
382.89	77.088
383.25	80.422
383.61	81.655
383.97	81.154
384.32	83.493
384.68	79.466
385.04	83.112
385.40	82.616
385.76	83.529
386.12	80.969
386.48	82.412
386.83	83.969
387.19	82.445
387.55	83.568
387.91	83.505
388.27	82.852
388.62	84.135
388.98	83.080
389.34	85.032
389.70	86.810
390.06	83.481
390.42	83.855
390.77	85.912
391.13	86.209
391.49	87.077
391.85	87.333
392.20	86.240
392.56	85.824
392.92	84.951
393.28	86.788
393.64	87.151
393.99	87.798
394.35	89.428
394.71	88.982
395.07	87.904
395.42	87.950
395.78	89.336
396.14	88.829
396.50	87.767
396.85	88.014
397.21	87.278
397.57	88.339
397.92	88.030
398.28	88.104
398.64	88.616
399.00	87.487
399.35	87.801
399.71	89.728
400.07	89.388
400.42	89.814
400.78	89.931
401.14	89.243
401.49	90.449
401.85	92.384
402.21	90.672
402.57	91.138
402.92	90.780
403.28	90.047
403.63	90.692
403.99	90.736
404.35	89.937
404.70	89.462
405.06	88.913
405.42	91.920
405.77	90.567
406.13	90.384
406.49	91.723
406.84	90.693
407.20	89.547
407.55	91.641
407.91	91.452
408.27	90.459
408.62	92.205
408.98	92.861
409.34	91.496
409.69	92.522
410.05	90.445
410.40	92.401
410.76	89.905
411.11	92.694
411.47	92.383
411.83	93.416
412.18	93.012
412.54	91.286
412.89	93.306
413.25	91.479
413.60	91.901
413.96	93.240
414.31	92.238
414.67	92.010
415.03	90.892
415.38	95.019
415.74	92.181
416.09	93.769
416.45	92.110
416.80	91.371
417.16	92.401
417.51	92.715
417.87	92.765
418.22	93.054
418.58	93.185
418.93	95.169
419.29	95.129
419.64	93.037
420.00	93.116
420.35	93.206
420.71	94.084
421.06	92.639
421.42	95.528
421.77	92.461
422.12	93.763
422.48	93.651
422.83	95.509
423.19	94.642
423.54	97.013
423.90	93.595
424.25	96.267
424.61	96.096
424.96	94.234
425.31	94.480
425.67	94.257
426.02	96.514
426.38	95.637
426.73	95.926
427.09	95.848
427.44	95.904
427.79	97.070
428.15	95.833
428.50	96.348
428.85	94.546
429.21	95.904
429.56	95.656
429.92	95.381
430.27	96.337
430.62	95.848
430.98	96.065
431.33	96.530
431.68	95.594
432.04	97.918
432.39	96.197
432.74	96.005
433.10	98.702
433.45	97.715
433.80	96.620
434.16	96.539
434.51	97.790
434.86	98.697
435.22	99.787
435.57	101.474
435.92	98.776
436.28	98.805
436.63	100.273
436.98	97.101
437.34	98.253
437.69	99.064
438.04	98.572
438.39	97.530
438.75	97.454
439.10	98.573
439.45	97.429
439.81	98.192
440.16	97.748
440.51	101.059
440.86	97.443
441.22	97.964
441.57	99.057
441.92	98.303
442.27	100.657
442.63	98.410
442.98	98.453
443.33	98.948
443.68	98.811
444.03	99.577
444.39	98.798
444.74	99.643
445.09	98.074
445.44	99.947
445.79	100.239
446.15	99.794
446.50	99.328
446.85	100.049
447.20	98.162
447.55	99.582
447.91	100.105
448.26	100.317
448.61	99.150
448.96	101.770
449.31	100.477
449.66	99.183
450.02	99.895
450.37	99.947
450.72	100.323
451.07	100.399
451.42	100.404
451.77	99.944
452.12	101.129
452.47	99.346
452.83	103.547
453.18	99.358
453.53	101.781
453.88	99.393
454.23	100.000
454.58	100.929
454.93	101.456
455.28	102.709
455.63	99.375
455.98	100.670
456.34	101.708
456.69	101.293
457.04	102.364
457.39	101.441
457.74	102.461
458.09	100.549
458.44	100.054
458.79	98.659
459.14	99.895
459.49	101.754
459.84	101.731
460.19	100.944
460.54	101.533
460.89	101.853
461.24	101.034
461.59	100.996
461.94	99.087
462.29	102.968
462.64	100.724
462.99	101.883
463.34	104.088
463.69	99.648
464.04	100.889
464.39	100.392
464.74	98.689
465.09	101.269
465.44	101.073
465.79	99.841
466.14	99.427
466.49	101.421
466.84	101.928
467.19	100.867
467.54	99.706
467.89	100.345
468.24	101.163
468.59	99.942
468.94	101.107
469.29	100.240
469.64	101.653
469.99	102.231
470.34	100.495
470.68	103.828
471.03	103.864
471.38	104.447
471.73	103.316
472.08	102.855
472.43	102.529
472.78	101.008
473.13	104.678
473.48	102.598
473.83	103.076
474.17	102.110
474.52	105.652
474.87	100.720
475.22	102.254
475.57	102.077
475.92	100.597
476.27	101.491
476.61	100.312
476.96	102.294
477.31	102.624
477.66	105.719
478.01	102.084
478.36	100.798
478.70	100.493
479.05	101.789
479.40	103.060
479.75	101.825
480.10	100.947
480.45	102.735
480.79	101.361
481.14	102.344
481.49	103.726
481.84	101.349
482.19	101.290
482.53	102.667
482.88	102.614
483.23	102.579
483.58	102.009
483.92	100.355
484.27	101.736
484.62	100.908
484.97	100.855
485.31	99.894
485.66	94.113
486.01	93.093
486.36	95.913
486.70	98.603
487.05	101.030
487.40	99.629
487.75	99.186
488.09	101.268
488.44	99.229
488.79	100.067
489.13	100.507
489.48	100.777
489.83	99.678
490.17	101.823
490.52	100.739
490.87	101.819
491.22	102.946
491.56	102.261
491.91	101.744
492.26	102.293
492.60	102.886
492.95	102.808
493.30	102.196
493.64	102.102
493.99	101.623
494.34	102.221
494.68	101.713
495.03	101.586
495.37	103.329
495.72	102.268
496.07	101.315
496.41	101.030
496.76	103.044
497.11	102.760
497.45	103.064
497.80	102.132
498.14	102.585
498.49	102.803
498.84	102.605
499.18	101.754
499.53	102.018
499.87	102.198
500.22	102.404
500.56	102.654
500.91	103.295
501.26	103.364
501.60	101.768
501.95	101.259
502.29	102.501
502.64	102.755
502.98	100.302
503.33	101.469
503.67	101.962
504.02	101.095
504.36	105.228
504.71	103.629
505.06	102.183
505.40	101.965
505.75	102.550
506.09	103.821
506.44	103.993
506.78	102.661
507.13	103.320
507.47	103.742
507.82	103.741
508.16	102.199
508.51	102.297
508.85	104.960
509.19	103.837
509.54	103.314
509.88	104.225
510.23	104.760
510.57	104.157
510.92	105.467
511.26	103.896
511.61	102.173
511.95	102.782
512.30	103.250
512.64	103.748
512.98	103.052
513.33	105.544
513.67	102.958
514.02	104.446
514.36	104.706
514.70	105.521
515.05	105.162
515.39	106.037
515.74	104.136
516.08	104.913
516.42	106.384
516.77	105.731
517.11	103.352
517.46	105.249
517.80	107.376
518.14	107.454
518.49	105.694
518.83	105.216
519.17	103.770
519.52	103.616
519.86	105.174
520.20	106.070
520.55	105.531
520.89	106.532
521.23	105.918
521.58	107.853
521.92	107.422
522.26	105.212
522.61	106.771
522.95	106.228
523.29	107.989
523.64	105.549
523.98	106.845
524.32	107.851
524.66	106.887
525.01	104.473
525.35	106.605
525.69	106.148
526.04	104.765
526.38	107.126
526.72	105.882
527.06	107.977
527.41	106.764
527.75	108.789
528.09	107.025
528.43	106.039
528.78	105.549
529.12	105.734
529.46	104.384
529.80	105.664
530.15	107.420
530.49	107.770
530.83	106.316
531.17	106.691
531.51	107.401
531.86	107.993
532.20	107.561
532.54	103.950
532.88	106.121
533.22	105.775
533.57	104.155
533.91	104.545
534.25	105.879
534.59	106.494
534.93	104.697
535.27	105.183
535.62	105.571
535.96	105.404
536.30	105.347
536.64	106.306
536.98	106.704
537.32	107.778
537.66	106.301
538.01	104.048
538.35	105.055
538.69	105.048
539.03	106.131
539.37	104.653
539.71	104.985
540.05	104.317
540.39	104.034
540.73	104.736
541.07	105.947
541.42	103.957
541.76	104.508
542.10	105.308
542.44	105.786
542.78	105.900
543.12	105.006
543.46	104.029
543.80	104.317
544.14	104.548
544.48	104.728
544.82	105.266
545.16	106.142
545.50	103.715
545.84	104.593
546.18	105.926
546.52	105.860
546.86	104.654
547.20	106.107
547.54	104.182
547.88	102.411
548.22	103.392
548.56	104.447
548.90	104.776
549.24	106.140
549.58	105.615
549.92	106.569
550.26	104.984
550.60	105.105
550.94	106.145
551.28	102.640
551.62	105.660
551.96	102.330
552.30	105.035
552.64	105.165
552.98	106.114
553.32	105.852
553.66	105.402
554.00	106.305
554.34	106.306
554.68	103.680
555.02	106.242
555.36	106.509
555.69	103.844
556.03	104.855
556.37	104.443
556.71	105.200
557.05	105.559
557.39	106.503
557.73	104.822
558.07	107.086
558.41	107.043
558.75	105.071
559.08	107.794
559.42	107.545
559.76	104.071
560.10	104.622
560.44	107.256
560.78	103.438
561.12	105.542
561.45	104.988
561.79	104.457
562.13	105.915
562.47	103.083
562.81	106.203
563.15	105.429
563.48	104.351
563.82	105.200
564.16	102.847
564.50	103.695
564.84	103.068
565.17	103.529
565.51	102.532
565.85	104.157
566.19	102.419
566.52	104.330
566.86	106.055
567.20	101.305
567.54	103.133
567.88	102.650
568.21	102.174
568.55	101.918
568.89	101.498
569.23	98.817
569.56	97.851
569.90	97.505
570.24	97.032
570.57	96.472
570.91	95.713
571.25	95.111
571.59	94.406
571.92	94.403
572.26	94.177
572.60	94.349
572.93	93.376
573.27	94.830
573.61	93.833
573.95	92.207
574.28	92.058
574.62	92.883
574.96	91.045
575.29	90.967
575.63	92.192
575.97	92.479
576.30	91.883
576.64	92.842
576.98	92.574
577.31	92.444
577.65	92.158
577.98	91.303
578.32	90.715
578.66	90.859
578.99	91.829
579.33	93.130
579.67	91.954
580.00	91.728
580.34	91.056
580.67	91.681
581.01	90.956
581.35	90.064
581.68	90.027
582.02	89.186
582.35	91.056
582.69	91.550
583.02	91.702
583.36	91.929
583.70	92.524
584.03	90.761
584.37	92.249
584.70	90.880
585.04	91.025
585.37	91.251
585.71	90.162
586.04	91.347
586.38	91.156
586.72	92.354
587.05	93.042
587.39	93.219
587.72	92.751
588.06	91.828
588.39	91.860
588.73	91.693
589.06	93.284
589.40	95.636
589.73	93.927
590.07	93.767
590.40	94.929
590.73	94.309
591.07	95.160
591.40	95.257
591.74	96.145
592.07	95.209
592.41	94.401
592.74	93.149
593.08	93.567
593.41	93.467
593.75	93.161
594.08	94.456
594.41	94.712
594.75	93.424
595.08	94.650
595.42	94.416
595.75	92.703
596.09	96.442
596.42	95.127
596.75	95.677
597.09	96.404
597.42	94.279
597.75	94.590
598.09	94.246
598.42	95.497
598.76	94.727
599.09	93.236
599.42	91.753
599.76	93.958
600.09	93.794
600.42	93.260
600.76	93.098
601.09	92.200
601.42	92.688
601.76	93.207
602.09	92.888
602.42	93.639
602.76	93.727
603.09	95.007
603.42	94.870
603.76	92.283
604.09	94.500
604.42	93.578
604.76	93.874
605.09	95.253
605.42	94.657
605.75	94.269
606.09	94.588
606.42	93.725
606.75	92.954
607.09	92.742
607.42	93.565
607.75	94.607
608.08	93.765
608.42	94.236
608.75	94.942
609.08	94.907
609.41	96.559
609.75	96.429
610.08	97.098
610.41	94.605
610.74	94.412
611.07	96.359
611.41	95.830
611.74	96.952
612.07	96.026
612.40	95.960
612.73	96.626
613.07	97.017
613.40	96.246
613.73	96.052
614.06	96.909
614.39	95.384
614.72	95.827
615.06	95.573
615.39	95.070
615.72	94.692
616.05	95.969
616.38	97.326
616.71	96.970
617.05	96.166
617.38	97.111
617.71	97.354
618.04	99.137
618.37	98.470
618.70	99.095
619.03	99.283
619.36	97.349
619.69	99.039
620.03	99.435
620.36	98.957
620.69	99.321
621.02	101.444
621.35	104.644
621.68	102.820
622.01	101.922
622.34	101.813
622.67	100.619
623.00	99.933
623.33	100.730
623.66	102.594
623.99	100.987
624.32	101.040
624.65	99.936
624.99	103.576
625.32	102.090
625.65	100.944
625.98	101.627
626.31	103.260
626.64	102.198
626.97	103.151
627.30	102.506
627.63	102.776
627.96	103.679
628.29	103.268
628.62	103.862
628.95	106.223
629.28	105.947
629.61	104.209
629.94	104.184
630.26	103.559
630.59	105.095
630.92	105.368
631.25	106.172
631.58	111.111
631.91	110.497
632.24	108.549
632.57	106.736
632.90	110.231
633.23	109.796
633.56	110.714
633.89	110.021
634.22	110.499
634.55	110.856
634.88	113.528
635.20	111.518
635.53	113.333
635.86	110.943
636.19	108.590
636.52	110.443
636.85	106.946
637.18	105.821
637.51	109.247
637.83	110.410
638.16	112.788
638.49	112.559
638.82	108.906
639.15	108.477
639.48	115.820
639.81	107.852
640.13	112.014
640.46	109.939
640.79	111.765
641.12	110.683
641.45	114.429
641.77	114.249
642.10	110.499
642.43	116.356
642.76	113.008
643.09	114.795
643.41	116.667
643.74	115.586
644.07	114.483
644.40	113.720
644.73	114.369
645.05	114.244
645.38	116.978
645.71	114.809
646.04	116.643
646.36	114.161
646.69	117.331
647.02	119.266
647.35	117.099
647.67	120.129
648.00	122.134
648.33	117.568
648.66	116.405
648.98	113.605
649.31	112.179
649.64	111.023
649.96	110.875
650.29	110.709
650.62	113.154
650.94	114.715
651.27	112.126
651.60	109.211
651.92	116.109
652.25	113.314
652.58	106.878
652.90	114.535
653.23	112.113
653.56	110.699
653.88	109.972
654.21	107.606
654.54	111.850
654.86	111.756
655.19	103.764
655.52	96.249
655.84	82.583
656.17	97.489
656.49	100.042
656.82	100.008
657.15	100.000
657.47	100.000
657.80	100.000
658.13	83.148
658.45	68.171
658.78	84.333
659.10	82.974
659.43	82.226
659.75	84.191
660.08	84.314
660.41	91.315
660.73	98.062
661.06	109.985
661.38	113.238
661.71	113.103
662.03	117.284
662.36	115.742
662.68	117.261
663.01	114.336
663.33	117.580
663.66	114.835
663.98	119.615
664.31	115.760
664.63	118.497
664.96	115.789
665.28	114.701
665.61	116.434
665.93	114.286
666.26	116.667
666.58	111.808
666.91	113.271
667.23	115.048
667.56	118.343
667.88	120.400
668.21	116.797
668.53	118.919
668.86	116.306
669.18	120.163
669.50	113.519
669.83	120.200
670.15	118.110
670.48	117.659
670.80	115.296
671.13	111.720
671.45	116.535
671.77	116.573
672.10	109.833
672.42	110.356
672.75	105.223
673.07	105.075
673.39	108.783
673.72	112.081
674.04	110.172
674.37	112.522
674.69	112.346
675.01	116.190
675.34	114.313
675.66	110.674
675.98	114.552
676.31	114.453
676.63	118.061
676.95	113.410
677.28	117.742
677.60	114.567
677.92	114.779
678.25	112.614
678.57	110.676
678.89	109.386
679.22	106.098
679.54	109.060
679.86	108.644
680.18	108.789
680.51	104.874
680.83	104.255
681.15	109.828
681.48	108.808
681.80	111.744
682.12	110.315
682.44	103.339
682.77	109.397
683.09	113.636
683.41	113.566
683.73	112.903
684.06	109.225
684.38	106.261
684.70	114.542
685.02	107.401
685.34	105.158
685.67	104.259
685.99	103.221
686.31	100.436
686.63	106.319
686.96	104.890
687.28	103.257
687.60	107.912
687.92	100.965
688.24	103.840
688.56	102.069
688.89	109.437
689.21	115.264
689.53	109.020
689.85	113.018
690.17	105.185
690.49	110.956
690.82	109.703
691.14	114.980
691.46	108.222
691.78	103.315
692.10	108.624
692.42	103.571
692.74	104.537
693.06	104.259
693.39	104.554
693.71	106.391
694.03	104.461
694.35	103.048
694.67	109.240
694.99	109.574
695.31	113.245
695.63	114.286
695.95	106.625
696.27	108.571
696.59	109.513
696.91	104.054
697.23	110.549
697.56	105.703
697.88	102.083
698.20	106.591
698.52	105.682
698.84	109.356
699.16	105.510
699.48	105.439
699.80	105.745
700.12	105.240
700.44	110.829
700.76	113.302
701.08	111.622
701.40	114.767
701.72	106.965
702.04	116.578
702.36	112.042
702.68	109.046
703.00	113.203
703.32	111.823
703.64	110.269
703.96	108.115
704.28	109.582
704.60	110.633
704.91	109.694
705.23	113.973
705.55	109.192
705.87	121.212
706.19	119.632
706.51	116.867
706.83	114.986
707.15	107.672
707.47	107.243
707.79	99.563
708.11	100.000
708.43	101.720
708.74	101.563
709.06	102.088
709.38	107.512
709.70	105.211
710.02	105.943
710.34	110.372
710.66	108.659
710.98	109.563
711.29	106.593
711.61	111.582
711.93	113.105
712.25	107.297
712.57	115.044
712.89	106.176
713.20	107.101
713.52	106.358
713.84	106.685
714.16	107.368
714.48	103.351
714.80	102.597
715.11	103.412
715.43	103.183
715.75	101.842
716.07	103.039
716.39	105.738
716.70	108.735
717.02	116.721
717.34	113.937
717.66	107.383
717.97	114.041
718.29	113.402
718.61	106.250
718.93	107.120
719.24	106.832
719.56	109.816
719.88	102.703
720.20	107.097
720.51	108.075
720.83	105.938
721.15	107.566
721.46	109.589
721.78	113.000
722.10	103.560
722.42	109.396
722.73	104.194
723.05	108.070
723.37	106.944
723.68	112.545
724.00	108.664
724.32	103.873
724.63	102.098
724.95	103.901
725.27	104.878
725.58	107.420
725.90	107.931
726.22	100.000
726.53	111.688
726.85	107.233
727.16	97.583
727.48	101.223
727.80	103.311
728.11	106.714
728.43	105.051
728.74	108.696
729.06	102.980
729.38	102.273
729.69	104.362
730.01	95.536
730.32	99.394
730.64	105.031
730.96	100.932
731.27	101.117
731.59	96.703
731.90	93.247
732.22	93.490
732.53	98.343
732.85	98.857
733.16	96.188
733.48	100.305
733.80	91.922
734.11	95.157
734.43	98.108
734.74	98.987
735.06	91.709
735.37	100.270
735.69	94.054
736.00	99.435
736.32	91.644
736.63	96.389
736.95	93.678
737.26	105.152
737.58	99.091
737.89	94.412
738.21	96.024
738.52	99.672
738.83	101.024
739.15	102.482
739.46	104.082
739.78	100.307
740.09	88.825
740.41	95.918
740.72	100.000
741.04	95.793
741.35	100.000
741.66	105.882
741.98	101.639
742.29	104.603
742.61	114.912
742.92	100.000
743.23	100.000
743.55	100.775
743.86	103.200
744.18	97.934
744.49	106.329
744.80	107.819
745.12	107.595
745.43	101.626
745.74	109.483
746.06	100.424
746.37	105.485
746.68	109.350
747.00	110.417
747.31	110.730
747.62	106.538
747.94	106.073
748.25	101.606
748.56	100.000
748.88	102.137
749.19	112.069
749.50	102.165
749.82	108.835
750.13	101.423
750.44	100.000
750.75	93.538
751.07	92.000
751.38	97.161
751.69	96.805
752.01	94.175
752.32	103.595
752.63	98.980
752.94	95.848
753.26	103.717
753.57	98.519
753.88	103.371
754.19	88.746
754.51	92.605
754.82	95.820
755.13	97.049
755.44	96.587
755.75	97.697
756.07	88.955
756.38	94.654
756.69	94.578
757.00	90.305
757.31	89.071
757.63	85.166
757.94	86.620
758.25	83.070
758.56	83.224
758.87	80.682
759.18	87.733
759.50	90.368
759.81	90.196
760.12	89.757
760.43	90.625
760.74	90.148
761.05	91.250
761.36	83.373
761.67	87.056
761.99	90.270
762.30	88.415
762.61	92.079
762.92	94.776
763.23	94.382
763.54	94.964
763.85	90.378
764.16	92.593
764.47	94.366
764.78	88.498
765.10	90.909
765.41	85.897
765.72	88.095
766.03	87.288
766.34	94.984
766.65	88.502
766.96	91.235
767.27	95.853
767.58	105.473
767.89	100.481
768.20	94.836
768.51	98.611
768.82	92.771
769.13	87.500
769.44	86.538
769.75	91.697
770.06	93.077
770.37	95.669
770.68	84.681
770.99	86.640
771.30	95.556
771.61	88.973
771.92	87.778
772.23	97.571
772.54	94.444
772.85	95.853
773.16	90.000
773.47	96.296
773.78	90.270
774.09	104.545
774.39	95.000
774.70	106.011
775.01	93.293
775.32	96.471
775.63	95.092
775.94	78.981
776.25	99.355
776.56	97.436
776.87	111.565
777.18	95.172
777.48	95.804
777.79	97.973
778.10	94.853
778.41	93.056
778.72	99.310
779.03	90.123
779.34	92.121
779.65	80.829
779.95	86.667
780.26	86.932
780.57	92.258
780.88	103.623
781.19	96.774
781.50	95.294
781.80	90.323
782.11	90.476
782.42	80.808
782.73	93.413
783.04	89.944
783.34	87.879
783.65	92.810
783.96	92.547
784.27	89.881
784.57	98.013
784.88	92.143
785.19	94.488
785.50	103.150
785.81	91.729
786.11	104.615
786.42	89.209
786.73	90.647
787.04	98.496
787.34	101.639
787.65	104.000
787.96	97.015
788.26	100.699
788.57	97.203
788.88	86.842
789.19	88.235
789.49	82.877
789.80	82.270
790.11	96.850
790.41	85.938
790.72	90.678
791.03	100.000
791.33	89.565
791.64	94.737
791.95	86.607
792.25	84.762
792.56	88.393
792.87	89.583
793.17	85.714
793.48	90.625
793.79	102.410
794.09	88.991
794.40	98.165
794.70	84.354
795.01	81.818
795.32	86.986
795.62	73.239
795.93	86.364
796.23	89.344
796.54	80.357
796.85	94.681
797.15	84.783
797.46	93.151
797.76	102.500
798.07	83.696
798.37	77.320
798.68	92.208
798.99	88.506
799.29	87.640
799.60	91.489
799.90	98.795
800.21	115.385
800.51	108.955
800.82	101.471
801.12	98.630
801.43	85.294
801.73	100.000
802.04	93.939
802.34	116.667
802.65	105.085
802.95	88.060
803.26	110.169
803.56	84.932
803.87	91.429
804.17	80.822
804.48	87.719
804.78	98.611
805.09	94.828
805.39	98.649
805.70	67.606
806.00	84.146
806.30	100.000
806.61	98.630
806.91	78.846
807.22	83.333
807.52	80.460
807.83	95.833
808.13	91.566
808.43	82.022
808.74	80.000
809.04	85.294
809.35	89.333
809.65	82.857
809.95	67.123
810.26	80.702
810.56	110.345
810.86	85.294
811.17	89.474
811.47	91.803
811.77	122.222
812.08	83.051
812.38	86.667
812.69	75.862
812.99	66.038
813.29	105.128
813.59	106.000
813.90	98.246
814.20	90.909
814.50	92.958
814.81	76.923
815.11	88.525
815.41	83.582
815.72	94.828
816.02	100.000
816.32	122.222
816.62	113.636
816.93	100.000
817.23	100.000
817.53	106.383
817.84	128.571
818.14	132.353
818.44	85.714
818.74	102.222
819.04	107.692
819.35	105.714
819.65	126.923
819.95	81.132
820.25	108.889
820.56	76.190
820.86	103.125
821.16	112.821
821.46	109.302
821.76	72.000
822.07	73.214
822.37	73.913
822.67	97.872
822.97	70.270
823.27	80.000
823.57	77.551
823.88	77.778
824.18	112.500
824.48	110.000
824.78	120.000
825.08	115.152
825.38	95.556
825.69	76.596
825.99	111.111
826.29	62.857
826.59	84.615
826.89	74.419
827.19	70.000
827.49	73.529
827.79	79.167
828.09	97.297
828.39	113.333
828.70	48.780
829.00	76.744
829.30	75.000
829.60	120.588
829.90	63.043
830.20	91.429
830.50	96.552
830.80	111.111
831.10	96.154
831.40	94.118
831.70	109.524
832.00	125.806
832.30	82.353
832.60	100.000
832.90	-30.769
833.20	115.789
833.50	120.000
833.80	178.947
834.10	42.857
834.40	80.556
834.70	115.625
835.00	51.429
835.30	88.235
835.60	76.667
835.90	96.000
836.20	100.000
836.50	96.000
836.80	60.606
837.10	114.815
837.40	111.111
837.70	68.750
838.00	100.000
838.30	86.957
838.60	110.345
838.90	150.000
839.19	52.174
839.49	50.000
839.79	100.000
840.09	118.750
840.39	115.000
840.69	90.323
840.99	60.714
841.29	106.667
841.59	105.263
841.88	66.667
842.18	76.923
842.48	190.000
842.78	80.000
843.08	83.333
843.38	119.355
843.68	94.444
843.97	61.765
844.27	93.750
844.57	63.158
844.87	140.000
845.17	40.000
845.47	95.238
845.76	76.190
846.06	233.333
846.36	94.118
846.66	69.231
846.96	40.000
847.25	182.353
847.55	108.696
847.85	105.000
848.15	123.529
848.44	63.636
848.74	104.762
849.04	54.167
849.34	150.000
849.63	47.826
849.93	-550.000
850.23	146.667
850.53	88.462
850.82	100.000
851.12	95.455
851.42	45.455
851.71	138.462
852.01	55.000
852.31	84.615
852.61	105.263
852.90	150.000
853.20	111.111
853.50	133.333
853.79	61.905
854.09	54.545
854.39	33.333
854.68	80.645
854.98	46.154
855.28	127.778
855.57	64.286
855.87	76.000
856.17	100.000
856.46	92.593
856.76	72.222
857.05	95.652
857.35	58.333
857.65	53.846
857.94	66.667
858.24	74.074
858.53	104.348
858.83	147.059
859.13	64.706
859.42	64.706
859.72	114.286
860.01	35.000
860.31	66.667
860.60	140.000
860.90	73.333
861.20	77.778
861.49	46.154
861.79	56.667
862.08	46.154
862.38	62.500
862.67	147.059
862.97	93.750
863.26	111.111
863.56	60.000
863.85	45.455
864.15	27.778
864.44	66.667
864.74	42.857
865.03	50.000
865.33	50.000
865.62	25.806
865.92	72.727
866.21	34.783
866.51	78.571
866.80	160.000
867.10	8.333
867.39	-33.333
867.69	400.000
867.98	114.286
868.27	105.882
868.57	-100.000
868.86	80.000
869.16	52.381
869.45	33.333
869.75	81.818
870.04	157.143
870.33	66.667
870.63	57.143
870.92	350.000
871.22	-12.500
871.51	45.455
871.80	0.000
872.10	0.000
>>>>>End Processed Spectral Data<<<<<
