SpectraSuite Data File
++++++++++++++++++++++++++++++++++++
Date: Thu May 14 14:40:44 PDT 2015
User: schluterlab
Dark Spectrum Present: Yes
Reference Spectrum Present: Yes
Number of Sampled Component Spectra: 1
Spectrometers: USB2E3373
Integration Time (usec): 3000 (USB2E3373)
Spectra Averaged: 3 (USB2E3373)
Boxcar Smoothing: 0 (USB2E3373)
Correct for Electrical Dark: No (USB2E3373)
Strobe/Lamp Enabled: No (USB2E3373)
Correct for Detector Non-linearity: No (USB2E3373)
Correct for Stray Light: No (USB2E3373)
Number of Pixels in Processed Spectrum: 2048
>>>>>Begin Processed Spectral Data<<<<<
178.53	0.000
178.91	-142.857
179.29	-200.000
179.67	1000.000
180.04	92.857
180.42	-0.000
180.80	-100.000
181.18	1100.000
181.56	2000.000
181.94	-325.000
182.31	275.000
182.69	-333.333
183.07	650.000
183.45	-125.000
183.83	216.667
184.20	300.000
184.58	-1500.000
184.96	300.000
185.34	166.667
185.72	300.000
186.09	-44.444
186.47	-250.000
186.85	-60.000
187.23	22.222
187.61	600.000
187.98	-160.000
188.36	-250.000
188.74	200.000
189.12	200.000
189.49	87.500
189.87	37.500
190.25	66.667
190.63	60.000
191.00	44.444
191.38	0.000
191.76	125.000
192.14	33.333
192.51	-450.000
192.89	200.000
193.27	0.000
193.65	85.714
194.02	200.000
194.40	142.857
194.78	-171.429
195.15	0.000
195.53	136.364
195.91	0.000
196.29	375.000
196.66	123.077
197.04	800.000
197.42	157.143
197.79	650.000
198.17	87.500
198.55	-71.429
198.92	55.556
199.30	12.500
199.68	63.636
200.05	100.000
200.43	150.000
200.81	-71.429
201.18	0.000
201.56	44.444
201.94	0.000
202.31	-100.000
202.69	33.333
203.07	-900.000
203.44	111.111
203.82	125.000
204.19	91.667
204.57	50.000
204.95	-12.500
205.32	0.000
205.70	-150.000
206.08	233.333
206.45	216.667
206.83	-60.000
207.20	166.667
207.58	-60.000
207.96	0.000
208.33	300.000
208.71	-58.333
209.08	250.000
209.46	0.000
209.84	-33.333
210.21	-1100.000
210.59	-500.000
210.96	-466.667
211.34	400.000
211.71	75.000
212.09	1000.000
212.46	0.000
212.84	250.000
213.22	140.000
213.59	250.000
213.97	140.000
214.34	333.333
214.72	-100.000
215.09	-25.000
215.47	0.000
215.84	-200.000
216.22	-50.000
216.59	400.000
216.97	80.000
217.34	325.000
217.72	150.000
218.09	175.000
218.47	225.000
218.84	0.000
219.22	-100.000
219.59	94.118
219.97	105.000
220.34	-700.000
220.72	144.444
221.09	130.769
221.47	100.000
221.84	70.000
222.22	142.857
222.59	0.000
222.97	125.000
223.34	80.000
223.72	900.000
224.09	100.000
224.46	100.000
224.84	440.000
225.21	85.714
225.59	-25.000
225.96	300.000
226.34	46.154
226.71	33.333
227.08	350.000
227.46	53.333
227.83	375.000
228.21	15.789
228.58	25.000
228.95	100.000
229.33	158.333
229.70	-20.000
230.08	89.474
230.45	-50.000
230.82	300.000
231.20	92.857
231.57	166.667
231.95	36.364
232.32	136.364
232.69	65.000
233.07	400.000
233.44	70.588
233.81	100.000
234.19	144.444
234.56	59.091
234.93	37.931
235.31	63.158
235.68	88.889
236.05	30.000
236.43	80.769
236.80	80.000
237.17	59.259
237.55	51.515
237.92	80.000
238.29	29.032
238.67	27.273
239.04	38.889
239.41	33.333
239.79	41.304
240.16	24.074
240.53	19.565
240.91	17.647
241.28	27.869
241.65	40.299
242.02	39.189
242.40	20.000
242.77	14.667
243.14	8.537
243.51	23.684
243.89	15.385
244.26	24.752
244.63	26.471
245.00	24.299
245.38	20.175
245.75	7.965
246.12	22.222
246.49	16.279
246.87	22.143
247.24	16.556
247.61	18.421
247.98	20.805
248.36	12.963
248.73	20.245
249.10	21.311
249.47	22.388
249.84	19.372
250.22	14.508
250.59	15.556
250.96	22.727
251.33	12.755
251.70	17.521
252.08	16.667
252.45	18.443
252.82	17.355
253.19	10.938
253.56	22.433
253.94	11.923
254.31	15.530
254.68	17.133
255.05	15.961
255.42	15.986
255.79	15.858
256.16	13.907
256.54	11.258
256.91	16.721
257.28	13.115
257.65	14.331
258.02	12.094
258.39	17.664
258.76	18.960
259.14	15.230
259.51	16.427
259.88	14.448
260.25	11.111
260.62	16.438
260.99	15.027
261.36	14.209
261.73	14.854
262.10	15.659
262.47	13.405
262.85	17.424
263.22	13.247
263.59	8.684
263.96	14.066
264.33	14.322
264.70	14.321
265.07	15.513
265.44	17.687
265.81	12.500
266.18	14.512
266.55	16.518
266.92	11.390
267.29	14.880
267.66	13.304
268.03	15.284
268.40	14.405
268.77	13.440
269.14	12.775
269.51	13.816
269.88	17.213
270.25	16.298
270.62	14.768
270.99	16.162
271.36	15.842
271.73	15.521
272.10	16.032
272.47	14.629
272.84	15.060
273.21	14.830
273.58	14.718
273.95	13.846
274.32	12.357
274.69	13.733
275.06	15.201
275.43	14.787
275.80	13.404
276.17	11.852
276.54	11.567
276.91	12.701
277.28	15.009
277.65	14.901
278.02	16.544
278.39	13.949
278.76	11.775
279.13	12.234
279.50	15.808
279.87	12.701
280.23	11.796
280.60	14.746
280.97	12.993
281.34	13.243
281.71	15.398
282.08	14.950
282.45	11.948
282.82	13.187
283.19	12.601
283.56	12.787
283.92	14.114
284.29	14.692
284.66	14.450
285.03	11.378
285.40	12.983
285.77	12.229
286.14	14.809
286.51	11.263
286.87	12.796
287.24	14.759
287.61	14.350
287.98	11.027
288.35	11.686
288.72	13.757
289.08	13.177
289.45	12.870
289.82	11.596
290.19	13.218
290.56	12.113
290.93	11.983
291.29	11.983
291.66	10.331
292.03	11.805
292.40	12.381
292.77	10.243
293.13	11.908
293.50	10.118
293.87	10.604
294.24	12.400
294.60	12.389
294.97	11.946
295.34	12.292
295.71	10.845
296.08	11.370
296.44	10.294
296.81	10.475
297.18	11.333
297.55	9.080
297.91	11.032
298.28	8.886
298.65	11.058
299.02	10.744
299.38	11.213
299.75	10.514
300.12	10.069
300.48	10.369
300.85	9.336
301.22	10.626
301.59	10.502
301.95	9.831
302.32	9.667
302.69	10.186
303.05	10.773
303.42	9.978
303.79	9.375
304.15	11.987
304.52	9.514
304.89	10.157
305.25	9.834
305.62	9.509
305.99	10.000
306.35	9.274
306.72	9.411
307.09	8.325
307.45	10.352
307.82	9.082
308.19	8.880
308.55	10.897
308.92	9.250
309.29	10.345
309.65	8.285
310.02	8.416
310.38	8.661
310.75	10.097
311.12	10.067
311.48	9.286
311.85	9.117
312.22	8.824
312.58	8.732
312.95	8.795
313.31	10.208
313.68	11.081
314.05	10.569
314.41	9.016
314.78	9.718
315.14	9.437
315.51	9.972
315.87	9.901
316.24	10.776
316.61	10.302
316.97	8.959
317.34	8.642
317.70	9.258
318.07	9.259
318.43	9.439
318.80	9.866
319.16	8.841
319.53	7.969
319.89	9.816
320.26	9.164
320.62	9.309
320.99	9.141
321.35	9.150
321.72	9.953
322.08	9.288
322.45	8.943
322.81	9.386
323.18	9.823
323.54	9.138
323.91	9.609
324.27	9.294
324.64	10.076
325.00	8.955
325.37	9.746
325.73	9.669
326.10	10.949
326.46	9.365
326.83	9.928
327.19	9.370
327.56	10.751
327.92	9.363
328.29	8.871
328.65	8.961
329.01	9.560
329.38	9.099
329.74	9.247
330.11	10.274
330.47	8.930
330.84	9.991
331.20	10.250
331.56	9.272
331.93	9.372
332.29	9.915
332.66	9.884
333.02	9.213
333.38	9.060
333.75	9.764
334.11	9.258
334.48	9.241
334.84	10.535
335.20	9.068
335.57	9.275
335.93	10.661
336.29	9.484
336.66	9.756
337.02	9.448
337.38	9.949
337.75	9.421
338.11	9.504
338.47	9.595
338.84	9.222
339.20	8.425
339.56	9.967
339.93	10.509
340.29	9.420
340.65	9.408
341.02	9.816
341.38	10.186
341.74	8.555
342.11	9.815
342.47	9.770
342.83	10.306
343.20	9.730
343.56	9.062
343.92	9.528
344.28	10.703
344.65	9.612
345.01	10.530
345.37	9.487
345.73	8.652
346.10	10.062
346.46	9.494
346.82	9.813
347.19	9.320
347.55	9.484
347.91	8.990
348.27	9.256
348.63	9.749
349.00	8.949
349.36	9.294
349.72	10.417
350.08	9.510
350.45	9.886
350.81	9.351
351.17	9.098
351.53	9.401
351.89	9.643
352.26	9.328
352.62	8.955
352.98	9.237
353.34	8.290
353.70	9.399
354.07	9.836
354.43	8.808
354.79	9.200
355.15	8.021
355.51	10.234
355.87	9.125
356.24	8.897
356.60	9.313
356.96	9.044
357.32	8.773
357.68	8.858
358.04	8.234
358.40	9.104
358.77	9.064
359.13	8.789
359.49	8.104
359.85	8.557
360.21	9.397
360.57	8.615
360.93	9.379
361.29	9.263
361.66	8.907
362.02	10.230
362.38	9.979
362.74	8.450
363.10	9.216
363.46	9.141
363.82	9.659
364.18	8.515
364.54	8.783
364.90	9.298
365.26	8.345
365.62	9.867
365.98	9.462
366.35	8.591
366.71	9.116
367.07	8.999
367.43	8.864
367.79	9.091
368.15	9.365
368.51	8.863
368.87	9.079
369.23	8.133
369.59	8.607
369.95	9.331
370.31	9.453
370.67	9.216
371.03	9.349
371.39	9.469
371.75	8.872
372.11	8.740
372.47	9.072
372.83	9.882
373.19	9.139
373.55	8.469
373.91	8.044
374.27	9.314
374.63	9.472
374.99	8.422
375.35	9.351
375.71	9.097
376.07	9.425
376.42	10.642
376.78	9.323
377.14	9.170
377.50	9.108
377.86	9.791
378.22	9.880
378.58	8.918
378.94	8.862
379.30	10.076
379.66	9.406
380.02	9.463
380.38	10.484
380.74	8.563
381.09	9.350
381.45	9.432
381.81	10.012
382.17	8.967
382.53	9.415
382.89	9.029
383.25	9.086
383.61	9.086
383.97	9.187
384.32	9.450
384.68	9.687
385.04	9.254
385.40	9.016
385.76	9.965
386.12	9.575
386.48	10.529
386.83	10.369
387.19	9.791
387.55	10.094
387.91	8.562
388.27	9.527
388.62	10.080
388.98	9.363
389.34	9.605
389.70	9.704
390.06	10.065
390.42	10.060
390.77	10.295
391.13	9.918
391.49	9.601
391.85	9.455
392.20	9.964
392.56	10.514
392.92	9.815
393.28	9.784
393.64	9.497
393.99	10.169
394.35	9.755
394.71	10.659
395.07	9.401
395.42	10.109
395.78	10.238
396.14	9.626
396.50	9.561
396.85	10.018
397.21	10.178
397.57	10.188
397.92	10.424
398.28	10.212
398.64	9.039
399.00	9.948
399.35	10.314
399.71	10.489
400.07	10.163
400.42	9.895
400.78	9.722
401.14	9.960
401.49	11.370
401.85	10.523
402.21	10.950
402.57	10.505
402.92	11.052
403.28	9.778
403.63	10.263
403.99	10.095
404.35	10.006
404.70	10.708
405.06	10.652
405.42	10.012
405.77	11.178
406.13	10.373
406.49	10.135
406.84	10.803
407.20	10.117
407.55	10.842
407.91	10.057
408.27	11.072
408.62	10.471
408.98	10.389
409.34	9.560
409.69	10.198
410.05	11.079
410.40	10.615
410.76	10.937
411.11	10.637
411.47	10.749
411.83	10.700
412.18	11.446
412.54	10.729
412.89	11.467
413.25	10.948
413.60	10.454
413.96	10.723
414.31	10.085
414.67	10.733
415.03	10.769
415.38	11.286
415.74	10.690
416.09	10.981
416.45	10.958
416.80	10.894
417.16	11.239
417.51	10.959
417.87	10.975
418.22	10.958
418.58	9.665
418.93	10.710
419.29	11.036
419.64	10.624
420.00	10.386
420.35	10.949
420.71	11.258
421.06	10.351
421.42	10.665
421.77	10.124
422.12	11.047
422.48	11.265
422.83	11.281
423.19	10.557
423.54	10.454
423.90	10.988
424.25	10.453
424.61	10.505
424.96	10.983
425.31	10.563
425.67	10.413
426.02	10.625
426.38	10.850
426.73	10.658
427.09	11.361
427.44	10.923
427.79	10.669
428.15	10.959
428.50	10.562
428.85	10.792
429.21	11.702
429.56	10.464
429.92	10.811
430.27	11.470
430.62	10.552
430.98	10.821
431.33	10.802
431.68	10.297
432.04	10.513
432.39	10.552
432.74	10.788
433.10	11.303
433.45	11.037
433.80	10.676
434.16	11.260
434.51	10.689
434.86	10.803
435.22	10.946
435.57	10.200
435.92	10.851
436.28	10.637
436.63	11.032
436.98	10.735
437.34	10.316
437.69	9.961
438.04	10.629
438.39	10.856
438.75	10.183
439.10	11.258
439.45	10.620
439.81	10.565
440.16	10.617
440.51	10.479
440.86	10.673
441.22	10.932
441.57	10.535
441.92	10.718
442.27	10.859
442.63	11.326
442.98	10.192
443.33	10.100
443.68	11.397
444.03	10.677
444.39	10.680
444.74	10.975
445.09	10.542
445.44	10.854
445.79	10.728
446.15	10.894
446.50	9.819
446.85	11.041
447.20	11.170
447.55	10.931
447.91	10.838
448.26	10.518
448.61	10.308
448.96	11.749
449.31	11.347
449.66	10.185
450.02	11.234
450.37	11.401
450.72	10.118
451.07	10.706
451.42	10.687
451.77	10.784
452.12	10.892
452.47	10.755
452.83	10.755
453.18	11.325
453.53	11.200
453.88	10.768
454.23	11.356
454.58	11.201
454.93	10.619
455.28	11.017
455.63	10.233
455.98	10.503
456.34	10.660
456.69	10.817
457.04	10.520
457.39	11.086
457.74	10.850
458.09	10.324
458.44	11.530
458.79	10.882
459.14	10.173
459.49	10.640
459.84	11.018
460.19	10.938
460.54	10.505
460.89	10.641
461.24	9.943
461.59	11.234
461.94	10.154
462.29	10.806
462.64	10.561
462.99	10.295
463.34	10.383
463.69	11.196
464.04	11.062
464.39	11.491
464.74	11.631
465.09	10.957
465.44	10.193
465.79	10.947
466.14	10.631
466.49	11.368
466.84	10.634
467.19	11.156
467.54	10.223
467.89	10.747
468.24	10.859
468.59	10.423
468.94	10.490
469.29	10.438
469.64	10.807
469.99	10.644
470.34	10.891
470.68	11.552
471.03	10.936
471.38	10.988
471.73	9.753
472.08	10.089
472.43	10.476
472.78	12.091
473.13	10.367
473.48	11.057
473.83	10.679
474.17	10.727
474.52	10.283
474.87	10.354
475.22	11.042
475.57	10.696
475.92	10.602
476.27	11.289
476.61	10.280
476.96	10.323
477.31	11.188
477.66	10.651
478.01	11.134
478.36	9.920
478.70	10.443
479.05	11.196
479.40	10.760
479.75	11.527
480.10	10.422
480.45	11.167
480.79	10.930
481.14	10.386
481.49	10.677
481.84	11.010
482.19	10.495
482.53	10.844
482.88	10.456
483.23	10.360
483.58	10.611
483.92	9.574
484.27	10.711
484.62	10.685
484.97	11.314
485.31	10.278
485.66	10.289
486.01	10.526
486.36	10.378
486.70	10.774
487.05	10.559
487.40	10.448
487.75	9.975
488.09	10.059
488.44	9.649
488.79	10.523
489.13	10.355
489.48	9.515
489.83	10.101
490.17	10.045
490.52	10.550
490.87	10.491
491.22	10.529
491.56	10.751
491.91	10.423
492.26	10.601
492.60	11.106
492.95	10.794
493.30	10.668
493.64	10.775
493.99	10.702
494.34	10.671
494.68	10.792
495.03	10.705
495.37	10.963
495.72	10.431
496.07	10.386
496.41	10.511
496.76	10.425
497.11	10.573
497.45	10.401
497.80	10.840
498.14	10.703
498.49	10.340
498.84	10.512
499.18	10.661
499.53	10.538
499.87	10.945
500.22	9.929
500.56	10.751
500.91	10.755
501.26	11.227
501.60	10.252
501.95	11.290
502.29	10.838
502.64	10.888
502.98	10.569
503.33	10.497
503.67	10.379
504.02	10.464
504.36	10.545
504.71	10.932
505.06	10.368
505.40	10.649
505.75	10.246
506.09	10.820
506.44	10.817
506.78	11.193
507.13	10.742
507.47	11.037
507.82	10.795
508.16	10.564
508.51	9.798
508.85	10.817
509.19	10.753
509.54	10.615
509.88	10.782
510.23	11.462
510.57	11.068
510.92	10.789
511.26	10.534
511.61	10.526
511.95	10.835
512.30	12.014
512.64	10.245
512.98	11.056
513.33	10.786
513.67	11.321
514.02	10.782
514.36	10.946
514.70	11.719
515.05	10.375
515.39	10.919
515.74	11.718
516.08	11.305
516.42	11.983
516.77	10.568
517.11	11.037
517.46	10.923
517.80	12.667
518.14	11.480
518.49	11.226
518.83	11.549
519.17	11.039
519.52	11.059
519.86	10.824
520.20	11.874
520.55	11.829
520.89	10.923
521.23	11.558
521.58	11.469
521.92	11.445
522.26	11.397
522.61	11.921
522.95	11.419
523.29	11.609
523.64	11.379
523.98	12.322
524.32	12.149
524.66	10.871
525.01	11.665
525.35	11.430
525.69	11.543
526.04	11.079
526.38	12.184
526.72	11.995
527.06	11.437
527.41	11.895
527.75	12.114
528.09	11.806
528.43	11.249
528.78	11.040
529.12	11.296
529.46	11.242
529.80	12.471
530.15	11.594
530.49	11.151
530.83	11.924
531.17	11.708
531.51	11.011
531.86	12.320
532.20	12.195
532.54	12.208
532.88	12.061
533.22	12.080
533.57	11.829
533.91	12.907
534.25	11.702
534.59	12.069
534.93	11.262
535.27	11.775
535.62	12.280
535.96	12.028
536.30	12.103
536.64	12.192
536.98	12.669
537.32	12.222
537.66	11.728
538.01	11.299
538.35	11.389
538.69	11.599
539.03	12.078
539.37	11.837
539.71	12.553
540.05	12.290
540.39	11.308
540.73	12.265
541.07	12.262
541.42	11.518
541.76	11.981
542.10	12.425
542.44	11.510
542.78	12.226
543.12	12.217
543.46	12.271
543.80	11.271
544.14	12.029
544.48	12.589
544.82	12.148
545.16	12.105
545.50	11.564
545.84	12.309
546.18	12.531
546.52	12.484
546.86	11.698
547.20	11.832
547.54	12.235
547.88	11.332
548.22	11.696
548.56	11.703
548.90	12.060
549.24	12.584
549.58	11.420
549.92	10.842
550.26	12.492
550.60	12.572
550.94	13.001
551.28	12.739
551.62	12.399
551.96	11.974
552.30	13.448
552.64	12.383
552.98	12.664
553.32	13.119
553.66	12.154
554.00	11.854
554.34	12.548
554.68	12.653
555.02	11.761
555.36	12.755
555.69	11.723
556.03	11.917
556.37	12.516
556.71	12.492
557.05	12.843
557.39	13.006
557.73	12.285
558.07	11.987
558.41	12.757
558.75	11.900
559.08	12.387
559.42	12.826
559.76	13.365
560.10	12.391
560.44	12.863
560.78	12.375
561.12	12.685
561.45	12.226
561.79	13.187
562.13	12.816
562.47	12.145
562.81	12.785
563.15	11.932
563.48	12.430
563.82	12.213
564.16	11.872
564.50	12.515
564.84	11.799
565.17	12.706
565.51	11.968
565.85	12.233
566.19	12.615
566.52	12.171
566.86	12.054
567.20	12.126
567.54	12.480
567.88	12.334
568.21	13.142
568.55	12.710
568.89	12.483
569.23	12.590
569.56	12.309
569.90	12.366
570.24	12.310
570.57	12.059
570.91	12.125
571.25	11.658
571.59	11.717
571.92	11.967
572.26	11.699
572.60	11.739
572.93	11.940
573.27	11.942
573.61	12.123
573.95	11.629
574.28	12.263
574.62	11.505
574.96	11.778
575.29	11.765
575.63	11.689
575.97	12.000
576.30	11.621
576.64	11.310
576.98	11.572
577.31	12.046
577.65	11.721
577.98	11.691
578.32	11.730
578.66	11.515
578.99	11.571
579.33	11.383
579.67	11.718
580.00	11.958
580.34	11.584
580.67	11.562
581.01	11.770
581.35	11.864
581.68	12.032
582.02	12.199
582.35	12.397
582.69	11.717
583.02	11.848
583.36	11.768
583.70	11.247
584.03	11.423
584.37	11.627
584.70	11.418
585.04	11.648
585.37	11.489
585.71	12.082
586.04	11.779
586.38	11.955
586.72	11.507
587.05	11.179
587.39	11.568
587.72	11.866
588.06	12.113
588.39	12.123
588.73	11.772
589.06	12.133
589.40	11.739
589.73	11.857
590.07	11.903
590.40	12.103
590.73	11.665
591.07	11.727
591.40	12.558
591.74	11.367
592.07	12.627
592.41	11.751
592.74	12.212
593.08	12.580
593.41	12.248
593.75	11.925
594.08	11.754
594.41	12.083
594.75	11.790
595.08	11.709
595.42	11.883
595.75	12.044
596.09	11.894
596.42	12.218
596.75	12.466
597.09	12.283
597.42	11.839
597.75	12.270
598.09	12.222
598.42	12.304
598.76	12.228
599.09	12.068
599.42	11.834
599.76	12.149
600.09	12.112
600.42	12.446
600.76	12.285
601.09	11.882
601.42	12.084
601.76	12.345
602.09	11.901
602.42	12.032
602.76	11.808
603.09	11.601
603.42	11.922
603.76	11.910
604.09	12.491
604.42	12.257
604.76	12.253
605.09	12.565
605.42	11.882
605.75	11.846
606.09	12.057
606.42	11.748
606.75	11.732
607.09	11.482
607.42	12.254
607.75	11.801
608.08	12.549
608.42	12.576
608.75	12.645
609.08	12.224
609.41	12.307
609.75	11.830
610.08	12.181
610.41	12.447
610.74	12.521
611.07	11.901
611.41	12.063
611.74	13.303
612.07	12.155
612.40	11.882
612.73	12.616
613.07	12.861
613.40	12.512
613.73	12.325
614.06	13.003
614.39	12.585
614.72	11.693
615.06	12.416
615.39	11.890
615.72	12.749
616.05	11.899
616.38	12.159
616.71	12.382
617.05	11.981
617.38	13.109
617.71	12.203
618.04	12.952
618.37	13.607
618.70	13.009
619.03	11.649
619.36	12.639
619.69	12.364
620.03	12.806
620.36	12.638
620.69	13.140
621.02	13.189
621.35	13.208
621.68	13.811
622.01	12.883
622.34	12.483
622.67	13.677
623.00	11.606
623.33	13.537
623.66	12.127
623.99	12.640
624.32	13.190
624.65	12.162
624.99	13.589
625.32	12.867
625.65	12.475
625.98	13.559
626.31	12.899
626.64	12.967
626.97	13.578
627.30	12.225
627.63	12.528
627.96	13.438
628.29	13.230
628.62	12.259
628.95	13.059
629.28	12.829
629.61	12.795
629.94	13.305
630.26	12.797
630.59	13.299
630.92	13.247
631.25	13.327
631.58	15.066
631.91	12.746
632.24	14.313
632.57	13.852
632.90	12.638
633.23	13.776
633.56	14.388
633.89	13.223
634.22	14.657
634.55	12.317
634.88	13.420
635.20	14.639
635.53	12.429
635.86	13.434
636.19	15.058
636.52	13.291
636.85	13.279
637.18	15.073
637.51	13.441
637.83	14.618
638.16	14.055
638.49	13.380
638.82	14.882
639.15	13.517
639.48	14.434
639.81	13.395
640.13	14.134
640.46	12.606
640.79	13.235
641.12	14.161
641.45	15.307
641.77	15.019
642.10	14.961
642.43	15.426
642.76	13.550
643.09	14.521
643.41	13.585
643.74	14.897
644.07	15.724
644.40	15.559
644.73	14.949
645.05	14.244
645.38	13.813
645.71	13.783
646.04	15.208
646.36	12.993
646.69	13.344
647.02	14.526
647.35	14.656
647.67	13.849
648.00	14.172
648.33	13.664
648.66	14.265
648.98	14.014
649.31	15.020
649.64	16.335
649.96	15.782
650.29	13.630
650.62	14.003
650.94	13.964
651.27	13.473
651.60	14.912
651.92	13.070
652.25	14.182
652.58	13.618
652.90	14.971
653.23	14.507
653.56	15.977
653.88	15.590
654.21	14.085
654.54	14.306
654.86	15.156
655.19	12.171
655.52	14.445
655.84	12.619
656.17	15.523
656.49	21.645
656.82	23.450
657.15	17.043
657.47	12.594
657.80	8.965
658.13	6.802
658.45	8.724
658.78	10.451
659.10	9.883
659.43	10.144
659.75	9.931
660.08	10.532
660.41	11.663
660.73	11.631
661.06	14.684
661.38	14.354
661.71	14.138
662.03	14.109
662.36	18.068
662.68	15.385
663.01	14.159
663.33	16.824
663.66	17.399
663.98	14.615
664.31	14.822
664.63	13.487
664.96	15.608
665.28	14.156
665.61	15.210
665.93	13.393
666.26	15.591
666.58	15.683
666.91	17.009
667.23	16.381
667.56	14.398
667.88	15.800
668.21	12.891
668.53	14.093
668.86	14.145
669.18	12.424
669.50	13.718
669.83	14.600
670.15	13.780
670.48	14.087
670.80	13.958
671.13	14.367
671.45	13.780
671.77	17.326
672.10	14.000
672.42	13.754
672.75	13.671
673.07	14.925
673.39	14.330
673.72	16.107
674.04	15.000
674.37	12.880
674.69	15.873
675.01	14.095
675.34	12.214
675.66	14.794
675.98	16.418
676.31	15.820
676.63	15.209
676.95	17.241
677.28	13.306
677.60	13.189
677.92	16.315
678.25	15.356
678.57	14.769
678.89	16.382
679.22	14.111
679.54	14.701
679.86	13.220
680.18	14.594
680.51	14.308
680.83	13.748
681.15	12.931
681.48	17.098
681.80	14.335
682.12	14.336
682.44	13.356
682.77	13.830
683.09	15.720
683.41	14.729
683.73	12.524
684.06	13.838
684.38	14.490
684.70	16.697
685.02	14.114
685.34	15.474
685.67	12.145
685.99	14.417
686.31	13.372
686.63	13.902
686.96	14.984
687.28	15.309
687.60	14.983
687.92	13.505
688.24	14.524
688.56	13.448
688.89	14.882
689.21	15.264
689.53	13.137
689.85	13.609
690.17	12.963
690.49	15.139
690.82	13.663
691.14	14.170
691.46	15.679
691.78	16.206
692.10	13.578
692.42	13.393
692.74	14.519
693.06	12.963
693.39	16.319
693.71	13.722
694.03	13.011
694.35	13.333
694.67	14.168
694.99	14.255
695.31	14.790
695.63	14.286
695.95	14.907
696.27	15.385
696.59	15.929
696.91	15.541
697.23	16.484
697.56	13.442
697.88	12.689
698.20	14.124
698.52	16.477
698.84	15.800
699.16	17.143
699.48	13.180
699.80	13.404
700.12	17.031
700.44	14.516
700.76	15.439
701.08	16.707
701.40	14.508
701.72	14.428
702.04	17.647
702.36	13.351
702.68	16.137
703.00	12.714
703.32	16.010
703.64	15.159
703.96	16.229
704.28	14.742
704.60	17.215
704.91	17.602
705.23	14.795
705.55	14.485
705.87	16.061
706.19	17.178
706.51	12.349
706.83	16.715
707.15	11.376
707.47	12.850
707.79	14.192
708.11	13.559
708.43	13.763
708.74	12.946
709.06	13.921
709.38	14.789
709.70	16.625
710.02	14.212
710.34	14.096
710.66	12.291
710.98	13.115
711.29	15.659
711.61	15.819
711.93	15.100
712.25	15.946
712.57	17.699
712.89	17.941
713.20	15.089
713.52	15.607
713.84	15.320
714.16	17.368
714.48	15.464
714.80	16.883
715.11	14.436
715.43	18.037
715.75	15.526
716.07	14.641
716.39	15.574
716.70	15.663
717.02	16.393
717.34	13.937
717.66	17.785
717.97	12.329
718.29	13.058
718.61	16.776
718.93	14.887
719.24	17.391
719.56	14.724
719.88	11.712
720.20	15.806
720.51	13.354
720.83	12.500
721.15	17.763
721.46	16.781
721.78	17.333
722.10	17.152
722.42	14.430
722.73	12.258
723.05	18.947
723.37	17.014
723.68	19.355
724.00	15.523
724.32	16.901
724.63	15.385
724.95	15.957
725.27	16.725
725.58	14.488
725.90	18.621
726.22	15.047
726.53	14.935
726.85	15.723
727.16	17.221
727.48	17.431
727.80	20.861
728.11	12.014
728.43	18.182
728.74	13.712
729.06	16.887
729.38	18.831
729.69	14.430
730.01	13.690
730.32	13.636
730.64	18.239
730.96	12.733
731.27	18.715
731.59	16.209
731.90	14.026
732.22	13.281
732.53	12.983
732.85	14.571
733.16	14.076
733.48	15.244
733.80	15.599
734.11	12.821
734.43	14.054
734.74	16.203
735.06	15.829
735.37	16.757
735.69	10.541
736.00	15.537
736.32	14.825
736.63	12.778
736.95	13.218
737.26	16.061
737.58	12.424
737.89	17.647
738.21	15.902
738.52	16.393
738.83	19.454
739.15	15.248
739.46	13.605
739.78	19.018
740.09	13.181
740.41	13.703
740.72	15.333
741.04	15.534
741.35	16.842
741.66	14.510
741.98	14.754
742.29	17.992
742.61	16.228
742.92	12.692
743.23	18.412
743.55	15.504
743.86	14.800
744.18	14.463
744.49	16.456
744.80	17.284
745.12	18.987
745.43	19.512
745.74	15.086
746.06	15.254
746.37	20.675
746.68	16.667
747.00	16.667
747.31	13.305
747.62	18.077
747.94	17.409
748.25	14.056
748.56	15.102
748.88	14.957
749.19	18.103
749.50	16.883
749.82	14.458
750.13	19.929
750.44	13.000
750.75	17.538
751.07	16.308
751.38	17.981
751.69	13.419
752.01	16.505
752.32	17.320
752.63	19.048
752.94	15.225
753.26	13.383
753.57	14.074
753.88	14.232
754.19	16.399
754.51	15.113
754.82	16.720
755.13	17.705
755.44	15.358
755.75	16.447
756.07	14.328
756.38	18.553
756.69	15.663
757.00	13.573
757.31	15.301
757.63	15.345
757.94	12.441
758.25	16.253
758.56	14.597
758.87	17.955
759.18	15.200
759.50	12.465
759.81	16.246
760.12	12.938
760.43	17.969
760.74	12.808
761.05	15.000
761.36	11.325
761.67	14.213
761.99	18.649
762.30	11.890
762.61	12.211
762.92	14.552
763.23	16.479
763.54	16.547
763.85	15.464
764.16	16.498
764.47	14.789
764.78	15.655
765.10	15.249
765.41	17.179
765.72	14.021
766.03	17.232
766.34	13.166
766.65	12.195
766.96	13.147
767.27	20.276
767.58	12.935
767.89	18.750
768.20	18.310
768.51	18.056
768.82	17.269
769.13	18.939
769.44	13.846
769.75	15.523
770.06	16.154
770.37	21.260
770.68	10.213
770.99	10.526
771.30	20.000
771.61	18.251
771.92	17.407
772.23	19.433
772.54	11.111
772.85	19.355
773.16	18.571
773.47	19.048
773.78	9.189
774.09	22.159
774.39	16.000
774.70	20.219
775.01	15.854
775.32	10.588
775.63	20.245
775.94	15.924
776.25	23.871
776.56	22.436
776.87	26.531
777.18	18.621
777.48	19.580
777.79	14.865
778.10	11.765
778.41	18.750
778.72	20.690
779.03	17.901
779.34	16.970
779.65	18.653
779.95	20.556
780.26	19.318
780.57	25.806
780.88	20.290
781.19	22.581
781.50	28.824
781.80	19.892
782.11	20.106
782.42	14.646
782.73	17.964
783.04	16.201
783.34	14.545
783.65	16.340
783.96	18.012
784.27	12.500
784.57	16.556
784.88	12.857
785.19	13.386
785.50	20.472
785.81	15.038
786.11	24.615
786.42	21.583
786.73	14.388
787.04	19.549
787.34	17.213
787.65	12.000
787.96	24.627
788.26	25.175
788.57	20.979
788.88	19.737
789.19	16.993
789.49	16.438
789.80	15.603
790.11	30.709
790.41	20.313
790.72	21.186
791.03	14.563
791.33	19.130
791.64	23.684
791.95	18.750
792.25	28.571
792.56	17.857
792.87	20.833
793.17	19.643
793.48	11.458
793.79	18.072
794.09	15.596
794.40	17.431
794.70	15.646
795.01	9.091
795.32	19.178
795.62	18.310
795.93	12.879
796.23	18.852
796.54	14.286
796.85	23.404
797.15	20.652
797.46	20.548
797.76	17.500
798.07	26.087
798.37	3.093
798.68	9.091
798.99	29.885
799.29	17.978
799.60	26.596
799.90	24.096
800.21	29.231
800.51	11.940
800.82	23.529
801.12	4.110
801.43	22.059
801.73	27.119
802.04	25.758
802.34	8.333
802.65	35.593
802.95	16.418
803.26	38.983
803.56	21.918
803.87	21.429
804.17	23.288
804.48	-8.772
804.78	33.333
805.09	12.069
805.39	32.432
805.70	22.535
806.00	34.146
806.30	7.229
806.61	20.548
806.91	20.192
807.22	24.444
807.52	16.092
807.83	26.389
808.13	22.892
808.43	16.854
808.74	13.750
809.04	22.059
809.35	26.667
809.65	20.000
809.95	10.959
810.26	22.807
810.56	22.414
810.86	20.588
811.17	17.544
811.47	22.951
811.77	17.778
812.08	44.068
812.38	31.667
812.69	22.414
812.99	22.642
813.29	-7.692
813.59	46.000
813.90	33.333
814.20	29.091
814.50	33.803
814.81	38.462
815.11	31.148
815.41	25.373
815.72	25.862
816.02	39.286
816.32	24.444
816.62	34.091
816.93	6.667
817.23	46.296
817.53	48.936
817.84	38.095
818.14	58.824
818.44	36.735
818.74	40.000
819.04	15.385
819.35	20.000
819.65	11.538
819.95	32.075
820.25	33.333
820.56	28.571
820.86	18.750
821.16	38.462
821.46	23.256
821.76	-4.000
822.07	37.500
822.37	26.087
822.67	23.404
822.97	2.703
823.27	15.000
823.57	48.980
823.88	35.556
824.18	42.500
824.48	23.333
824.78	44.000
825.08	30.303
825.38	37.778
825.69	51.064
825.99	50.000
826.29	0.000
826.59	17.949
826.89	23.256
827.19	36.000
827.49	41.176
827.79	33.333
828.09	18.919
828.39	23.333
828.70	7.317
829.00	30.233
829.30	7.143
829.60	29.412
829.90	32.609
830.20	28.571
830.50	41.379
830.80	61.111
831.10	38.462
831.40	44.118
831.70	71.429
832.00	74.194
832.30	23.529
832.60	41.667
832.90	-7.692
833.20	63.158
833.50	45.000
833.80	89.474
834.10	4.762
834.40	22.222
834.70	43.750
835.00	20.000
835.30	14.706
835.60	40.000
835.90	88.000
836.20	0.000
836.50	28.000
836.80	39.394
837.10	40.741
837.40	18.519
837.70	-56.250
838.00	42.857
838.30	47.826
838.60	68.966
838.90	92.857
839.19	43.478
839.49	25.000
839.79	34.783
840.09	37.500
840.39	25.000
840.69	58.065
840.99	14.286
841.29	66.667
841.59	42.105
841.88	35.897
842.18	53.846
842.48	-10.000
842.78	65.000
843.08	56.667
843.38	90.323
843.68	33.333
843.97	64.706
844.27	18.750
844.57	57.895
844.87	0.000
845.17	40.000
845.47	61.905
845.76	33.333
846.06	222.222
846.36	11.765
846.66	61.538
846.96	20.000
847.25	29.412
847.55	47.826
847.85	70.000
848.15	70.588
848.44	127.273
848.74	19.048
849.04	12.500
849.34	81.250
849.63	39.130
849.93	150.000
850.23	66.667
850.53	57.692
850.82	145.455
851.12	68.182
851.42	36.364
851.71	84.615
852.01	25.000
852.31	69.231
852.61	-21.053
852.90	133.333
853.20	100.000
853.50	-88.889
853.79	0.000
854.09	13.636
854.39	25.000
854.68	29.032
854.98	7.692
855.28	22.222
855.57	39.286
855.87	52.000
856.17	36.364
856.46	85.185
856.76	55.556
857.05	-4.348
857.35	33.333
857.65	46.154
857.94	47.619
858.24	70.370
858.53	65.217
858.83	64.706
859.13	94.118
859.42	100.000
859.72	85.714
860.01	45.000
860.31	22.222
860.60	220.000
860.90	86.667
861.20	11.111
861.49	115.385
861.79	46.667
862.08	69.231
862.38	50.000
862.67	100.000
862.97	106.250
863.26	0.000
863.56	50.000
863.85	90.909
864.15	72.222
864.44	0.000
864.74	100.000
865.03	100.000
865.33	150.000
865.62	16.129
865.92	77.273
866.21	52.174
866.51	57.143
866.80	-80.000
867.10	50.000
867.39	25.000
867.69	900.000
867.98	71.429
868.27	100.000
868.57	-400.000
868.86	70.000
869.16	52.381
869.45	62.500
869.75	90.909
870.04	185.714
870.33	91.667
870.63	114.286
870.92	300.000
871.22	-50.000
871.51	18.182
871.80	66.667
872.10	350.000
>>>>>End Processed Spectral Data<<<<<
