SpectraSuite Data File
++++++++++++++++++++++++++++++++++++
Date: Thu May 14 14:39:40 PDT 2015
User: schluterlab
Dark Spectrum Present: Yes
Reference Spectrum Present: Yes
Number of Sampled Component Spectra: 1
Spectrometers: USB2E3373
Integration Time (usec): 3000 (USB2E3373)
Spectra Averaged: 3 (USB2E3373)
Boxcar Smoothing: 0 (USB2E3373)
Correct for Electrical Dark: No (USB2E3373)
Strobe/Lamp Enabled: No (USB2E3373)
Correct for Detector Non-linearity: No (USB2E3373)
Correct for Stray Light: No (USB2E3373)
Number of Pixels in Processed Spectrum: 2048
>>>>>Begin Processed Spectral Data<<<<<
178.53	0.000
178.91	-200.000
179.29	1300.000
179.67	1100.000
180.04	28.571
180.42	-120.000
180.80	-320.000
181.18	500.000
181.56	1800.000
181.94	-275.000
182.31	350.000
182.69	-333.333
183.07	200.000
183.45	-100.000
183.83	50.000
184.20	500.000
184.58	-1100.000
184.96	200.000
185.34	211.111
185.72	520.000
186.09	-22.222
186.47	-400.000
186.85	-140.000
187.23	133.333
187.61	800.000
187.98	-320.000
188.36	-350.000
188.74	350.000
189.12	866.667
189.49	106.250
189.87	125.000
190.25	111.111
190.63	320.000
191.00	-22.222
191.38	0.000
191.76	475.000
192.14	233.333
192.51	-550.000
192.89	250.000
193.27	0.000
193.65	228.571
194.02	500.000
194.40	228.571
194.78	-85.714
195.15	0.000
195.53	200.000
195.91	0.000
196.29	700.000
196.66	138.462
197.04	400.000
197.42	128.571
197.79	550.000
198.17	100.000
198.55	71.429
198.92	266.667
199.30	262.500
199.68	154.545
200.05	128.571
200.43	650.000
200.81	-142.857
201.18	0.000
201.56	-44.444
201.94	0.000
202.31	-400.000
202.69	155.556
203.07	-1800.000
203.44	188.889
203.82	300.000
204.19	133.333
204.57	166.667
204.95	162.500
205.32	1100.000
205.70	-450.000
206.08	250.000
206.45	216.667
206.83	-160.000
207.20	116.667
207.58	280.000
207.96	116.667
208.33	450.000
208.71	-116.667
209.08	333.333
209.46	0.000
209.84	-83.333
210.21	-650.000
210.59	-350.000
210.96	-333.333
211.34	525.000
211.71	187.500
212.09	1100.000
212.46	0.000
212.84	100.000
213.22	220.000
213.59	475.000
213.97	230.000
214.34	433.333
214.72	-50.000
215.09	150.000
215.47	0.000
215.84	-114.286
216.22	-450.000
216.59	160.000
216.97	300.000
217.34	250.000
217.72	237.500
218.09	200.000
218.47	150.000
218.84	0.000
219.22	-500.000
219.59	129.412
219.97	130.000
220.34	-550.000
220.72	111.111
221.09	215.385
221.47	400.000
221.84	170.000
222.22	100.000
222.59	0.000
222.97	312.500
223.34	180.000
223.72	1500.000
224.09	250.000
224.46	175.000
224.84	400.000
225.21	185.714
225.59	75.000
225.96	300.000
226.34	103.846
226.71	50.000
227.08	350.000
227.46	93.333
227.83	100.000
228.21	136.842
228.58	-87.500
228.95	-600.000
229.33	200.000
229.70	170.000
230.08	131.579
230.45	-70.000
230.82	600.000
231.20	114.286
231.57	100.000
231.95	227.273
232.32	154.545
232.69	35.000
233.07	225.000
233.44	135.294
233.81	180.000
234.19	116.667
234.56	100.000
234.93	72.414
235.31	63.158
235.68	83.333
236.05	15.000
236.43	126.923
236.80	148.000
237.17	40.741
237.55	48.485
237.92	60.000
238.29	45.161
238.67	45.455
239.04	75.000
239.41	50.000
239.79	47.826
240.16	44.444
240.53	36.957
240.91	19.608
241.28	39.344
241.65	55.224
242.02	54.054
242.40	35.385
242.77	30.667
243.14	17.073
243.51	31.579
243.89	26.923
244.26	24.752
244.63	30.392
245.00	27.103
245.38	25.439
245.75	13.274
246.12	26.984
246.49	26.357
246.87	25.000
247.24	27.815
247.61	25.000
247.98	32.215
248.36	21.605
248.73	20.859
249.10	22.404
249.47	26.866
249.84	28.796
250.22	19.689
250.59	23.889
250.96	25.455
251.33	22.449
251.70	23.077
252.08	22.917
252.45	20.902
252.82	18.182
253.19	26.172
253.56	19.772
253.94	20.769
254.31	27.273
254.68	23.427
255.05	21.173
255.42	19.048
255.79	16.828
256.16	20.861
256.54	19.868
256.91	22.623
257.28	23.607
257.65	20.382
258.02	18.584
258.39	21.368
258.76	23.853
259.14	19.828
259.51	20.461
259.88	20.113
260.25	20.000
260.62	22.466
260.99	20.492
261.36	21.180
261.73	20.424
262.10	18.681
262.47	20.375
262.85	22.980
263.22	19.221
263.59	18.421
263.96	17.136
264.33	18.159
264.70	19.259
265.07	21.241
265.44	20.862
265.81	18.519
266.18	19.728
266.55	19.196
266.92	17.995
267.29	18.600
267.66	17.738
268.03	20.306
268.40	19.624
268.77	19.362
269.14	19.824
269.51	18.421
269.88	19.877
270.25	21.127
270.62	20.886
270.99	20.606
271.36	20.990
271.73	19.253
272.10	19.639
272.47	18.236
272.84	17.269
273.21	18.036
273.58	20.363
273.95	18.077
274.32	16.350
274.69	16.828
275.06	18.681
275.43	16.821
275.80	17.460
276.17	19.444
276.54	19.030
276.91	19.857
277.28	16.456
277.65	20.108
278.02	18.199
278.39	18.478
278.76	17.575
279.13	16.312
279.50	19.588
279.87	19.678
280.23	17.077
280.60	18.136
280.97	18.586
281.34	18.676
281.71	18.613
282.08	16.445
282.45	16.694
282.82	17.111
283.19	16.478
283.56	16.885
283.92	18.468
284.29	19.115
284.66	18.227
285.03	16.827
285.40	18.547
285.77	18.576
286.14	18.168
286.51	16.438
286.87	17.694
287.24	16.566
287.61	16.442
287.98	15.106
288.35	15.385
288.72	17.751
289.08	14.934
289.45	17.012
289.82	16.717
290.19	15.086
290.56	16.338
290.93	17.261
291.29	16.116
291.66	13.499
292.03	14.111
292.40	16.463
292.77	13.612
293.13	14.885
293.50	15.637
293.87	14.765
294.24	15.067
294.60	15.424
294.97	12.752
295.34	15.749
295.71	14.880
296.08	12.920
296.44	12.745
296.81	13.276
297.18	14.072
297.55	13.090
297.91	13.879
298.28	11.137
298.65	14.031
299.02	13.695
299.38	13.387
299.75	14.019
300.12	12.384
300.48	14.862
300.85	14.398
301.22	13.423
301.59	12.900
301.95	13.107
302.32	13.889
302.69	12.815
303.05	12.840
303.42	13.193
303.79	12.500
304.15	13.670
304.52	12.262
304.89	12.042
305.25	12.008
305.62	12.226
305.99	12.887
306.35	11.895
306.72	13.547
307.09	11.168
307.45	12.526
307.82	12.109
308.19	12.210
308.55	12.247
308.92	12.269
309.29	13.027
309.65	10.916
310.02	11.485
310.38	12.697
310.75	12.718
311.12	12.656
311.48	12.121
311.85	12.441
312.22	12.334
312.58	12.770
312.95	12.428
313.31	12.827
313.68	14.194
314.05	12.918
314.41	12.750
314.78	12.988
315.14	13.249
315.51	14.866
315.87	13.501
316.24	15.342
316.61	14.831
316.97	13.213
317.34	13.668
317.70	15.197
318.07	15.168
318.43	15.136
318.80	15.301
319.16	15.021
319.53	14.910
319.89	14.812
320.26	17.082
320.62	15.514
320.99	16.990
321.35	18.115
321.72	18.977
322.08	18.305
322.45	18.699
322.81	19.224
323.18	19.204
323.54	19.224
323.91	21.085
324.27	19.363
324.64	20.319
325.00	19.652
325.37	22.686
325.73	21.818
326.10	23.114
326.46	23.371
326.83	23.299
327.19	22.835
327.56	24.032
327.92	23.761
328.29	23.871
328.65	25.042
329.01	24.112
329.38	26.201
329.74	26.455
330.11	26.798
330.47	27.633
330.84	27.907
331.20	27.333
331.56	26.863
331.93	28.703
332.29	28.390
332.66	28.239
333.02	28.978
333.38	29.614
333.75	28.114
334.11	28.941
334.48	29.703
334.84	30.331
335.20	29.471
335.57	30.354
335.93	30.331
336.29	28.869
336.66	29.352
337.02	30.268
337.38	30.017
337.75	29.339
338.11	32.212
338.47	30.521
338.84	31.134
339.20	30.244
339.56	30.807
339.93	30.788
340.29	31.401
340.65	31.468
341.02	32.322
341.38	30.558
341.74	30.589
342.11	31.456
342.47	30.580
342.83	30.757
343.20	31.889
343.56	31.034
343.92	32.266
344.28	31.875
344.65	31.705
345.01	31.747
345.37	31.571
345.73	30.631
346.10	31.669
346.46	31.962
346.82	32.285
347.19	31.780
347.55	31.487
347.91	31.129
348.27	30.653
348.63	31.455
349.00	31.245
349.36	31.524
349.72	30.878
350.08	32.244
350.45	31.787
350.81	31.222
351.17	31.278
351.53	32.449
351.89	32.574
352.26	31.866
352.62	31.493
352.98	32.366
353.34	31.292
353.70	32.666
354.07	32.489
354.43	31.891
354.79	31.862
355.15	31.788
355.51	32.383
355.87	32.012
356.24	32.700
356.60	31.338
356.96	33.284
357.32	31.896
357.68	32.064
358.04	31.811
358.40	32.239
358.77	33.041
359.13	32.792
359.49	32.342
359.85	33.503
360.21	32.855
360.57	32.233
360.93	33.498
361.29	33.614
361.66	32.513
362.02	34.447
362.38	33.029
362.74	33.240
363.10	34.250
363.46	33.310
363.82	33.310
364.18	34.694
364.54	34.094
364.90	34.783
365.26	34.552
365.62	34.267
365.98	33.764
366.35	35.034
366.71	34.490
367.07	33.627
367.43	34.274
367.79	34.439
368.15	35.385
368.51	33.491
368.87	34.357
369.23	34.200
369.59	35.109
369.95	34.753
370.31	36.124
370.67	36.176
371.03	35.873
371.39	35.662
371.75	36.795
372.11	35.569
372.47	34.462
372.83	35.275
373.19	34.690
373.55	36.653
373.91	36.264
374.27	35.770
374.63	36.671
374.99	35.345
375.35	37.857
375.71	36.452
376.07	37.573
376.42	36.083
376.78	37.787
377.14	36.307
377.50	37.887
377.86	37.377
378.22	38.024
378.58	37.455
378.94	37.793
379.30	37.317
379.66	38.213
380.02	38.373
380.38	38.479
380.74	37.972
381.09	38.502
381.45	37.670
381.81	39.813
382.17	38.599
382.53	38.480
382.89	38.544
383.25	39.683
383.61	39.641
383.97	38.869
384.32	40.849
384.68	39.791
385.04	41.353
385.40	40.542
385.76	40.504
386.12	40.335
386.48	40.588
386.83	41.836
387.19	39.919
387.55	39.437
387.91	40.982
388.27	40.820
388.62	39.863
388.98	40.045
389.34	40.837
389.70	40.442
390.06	41.445
390.42	40.783
390.77	40.819
391.13	40.962
391.49	41.606
391.85	41.697
392.20	41.756
392.56	41.406
392.92	40.949
393.28	41.846
393.64	41.453
393.99	41.720
394.35	42.348
394.71	42.156
395.07	41.796
395.42	42.204
395.78	43.449
396.14	41.711
396.50	42.458
396.85	42.159
397.21	42.485
397.57	42.226
397.92	42.898
398.28	42.260
398.64	41.190
399.00	42.304
399.35	41.728
399.71	41.576
400.07	42.673
400.42	41.735
400.78	42.940
401.14	41.320
401.49	43.604
401.85	42.500
402.21	42.758
402.57	44.014
402.92	42.967
403.28	42.213
403.63	41.110
403.99	42.637
404.35	41.728
404.70	43.003
405.06	41.033
405.42	42.506
405.77	43.293
406.13	42.464
406.49	42.568
406.84	42.992
407.20	43.656
407.55	42.520
407.91	43.118
408.27	41.755
408.62	43.630
408.98	43.122
409.34	41.584
409.69	43.511
410.05	42.907
410.40	43.852
410.76	43.242
411.11	43.425
411.47	44.287
411.83	42.857
412.18	44.277
412.54	44.458
412.89	43.655
413.25	44.187
413.60	43.308
413.96	43.765
414.31	42.946
414.67	43.530
415.03	43.569
415.38	44.199
415.74	44.411
416.09	45.589
416.45	43.957
416.80	44.798
417.16	45.530
417.51	45.330
417.87	44.942
418.22	45.269
418.58	46.283
418.93	45.634
419.29	46.054
419.64	45.738
420.00	45.816
420.35	45.536
420.71	46.008
421.06	47.039
421.42	46.216
421.77	44.911
422.12	45.930
422.48	47.005
422.83	46.824
423.19	47.374
423.54	48.009
423.90	47.708
424.25	47.733
424.61	47.933
424.96	48.490
425.31	48.673
425.67	48.953
426.02	48.921
426.38	49.196
426.73	48.605
427.09	50.519
427.44	49.153
427.79	50.304
428.15	50.000
428.50	48.596
428.85	50.402
429.21	50.479
429.56	50.987
429.92	51.007
430.27	51.518
430.62	51.197
430.98	50.566
431.33	50.782
431.68	51.102
432.04	52.819
432.39	52.384
432.74	52.454
433.10	53.326
433.45	53.233
433.80	54.453
434.16	53.512
434.51	53.803
434.86	54.017
435.22	55.101
435.57	56.132
435.92	55.147
436.28	55.575
436.63	56.581
436.98	56.468
437.34	56.652
437.69	55.806
438.04	56.108
438.39	56.577
438.75	56.115
439.10	57.294
439.45	57.742
439.81	59.040
440.16	56.997
440.51	56.745
440.86	56.921
441.22	57.771
441.57	58.176
441.92	58.002
442.27	58.939
442.63	58.023
442.98	58.805
443.33	59.285
443.68	59.812
444.03	60.160
444.39	60.148
444.74	58.857
445.09	58.236
445.44	60.327
445.79	60.680
446.15	60.123
446.50	59.328
446.85	61.770
447.20	60.880
447.55	60.146
447.91	61.832
448.26	61.152
448.61	61.371
448.96	63.197
449.31	61.294
449.66	61.765
450.02	61.551
450.37	61.375
450.72	63.079
451.07	62.642
451.42	61.641
451.77	62.368
452.12	63.995
452.47	63.399
452.83	65.034
453.18	63.339
453.53	63.412
453.88	63.611
454.23	63.559
454.58	65.235
454.93	64.927
455.28	64.901
455.63	64.525
455.98	63.966
456.34	63.251
456.69	64.139
457.04	65.426
457.39	65.576
457.74	65.996
458.09	64.470
458.44	65.248
458.79	62.971
459.14	63.555
459.49	65.252
459.84	65.425
460.19	64.575
460.54	65.928
460.89	65.379
461.24	66.092
461.59	65.412
461.94	63.320
462.29	65.733
462.64	65.118
462.99	66.478
463.34	67.229
463.69	65.182
464.04	66.537
464.39	66.200
464.74	64.652
465.09	67.128
465.44	66.094
465.79	65.309
466.14	65.294
466.49	65.526
466.84	66.501
467.19	66.185
467.54	66.216
467.89	64.713
468.24	67.036
468.59	66.532
468.94	66.142
469.29	67.127
469.64	67.133
469.99	67.240
470.34	68.317
470.68	68.489
471.03	69.155
471.38	68.542
471.73	69.376
472.08	67.703
472.43	67.790
472.78	69.081
473.13	69.406
473.48	68.580
473.83	67.266
474.17	67.819
474.52	69.994
474.87	67.885
475.22	68.676
475.57	67.549
475.92	67.148
476.27	66.826
476.61	67.238
476.96	67.205
477.31	68.416
477.66	70.252
478.01	68.277
478.36	67.896
478.70	68.621
479.05	69.683
479.40	69.003
479.75	67.867
480.10	69.304
480.45	68.414
480.79	68.254
481.14	68.520
481.49	68.651
481.84	68.451
482.19	68.946
482.53	69.480
482.88	68.720
483.23	68.786
483.58	68.952
483.92	68.706
484.27	68.882
484.62	67.120
484.97	67.224
485.31	66.807
485.66	63.651
486.01	62.604
486.36	62.957
486.70	63.809
487.05	65.471
487.40	65.684
487.75	65.420
488.09	65.906
488.44	65.382
488.79	66.914
489.13	67.089
489.48	67.612
489.83	67.203
490.17	67.517
490.52	68.186
490.87	69.924
491.22	69.454
491.56	69.198
491.91	69.080
492.26	68.196
492.60	68.824
492.95	68.934
493.30	69.476
493.64	69.777
493.99	68.421
494.34	68.380
494.68	69.079
495.03	70.000
495.37	70.706
495.72	69.569
496.07	69.150
496.41	68.168
496.76	69.516
497.11	69.639
497.45	69.573
497.80	69.969
498.14	69.569
498.49	70.496
498.84	70.567
499.18	71.975
499.53	70.359
499.87	70.374
500.22	68.522
500.56	70.805
500.91	71.076
501.26	71.136
501.60	70.261
501.95	69.952
502.29	69.987
502.64	70.529
502.98	69.198
503.33	69.028
503.67	69.647
504.02	69.046
504.36	70.912
504.71	70.188
505.06	68.440
505.40	70.430
505.75	70.401
506.09	70.396
506.44	71.495
506.78	71.468
507.13	70.539
507.47	71.009
507.82	70.975
508.16	70.363
508.51	71.449
508.85	70.477
509.19	71.388
509.54	71.278
509.88	71.977
510.23	72.657
510.57	72.064
510.92	72.666
511.26	71.044
511.61	69.966
511.95	70.669
512.30	71.492
512.64	69.515
512.98	71.836
513.33	71.976
513.67	72.004
514.02	72.151
514.36	72.839
514.70	72.500
515.05	72.888
515.39	72.703
515.74	72.853
516.08	71.580
516.42	71.952
516.77	73.028
517.11	72.408
517.46	72.747
517.80	73.650
518.14	74.429
518.49	73.319
518.83	71.740
519.17	71.298
519.52	70.545
519.86	71.225
520.20	73.376
520.55	72.782
520.89	74.493
521.23	72.418
521.58	73.390
521.92	72.691
522.26	72.451
522.61	73.380
522.95	73.068
523.29	73.908
523.64	72.309
523.98	74.843
524.32	75.186
524.66	73.136
525.01	72.084
525.35	72.257
525.69	72.564
526.04	72.560
526.38	73.851
526.72	73.183
527.06	74.545
527.41	74.052
527.75	73.694
528.09	72.904
528.43	74.067
528.78	72.948
529.12	74.427
529.46	70.601
529.80	72.597
530.15	73.391
530.49	73.072
530.83	72.432
531.17	73.656
531.51	73.887
531.86	74.279
532.20	73.232
532.54	72.771
532.88	73.091
533.22	71.656
533.57	71.379
533.91	69.529
534.25	70.661
534.59	71.667
534.93	71.873
535.27	71.718
535.62	71.461
535.96	72.632
536.30	70.858
536.64	72.853
536.98	72.878
537.32	72.099
537.66	72.863
538.01	70.997
538.35	71.011
538.69	72.837
539.03	71.980
539.37	71.731
539.71	70.150
540.05	71.223
540.39	72.188
540.73	69.277
541.07	72.103
541.42	69.758
541.76	69.039
542.10	71.351
542.44	70.524
542.78	70.438
543.12	68.892
543.46	71.856
543.80	69.844
544.14	69.838
544.48	70.035
544.82	70.975
545.16	71.199
545.50	70.821
545.84	70.667
546.18	73.272
546.52	72.548
546.86	70.189
547.20	71.374
547.54	71.598
547.88	70.344
548.22	70.292
548.56	71.270
548.90	70.269
549.24	70.517
549.58	71.420
549.92	71.365
550.26	73.398
550.60	70.581
550.94	73.739
551.28	71.881
551.62	73.383
551.96	71.392
552.30	73.614
552.64	72.060
552.98	71.803
553.32	73.569
553.66	73.441
554.00	72.509
554.34	72.716
554.68	71.272
555.02	72.996
555.36	74.162
555.69	71.300
556.03	71.311
556.37	73.029
556.71	73.114
557.05	72.971
557.39	73.723
557.73	73.976
558.07	73.046
558.41	74.817
558.75	74.037
559.08	74.948
559.42	73.388
559.76	73.745
560.10	74.146
560.44	73.417
560.78	73.813
561.12	72.783
561.45	73.054
561.79	72.222
562.13	73.629
562.47	72.133
562.81	74.430
563.15	73.737
563.48	73.648
563.82	73.519
564.16	72.078
564.50	71.633
564.84	72.212
565.17	72.471
565.51	72.094
565.85	71.853
566.19	69.643
566.52	72.323
566.86	71.534
567.20	68.896
567.54	70.685
567.88	70.183
568.21	69.516
568.55	68.777
568.89	68.679
569.23	66.455
569.56	66.276
569.90	65.360
570.24	65.565
570.57	64.561
570.91	63.411
571.25	62.337
571.59	62.037
571.92	62.820
572.26	62.017
572.60	62.135
572.93	61.731
573.27	63.585
573.61	62.573
573.95	60.961
574.28	60.663
574.62	61.301
574.96	60.498
575.29	60.784
575.63	60.568
575.97	60.862
576.30	59.956
576.64	60.463
576.98	60.114
577.31	60.644
577.65	60.277
577.98	59.883
578.32	59.790
578.66	59.348
578.99	59.492
579.33	60.471
579.67	59.882
580.00	59.452
580.34	59.773
580.67	60.216
581.01	59.866
581.35	59.108
581.68	59.237
582.02	59.023
582.35	60.293
582.69	59.819
583.02	60.101
583.36	61.224
583.70	60.850
584.03	60.811
584.37	61.590
584.70	60.758
585.04	60.823
585.37	60.605
585.71	60.518
586.04	60.326
586.38	61.351
586.72	61.218
587.05	61.755
587.39	61.655
587.72	62.392
588.06	62.016
588.39	62.659
588.73	62.963
589.06	62.951
589.40	64.628
589.73	65.231
590.07	65.086
590.40	64.773
590.73	64.935
591.07	66.009
591.40	65.824
591.74	66.534
592.07	65.814
592.41	66.009
592.74	64.572
593.08	64.650
593.41	64.275
593.75	64.569
594.08	64.011
594.41	64.744
594.75	64.563
595.08	65.007
595.42	65.032
595.75	64.482
596.09	65.503
596.42	65.783
596.75	67.117
597.09	67.394
597.42	66.309
597.75	65.857
598.09	65.992
598.42	67.149
598.76	66.106
599.09	64.899
599.42	64.432
599.76	64.708
600.09	64.464
600.42	64.698
600.76	63.904
601.09	64.620
601.42	64.504
601.76	65.828
602.09	64.904
602.42	65.285
602.76	66.642
603.09	65.345
603.42	67.233
603.76	65.011
604.09	66.785
604.42	65.982
604.76	65.601
605.09	66.693
605.42	67.145
605.75	64.885
606.09	65.323
606.42	65.049
606.75	65.442
607.09	65.361
607.42	65.780
607.75	66.549
608.08	65.904
608.42	65.780
608.75	66.998
609.08	66.299
609.41	67.799
609.75	66.920
610.08	67.986
610.41	66.653
610.74	66.092
611.07	67.984
611.41	67.892
611.74	69.099
612.07	68.396
612.40	67.395
612.73	69.633
613.07	68.557
613.40	68.768
613.73	68.994
614.06	68.253
614.39	68.513
614.72	67.686
615.06	67.469
615.39	67.617
615.72	68.626
616.05	68.480
616.38	70.737
616.71	70.167
617.05	70.341
617.38	69.930
617.71	69.600
618.04	70.804
618.37	69.945
618.70	70.362
619.03	70.370
619.36	70.469
619.69	72.261
620.03	72.505
620.36	70.429
620.69	71.191
621.02	74.672
621.35	76.197
621.68	76.645
622.01	74.520
622.34	74.338
622.67	73.540
623.00	72.537
623.33	75.050
623.66	72.698
623.99	72.614
624.32	74.074
624.65	73.295
624.99	73.147
625.32	73.481
625.65	73.769
625.98	73.898
626.31	73.707
626.64	75.385
626.97	75.244
627.30	76.765
627.63	75.769
627.96	75.601
628.29	75.798
628.62	77.918
628.95	79.404
629.28	79.524
629.61	77.946
629.94	76.402
630.26	78.814
630.59	79.188
630.92	79.654
631.25	80.054
631.58	82.674
631.91	82.099
632.24	80.307
632.57	80.835
632.90	82.949
633.23	82.755
633.56	82.245
633.89	83.058
634.22	82.952
634.55	83.612
634.88	83.983
635.20	85.253
635.53	87.119
635.86	83.965
636.19	83.457
636.52	83.333
636.85	81.001
637.18	80.977
637.51	83.656
637.83	83.721
638.16	87.903
638.49	85.915
638.82	84.104
639.15	83.505
639.48	85.104
639.81	83.256
640.13	85.748
640.46	85.212
640.79	86.397
641.12	86.335
641.45	85.947
641.77	90.372
642.10	87.795
642.43	88.564
642.76	87.534
643.09	88.493
643.41	89.496
643.74	86.897
644.07	88.690
644.40	88.260
644.73	90.711
645.05	89.721
645.38	92.374
645.71	90.909
646.04	90.674
646.36	87.883
646.69	93.865
647.02	90.826
647.35	90.840
647.67	91.465
648.00	92.994
648.33	93.694
648.66	87.589
648.98	85.714
649.31	84.574
649.64	84.728
649.96	84.350
650.29	84.840
650.62	86.704
650.94	88.589
651.27	86.078
651.60	85.965
651.92	89.210
652.25	86.252
652.58	84.182
652.90	85.901
653.23	86.620
653.56	86.876
653.88	85.674
654.21	86.620
654.54	85.694
654.86	85.694
655.19	79.548
655.52	69.753
655.84	56.852
656.17	67.529
656.49	92.793
656.82	99.966
657.15	82.134
657.47	60.894
657.80	45.674
658.13	35.807
658.45	47.914
658.78	58.566
659.10	57.845
659.43	58.378
659.75	60.884
660.08	61.905
660.41	68.734
660.73	74.116
661.06	83.700
661.38	88.676
661.71	91.897
662.03	91.182
662.36	89.088
662.68	95.872
663.01	91.858
663.33	94.896
663.66	96.520
663.98	96.154
664.31	96.248
664.63	93.834
664.96	90.563
665.28	89.474
665.61	90.734
665.93	89.286
666.26	92.115
666.58	91.328
666.91	94.206
667.23	95.048
667.56	96.450
667.88	95.600
668.21	92.773
668.53	91.506
668.86	96.660
669.18	94.908
669.50	96.223
669.83	93.200
670.15	92.126
670.48	95.635
670.80	90.631
671.13	93.384
671.45	93.504
671.77	94.915
672.10	86.167
672.42	87.864
672.75	84.639
673.07	82.836
673.39	83.359
673.72	85.570
674.04	87.931
674.37	92.129
674.69	88.536
675.01	92.571
675.34	87.405
675.66	87.266
675.98	91.604
676.31	91.406
676.63	88.973
676.95	93.103
677.28	90.927
677.60	91.929
677.92	90.211
678.25	89.214
678.57	88.612
678.89	86.519
679.22	83.449
679.54	84.103
679.86	84.915
680.18	85.904
680.51	83.491
680.83	84.943
681.15	87.931
681.48	86.183
681.80	83.938
682.12	86.364
682.44	83.472
682.77	85.993
683.09	90.909
683.41	88.566
683.73	87.287
684.06	84.686
684.38	85.868
684.70	89.048
685.02	83.133
685.34	83.694
685.67	79.968
685.99	81.748
686.31	76.744
686.63	80.253
686.96	82.808
687.28	83.062
687.60	84.680
687.92	79.582
688.24	81.469
688.56	81.897
688.89	85.118
689.21	89.237
689.53	86.667
689.85	86.588
690.17	80.370
690.49	89.641
690.82	88.911
691.14	89.069
691.46	86.998
691.78	83.794
692.10	84.954
692.42	79.821
692.74	80.762
693.06	80.000
693.39	84.820
693.71	85.338
694.03	82.342
694.35	84.190
694.67	84.805
694.99	88.085
695.31	89.845
695.63	87.879
695.95	82.816
696.27	89.231
696.59	90.929
696.91	88.964
697.23	88.132
697.56	85.336
697.88	82.955
698.20	82.298
698.52	86.553
698.84	86.486
699.16	84.898
699.48	85.983
699.80	85.319
700.12	86.245
700.44	83.410
700.76	89.786
701.08	91.041
701.40	94.560
701.72	88.806
702.04	93.583
702.36	90.576
702.68	85.086
703.00	88.264
703.32	90.148
703.64	88.998
703.96	87.112
704.28	87.224
704.60	88.354
704.91	86.735
705.23	93.973
705.55	91.086
705.87	98.182
706.19	99.693
706.51	92.771
706.83	94.813
707.15	89.153
707.47	83.879
707.79	83.843
708.11	78.178
708.43	78.495
708.74	82.143
709.06	84.687
709.38	82.629
709.70	91.067
710.02	84.755
710.34	93.617
710.66	91.061
710.98	88.251
711.29	89.835
711.61	89.548
711.93	87.749
712.25	85.405
712.57	92.920
712.89	94.412
713.20	92.604
713.52	87.861
713.84	88.579
714.16	86.579
714.48	85.052
714.80	89.610
715.11	81.102
715.43	84.615
715.75	86.842
716.07	83.149
716.39	86.612
716.70	87.349
717.02	95.082
717.34	94.774
717.66	90.604
717.97	94.178
718.29	96.220
718.61	90.132
718.93	93.204
719.24	85.714
719.56	86.196
719.88	84.985
720.20	95.161
720.51	89.752
720.83	86.250
721.15	90.132
721.46	90.068
721.78	91.000
722.10	87.379
722.42	88.591
722.73	81.935
723.05	97.895
723.37	92.014
723.68	95.699
724.00	91.697
724.32	88.732
724.63	90.210
724.95	89.716
725.27	89.199
725.58	93.993
725.90	90.690
726.22	83.699
726.53	87.987
726.85	83.962
727.16	81.873
727.48	83.792
727.80	84.437
728.11	87.279
728.43	86.532
728.74	84.281
729.06	86.093
729.38	86.688
729.69	90.940
730.01	81.250
730.32	79.394
730.64	83.333
730.96	84.472
731.27	80.726
731.59	76.374
731.90	76.883
732.22	72.917
732.53	75.414
732.85	80.286
733.16	80.352
733.48	80.488
733.80	77.159
734.11	76.068
734.43	75.946
734.74	76.962
735.06	71.608
735.37	77.027
735.69	74.865
736.00	80.508
736.32	76.550
736.63	76.111
736.95	79.310
737.26	78.788
737.58	76.061
737.89	78.529
738.21	73.700
738.52	79.016
738.83	84.642
739.15	82.979
739.46	84.354
739.78	80.982
740.09	75.072
740.41	78.426
740.72	83.667
741.04	83.495
741.35	81.754
741.66	89.412
741.98	91.393
742.29	89.958
742.61	92.105
742.92	88.462
743.23	84.838
743.55	90.310
743.86	92.400
744.18	82.645
744.49	86.076
744.80	96.296
745.12	91.139
745.43	86.992
745.74	90.948
746.06	88.983
746.37	94.937
746.68	88.618
747.00	87.917
747.31	85.837
747.62	88.846
747.94	95.142
748.25	87.550
748.56	91.429
748.88	88.462
749.19	94.828
749.50	95.238
749.82	95.984
750.13	86.121
750.44	78.333
750.75	81.846
751.07	82.462
751.38	80.442
751.69	79.872
752.01	78.317
752.32	79.739
752.63	87.075
752.94	83.737
753.26	85.874
753.57	79.259
753.88	85.768
754.19	78.457
754.51	78.457
754.82	80.064
755.13	82.295
755.44	81.911
755.75	81.250
756.07	73.433
756.38	80.818
756.69	76.506
757.00	70.637
757.31	73.224
757.63	70.077
757.94	67.371
758.25	70.429
758.56	67.538
758.87	66.364
759.18	70.133
759.50	74.504
759.81	75.350
760.12	77.898
760.43	73.438
760.74	73.399
761.05	70.000
761.36	66.747
761.67	72.081
761.99	69.459
762.30	74.695
762.61	72.277
762.92	80.597
763.23	78.652
763.54	77.698
763.85	76.976
764.16	79.125
764.47	76.761
764.78	76.038
765.10	68.622
765.41	67.949
765.72	69.312
766.03	70.621
766.34	73.981
766.65	72.474
766.96	84.064
767.27	91.705
767.58	92.537
767.89	86.538
768.20	83.568
768.51	82.407
768.82	77.510
769.13	76.136
769.44	76.154
769.75	78.339
770.06	76.154
770.37	81.102
770.68	82.553
770.99	71.255
771.30	76.296
771.61	76.046
771.92	72.963
772.23	81.377
772.54	82.407
772.85	85.714
773.16	83.810
773.47	82.011
773.78	84.865
774.09	87.500
774.39	84.500
774.70	83.607
775.01	83.537
775.32	77.647
775.63	85.276
775.94	80.892
776.25	94.839
776.56	93.590
776.87	84.354
777.18	94.483
777.48	92.308
777.79	83.784
778.10	82.353
778.41	95.833
778.72	87.586
779.03	87.654
779.34	89.697
779.65	82.902
779.95	83.333
780.26	66.477
780.57	89.032
780.88	90.580
781.19	89.032
781.50	90.588
781.80	82.258
782.11	73.545
782.42	67.677
782.73	82.635
783.04	80.447
783.34	80.606
783.65	77.124
783.96	82.609
784.27	80.357
784.57	82.119
784.88	90.000
785.19	91.339
785.50	88.189
785.81	84.211
786.11	93.846
786.42	87.770
786.73	84.892
787.04	85.714
787.34	91.803
787.65	80.000
787.96	82.836
788.26	82.517
788.57	82.517
788.88	77.632
789.19	84.967
789.49	82.877
789.80	75.177
790.11	87.402
790.41	75.781
790.72	85.593
791.03	93.204
791.33	87.826
791.64	95.614
791.95	90.179
792.25	97.143
792.56	90.179
792.87	90.625
793.17	75.893
793.48	91.667
793.79	92.771
794.09	81.651
794.40	78.899
794.70	76.190
795.01	68.182
795.32	75.342
795.62	71.127
795.93	80.303
796.23	80.328
796.54	84.821
796.85	88.298
797.15	78.261
797.46	104.110
797.76	88.750
798.07	90.217
798.37	81.443
798.68	89.610
798.99	93.103
799.29	100.000
799.60	79.787
799.90	89.157
800.21	104.615
800.51	92.537
800.82	100.000
801.12	89.041
801.43	97.059
801.73	123.729
802.04	100.000
802.34	95.000
802.65	93.220
802.95	94.030
803.26	110.169
803.56	90.411
803.87	108.571
804.17	78.082
804.48	100.000
804.78	98.611
805.09	105.172
805.39	87.838
805.70	77.465
806.00	95.122
806.30	86.747
806.61	91.781
806.91	73.077
807.22	84.444
807.52	57.471
807.83	98.611
808.13	87.952
808.43	91.011
808.74	88.750
809.04	88.235
809.35	82.667
809.65	97.143
809.95	89.041
810.26	94.737
810.56	105.172
810.86	76.471
811.17	112.281
811.47	86.885
811.77	122.222
812.08	96.610
812.38	95.000
812.69	110.345
812.99	84.906
813.29	94.872
813.59	112.000
813.90	101.754
814.20	109.091
814.50	87.324
814.81	76.923
815.11	98.361
815.41	79.104
815.72	115.517
816.02	112.500
816.32	104.444
816.62	129.545
816.93	117.778
817.23	105.556
817.53	102.128
817.84	121.429
818.14	144.118
818.44	102.041
818.74	111.111
819.04	97.436
819.35	122.857
819.65	126.923
819.95	94.340
820.25	115.556
820.56	83.333
820.86	109.375
821.16	110.256
821.46	83.721
821.76	86.000
822.07	98.214
822.37	86.957
822.67	97.872
822.97	81.081
823.27	102.500
823.57	95.918
823.88	133.333
824.18	110.000
824.48	116.667
824.78	172.000
825.08	151.515
825.38	104.444
825.69	102.128
825.99	141.667
826.29	108.571
826.59	97.436
826.89	95.349
827.19	98.000
827.49	120.588
827.79	89.583
828.09	100.000
828.39	86.667
828.70	92.683
829.00	97.674
829.30	92.857
829.60	132.353
829.90	78.261
830.20	97.143
830.50	127.586
830.80	166.667
831.10	138.462
831.40	111.765
831.70	128.571
832.00	174.194
832.30	70.588
832.60	129.167
832.90	192.308
833.20	142.105
833.50	185.000
833.80	200.000
834.10	119.048
834.40	127.778
834.70	134.375
835.00	65.714
835.30	91.176
835.60	100.000
835.90	132.000
836.20	86.364
836.50	120.000
836.80	72.727
837.10	185.185
837.40	125.926
837.70	181.250
838.00	107.143
838.30	156.522
838.60	75.862
838.90	192.857
839.19	113.043
839.49	166.667
839.79	113.043
840.09	143.750
840.39	160.000
840.69	125.806
840.99	103.571
841.29	220.000
841.59	142.105
841.88	117.949
842.18	146.154
842.48	250.000
842.78	180.000
843.08	103.333
843.38	106.452
843.68	77.778
843.97	88.235
844.27	187.500
844.57	115.789
844.87	170.000
845.17	113.333
845.47	142.857
845.76	100.000
846.06	277.778
846.36	141.176
846.66	100.000
846.96	146.667
847.25	117.647
847.55	152.174
847.85	80.000
848.15	164.706
848.44	254.545
848.74	123.810
849.04	87.500
849.34	143.750
849.63	113.043
849.93	-1300.000
850.23	226.667
850.53	119.231
850.82	245.455
851.12	177.273
851.42	263.636
851.71	246.154
852.01	105.000
852.31	207.692
852.61	136.842
852.90	250.000
853.20	144.444
853.50	122.222
853.79	100.000
854.09	81.818
854.39	91.667
854.68	132.258
854.98	100.000
855.28	105.556
855.57	75.000
855.87	72.000
856.17	113.636
856.46	85.185
856.76	127.778
857.05	104.348
857.35	108.333
857.65	153.846
857.94	157.143
858.24	122.222
858.53	134.783
858.83	147.059
859.13	123.529
859.42	105.882
859.72	135.714
860.01	145.000
860.31	166.667
860.60	210.000
860.90	126.667
861.20	144.444
861.49	130.769
861.79	76.667
862.08	153.846
862.38	90.625
862.67	135.294
862.97	131.250
863.26	166.667
863.56	180.000
863.85	190.909
864.15	127.778
864.44	766.667
864.74	150.000
865.03	168.750
865.33	90.000
865.62	80.645
865.92	118.182
866.21	134.783
866.51	164.286
866.80	380.000
867.10	108.333
867.39	108.333
867.69	-400.000
867.98	400.000
868.27	147.059
868.57	1400.000
868.86	130.000
869.16	90.476
869.45	100.000
869.75	245.455
870.04	271.429
870.33	200.000
870.63	-14.286
870.92	350.000
871.22	175.000
871.51	118.182
871.80	266.667
872.10	650.000
>>>>>End Processed Spectral Data<<<<<
