SpectraSuite Data File
++++++++++++++++++++++++++++++++++++
Date: Thu May 14 14:36:16 PDT 2015
User: schluterlab
Dark Spectrum Present: Yes
Reference Spectrum Present: Yes
Number of Sampled Component Spectra: 1
Spectrometers: USB2E3373
Integration Time (usec): 3000 (USB2E3373)
Spectra Averaged: 3 (USB2E3373)
Boxcar Smoothing: 0 (USB2E3373)
Correct for Electrical Dark: No (USB2E3373)
Strobe/Lamp Enabled: No (USB2E3373)
Correct for Detector Non-linearity: No (USB2E3373)
Correct for Stray Light: No (USB2E3373)
Number of Pixels in Processed Spectrum: 2048
>>>>>Begin Processed Spectral Data<<<<<
178.53	0.000
178.91	-342.857
179.29	1300.000
179.67	300.000
180.04	14.286
180.42	-190.000
180.80	-140.000
181.18	1600.000
181.56	1500.000
181.94	-450.000
182.31	400.000
182.69	-633.333
183.07	900.000
183.45	-450.000
183.83	483.333
184.20	733.333
184.58	-1800.000
184.96	175.000
185.34	222.222
185.72	480.000
186.09	-133.333
186.47	-600.000
186.85	-0.000
187.23	133.333
187.61	900.000
187.98	-360.000
188.36	-175.000
188.74	575.000
189.12	833.333
189.49	162.500
189.87	150.000
190.25	222.222
190.63	400.000
191.00	122.222
191.38	0.000
191.76	225.000
192.14	333.333
192.51	-1000.000
192.89	350.000
193.27	0.000
193.65	285.714
194.02	700.000
194.40	314.286
194.78	-200.000
195.15	0.000
195.53	118.182
195.91	0.000
196.29	350.000
196.66	161.538
197.04	1500.000
197.42	171.429
197.79	900.000
198.17	237.500
198.55	228.571
198.92	211.111
199.30	87.500
199.68	181.818
200.05	214.286
200.43	400.000
200.81	-171.429
201.18	0.000
201.56	-122.222
201.94	0.000
202.31	-466.667
202.69	33.333
203.07	-1900.000
203.44	288.889
203.82	425.000
204.19	125.000
204.57	283.333
204.95	287.500
205.32	1700.000
205.70	-500.000
206.08	250.000
206.45	316.667
206.83	-180.000
207.20	250.000
207.58	200.000
207.96	300.000
208.33	250.000
208.71	-100.000
209.08	433.333
209.46	0.000
209.84	-166.667
210.21	-500.000
210.59	-700.000
210.96	-366.667
211.34	500.000
211.71	275.000
212.09	1300.000
212.46	0.000
212.84	-550.000
213.22	220.000
213.59	325.000
213.97	190.000
214.34	700.000
214.72	-266.667
215.09	500.000
215.47	0.000
215.84	-200.000
216.22	-650.000
216.59	300.000
216.97	420.000
217.34	625.000
217.72	175.000
218.09	375.000
218.47	425.000
218.84	0.000
219.22	-240.000
219.59	164.706
219.97	65.000
220.34	-200.000
220.72	144.444
221.09	184.615
221.47	433.333
221.84	220.000
222.22	242.857
222.59	0.000
222.97	262.500
223.34	180.000
223.72	1100.000
224.09	275.000
224.46	400.000
224.84	300.000
225.21	285.714
225.59	350.000
225.96	500.000
226.34	69.231
226.71	-83.333
227.08	500.000
227.46	113.333
227.83	425.000
228.21	126.316
228.58	-112.500
228.95	-750.000
229.33	183.333
229.70	200.000
230.08	147.368
230.45	-30.000
230.82	633.333
231.20	200.000
231.57	158.333
231.95	145.455
232.32	172.727
232.69	155.000
233.07	525.000
233.44	152.941
233.81	150.000
234.19	144.444
234.56	118.182
234.93	68.966
235.31	110.526
235.68	116.667
236.05	70.000
236.43	126.923
236.80	128.000
237.17	44.444
237.55	66.667
237.92	90.000
238.29	74.194
238.67	63.636
239.04	63.889
239.41	28.571
239.79	39.130
240.16	38.889
240.53	28.261
240.91	21.569
241.28	29.508
241.65	38.806
242.02	44.595
242.40	29.231
242.77	26.667
243.14	17.073
243.51	10.526
243.89	17.949
244.26	18.812
244.63	23.529
245.00	22.430
245.38	21.053
245.75	4.425
246.12	15.873
246.49	13.178
246.87	20.714
247.24	18.543
247.61	20.395
247.98	11.409
248.36	12.346
248.73	13.497
249.10	14.208
249.47	18.408
249.84	17.277
250.22	9.845
250.59	16.667
250.96	15.455
251.33	9.184
251.70	14.103
252.08	17.083
252.45	15.164
252.82	11.570
253.19	11.328
253.56	15.209
253.94	11.154
254.31	12.879
254.68	15.734
255.05	11.075
255.42	10.544
255.79	12.621
256.16	11.589
256.54	9.272
256.91	13.770
257.28	9.508
257.65	9.873
258.02	6.195
258.39	10.541
258.76	15.902
259.14	12.069
259.51	12.680
259.88	8.499
260.25	12.500
260.62	8.219
260.99	12.842
261.36	13.941
261.73	8.488
262.10	7.967
262.47	9.920
262.85	12.374
263.22	9.351
263.59	6.316
263.96	10.997
264.33	6.905
264.70	9.630
265.07	10.979
265.44	11.565
265.81	8.565
266.18	10.884
266.55	9.152
266.92	8.200
267.29	10.066
267.66	9.091
268.03	11.354
268.40	9.186
268.77	7.289
269.14	8.370
269.51	10.965
269.88	9.836
270.25	11.469
270.62	9.705
270.99	9.293
271.36	11.683
271.73	11.198
272.10	9.218
272.47	8.617
272.84	8.635
273.21	10.220
273.58	10.887
273.95	6.538
274.32	9.506
274.69	7.930
275.06	10.256
275.43	8.318
275.80	9.171
276.17	7.963
276.54	10.634
276.91	7.692
277.28	8.137
277.65	8.797
278.02	9.191
278.39	8.696
278.76	8.084
279.13	9.220
279.50	9.278
279.87	8.587
280.23	5.810
280.60	10.169
280.97	9.046
281.34	7.980
281.71	8.629
282.08	7.309
282.45	9.165
282.82	7.535
283.19	6.624
283.56	9.180
283.92	8.859
284.29	9.005
284.66	9.524
285.03	6.571
285.40	9.583
285.77	6.347
286.14	8.550
286.51	7.306
286.87	7.109
287.24	7.831
287.61	9.417
287.98	7.100
288.35	9.024
288.72	7.396
289.08	8.346
289.45	6.509
289.82	6.325
290.19	7.759
290.56	8.592
290.93	7.275
291.29	7.163
291.66	7.989
292.03	6.920
292.40	9.116
292.77	8.086
293.13	6.766
293.50	6.045
293.87	7.785
294.24	7.600
294.60	8.217
294.97	6.040
295.34	8.835
295.71	6.179
296.08	7.494
296.44	7.475
296.81	6.943
297.18	7.721
297.55	8.608
297.91	6.880
298.28	5.213
298.65	6.659
299.02	6.730
299.38	7.094
299.75	6.659
300.12	5.903
300.48	7.488
300.85	5.962
301.22	6.600
301.59	7.192
301.95	6.780
302.32	7.111
302.69	7.119
303.05	6.420
303.42	5.654
303.79	6.354
304.15	6.309
304.52	6.131
304.89	6.387
305.25	7.350
305.62	6.792
305.99	6.082
306.35	5.746
306.72	6.412
307.09	6.497
307.45	6.004
307.82	6.862
308.19	7.164
308.55	7.232
308.92	6.719
309.29	7.375
309.65	7.115
310.02	5.644
310.38	6.496
310.75	6.699
311.12	6.520
311.48	6.647
311.85	7.217
312.22	6.357
312.58	6.573
312.95	7.266
313.31	7.678
313.68	7.234
314.05	7.769
314.41	7.559
314.78	6.903
315.14	8.258
315.51	7.664
315.87	8.011
316.24	8.311
316.61	7.016
316.97	6.335
317.34	7.055
317.70	7.598
318.07	6.173
318.43	7.993
318.80	8.612
319.16	6.781
319.53	6.512
319.89	5.872
320.26	7.473
320.62	6.738
320.99	7.849
321.35	6.747
321.72	8.000
322.08	6.853
322.45	6.775
322.81	6.679
323.18	7.611
323.54	7.500
323.91	7.918
324.27	7.573
324.64	9.068
325.00	7.463
325.37	9.173
325.73	8.843
326.10	8.354
326.46	8.388
326.83	9.448
327.19	7.953
327.56	8.379
327.92	7.238
328.29	8.710
328.65	8.710
329.01	8.629
329.38	8.340
329.74	8.818
330.11	9.075
330.47	7.919
330.84	8.613
331.20	10.167
331.56	9.272
331.93	9.456
332.29	9.153
332.66	9.385
333.02	9.129
333.38	9.144
333.75	9.512
334.11	10.092
334.48	10.314
334.84	9.941
335.20	9.152
335.57	9.696
335.93	10.000
336.29	8.985
336.66	9.588
337.02	9.615
337.38	9.694
337.75	8.430
338.11	9.924
338.47	9.760
338.84	9.306
339.20	8.677
339.56	9.143
339.93	10.263
340.29	9.823
340.65	9.327
341.02	10.535
341.38	10.752
341.74	9.282
342.11	9.895
342.47	8.499
342.83	9.742
343.20	9.076
343.56	10.666
343.92	9.688
344.28	9.453
344.65	9.922
345.01	10.062
345.37	9.176
345.73	9.197
346.10	9.516
346.46	9.810
346.82	9.438
347.19	9.167
347.55	10.015
347.91	9.510
348.27	8.953
348.63	10.053
349.00	9.843
349.36	9.665
349.72	9.896
350.08	10.624
350.45	9.278
350.81	9.276
351.17	9.098
351.53	9.856
351.89	10.251
352.26	8.731
352.62	10.373
352.98	9.695
353.34	8.588
353.70	8.937
354.07	8.867
354.43	9.871
354.79	8.527
355.15	9.272
355.51	9.576
355.87	9.424
356.24	9.354
356.60	9.239
356.96	10.304
357.32	9.665
357.68	8.858
358.04	9.132
358.40	9.179
358.77	9.503
359.13	8.272
359.49	8.922
359.85	9.282
360.21	9.756
360.57	9.835
360.93	9.309
361.29	10.035
361.66	9.631
362.02	9.464
362.38	9.838
362.74	9.288
363.10	11.004
363.46	9.280
363.82	9.020
364.18	9.500
364.54	9.820
364.90	8.829
365.26	9.034
365.62	10.200
365.98	9.598
366.35	10.067
366.71	9.864
367.07	8.728
367.43	9.915
367.79	10.153
368.15	10.033
368.51	9.675
368.87	9.863
369.23	9.467
369.59	9.836
369.95	9.939
370.31	9.723
370.67	10.041
371.03	9.765
371.39	9.066
371.75	9.078
372.11	10.298
372.47	10.088
372.83	11.257
373.19	9.940
373.55	9.079
373.91	9.611
374.27	10.608
374.63	10.825
374.99	9.549
375.35	10.390
375.71	10.258
376.07	10.394
376.42	10.202
376.78	10.441
377.14	9.919
377.50	10.247
377.86	10.099
378.22	10.838
378.58	10.048
378.94	10.446
379.30	10.135
379.66	10.053
380.02	9.752
380.38	10.599
380.74	9.465
381.09	10.221
381.45	11.080
381.81	11.651
382.17	10.926
382.53	10.175
382.89	10.892
383.25	10.492
383.61	10.069
383.97	10.012
384.32	11.184
384.68	10.151
385.04	11.857
385.40	10.194
385.76	11.430
386.12	11.789
386.48	11.118
386.83	11.144
387.19	10.371
387.55	10.563
387.91	10.445
388.27	11.605
388.62	11.798
388.98	10.716
389.34	11.727
389.70	11.621
390.06	10.835
390.42	10.602
390.77	11.318
391.13	11.209
391.49	11.655
391.85	11.212
392.20	11.329
392.56	12.109
392.92	11.832
393.28	11.001
393.64	10.335
393.99	12.435
394.35	12.091
394.71	12.096
395.07	11.257
395.42	11.536
395.78	11.639
396.14	12.834
396.50	11.639
396.85	11.688
397.21	12.189
397.57	11.896
397.92	12.085
398.28	11.570
398.64	11.327
399.00	11.571
399.35	11.623
399.71	10.978
400.07	11.623
400.42	11.700
400.78	11.863
401.14	11.497
401.49	11.029
401.85	11.163
402.21	11.530
402.57	12.441
402.92	11.702
403.28	12.178
403.63	11.217
403.99	11.164
404.35	11.313
404.70	12.408
405.06	11.630
405.42	12.061
405.77	11.559
406.13	12.588
406.49	11.768
406.84	11.801
407.20	12.186
407.55	11.024
407.91	11.565
408.27	11.249
408.62	11.635
408.98	11.027
409.34	10.850
409.69	11.681
410.05	12.075
410.40	12.297
410.76	11.441
411.11	10.579
411.47	11.978
411.83	12.640
412.18	11.687
412.54	12.448
412.89	11.816
413.25	11.400
413.60	11.258
413.96	12.354
414.31	11.841
414.67	12.224
415.03	11.631
415.38	11.791
415.74	11.912
416.09	12.338
416.45	12.336
416.80	11.812
417.16	11.814
417.51	11.706
417.87	12.385
418.22	12.275
418.58	12.020
418.93	12.980
419.29	12.700
419.64	11.705
420.00	11.810
420.35	11.847
420.71	12.407
421.06	12.018
421.42	12.787
421.77	11.847
422.12	12.896
422.48	12.186
422.83	13.198
423.19	11.989
423.54	12.555
423.90	12.093
424.25	12.480
424.61	11.596
424.96	12.411
425.31	12.898
425.67	11.755
426.02	12.120
426.38	11.883
426.73	11.942
427.09	13.033
427.44	11.797
427.79	12.327
428.15	11.872
428.50	11.910
428.85	12.055
429.21	12.287
429.56	11.895
429.92	12.383
430.27	12.241
430.62	11.920
430.98	11.510
431.33	11.681
431.68	11.542
432.04	12.544
432.39	12.051
432.74	12.329
433.10	13.034
433.45	12.207
433.80	11.749
434.16	12.552
434.51	11.768
434.86	12.106
435.22	12.540
435.57	13.031
435.92	12.577
436.28	12.685
436.63	11.961
436.98	12.131
437.34	12.063
437.69	11.337
438.04	12.163
438.39	13.096
438.75	11.566
439.10	12.104
439.45	12.745
439.81	12.599
440.16	12.279
440.51	13.378
440.86	12.674
441.22	12.969
441.57	12.212
441.92	11.930
442.27	12.626
442.63	12.270
442.98	12.220
443.33	12.678
443.68	12.587
444.03	12.841
444.39	12.760
444.74	12.557
445.09	12.519
445.44	12.592
445.79	12.644
446.15	12.487
446.50	12.506
446.85	12.889
447.20	12.718
447.55	12.814
447.91	11.780
448.26	12.474
448.61	12.434
448.96	13.251
449.31	12.460
449.66	12.146
450.02	12.553
450.37	13.426
450.72	12.487
451.07	12.927
451.42	12.189
451.77	12.396
452.12	12.359
452.47	12.240
452.83	12.725
453.18	12.434
453.53	12.407
453.88	12.811
454.23	13.164
454.58	12.943
454.93	12.864
455.28	12.763
455.63	12.791
455.98	13.408
456.34	12.721
456.69	13.404
457.04	11.820
457.39	12.472
457.74	12.919
458.09	12.466
458.44	13.200
458.79	12.429
459.14	13.110
459.49	12.168
459.84	13.116
460.19	12.271
460.54	12.947
460.89	13.129
461.24	11.954
461.59	13.226
461.94	12.094
462.29	12.542
462.64	12.975
462.99	13.559
463.34	12.979
463.69	13.658
464.04	12.729
464.39	13.117
464.74	13.056
465.09	12.226
465.44	12.446
465.79	12.850
466.14	12.715
466.49	12.263
466.84	12.507
467.19	12.370
467.54	12.280
467.89	12.299
468.24	12.742
468.59	12.391
468.94	12.005
469.29	13.257
469.64	13.032
469.99	12.556
470.34	12.562
470.68	13.124
471.03	13.360
471.38	12.165
471.73	12.939
472.08	12.754
472.43	12.944
472.78	12.720
473.13	12.200
473.48	12.689
473.83	13.291
474.17	12.603
474.52	13.169
474.87	13.289
475.22	13.183
475.57	12.825
475.92	12.942
476.27	12.833
476.61	12.357
476.96	11.887
477.31	12.277
477.66	13.379
478.01	12.608
478.36	12.562
478.70	12.562
479.05	12.526
479.40	12.340
479.75	12.392
480.10	12.269
480.45	12.489
480.79	12.698
481.14	11.949
481.49	12.176
481.84	12.663
482.19	12.215
482.53	13.118
482.88	13.336
483.23	12.539
483.58	12.314
483.92	12.012
484.27	12.659
484.62	11.881
484.97	12.442
485.31	12.249
485.66	11.693
486.01	10.619
486.36	10.807
486.70	11.368
487.05	12.084
487.40	12.213
487.75	12.519
488.09	12.595
488.44	12.824
488.79	13.086
489.13	12.817
489.48	12.194
489.83	12.153
490.17	12.070
490.52	12.603
490.87	12.056
491.22	12.305
491.56	12.585
491.91	12.647
492.26	12.592
492.60	12.593
492.95	13.076
493.30	12.416
493.64	12.177
493.99	12.193
494.34	12.456
494.68	11.949
495.03	12.247
495.37	12.561
495.72	11.973
496.07	12.621
496.41	11.626
496.76	11.927
497.11	12.059
497.45	11.955
497.80	12.750
498.14	11.973
498.49	12.454
498.84	12.477
499.18	12.236
499.53	12.287
499.87	13.099
500.22	11.665
500.56	11.786
500.91	12.723
501.26	12.318
501.60	11.843
501.95	12.505
502.29	12.374
502.64	12.812
502.98	12.123
503.33	12.311
503.67	11.819
504.02	12.434
504.36	12.735
504.71	12.494
505.06	12.051
505.40	12.294
505.75	12.568
506.09	12.891
506.44	12.163
506.78	12.890
507.13	12.633
507.47	13.453
507.82	12.784
508.16	12.667
508.51	12.330
508.85	12.282
509.19	12.364
509.54	12.968
509.88	12.239
510.23	12.773
510.57	13.291
510.92	12.482
511.26	12.266
511.61	11.782
511.95	12.787
512.30	12.802
512.64	11.844
512.98	12.556
513.33	13.558
513.67	12.086
514.02	12.979
514.36	12.839
514.70	12.344
515.05	13.764
515.39	12.441
515.74	13.097
516.08	12.837
516.42	13.344
516.77	12.618
517.11	12.481
517.46	13.150
517.80	12.881
518.14	13.221
518.49	13.015
518.83	12.720
519.17	12.763
519.52	12.788
519.86	13.094
520.20	12.460
520.55	13.143
520.89	12.218
521.23	12.786
521.58	13.107
521.92	12.578
522.26	12.543
522.61	13.137
522.95	12.860
523.29	12.529
523.64	12.836
523.98	13.862
524.32	13.123
524.66	12.749
525.01	13.137
525.35	13.096
525.69	12.935
526.04	12.572
526.38	13.161
526.72	13.264
527.06	13.079
527.41	12.653
527.75	13.717
528.09	12.751
528.43	12.848
528.78	13.237
529.12	12.500
529.46	13.210
529.80	12.071
530.15	12.870
530.49	12.278
530.83	12.928
531.17	12.724
531.51	13.117
531.86	13.462
532.20	13.110
532.54	12.627
532.88	12.727
533.22	13.671
533.57	12.579
533.91	13.187
534.25	12.267
534.59	12.931
534.93	12.677
535.27	13.014
535.62	13.872
535.96	12.609
536.30	12.691
536.64	13.754
536.98	13.653
537.32	13.519
537.66	13.724
538.01	12.508
538.35	12.972
538.69	12.500
539.03	12.692
539.37	12.898
539.71	12.973
540.05	12.770
540.39	13.142
540.73	12.750
541.07	12.630
541.42	12.286
541.76	12.515
542.10	12.364
542.44	12.728
542.78	13.321
543.12	12.872
543.46	12.454
543.80	12.590
544.14	13.106
544.48	12.825
544.82	13.226
545.16	12.761
545.50	12.522
545.84	12.370
546.18	14.074
546.52	12.675
546.86	13.459
547.20	12.913
547.54	13.233
547.88	13.140
548.22	12.924
548.56	13.049
548.90	13.194
549.24	12.705
549.58	12.997
549.92	14.031
550.26	12.945
550.60	13.019
550.94	13.325
551.28	13.333
551.62	13.747
551.96	13.074
552.30	13.193
552.64	12.819
552.98	13.163
553.32	12.540
553.66	12.926
554.00	13.115
554.34	12.355
554.68	13.299
555.02	13.075
555.36	13.609
555.69	13.581
556.03	12.673
556.37	13.392
556.71	12.429
557.05	13.291
557.39	11.878
557.73	12.616
558.07	12.715
558.41	14.219
558.75	12.847
559.08	12.874
559.42	13.169
559.76	13.908
560.10	13.798
560.44	12.335
560.78	13.000
561.12	12.438
561.45	13.139
561.79	12.943
562.13	13.802
562.47	12.762
562.81	13.228
563.15	13.131
563.48	13.114
563.82	12.636
564.16	12.296
564.50	11.919
564.84	12.448
565.17	13.176
565.51	12.140
565.85	12.589
566.19	12.442
566.52	13.049
566.86	13.299
567.20	12.181
567.54	11.418
567.88	12.487
568.21	12.154
568.55	11.942
568.89	12.574
569.23	11.660
569.56	11.841
569.90	11.226
570.24	11.164
570.57	10.904
570.91	11.268
571.25	11.426
571.59	11.662
571.92	11.274
572.26	11.435
572.60	11.794
572.93	11.996
573.27	11.492
573.61	11.514
573.95	11.338
574.28	11.236
574.62	10.937
574.96	11.028
575.29	11.016
575.63	11.458
575.97	11.593
576.30	11.424
576.64	11.143
576.98	11.367
577.31	11.454
577.65	11.246
577.98	11.050
578.32	11.068
578.66	10.931
578.99	11.079
579.33	11.427
579.67	11.287
580.00	11.463
580.34	11.606
580.67	11.364
581.01	11.402
581.35	11.046
581.68	11.109
582.02	10.863
582.35	11.049
582.69	11.033
583.02	11.325
583.36	11.768
583.70	12.088
584.03	11.687
584.37	11.849
584.70	11.491
585.04	11.393
585.37	11.180
585.71	11.046
586.04	11.317
586.38	11.444
586.72	11.181
587.05	11.051
587.39	11.070
587.72	11.172
588.06	11.823
588.39	11.476
588.73	11.561
589.06	11.597
589.40	11.985
589.73	11.729
590.07	11.870
590.40	12.035
590.73	11.700
591.07	12.472
591.40	11.936
591.74	11.407
592.07	12.302
592.41	11.830
592.74	11.857
593.08	11.624
593.41	10.965
593.75	11.695
594.08	11.572
594.41	11.635
594.75	12.189
595.08	11.272
595.42	11.851
595.75	11.721
596.09	12.403
596.42	12.254
596.75	12.428
597.09	12.444
597.42	12.038
597.75	11.917
598.09	12.222
598.42	12.384
598.76	11.502
599.09	11.107
599.42	10.962
599.76	11.324
600.09	11.979
600.42	12.112
600.76	11.625
601.09	11.650
601.42	11.740
601.76	11.414
602.09	11.615
602.42	11.923
602.76	11.808
603.09	12.261
603.42	11.886
603.76	11.276
604.09	12.065
604.42	11.853
604.76	11.454
605.09	11.927
605.42	11.683
605.75	11.962
606.09	11.161
606.42	11.310
606.75	11.432
607.09	10.868
607.42	11.522
607.75	11.958
608.08	11.957
608.42	11.568
608.75	12.189
609.08	11.800
609.41	11.866
609.75	11.741
610.08	12.401
610.41	11.342
610.74	11.471
611.07	12.256
611.41	12.377
611.74	12.240
612.07	12.436
612.40	11.882
612.73	12.225
613.07	12.469
613.40	12.464
613.73	11.651
614.06	12.414
614.39	12.002
614.72	11.596
615.06	12.608
615.39	11.938
615.72	11.801
616.05	12.093
616.38	12.008
616.71	12.905
617.05	11.235
617.38	13.269
617.71	12.311
618.04	11.873
618.37	12.732
618.70	12.443
619.03	12.724
619.36	13.132
619.69	12.812
620.03	12.806
620.36	11.902
620.69	11.845
621.02	12.664
621.35	12.990
621.68	13.521
622.01	13.167
622.34	11.925
622.67	12.921
623.00	11.404
623.33	12.674
623.66	13.489
623.99	12.706
624.32	13.515
624.65	11.133
624.99	12.484
625.32	13.521
625.65	12.812
625.98	11.864
626.31	12.544
626.64	13.626
626.97	11.928
627.30	12.528
627.63	12.528
627.96	13.288
628.29	14.241
628.62	12.678
628.95	12.883
629.28	12.234
629.61	13.384
629.94	12.469
630.26	12.797
630.59	13.731
630.92	12.554
631.25	13.775
631.58	14.218
631.91	13.590
632.24	12.968
632.57	13.378
632.90	13.240
633.23	14.490
633.56	14.184
633.89	13.017
634.22	14.241
634.55	13.152
634.88	14.610
635.20	14.962
635.53	14.124
635.86	14.193
636.19	14.422
636.52	12.869
636.85	13.177
637.18	13.098
637.51	12.258
637.83	15.504
638.16	13.825
638.49	13.967
638.82	14.092
639.15	13.058
639.48	14.434
639.81	14.896
640.13	13.428
640.46	13.091
640.79	13.358
641.12	14.161
641.45	16.311
641.77	15.533
642.10	15.223
642.43	16.090
642.76	16.938
643.09	13.699
643.41	14.426
643.74	15.862
644.07	16.276
644.40	13.861
644.73	15.094
645.05	12.335
645.38	15.971
645.71	15.249
646.04	15.495
646.36	14.599
646.69	16.104
647.02	15.749
647.35	16.031
647.67	15.459
648.00	15.287
648.33	16.667
648.66	14.836
648.98	14.286
649.31	15.697
649.64	15.272
649.96	15.782
650.29	13.352
650.62	14.993
650.94	15.465
651.27	14.222
651.60	14.474
651.92	15.957
652.25	15.340
652.58	14.580
652.90	12.936
653.23	16.338
653.56	13.695
653.88	16.011
654.21	15.915
654.54	13.439
654.86	16.147
655.19	12.798
655.52	11.413
655.84	8.873
656.17	10.603
656.49	15.440
656.82	18.529
657.15	15.481
657.47	12.357
657.80	9.559
658.13	7.896
658.45	10.742
658.78	13.596
659.10	13.864
659.43	14.273
659.75	14.917
660.08	14.230
660.41	14.888
660.73	14.709
661.06	16.593
661.38	14.673
661.71	18.793
662.03	16.402
662.36	17.889
662.68	15.572
663.01	15.575
663.33	14.745
663.66	18.498
663.98	17.500
664.31	17.073
664.63	12.909
664.96	15.789
665.28	13.430
665.61	15.909
665.93	15.536
666.26	14.695
666.58	15.314
666.91	17.570
667.23	15.429
667.56	17.949
667.88	14.800
668.21	14.062
668.53	13.707
668.86	16.896
669.18	13.035
669.50	16.302
669.83	15.600
670.15	14.961
670.48	15.476
670.80	14.340
671.13	15.690
671.45	16.339
671.77	15.819
672.10	14.667
672.42	15.534
672.75	15.054
673.07	14.179
673.39	12.789
673.72	16.275
674.04	16.379
674.37	16.995
674.69	18.342
675.01	12.571
675.34	15.267
675.66	15.356
675.98	17.537
676.31	17.188
676.63	18.251
676.95	17.625
677.28	14.315
677.60	14.567
677.92	15.931
678.25	14.077
678.57	16.904
678.89	17.406
679.22	14.983
679.54	14.530
679.86	12.373
680.18	15.755
680.51	15.723
680.83	14.403
681.15	14.828
681.48	18.135
681.80	15.371
682.12	14.860
682.44	15.025
682.77	15.603
683.09	16.288
683.41	16.860
683.73	14.231
684.06	15.129
684.38	14.490
684.70	16.876
685.02	16.351
685.34	14.309
685.67	13.091
685.99	13.190
686.31	13.808
686.63	13.112
686.96	14.984
687.28	14.821
687.60	13.973
687.92	11.736
688.24	14.524
688.56	13.103
688.89	14.156
689.21	16.438
689.53	14.118
689.85	15.187
690.17	13.704
690.49	14.741
690.82	15.050
691.14	14.372
691.46	15.870
691.78	16.759
692.10	16.147
692.42	15.000
692.74	14.338
693.06	12.407
693.39	17.837
693.71	14.098
694.03	14.498
694.35	15.429
694.67	15.606
694.99	17.447
695.31	15.453
695.63	15.584
695.95	13.251
696.27	16.044
696.59	17.478
696.91	17.568
697.23	18.242
697.56	13.849
697.88	13.826
698.20	15.631
698.52	17.424
698.84	17.879
699.16	17.551
699.48	16.109
699.80	15.319
700.12	16.376
700.44	17.281
700.76	21.140
701.08	18.402
701.40	19.171
701.72	19.900
702.04	18.717
702.36	14.398
702.68	17.604
703.00	16.381
703.32	15.025
703.64	17.115
703.96	15.990
704.28	14.988
704.60	17.722
704.91	17.092
705.23	15.890
705.55	20.613
705.87	20.000
706.19	15.951
706.51	17.771
706.83	16.715
707.15	13.757
707.47	15.888
707.79	14.410
708.11	14.619
708.43	13.333
708.74	13.616
709.06	13.921
709.38	18.075
709.70	19.107
710.02	14.729
710.34	17.819
710.66	15.084
710.98	15.027
711.29	14.286
711.61	15.254
711.93	16.239
712.25	16.757
712.57	17.109
712.89	19.118
713.20	16.568
713.52	19.942
713.84	18.106
714.16	16.842
714.48	16.237
714.80	18.182
715.11	15.748
715.43	17.772
715.75	17.368
716.07	15.746
716.39	19.126
716.70	15.663
717.02	14.426
717.34	13.937
717.66	19.128
717.97	17.466
718.29	17.182
718.61	21.382
718.93	15.858
719.24	20.807
719.56	17.485
719.88	18.619
720.20	18.387
720.51	16.770
720.83	18.750
721.15	17.763
721.46	16.096
721.78	18.000
722.10	16.828
722.42	14.094
722.73	18.387
723.05	19.298
723.37	20.139
723.68	17.563
724.00	16.968
724.32	17.606
724.63	15.035
724.95	19.149
725.27	19.512
725.58	15.548
725.90	21.379
726.22	15.987
726.53	18.506
726.85	17.296
727.16	16.616
727.48	19.572
727.80	16.225
728.11	15.548
728.43	17.845
728.74	17.726
729.06	19.205
729.38	18.506
729.69	17.114
730.01	15.476
730.32	15.758
730.64	17.296
730.96	14.907
731.27	19.274
731.59	15.110
731.90	17.143
732.22	14.583
732.53	16.298
732.85	18.286
733.16	14.663
733.48	15.854
733.80	15.042
734.11	16.809
734.43	17.568
734.74	18.734
735.06	16.080
735.37	15.405
735.69	17.568
736.00	15.537
736.32	18.598
736.63	17.500
736.95	16.954
737.26	16.061
737.58	16.364
737.89	17.353
738.21	15.902
738.52	15.410
738.83	18.089
739.15	17.376
739.46	14.966
739.78	17.485
740.09	14.040
740.41	19.242
740.72	16.000
741.04	18.770
741.35	20.351
741.66	24.314
741.98	18.852
742.29	20.502
742.61	24.561
742.92	18.846
743.23	19.856
743.55	17.829
743.86	19.600
744.18	17.769
744.49	19.409
744.80	23.045
745.12	20.253
745.43	21.951
745.74	17.241
746.06	19.915
746.37	20.675
746.68	25.203
747.00	15.833
747.31	19.742
747.62	24.615
747.94	18.219
748.25	19.679
748.56	17.959
748.88	21.368
749.19	25.000
749.50	15.584
749.82	20.482
750.13	22.420
750.44	18.333
750.75	16.000
751.07	19.077
751.38	16.404
751.69	16.613
752.01	12.621
752.32	18.627
752.63	20.408
752.94	20.069
753.26	16.729
753.57	13.704
753.88	19.476
754.19	18.328
754.51	16.399
754.82	16.720
755.13	18.689
755.44	18.089
755.75	14.803
756.07	20.896
756.38	16.352
756.69	18.675
757.00	16.343
757.31	15.574
757.63	17.136
757.94	15.023
758.25	16.704
758.56	17.211
758.87	16.818
759.18	18.667
759.50	18.980
759.81	19.328
760.12	17.520
760.43	15.365
760.74	16.502
761.05	17.000
761.36	14.458
761.67	14.721
761.99	14.324
762.30	18.293
762.61	15.182
762.92	21.642
763.23	16.105
763.54	18.345
763.85	17.526
764.16	17.845
764.47	18.662
764.78	16.294
765.10	16.129
765.41	17.949
765.72	16.138
766.03	18.079
766.34	17.555
766.65	13.937
766.96	22.311
767.27	18.894
767.58	17.413
767.89	23.558
768.20	22.535
768.51	22.685
768.82	22.088
769.13	16.667
769.44	15.000
769.75	19.495
770.06	18.077
770.37	24.803
770.68	16.170
770.99	13.360
771.30	23.704
771.61	17.871
771.92	14.815
772.23	21.862
772.54	13.426
772.85	26.728
773.16	21.905
773.47	14.815
773.78	14.054
774.09	18.182
774.39	27.500
774.70	29.508
775.01	25.000
775.32	17.059
775.63	23.313
775.94	21.019
776.25	28.387
776.56	30.769
776.87	29.252
777.18	18.621
777.48	20.979
777.79	22.297
778.10	21.324
778.41	27.778
778.72	20.690
779.03	21.605
779.34	26.061
779.65	20.725
779.95	25.556
780.26	20.455
780.57	25.161
780.88	26.812
781.19	30.968
781.50	25.294
781.80	19.892
782.11	24.339
782.42	19.192
782.73	15.569
783.04	25.140
783.34	27.273
783.65	16.993
783.96	24.224
784.27	24.405
784.57	22.517
784.88	30.714
785.19	23.622
785.50	24.409
785.81	24.060
786.11	33.846
786.42	20.144
786.73	21.583
787.04	36.842
787.34	26.230
787.65	25.600
787.96	26.119
788.26	24.476
788.57	25.175
788.88	19.079
789.19	24.837
789.49	24.658
789.80	31.206
790.11	29.134
790.41	25.000
790.72	24.576
791.03	18.447
791.33	23.478
791.64	28.947
791.95	24.107
792.25	29.524
792.56	26.786
792.87	35.417
793.17	30.357
793.48	34.375
793.79	16.867
794.09	27.523
794.40	30.275
794.70	26.531
795.01	22.078
795.32	21.233
795.62	19.718
795.93	19.697
796.23	35.246
796.54	20.536
796.85	25.532
797.15	38.043
797.46	27.397
797.76	28.750
798.07	35.870
798.37	22.680
798.68	24.675
798.99	42.529
799.29	33.708
799.60	32.979
799.90	40.964
800.21	32.308
800.51	17.910
800.82	26.471
801.12	30.137
801.43	33.824
801.73	18.644
802.04	40.909
802.34	41.667
802.65	50.847
802.95	47.761
803.26	32.203
803.56	28.767
803.87	45.714
804.17	43.836
804.48	15.789
804.78	27.778
805.09	27.586
805.39	41.892
805.70	33.803
806.00	32.927
806.30	26.506
806.61	23.288
806.91	40.385
807.22	31.111
807.52	26.437
807.83	45.833
808.13	27.711
808.43	35.955
808.74	32.500
809.04	27.941
809.35	44.000
809.65	34.286
809.95	50.685
810.26	26.316
810.56	44.828
810.86	38.235
811.17	36.842
811.47	45.902
811.77	33.333
812.08	32.203
812.38	41.667
812.69	46.552
812.99	41.509
813.29	17.949
813.59	48.000
813.90	43.860
814.20	38.182
814.50	46.479
814.81	30.769
815.11	39.344
815.41	32.836
815.72	37.931
816.02	50.000
816.32	75.556
816.62	50.000
816.93	62.222
817.23	55.556
817.53	59.574
817.84	76.190
818.14	55.882
818.44	55.102
818.74	60.000
819.04	51.282
819.35	62.857
819.65	50.000
819.95	58.491
820.25	62.222
820.56	38.095
820.86	65.625
821.16	43.590
821.46	46.512
821.76	16.000
822.07	51.786
822.37	43.478
822.67	55.319
822.97	24.324
823.27	42.500
823.57	71.429
823.88	64.444
824.18	77.500
824.48	63.333
824.78	60.000
825.08	106.061
825.38	57.778
825.69	40.426
825.99	91.667
826.29	57.143
826.59	56.410
826.89	41.860
827.19	56.000
827.49	100.000
827.79	58.333
828.09	21.622
828.39	40.000
828.70	41.463
829.00	34.884
829.30	46.429
829.60	79.412
829.90	58.696
830.20	65.714
830.50	37.931
830.80	111.111
831.10	57.692
831.40	91.176
831.70	100.000
832.00	90.323
832.30	64.706
832.60	54.167
832.90	115.385
833.20	84.211
833.50	50.000
833.80	100.000
834.10	23.810
834.40	61.111
834.70	90.625
835.00	20.000
835.30	50.000
835.60	60.000
835.90	84.000
836.20	54.545
836.50	92.000
836.80	36.364
837.10	55.556
837.40	85.185
837.70	50.000
838.00	50.000
838.30	65.217
838.60	75.862
838.90	114.286
839.19	26.087
839.49	116.667
839.79	73.913
840.09	112.500
840.39	75.000
840.69	109.677
840.99	67.857
841.29	160.000
841.59	115.789
841.88	66.667
842.18	69.231
842.48	170.000
842.78	140.000
843.08	66.667
843.38	58.065
843.68	105.556
843.97	73.529
844.27	125.000
844.57	57.895
844.87	100.000
845.17	86.667
845.47	128.571
845.76	100.000
846.06	211.111
846.36	176.471
846.66	84.615
846.96	86.667
847.25	94.118
847.55	121.739
847.85	50.000
848.15	82.353
848.44	227.273
848.74	71.429
849.04	104.167
849.34	118.750
849.63	91.304
849.93	-900.000
850.23	126.667
850.53	57.692
850.82	181.818
851.12	109.091
851.42	154.545
851.71	215.385
852.01	125.000
852.31	161.538
852.61	110.526
852.90	133.333
853.20	94.444
853.50	144.444
853.79	38.095
854.09	100.000
854.39	116.667
854.68	64.516
854.98	42.308
855.28	133.333
855.57	64.286
855.87	76.000
856.17	109.091
856.46	66.667
856.76	100.000
857.05	65.217
857.35	104.167
857.65	100.000
857.94	85.714
858.24	85.185
858.53	104.348
858.83	123.529
859.13	70.588
859.42	105.882
859.72	121.429
860.01	150.000
860.31	233.333
860.60	140.000
860.90	133.333
861.20	77.778
861.49	169.231
861.79	60.000
862.08	92.308
862.38	81.250
862.67	188.235
862.97	143.750
863.26	188.889
863.56	260.000
863.85	118.182
864.15	138.889
864.44	500.000
864.74	100.000
865.03	106.250
865.33	100.000
865.62	58.065
865.92	131.818
866.21	47.826
866.51	121.429
866.80	280.000
867.10	100.000
867.39	141.667
867.69	-700.000
867.98	300.000
868.27	111.765
868.57	1000.000
868.86	130.000
869.16	114.286
869.45	104.167
869.75	181.818
870.04	157.143
870.33	191.667
870.63	142.857
870.92	375.000
871.22	37.500
871.51	63.636
871.80	166.667
872.10	750.000
>>>>>End Processed Spectral Data<<<<<
