SpectraSuite Data File
++++++++++++++++++++++++++++++++++++
Date: Thu May 14 14:30:06 PDT 2015
User: schluterlab
Dark Spectrum Present: Yes
Reference Spectrum Present: Yes
Number of Sampled Component Spectra: 1
Spectrometers: USB2E3373
Integration Time (usec): 3000 (USB2E3373)
Spectra Averaged: 3 (USB2E3373)
Boxcar Smoothing: 0 (USB2E3373)
Correct for Electrical Dark: No (USB2E3373)
Strobe/Lamp Enabled: No (USB2E3373)
Correct for Detector Non-linearity: No (USB2E3373)
Correct for Stray Light: No (USB2E3373)
Number of Pixels in Processed Spectrum: 2048
>>>>>Begin Processed Spectral Data<<<<<
178.53	0.000
178.91	-128.571
179.29	900.000
179.67	2100.000
180.04	7.143
180.42	-150.000
180.80	-320.000
181.18	600.000
181.56	2300.000
181.94	-375.000
182.31	475.000
182.69	-533.333
183.07	850.000
183.45	-425.000
183.83	316.667
184.20	500.000
184.58	-500.000
184.96	125.000
185.34	133.333
185.72	400.000
186.09	-33.333
186.47	-400.000
186.85	-220.000
187.23	100.000
187.61	700.000
187.98	-260.000
188.36	-300.000
188.74	425.000
189.12	300.000
189.49	162.500
189.87	312.500
190.25	244.444
190.63	460.000
191.00	122.222
191.38	0.000
191.76	400.000
192.14	166.667
192.51	-900.000
192.89	283.333
193.27	0.000
193.65	300.000
194.02	500.000
194.40	185.714
194.78	-100.000
195.15	0.000
195.53	181.818
195.91	0.000
196.29	525.000
196.66	115.385
197.04	0.000
197.42	128.571
197.79	650.000
198.17	237.500
198.55	171.429
198.92	233.333
199.30	212.500
199.68	227.273
200.05	107.143
200.43	250.000
200.81	-0.000
201.18	0.000
201.56	-44.444
201.94	0.000
202.31	-500.000
202.69	133.333
203.07	-1200.000
203.44	155.556
203.82	675.000
204.19	158.333
204.57	166.667
204.95	350.000
205.32	1200.000
205.70	-475.000
206.08	116.667
206.45	233.333
206.83	-340.000
207.20	183.333
207.58	120.000
207.96	216.667
208.33	333.333
208.71	-108.333
209.08	316.667
209.46	0.000
209.84	-150.000
210.21	-800.000
210.59	-600.000
210.96	-300.000
211.34	350.000
211.71	125.000
212.09	900.000
212.46	0.000
212.84	-0.000
213.22	180.000
213.59	125.000
213.97	110.000
214.34	333.333
214.72	-100.000
215.09	300.000
215.47	0.000
215.84	-200.000
216.22	-200.000
216.59	300.000
216.97	280.000
217.34	350.000
217.72	175.000
218.09	250.000
218.47	450.000
218.84	0.000
219.22	-240.000
219.59	117.647
219.97	90.000
220.34	-300.000
220.72	100.000
221.09	123.077
221.47	633.333
221.84	250.000
222.22	242.857
222.59	0.000
222.97	225.000
223.34	100.000
223.72	0.000
224.09	350.000
224.46	150.000
224.84	300.000
225.21	285.714
225.59	350.000
225.96	300.000
226.34	73.077
226.71	-350.000
227.08	650.000
227.46	113.333
227.83	425.000
228.21	115.789
228.58	-100.000
228.95	-200.000
229.33	183.333
229.70	240.000
230.08	142.105
230.45	-140.000
230.82	400.000
231.20	128.571
231.57	166.667
231.95	118.182
232.32	163.636
232.69	60.000
233.07	275.000
233.44	82.353
233.81	170.000
234.19	127.778
234.56	77.273
234.93	93.103
235.31	100.000
235.68	94.444
236.05	60.000
236.43	100.000
236.80	124.000
237.17	88.889
237.55	66.667
237.92	160.000
238.29	45.161
238.67	25.000
239.04	69.444
239.41	50.000
239.79	52.174
240.16	55.556
240.53	39.130
240.91	35.294
241.28	39.344
241.65	52.239
242.02	33.784
242.40	47.692
242.77	36.000
243.14	25.610
243.51	35.526
243.89	26.923
244.26	34.653
244.63	29.412
245.00	45.794
245.38	32.456
245.75	17.699
246.12	32.540
246.49	29.457
246.87	25.000
247.24	23.179
247.61	23.684
247.98	29.530
248.36	27.778
248.73	14.110
249.10	18.033
249.47	24.876
249.84	31.937
250.22	24.352
250.59	23.889
250.96	33.636
251.33	19.388
251.70	25.214
252.08	24.167
252.45	25.820
252.82	25.207
253.19	19.922
253.56	23.954
253.94	20.385
254.31	22.348
254.68	22.028
255.05	26.710
255.42	22.449
255.79	17.799
256.16	18.874
256.54	17.881
256.91	19.672
257.28	21.311
257.65	20.701
258.02	19.469
258.39	19.373
258.76	21.713
259.14	22.126
259.51	21.614
259.88	17.847
260.25	20.833
260.62	22.740
260.99	23.497
261.36	21.984
261.73	20.955
262.10	17.582
262.47	20.643
262.85	23.990
263.22	21.818
263.59	20.000
263.96	16.624
264.33	15.601
264.70	20.988
265.07	21.002
265.44	21.315
265.81	20.833
266.18	20.635
266.55	18.080
266.92	17.768
267.29	22.976
267.66	20.621
268.03	20.742
268.40	21.086
268.77	16.856
269.14	20.044
269.51	18.421
269.88	18.238
270.25	19.718
270.62	20.464
270.99	20.808
271.36	18.614
271.73	18.075
272.10	20.842
272.47	22.044
272.84	18.474
273.21	19.238
273.58	17.742
273.95	17.885
274.32	17.871
274.69	18.569
275.06	19.048
275.43	17.560
275.80	19.577
276.17	18.148
276.54	19.030
276.91	17.531
277.28	18.987
277.65	20.108
278.02	18.199
278.39	17.572
278.76	18.629
279.13	18.617
279.50	19.244
279.87	19.857
280.23	16.725
280.60	18.305
280.97	18.914
281.34	15.959
281.71	19.289
282.08	16.944
282.45	16.858
282.82	18.053
283.19	15.509
283.56	15.902
283.92	18.018
284.29	18.325
284.66	18.062
285.03	15.545
285.40	19.011
285.77	17.647
286.14	18.321
286.51	17.504
286.87	16.904
287.24	17.922
287.61	17.489
287.98	16.918
288.35	16.716
288.72	15.680
289.08	18.741
289.45	16.124
289.82	16.566
290.19	18.103
290.56	17.183
290.93	16.976
291.29	15.840
291.66	15.565
292.03	15.197
292.40	17.143
292.77	17.251
293.13	16.644
293.50	15.375
293.87	14.631
294.24	17.333
294.60	16.814
294.97	16.242
295.34	17.926
295.71	15.637
296.08	16.279
296.44	16.176
296.81	15.834
297.18	14.570
297.55	14.976
297.91	15.302
298.28	14.218
298.65	16.885
299.02	14.522
299.38	15.103
299.75	16.121
300.12	14.352
300.48	14.747
300.85	17.098
301.22	16.555
301.59	15.183
301.95	14.576
302.32	15.889
302.69	13.910
303.05	15.887
303.42	15.410
303.79	14.375
304.15	16.193
304.52	14.271
304.89	14.869
305.25	16.356
305.62	15.152
305.99	16.701
306.35	15.524
306.72	16.339
307.09	15.736
307.45	15.010
307.82	17.255
308.19	15.641
308.55	14.368
308.92	16.164
309.29	15.517
309.65	15.887
310.02	16.634
310.38	15.453
310.75	16.019
311.12	17.066
311.48	15.836
311.85	15.670
312.22	16.224
312.58	15.775
312.95	15.870
313.31	16.170
313.68	16.300
314.05	17.073
314.41	17.304
314.78	15.985
315.14	17.786
315.51	17.452
315.87	17.372
316.24	16.895
316.61	17.762
316.97	17.376
317.34	17.725
317.70	17.467
318.07	19.400
318.43	17.687
318.80	19.649
319.16	18.026
319.53	18.252
319.89	17.090
320.26	18.772
320.62	18.440
320.99	20.129
321.35	19.409
321.72	20.744
322.08	19.026
322.45	18.970
322.81	20.668
323.18	19.735
323.54	20.431
323.91	20.374
324.27	20.310
324.64	21.662
325.00	19.486
325.37	20.311
325.73	21.488
326.10	22.384
326.46	21.987
326.83	23.779
327.19	22.598
327.56	22.846
327.92	23.761
328.29	24.113
328.65	23.116
329.01	24.788
329.38	26.116
329.74	25.685
330.11	26.541
330.47	25.864
330.84	26.270
331.20	27.167
331.56	27.903
331.93	26.946
332.29	27.881
332.66	27.824
333.02	28.308
333.38	28.020
333.75	27.778
334.11	28.774
334.48	27.888
334.84	29.057
335.20	27.960
335.57	28.499
335.93	29.504
336.29	29.035
336.66	29.605
337.02	29.431
337.38	28.997
337.75	28.595
338.11	29.016
338.47	29.611
338.84	28.426
339.20	28.475
339.56	29.901
339.93	29.392
340.29	29.388
340.65	29.035
341.02	29.529
341.38	29.345
341.74	28.571
342.11	29.847
342.47	28.435
342.83	29.952
343.20	29.027
343.56	28.869
343.92	29.544
344.28	28.984
344.65	28.372
345.01	28.861
345.37	28.927
345.73	27.903
346.10	28.861
346.46	28.718
346.82	28.689
347.19	29.030
347.55	28.225
347.91	28.603
348.27	27.769
348.63	29.018
349.00	27.740
349.36	28.104
349.72	28.497
350.08	28.455
350.45	27.909
350.81	27.376
351.17	28.722
351.53	27.293
351.89	29.309
352.26	27.090
352.62	27.836
352.98	27.863
353.34	27.558
353.70	28.274
354.07	28.167
354.43	28.094
354.79	27.599
355.15	27.373
355.51	27.997
355.87	27.076
356.24	28.213
356.60	27.642
356.96	27.502
357.32	27.286
357.68	27.745
358.04	26.647
358.40	28.134
358.77	28.216
359.13	27.105
359.49	26.691
359.85	26.396
360.21	27.905
360.57	26.920
360.93	27.715
361.29	27.228
361.66	27.082
362.02	27.557
362.38	27.758
362.74	27.374
363.10	27.854
363.46	27.562
363.82	26.776
364.18	27.234
364.54	27.248
364.90	27.559
365.26	26.897
365.62	27.867
365.98	27.502
366.35	27.181
366.71	28.163
367.07	27.402
367.43	26.921
367.79	28.069
368.15	27.625
368.51	27.740
368.87	27.433
369.23	27.133
369.59	26.913
369.95	27.045
370.31	28.292
370.67	28.129
371.03	26.939
371.39	26.662
371.75	26.960
372.11	27.575
372.47	28.233
372.83	27.618
373.19	27.151
373.55	27.439
373.91	27.335
374.27	26.585
374.63	26.928
374.99	26.790
375.35	29.091
375.71	28.129
376.07	27.631
376.42	27.771
376.78	28.216
377.14	27.137
377.50	27.324
377.86	28.695
378.22	28.323
378.58	28.537
378.94	28.756
379.30	28.002
379.66	28.160
380.02	28.159
380.38	27.823
380.74	27.775
381.09	27.991
381.45	28.352
381.81	29.215
382.17	28.444
382.53	26.667
382.89	28.160
383.25	27.315
383.61	27.662
383.97	28.740
384.32	28.648
384.68	28.190
385.04	29.150
385.40	29.110
385.76	28.898
386.12	28.306
386.48	28.000
386.83	28.010
387.19	27.694
387.55	27.876
387.91	28.196
388.27	28.695
388.62	28.408
388.98	27.862
389.34	28.108
389.70	27.949
390.06	28.715
390.42	28.614
390.77	29.440
391.13	28.462
391.49	28.382
391.85	28.121
392.20	28.173
392.56	28.352
392.92	27.481
393.28	28.413
393.64	27.989
393.99	28.879
394.35	27.687
394.71	28.862
395.07	27.485
395.42	27.356
395.78	30.530
396.14	28.223
396.50	27.494
396.85	27.788
397.21	28.166
397.57	28.327
397.92	28.637
398.28	27.159
398.64	28.375
399.00	26.597
399.35	26.963
399.71	26.957
400.07	27.681
400.42	27.125
400.78	27.488
401.14	27.262
401.49	27.175
401.85	27.733
402.21	28.447
402.57	26.643
402.92	27.482
403.28	26.347
403.63	26.372
403.99	26.188
404.35	26.833
404.70	26.516
405.06	25.707
405.42	27.108
405.77	26.772
406.13	26.418
406.49	26.577
406.84	27.036
407.20	26.775
407.55	25.197
407.91	25.519
408.27	27.150
408.62	26.003
408.98	26.407
409.34	25.044
409.69	26.514
410.05	25.967
410.40	26.566
410.76	25.407
411.11	26.184
411.47	25.860
411.83	26.631
412.18	26.747
412.54	26.497
412.89	26.950
413.25	25.734
413.60	25.330
413.96	26.166
414.31	25.382
414.67	25.164
415.03	25.108
415.38	26.040
415.74	26.451
416.09	26.589
416.45	25.423
416.80	24.908
417.16	26.437
417.51	26.899
417.87	26.242
418.22	26.347
418.58	26.456
418.93	25.146
419.29	26.695
419.64	25.570
420.00	25.223
420.35	26.053
420.71	26.134
421.06	25.532
421.42	25.688
421.77	25.740
422.12	25.740
422.48	26.011
422.83	26.506
423.19	26.897
423.54	27.268
423.90	25.897
424.25	26.933
424.61	26.636
424.96	26.744
425.31	27.654
425.67	27.590
426.02	27.393
426.38	28.243
426.73	26.953
427.09	28.835
427.44	27.307
427.79	27.640
428.15	27.340
428.50	27.247
428.85	28.014
429.21	28.723
429.56	27.345
429.92	27.518
430.27	27.373
430.62	27.943
430.98	27.791
431.33	27.810
431.68	27.251
432.04	28.339
432.39	28.066
432.74	29.053
433.10	29.151
433.45	28.038
433.80	29.292
434.16	28.202
434.51	29.445
434.86	28.882
435.22	29.118
435.57	30.837
435.92	29.048
436.28	29.750
436.63	30.202
436.98	29.683
437.34	29.256
437.69	29.279
438.04	30.407
438.39	29.983
438.75	29.607
439.10	31.765
439.45	30.017
439.81	30.508
440.16	30.509
440.51	30.769
440.86	30.573
441.22	31.190
441.57	31.447
441.92	31.280
442.27	30.859
442.63	31.098
442.98	32.337
443.33	31.668
443.68	32.012
444.03	32.079
444.39	32.594
444.74	32.108
445.09	31.931
445.44	31.665
445.79	31.992
446.15	32.220
446.50	31.886
446.85	31.663
447.20	32.302
447.55	32.479
447.91	32.461
448.26	32.611
448.61	32.147
448.96	34.120
449.31	32.715
449.66	32.081
450.02	33.070
450.37	33.351
450.72	33.692
451.07	34.226
451.42	34.027
451.77	33.574
452.12	33.409
452.47	32.858
452.83	34.741
453.18	33.625
453.53	33.659
453.88	33.352
454.23	33.277
454.58	34.068
454.93	34.405
455.28	34.016
455.63	33.883
455.98	34.804
456.34	33.863
456.69	33.216
457.04	34.574
457.39	35.255
457.74	35.291
458.09	33.333
458.44	34.968
458.79	34.244
459.14	33.928
459.49	34.465
459.84	34.890
460.19	34.425
460.54	35.662
460.89	35.839
461.24	35.345
461.59	34.920
461.94	33.485
462.29	35.554
462.64	35.003
462.99	34.589
463.34	36.145
463.69	35.053
464.04	35.742
464.39	35.090
464.74	35.234
465.09	36.390
465.44	34.925
465.79	34.955
466.14	35.227
466.49	34.105
466.84	34.986
467.19	35.376
467.54	34.959
467.89	35.057
468.24	35.291
468.59	34.627
468.94	35.315
469.29	35.453
469.64	36.046
469.99	35.819
470.34	36.324
470.68	37.389
471.03	36.149
471.38	36.560
471.73	36.801
472.08	36.739
472.43	36.905
472.78	36.398
473.13	36.283
473.48	36.918
473.83	36.448
474.17	36.049
474.52	37.462
474.87	37.431
475.22	37.239
475.57	36.760
475.92	37.083
476.27	36.688
476.61	36.189
476.96	36.601
477.31	36.535
477.66	38.143
478.01	37.062
478.36	35.842
478.70	37.635
479.05	37.219
479.40	37.562
479.75	37.416
480.10	37.707
480.45	37.101
480.79	37.596
481.14	36.443
481.49	36.938
481.84	37.903
482.19	37.118
482.53	38.303
482.88	38.104
483.23	37.884
483.58	38.166
483.92	37.411
484.27	37.426
484.62	36.757
484.97	37.286
485.31	36.607
485.66	35.944
486.01	35.217
486.36	34.808
486.70	34.971
487.05	35.816
487.40	36.522
487.75	36.997
488.09	38.011
488.44	37.824
488.79	38.449
489.13	38.088
489.48	37.282
489.83	37.787
490.17	37.343
490.52	37.808
490.87	38.536
491.22	38.432
491.56	37.543
491.91	38.160
492.26	38.598
492.60	37.866
492.95	38.394
493.30	39.041
493.64	37.976
493.99	38.509
494.34	38.415
494.68	38.073
495.03	38.590
495.37	37.905
495.72	38.639
496.07	38.826
496.41	37.967
496.76	39.033
497.11	38.896
497.45	38.498
497.80	38.872
498.14	38.503
498.49	38.051
498.84	38.848
499.18	39.271
499.53	39.462
499.87	39.736
500.22	38.023
500.56	38.057
500.91	39.497
501.26	39.545
501.60	38.710
501.95	38.428
502.29	39.535
502.64	38.697
502.98	38.309
503.33	38.704
503.67	38.509
504.02	38.529
504.36	39.723
504.71	39.550
505.06	39.063
505.40	39.122
505.75	39.299
506.09	39.871
506.44	40.204
506.78	39.404
507.13	39.604
507.47	39.792
507.82	40.104
508.16	39.627
508.51	39.569
508.85	40.104
509.19	39.792
509.54	40.490
509.88	39.679
510.23	40.797
510.57	40.406
510.92	40.397
511.26	40.548
511.61	39.305
511.95	39.922
512.30	39.833
512.64	39.380
512.98	40.720
513.33	40.474
513.67	40.999
514.02	41.134
514.36	41.637
514.70	40.938
515.05	40.928
515.39	40.262
515.74	41.729
516.08	40.729
516.42	42.072
516.77	41.956
517.11	40.897
517.46	41.410
517.80	41.689
518.14	41.948
518.49	42.082
518.83	41.192
519.17	41.734
519.52	41.300
519.86	41.235
520.20	41.480
520.55	41.019
520.89	41.779
521.23	42.267
521.58	42.768
521.92	42.946
522.26	41.352
522.61	42.477
522.95	41.696
523.29	41.092
523.64	41.368
523.98	43.240
524.32	42.693
524.66	42.914
525.01	41.563
525.35	41.987
525.69	41.241
526.04	41.734
526.38	41.552
526.72	41.465
527.06	42.405
527.41	42.216
527.75	42.518
528.09	42.267
528.43	42.392
528.78	42.081
529.12	42.144
529.46	41.372
529.80	41.705
530.15	42.783
530.49	42.349
530.83	42.680
531.17	43.070
531.51	41.817
531.86	43.029
532.20	42.988
532.54	41.233
532.88	42.606
533.22	42.074
533.57	42.008
533.91	41.751
534.25	40.984
534.59	41.379
534.93	41.596
535.27	41.972
535.62	41.956
535.96	42.475
536.30	41.187
536.64	43.003
536.98	42.251
537.32	41.728
537.66	43.169
538.01	41.934
538.35	41.108
538.69	41.647
539.03	42.735
539.37	41.696
539.71	41.562
540.05	41.367
540.39	41.932
540.73	41.530
541.07	41.999
541.42	41.288
541.76	40.807
542.10	42.702
542.44	41.961
542.78	42.153
543.12	40.524
543.46	41.392
543.80	40.767
544.14	41.831
544.48	42.671
544.82	42.130
545.16	41.324
545.50	40.503
545.84	42.009
546.18	42.222
546.52	42.293
546.86	41.698
547.20	43.257
547.54	41.823
547.88	41.290
548.22	41.930
548.56	40.609
548.90	42.149
549.24	41.398
549.58	42.208
549.92	43.750
550.26	43.172
550.60	41.225
550.94	41.721
551.28	41.782
551.62	42.385
551.96	41.877
552.30	41.938
552.64	40.448
552.98	43.044
553.32	43.473
553.66	41.415
554.00	40.605
554.34	41.763
554.68	40.930
555.02	41.327
555.36	42.932
555.69	40.551
556.03	41.866
556.37	42.553
556.71	42.486
557.05	42.109
557.39	42.004
557.73	41.678
558.07	41.722
558.41	42.392
558.75	42.461
559.08	43.215
559.42	41.495
559.76	41.791
560.10	42.063
560.44	42.414
560.78	42.000
561.12	41.195
561.45	42.822
561.79	41.758
562.13	41.713
562.47	40.691
562.81	41.076
563.15	42.424
563.48	41.516
563.82	41.596
564.16	41.672
564.50	41.061
564.84	41.298
565.17	42.059
565.51	40.852
565.85	41.152
566.19	42.166
566.52	41.486
566.86	41.539
567.20	40.022
567.54	41.158
567.88	41.845
568.21	41.700
568.55	40.815
568.89	40.672
569.23	40.431
569.56	39.273
569.90	38.525
570.24	38.583
570.57	38.679
570.91	37.783
571.25	37.865
571.59	38.686
571.92	37.846
572.26	37.983
572.60	37.838
572.93	38.185
573.27	37.960
573.61	37.983
573.95	37.825
574.28	37.328
574.62	36.744
574.96	37.539
575.29	36.770
575.63	37.076
575.97	37.701
576.30	37.010
576.64	37.342
576.98	37.403
577.31	37.451
577.65	37.619
577.98	36.860
578.32	36.900
578.66	36.789
578.99	37.252
579.33	37.706
579.67	36.718
580.00	37.289
580.34	37.369
580.67	37.136
581.01	37.581
581.35	36.626
581.68	36.806
582.02	36.596
582.35	37.142
582.69	36.914
583.02	36.946
583.36	37.400
583.70	38.196
584.03	38.373
584.37	38.682
584.70	38.411
585.04	37.456
585.37	37.914
585.71	37.389
586.04	37.252
586.38	37.465
586.72	37.603
587.05	37.682
587.39	37.921
587.72	37.632
588.06	38.080
588.39	38.437
588.73	37.672
589.06	39.080
589.40	39.459
589.73	39.653
590.07	39.622
590.40	39.520
590.73	39.767
591.07	40.357
591.40	39.075
591.74	38.871
592.07	39.992
592.41	38.998
592.74	38.410
593.08	39.522
593.41	38.495
593.75	38.448
594.08	38.625
594.41	39.199
594.75	38.525
595.08	38.425
595.42	39.123
595.75	38.198
596.09	39.343
596.42	39.771
596.75	40.139
597.09	40.808
597.42	39.809
597.75	39.788
598.09	39.286
598.42	39.123
598.76	38.708
599.09	37.878
599.42	37.311
599.76	38.296
600.09	38.305
600.42	38.505
600.76	38.507
601.09	38.201
601.42	38.586
601.76	39.310
602.09	39.492
602.42	38.677
602.76	39.668
603.09	39.317
603.42	39.993
603.76	39.112
604.09	39.744
604.42	39.303
604.76	39.460
605.09	39.410
605.42	39.394
605.75	38.923
606.09	38.820
606.42	38.563
606.75	38.831
607.09	38.134
607.42	39.114
607.75	39.390
608.08	39.345
608.42	38.815
608.75	38.640
609.08	37.182
609.41	39.832
609.75	38.973
610.08	39.402
610.41	39.040
610.74	39.412
611.07	39.121
611.41	39.013
611.74	39.630
612.07	39.317
612.40	40.209
612.73	39.902
613.07	39.120
613.40	40.520
613.73	38.902
614.06	39.254
614.39	39.164
614.72	39.204
615.06	38.691
615.39	39.294
615.72	39.810
616.05	39.242
616.38	40.969
616.71	40.073
617.05	39.350
617.38	39.914
617.71	40.119
618.04	40.421
618.37	40.219
618.70	40.271
619.03	40.323
619.36	40.875
619.69	39.974
620.03	40.741
620.36	40.184
620.69	40.284
621.02	41.798
621.35	41.800
621.68	43.312
622.01	41.139
622.34	41.423
622.67	40.619
623.00	38.799
623.33	40.146
623.66	40.272
623.99	40.816
624.32	41.845
624.65	39.382
624.99	41.287
625.32	40.954
625.65	40.998
625.98	39.932
626.31	40.680
626.64	42.271
626.97	40.885
627.30	40.395
627.63	41.485
627.96	41.291
628.29	41.245
628.62	42.653
628.95	42.857
629.28	42.906
629.61	41.330
629.94	40.669
630.26	40.847
630.59	42.314
630.92	41.212
631.25	43.739
631.58	43.691
631.91	42.549
632.24	44.188
632.57	41.176
632.90	42.427
633.23	43.163
633.56	42.347
633.89	43.388
634.22	42.516
634.55	43.424
634.88	42.316
635.20	43.488
635.53	43.729
635.86	42.795
636.19	44.539
636.52	42.089
636.85	42.288
637.18	41.684
637.51	41.935
637.83	42.525
638.16	43.664
638.49	42.958
638.82	43.743
639.15	42.153
639.48	43.880
639.81	44.111
640.13	42.874
640.46	41.697
640.79	41.789
641.12	42.733
641.45	42.535
641.77	45.058
642.10	44.882
642.43	45.213
642.76	44.173
643.09	44.384
643.41	43.697
643.74	43.034
644.07	46.069
644.40	44.696
644.73	45.138
645.05	43.319
645.38	42.590
645.71	43.548
646.04	46.485
646.36	44.672
646.69	45.859
647.02	46.024
647.35	45.954
647.67	46.216
648.00	44.745
648.33	45.045
648.66	43.224
648.98	42.177
649.31	42.896
649.64	43.559
649.96	43.501
650.29	40.473
650.62	42.291
650.94	40.841
651.27	40.419
651.60	40.351
651.92	41.793
652.25	43.705
652.58	43.054
652.90	43.459
653.23	41.831
653.56	43.081
653.88	43.399
654.21	42.394
654.54	43.208
654.86	42.493
655.19	41.405
655.52	35.994
655.84	30.907
656.17	38.901
656.49	55.106
656.82	62.280
657.15	49.881
657.47	37.749
657.80	28.465
658.13	22.678
658.45	30.521
658.78	38.152
659.10	38.665
659.43	40.215
659.75	40.940
660.08	41.401
660.41	42.514
660.73	44.812
661.06	44.053
661.38	42.105
661.71	44.655
662.03	43.210
662.36	47.048
662.68	43.527
663.01	44.956
663.33	44.423
663.66	46.520
663.98	43.462
664.31	42.777
664.63	41.233
664.96	45.554
665.28	41.924
665.61	41.783
665.93	40.893
666.26	42.832
666.58	43.542
666.91	43.925
667.23	43.048
667.56	45.562
667.88	45.800
668.21	41.406
668.53	40.927
668.86	44.597
669.18	45.214
669.50	42.744
669.83	43.000
670.15	41.929
670.48	45.437
670.80	42.830
671.13	43.856
671.45	43.898
671.77	44.633
672.10	36.500
672.42	40.939
672.75	39.478
673.07	38.507
673.39	39.445
673.72	41.611
674.04	43.448
674.37	44.723
674.69	43.739
675.01	42.667
675.34	41.985
675.66	43.446
675.98	44.216
676.31	42.383
676.63	43.536
676.95	44.061
677.28	42.339
677.60	41.929
677.92	41.075
678.25	42.779
678.57	42.527
678.89	41.809
679.22	38.676
679.54	40.342
679.86	40.339
680.18	40.962
680.51	38.365
680.83	40.753
681.15	39.138
681.48	43.523
681.80	41.105
682.12	41.608
682.44	40.401
682.77	40.248
683.09	41.477
683.41	42.636
683.73	39.848
684.06	39.114
684.38	40.250
684.70	39.856
685.02	40.964
685.34	40.599
685.67	37.855
685.99	38.497
686.31	37.209
686.63	39.336
686.96	38.486
687.28	38.762
687.60	39.226
687.92	40.354
688.24	38.397
688.56	39.138
688.89	39.201
689.21	42.661
689.53	35.882
689.85	41.026
690.17	38.148
690.49	39.641
690.82	39.010
691.14	39.069
691.46	41.109
691.78	39.779
692.10	39.083
692.42	38.214
692.74	40.290
693.06	36.852
693.39	38.710
693.71	38.346
694.03	37.732
694.35	40.381
694.67	41.068
694.99	40.851
695.31	40.397
695.63	43.290
695.95	38.095
696.27	42.198
696.59	39.823
696.91	41.216
697.23	39.121
697.56	38.697
697.88	39.205
698.20	38.041
698.52	37.689
698.84	40.541
699.16	40.612
699.48	38.703
699.80	38.511
700.12	38.210
700.44	41.014
700.76	41.568
701.08	40.194
701.40	41.451
701.72	41.542
702.04	45.722
702.36	40.052
702.68	39.609
703.00	40.342
703.32	38.177
703.64	40.831
703.96	40.095
704.28	39.558
704.60	41.519
704.91	40.306
705.23	44.110
705.55	44.011
705.87	41.515
706.19	42.638
706.51	42.169
706.83	40.922
707.15	36.243
707.47	38.318
707.79	38.865
708.11	36.864
708.43	36.559
708.74	37.723
709.06	41.763
709.38	42.254
709.70	39.454
710.02	39.276
710.34	42.553
710.66	39.665
710.98	42.623
711.29	40.385
711.61	39.266
711.93	43.020
712.25	37.838
712.57	39.528
712.89	40.882
713.20	40.828
713.52	40.751
713.84	38.719
714.16	41.053
714.48	41.237
714.80	40.260
715.11	40.420
715.43	40.584
715.75	42.895
716.07	41.989
716.39	39.617
716.70	38.253
717.02	40.984
717.34	41.115
717.66	42.617
717.97	37.329
718.29	38.832
718.61	39.145
718.93	39.482
719.24	41.925
719.56	40.491
719.88	37.237
720.20	40.323
720.51	41.925
720.83	38.750
721.15	40.132
721.46	35.616
721.78	42.000
722.10	38.511
722.42	39.933
722.73	37.097
723.05	41.754
723.37	40.625
723.68	41.935
724.00	43.682
724.32	39.085
724.63	38.462
724.95	38.652
725.27	40.767
725.58	39.576
725.90	45.172
726.22	36.677
726.53	42.857
726.85	38.365
727.16	37.764
727.48	44.037
727.80	42.384
728.11	38.163
728.43	39.731
728.74	39.799
729.06	40.728
729.38	40.584
729.69	39.933
730.01	35.714
730.32	33.939
730.64	38.050
730.96	37.888
731.27	38.547
731.59	38.187
731.90	33.766
732.22	34.896
732.53	32.320
732.85	38.857
733.16	38.416
733.48	37.500
733.80	32.591
734.11	32.764
734.43	36.757
734.74	36.962
735.06	34.673
735.37	37.297
735.69	35.405
736.00	41.808
736.32	35.040
736.63	38.611
736.95	37.356
737.26	35.455
737.58	36.061
737.89	36.176
738.21	39.755
738.52	37.377
738.83	40.614
739.15	39.007
739.46	36.735
739.78	37.423
740.09	36.390
740.41	40.525
740.72	43.000
741.04	38.835
741.35	39.649
741.66	43.529
741.98	39.754
742.29	38.912
742.61	41.667
742.92	39.615
743.23	39.711
743.55	38.760
743.86	40.800
744.18	35.950
744.49	37.553
744.80	40.329
745.12	43.882
745.43	39.837
745.74	41.379
746.06	39.831
746.37	42.616
746.68	41.057
747.00	36.250
747.31	41.631
747.62	43.846
747.94	36.437
748.25	41.365
748.56	36.327
748.88	38.462
749.19	46.121
749.50	30.736
749.82	45.382
750.13	40.569
750.44	34.000
750.75	37.538
751.07	35.692
751.38	35.647
751.69	37.061
752.01	34.304
752.32	35.948
752.63	39.796
752.94	37.370
753.26	35.316
753.57	32.593
753.88	38.202
754.19	32.476
754.51	33.119
754.82	37.299
755.13	40.000
755.44	36.519
755.75	39.474
756.07	37.015
756.38	34.906
756.69	36.145
757.00	32.410
757.31	34.973
757.63	33.504
757.94	32.864
758.25	35.666
758.56	34.205
758.87	32.273
759.18	32.267
759.50	39.093
759.81	35.014
760.12	33.962
760.43	33.854
760.74	33.005
761.05	33.750
761.36	32.289
761.67	31.726
761.99	33.784
762.30	34.146
762.61	30.033
762.92	35.448
763.23	37.079
763.54	37.770
763.85	36.770
764.16	36.700
764.47	36.972
764.78	39.297
765.10	33.431
765.41	37.179
765.72	34.392
766.03	35.311
766.34	32.915
766.65	33.449
766.96	35.458
767.27	41.475
767.58	38.308
767.89	38.942
768.20	37.089
768.51	35.185
768.82	34.137
769.13	34.470
769.44	33.077
769.75	36.101
770.06	35.385
770.37	40.945
770.68	33.191
770.99	34.008
771.30	37.778
771.61	35.741
771.92	36.296
772.23	43.725
772.54	34.259
772.85	42.857
773.16	38.095
773.47	38.095
773.78	40.541
774.09	38.068
774.39	39.500
774.70	42.623
775.01	34.146
775.32	41.176
775.63	35.583
775.94	28.025
776.25	37.419
776.56	42.949
776.87	46.939
777.18	37.931
777.48	44.056
777.79	35.811
778.10	34.559
778.41	38.889
778.72	46.207
779.03	37.037
779.34	38.788
779.65	37.306
779.95	41.667
780.26	34.659
780.57	40.645
780.88	42.754
781.19	39.355
781.50	38.235
781.80	33.333
782.11	37.037
782.42	32.828
782.73	36.527
783.04	41.899
783.34	34.545
783.65	32.680
783.96	32.919
784.27	38.095
784.57	41.722
784.88	38.571
785.19	45.669
785.50	41.732
785.81	36.842
786.11	43.846
786.42	41.727
786.73	35.252
787.04	48.872
787.34	42.623
787.65	42.400
787.96	41.045
788.26	47.552
788.57	50.350
788.88	32.895
789.19	41.830
789.49	32.877
789.80	42.553
790.11	37.008
790.41	50.781
790.72	54.237
791.03	41.748
791.33	50.435
791.64	35.965
791.95	33.929
792.25	45.714
792.56	47.321
792.87	38.542
793.17	41.071
793.48	38.542
793.79	36.145
794.09	38.532
794.40	33.028
794.70	39.456
795.01	33.766
795.32	36.986
795.62	42.254
795.93	34.091
796.23	42.623
796.54	47.321
796.85	45.745
797.15	43.478
797.46	38.356
797.76	42.500
798.07	33.696
798.37	25.773
798.68	41.558
798.99	50.575
799.29	40.449
799.60	44.681
799.90	49.398
800.21	50.769
800.51	43.284
800.82	39.706
801.12	34.247
801.43	41.176
801.73	38.983
802.04	51.515
802.34	46.667
802.65	52.542
802.95	47.761
803.26	49.153
803.56	57.534
803.87	60.000
804.17	52.055
804.48	43.860
804.78	45.833
805.09	53.448
805.39	55.405
805.70	28.169
806.00	50.000
806.30	40.964
806.61	45.205
806.91	47.115
807.22	43.333
807.52	27.586
807.83	56.944
808.13	55.422
808.43	37.079
808.74	45.000
809.04	35.294
809.35	48.000
809.65	54.286
809.95	45.205
810.26	43.860
810.56	39.655
810.86	55.882
811.17	57.895
811.47	44.262
811.77	46.667
812.08	47.458
812.38	48.333
812.69	60.345
812.99	41.509
813.29	33.333
813.59	76.000
813.90	54.386
814.20	58.182
814.50	47.887
814.81	51.282
815.11	65.574
815.41	55.224
815.72	60.345
816.02	46.429
816.32	86.667
816.62	45.455
816.93	44.444
817.23	64.815
817.53	63.830
817.84	73.810
818.14	67.647
818.44	65.306
818.74	60.000
819.04	28.205
819.35	45.714
819.65	80.769
819.95	43.396
820.25	88.889
820.56	50.000
820.86	81.250
821.16	53.846
821.46	62.791
821.76	38.000
822.07	58.929
822.37	32.609
822.67	46.809
822.97	18.919
823.27	32.500
823.57	63.265
823.88	66.667
824.18	55.000
824.48	73.333
824.78	68.000
825.08	109.091
825.38	57.778
825.69	63.830
825.99	80.556
826.29	40.000
826.59	41.026
826.89	53.488
827.19	22.000
827.49	67.647
827.79	79.167
828.09	51.351
828.39	53.333
828.70	51.220
829.00	67.442
829.30	60.714
829.60	55.882
829.90	58.696
830.20	54.286
830.50	96.552
830.80	127.778
831.10	73.077
831.40	47.059
831.70	119.048
832.00	103.226
832.30	-17.647
832.60	79.167
832.90	100.000
833.20	21.053
833.50	85.000
833.80	131.579
834.10	76.190
834.40	88.889
834.70	62.500
835.00	40.000
835.30	88.235
835.60	86.667
835.90	72.000
836.20	50.000
836.50	76.000
836.80	54.545
837.10	48.148
837.40	85.185
837.70	62.500
838.00	103.571
838.30	56.522
838.60	106.897
838.90	171.429
839.19	47.826
839.49	75.000
839.79	95.652
840.09	112.500
840.39	70.000
840.69	51.613
840.99	35.714
841.29	126.667
841.59	63.158
841.88	87.179
842.18	76.923
842.48	90.000
842.78	65.000
843.08	120.000
843.38	87.097
843.68	44.444
843.97	70.588
844.27	81.250
844.57	36.842
844.87	100.000
845.17	80.000
845.47	128.571
845.76	95.238
846.06	100.000
846.36	58.824
846.66	69.231
846.96	80.000
847.25	111.765
847.55	117.391
847.85	130.000
848.15	76.471
848.44	172.727
848.74	100.000
849.04	54.167
849.34	75.000
849.63	95.652
849.93	-850.000
850.23	100.000
850.53	53.846
850.82	81.818
851.12	127.273
851.42	54.545
851.71	176.923
852.01	100.000
852.31	107.692
852.61	131.579
852.90	183.333
853.20	83.333
853.50	177.778
853.79	90.476
854.09	90.909
854.39	100.000
854.68	58.065
854.98	61.538
855.28	155.556
855.57	46.429
855.87	80.000
856.17	72.727
856.46	51.852
856.76	166.667
857.05	86.957
857.35	62.500
857.65	84.615
857.94	109.524
858.24	81.481
858.53	100.000
858.83	70.588
859.13	111.765
859.42	158.824
859.72	164.286
860.01	80.000
860.31	122.222
860.60	150.000
860.90	100.000
861.20	94.444
861.49	115.385
861.79	76.667
862.08	92.308
862.38	75.000
862.67	129.412
862.97	118.750
863.26	122.222
863.56	230.000
863.85	145.455
864.15	22.222
864.44	333.333
864.74	78.571
865.03	131.250
865.33	-20.000
865.62	64.516
865.92	109.091
866.21	91.304
866.51	157.143
866.80	300.000
867.10	116.667
867.39	16.667
867.69	-400.000
867.98	257.143
868.27	164.706
868.57	0.000
868.86	70.000
869.16	66.667
869.45	91.667
869.75	227.273
870.04	242.857
870.33	166.667
870.63	171.429
870.92	400.000
871.22	75.000
871.51	36.364
871.80	33.333
872.10	700.000
>>>>>End Processed Spectral Data<<<<<
