SpectraSuite Data File
++++++++++++++++++++++++++++++++++++
Date: Thu May 14 14:47:10 PDT 2015
User: schluterlab
Dark Spectrum Present: Yes
Reference Spectrum Present: Yes
Number of Sampled Component Spectra: 1
Spectrometers: USB2E3373
Integration Time (usec): 3000 (USB2E3373)
Spectra Averaged: 3 (USB2E3373)
Boxcar Smoothing: 0 (USB2E3373)
Correct for Electrical Dark: No (USB2E3373)
Strobe/Lamp Enabled: No (USB2E3373)
Correct for Detector Non-linearity: No (USB2E3373)
Correct for Stray Light: No (USB2E3373)
Number of Pixels in Processed Spectrum: 2048
>>>>>Begin Processed Spectral Data<<<<<
178.53	0.000
178.91	71.429
179.29	-500.000
179.67	-900.000
180.04	142.857
180.42	-0.000
180.80	220.000
181.18	-200.000
181.56	400.000
181.94	75.000
182.31	-125.000
182.69	166.667
183.07	-300.000
183.45	100.000
183.83	166.667
184.20	-66.667
184.58	-200.000
184.96	-275.000
185.34	0.000
185.72	160.000
186.09	144.444
186.47	400.000
186.85	280.000
187.23	-88.889
187.61	-1800.000
187.98	120.000
188.36	125.000
188.74	75.000
189.12	-233.333
189.49	-6.250
189.87	-37.500
190.25	-22.222
190.63	-20.000
191.00	-22.222
191.38	0.000
191.76	75.000
192.14	-33.333
192.51	300.000
192.89	16.667
193.27	0.000
193.65	71.429
194.02	-1800.000
194.40	28.571
194.78	171.429
195.15	0.000
195.53	45.455
195.91	0.000
196.29	225.000
196.66	-23.077
197.04	-500.000
197.42	-57.143
197.79	-300.000
198.17	12.500
198.55	42.857
198.92	11.111
199.30	-25.000
199.68	63.636
200.05	-21.429
200.43	-500.000
200.81	-42.857
201.18	0.000
201.56	100.000
201.94	0.000
202.31	366.667
202.69	-177.778
203.07	500.000
203.44	33.333
203.82	-250.000
204.19	-100.000
204.57	-66.667
204.95	0.000
205.32	200.000
205.70	100.000
206.08	50.000
206.45	-16.667
206.83	160.000
207.20	16.667
207.58	-180.000
207.96	-83.333
208.33	66.667
208.71	91.667
209.08	133.333
209.46	0.000
209.84	183.333
210.21	-100.000
210.59	250.000
210.96	66.667
211.34	150.000
211.71	0.000
212.09	0.000
212.46	0.000
212.84	200.000
213.22	-200.000
213.59	-150.000
213.97	90.000
214.34	-300.000
214.72	116.667
215.09	-200.000
215.47	0.000
215.84	128.571
216.22	100.000
216.59	160.000
216.97	-100.000
217.34	75.000
217.72	-12.500
218.09	-225.000
218.47	-275.000
218.84	0.000
219.22	-20.000
219.59	47.059
219.97	15.000
220.34	550.000
220.72	-44.444
221.09	100.000
221.47	-166.667
221.84	10.000
222.22	-57.143
222.59	0.000
222.97	62.500
223.34	-240.000
223.72	-700.000
224.09	-75.000
224.46	-125.000
224.84	220.000
225.21	-142.857
225.59	100.000
225.96	-150.000
226.34	50.000
226.71	333.333
227.08	-200.000
227.46	0.000
227.83	50.000
228.21	36.842
228.58	-12.500
228.95	350.000
229.33	91.667
229.70	70.000
230.08	78.947
230.45	110.000
230.82	0.000
231.20	-42.857
231.57	-16.667
231.95	0.000
232.32	9.091
232.69	35.000
233.07	-250.000
233.44	-23.529
233.81	30.000
234.19	22.222
234.56	-4.545
234.93	24.138
235.31	42.105
235.68	22.222
236.05	-70.000
236.43	-11.538
236.80	-8.000
237.17	44.444
237.55	15.152
237.92	-80.000
238.29	3.226
238.67	-6.818
239.04	-16.667
239.41	7.143
239.79	19.565
240.16	-5.556
240.53	6.522
240.91	0.000
241.28	3.279
241.65	31.343
242.02	17.568
242.40	-3.077
242.77	9.333
243.14	-2.439
243.51	-5.263
243.89	0.000
244.26	9.901
244.63	15.686
245.00	21.495
245.38	4.386
245.75	4.425
246.12	10.317
246.49	10.853
246.87	12.143
247.24	14.570
247.61	11.184
247.98	10.738
248.36	8.642
248.73	3.681
249.10	12.022
249.47	16.915
249.84	21.990
250.22	16.580
250.59	11.111
250.96	14.545
251.33	7.143
251.70	11.966
252.08	14.167
252.45	10.246
252.82	11.157
253.19	10.547
253.56	10.266
253.94	12.692
254.31	10.985
254.68	12.238
255.05	12.052
255.42	9.184
255.79	9.061
256.16	10.927
256.54	6.291
256.91	11.148
257.28	11.803
257.65	8.280
258.02	11.209
258.39	9.402
258.76	12.538
259.14	13.218
259.51	11.239
259.88	9.915
260.25	10.556
260.62	12.055
260.99	11.749
261.36	13.405
261.73	10.610
262.10	12.088
262.47	8.043
262.85	14.141
263.22	10.390
263.59	8.947
263.96	12.532
264.33	9.974
264.70	11.358
265.07	13.365
265.44	12.925
265.81	8.565
266.18	11.565
266.55	10.491
266.92	8.656
267.29	11.160
267.66	13.304
268.03	12.227
268.40	11.273
268.77	9.339
269.14	9.912
269.51	11.184
269.88	11.680
270.25	12.475
270.62	12.236
270.99	13.535
271.36	11.881
271.73	11.984
272.10	12.024
272.47	12.024
272.84	12.450
273.21	11.423
273.58	9.677
273.95	13.077
274.32	10.076
274.69	9.478
275.06	12.821
275.43	11.275
275.80	11.993
276.17	10.000
276.54	9.701
276.91	11.270
277.28	11.212
277.65	10.772
278.02	10.662
278.39	12.138
278.76	10.896
279.13	12.411
279.50	15.120
279.87	11.628
280.23	8.451
280.60	11.356
280.97	11.184
281.34	10.866
281.71	12.860
282.08	10.797
282.45	8.674
282.82	10.675
283.19	10.985
283.56	10.820
283.92	9.760
284.29	11.848
284.66	12.479
285.03	10.737
285.40	11.283
285.77	9.598
286.14	12.061
286.51	10.654
286.87	10.585
287.24	11.295
287.61	9.716
287.98	10.725
288.35	10.651
288.72	9.320
289.08	10.395
289.45	11.243
289.82	10.542
290.19	10.776
290.56	11.690
290.93	10.984
291.29	9.366
291.66	8.815
292.03	10.312
292.40	11.156
292.77	9.704
293.13	10.149
293.50	9.067
293.87	9.530
294.24	11.067
294.60	9.735
294.97	8.591
295.34	12.548
295.71	11.223
296.08	9.302
296.44	9.436
296.81	8.526
297.18	9.215
297.55	9.198
297.91	10.676
298.28	9.242
298.65	9.512
299.02	9.091
299.38	9.840
299.75	9.813
300.12	9.144
300.48	10.138
300.85	10.011
301.22	10.403
301.59	9.018
301.95	11.073
302.32	11.000
302.69	9.529
303.05	9.684
303.42	10.089
303.79	10.000
304.15	9.674
304.52	9.091
304.89	9.738
305.25	10.145
305.62	10.240
305.99	9.897
306.35	9.073
306.72	11.065
307.09	10.152
307.45	9.834
307.82	10.797
308.19	11.806
308.55	10.608
308.92	9.056
309.29	10.632
309.65	9.844
310.02	9.208
310.38	10.236
310.75	11.359
311.12	11.409
311.48	9.091
311.85	9.782
312.22	9.867
312.58	10.704
312.95	10.038
313.31	11.201
313.68	11.447
314.05	10.298
314.41	11.931
314.78	10.808
315.14	10.980
315.51	11.080
315.87	12.331
316.24	11.507
316.61	13.499
316.97	11.131
317.34	11.111
317.70	11.878
318.07	11.376
318.43	11.054
318.80	13.043
319.16	10.815
319.53	10.797
319.89	11.043
320.26	11.922
320.62	11.170
320.99	13.481
321.35	10.998
321.72	13.674
322.08	11.903
322.45	12.105
322.81	12.906
323.18	11.327
323.54	12.328
323.91	12.011
324.27	11.790
324.64	12.510
325.00	12.189
325.37	12.940
325.73	14.050
326.10	12.733
326.46	13.111
326.83	13.611
327.19	13.307
327.56	13.755
327.92	13.061
328.29	14.113
328.65	12.479
329.01	13.536
329.38	14.912
329.74	14.298
330.11	13.613
330.47	14.153
330.84	14.212
331.20	14.583
331.56	14.991
331.93	14.310
332.29	15.508
332.66	15.365
333.02	14.992
333.38	14.346
333.75	14.899
334.11	15.263
334.48	15.512
334.84	15.038
335.20	14.777
335.57	15.008
335.93	15.620
336.29	13.894
336.66	14.718
337.02	14.716
337.38	15.391
337.75	15.537
338.11	15.391
338.47	16.046
338.84	15.821
339.20	14.827
339.56	16.227
339.93	14.860
340.29	16.103
340.65	15.166
341.02	15.882
341.38	15.036
341.74	14.366
342.11	15.607
342.47	15.409
342.83	16.103
343.20	15.944
343.56	16.119
343.92	15.052
344.28	16.094
344.65	16.589
345.01	16.771
345.37	16.252
345.73	15.978
346.10	16.225
346.46	15.823
346.82	15.581
347.19	15.661
347.55	15.630
347.91	16.493
348.27	15.099
348.63	15.918
349.00	15.585
349.36	16.506
349.72	15.923
350.08	16.048
350.45	15.970
350.81	16.591
351.17	16.541
351.53	16.528
351.89	17.312
352.26	16.269
352.62	16.119
352.98	15.878
353.34	15.907
353.70	15.794
354.07	17.884
354.43	15.642
354.79	16.305
355.15	16.409
355.51	17.325
355.87	16.305
356.24	16.502
356.60	16.482
356.96	16.976
357.32	16.877
357.68	16.618
358.04	16.467
358.40	16.716
358.77	17.325
359.13	16.248
359.49	15.911
359.85	16.896
360.21	18.077
360.57	17.301
360.93	16.996
361.29	17.193
361.66	16.655
362.02	18.093
362.38	17.147
362.74	16.620
363.10	18.088
363.46	17.244
363.82	17.685
364.18	17.875
364.54	17.842
364.90	18.060
365.26	17.241
365.62	18.467
365.98	18.176
366.35	17.651
366.71	18.844
367.07	18.133
367.43	17.334
367.79	18.514
368.15	18.863
368.51	18.065
368.87	17.113
369.23	18.533
369.59	18.169
369.95	18.323
370.31	19.716
370.67	19.188
371.03	17.936
371.39	18.133
371.75	18.019
372.11	18.767
372.47	18.280
372.83	19.437
373.19	18.479
373.55	18.902
373.91	18.064
374.27	19.082
374.63	19.621
374.99	19.164
375.35	20.000
375.71	18.839
376.07	19.109
376.42	18.640
376.78	19.826
377.14	18.902
377.50	19.165
377.86	19.520
378.22	19.521
378.58	21.284
378.94	19.425
379.30	20.269
379.66	20.047
380.02	19.331
380.38	19.700
380.74	20.507
381.09	20.209
381.45	20.852
381.81	20.375
382.17	20.724
382.53	20.760
382.89	20.260
383.25	19.695
383.61	20.255
383.97	20.848
384.32	21.830
384.68	20.476
385.04	22.152
385.40	20.919
385.76	22.274
386.12	21.305
386.48	20.882
386.83	21.812
387.19	21.437
387.55	21.714
387.91	21.233
388.27	21.824
388.62	21.019
388.98	21.658
389.34	22.098
389.70	21.964
390.06	21.551
390.42	21.747
390.77	22.757
391.13	21.420
391.49	22.162
391.85	21.939
392.20	22.242
392.56	21.855
392.92	22.628
393.28	22.830
393.64	23.017
393.99	23.242
394.35	23.715
394.71	22.754
395.07	22.335
395.42	22.730
395.78	23.705
396.14	23.351
396.50	22.625
396.85	22.421
397.21	23.195
397.57	22.144
397.92	23.310
398.28	22.433
398.64	23.341
399.00	21.990
399.35	22.984
399.71	22.283
400.07	23.021
400.42	23.225
400.78	23.090
401.14	23.335
401.49	22.399
401.85	23.256
402.21	23.233
402.57	23.533
402.92	23.286
403.28	22.951
403.63	22.554
403.99	22.922
404.35	22.797
404.70	23.456
405.06	22.663
405.42	23.419
405.77	23.610
406.13	23.015
406.49	23.311
406.84	22.438
407.20	23.141
407.55	22.714
407.91	23.319
408.27	23.675
408.62	22.746
408.98	23.099
409.34	22.815
409.69	23.362
410.05	22.626
410.40	23.956
410.76	24.004
411.11	22.969
411.47	22.666
411.83	23.516
412.18	23.434
412.54	23.296
412.89	23.108
413.25	23.984
413.60	22.229
413.96	22.727
414.31	23.626
414.67	23.614
415.03	23.631
415.38	24.023
415.74	23.702
416.09	24.183
416.45	23.106
416.80	22.950
417.16	23.755
417.51	23.537
417.87	24.157
418.22	22.754
418.58	24.040
418.93	24.331
419.29	23.983
419.64	24.850
420.00	23.917
420.35	23.582
420.71	24.756
421.06	23.864
421.42	23.624
421.77	23.263
422.12	23.732
422.48	23.810
422.83	23.549
423.19	24.085
423.54	24.889
423.90	24.848
424.25	24.533
424.61	23.249
424.96	23.723
425.31	24.416
425.67	23.994
426.02	24.626
426.38	25.718
426.73	23.382
427.09	25.029
427.44	24.304
427.79	24.212
428.15	25.000
428.50	24.438
428.85	24.225
429.21	25.106
429.56	24.531
429.92	23.980
430.27	24.627
430.62	25.012
430.98	24.939
431.33	24.927
431.68	24.713
432.04	25.648
432.39	25.388
432.74	24.943
433.10	26.068
433.45	24.805
433.80	25.322
434.16	24.948
434.51	25.437
434.86	26.059
435.22	25.505
435.57	25.531
435.92	25.821
436.28	25.995
436.63	25.068
436.98	26.033
437.34	25.592
437.69	25.482
438.04	25.436
438.39	25.962
438.75	25.401
439.10	26.427
439.45	25.545
439.81	26.667
440.16	25.362
440.51	26.087
440.86	25.737
441.22	26.206
441.57	26.101
441.92	25.849
442.27	26.515
442.63	27.173
442.98	26.788
443.33	26.355
443.68	26.412
444.03	26.811
444.39	27.277
444.74	27.157
445.09	26.305
445.44	26.554
445.79	27.155
446.15	26.670
446.50	26.718
446.85	26.216
447.20	26.547
447.55	27.406
447.91	27.696
448.26	26.797
448.61	26.036
448.96	27.629
449.31	26.882
449.66	26.198
450.02	27.321
450.37	27.331
450.72	26.480
451.07	27.506
451.42	26.690
451.77	26.848
452.12	27.483
452.47	27.035
452.83	27.309
453.18	27.204
453.53	27.226
453.88	27.333
454.23	27.797
454.58	27.916
454.93	27.245
455.28	28.236
455.63	27.459
455.98	27.318
456.34	27.208
456.69	28.454
457.04	26.418
457.39	27.217
457.74	27.685
458.09	27.403
458.44	27.586
458.79	26.766
459.14	27.897
459.49	27.957
459.84	27.807
460.19	28.151
460.54	27.371
460.89	26.628
461.24	26.954
461.59	28.445
461.94	26.925
462.29	28.331
462.64	27.942
462.99	28.186
463.34	27.839
463.69	27.433
464.04	29.238
464.39	28.083
464.74	27.765
465.09	27.566
465.44	28.487
465.79	28.398
466.14	27.410
466.49	28.789
466.84	28.320
467.19	28.786
467.54	27.438
467.89	28.218
468.24	28.366
468.59	28.720
468.94	28.613
469.29	29.034
469.64	28.226
469.99	29.700
470.34	28.589
470.68	29.597
471.03	29.862
471.38	28.908
471.73	29.324
472.08	29.569
472.43	28.296
472.78	29.345
473.13	29.456
473.48	29.849
473.83	29.832
474.17	29.719
474.52	29.826
474.87	28.738
475.22	29.465
475.57	30.062
475.92	29.667
476.27	29.712
476.61	30.062
476.96	29.406
477.31	29.505
477.66	31.007
478.01	29.080
478.36	29.761
478.70	29.212
479.05	29.908
479.40	30.010
479.75	30.644
480.10	29.891
480.45	29.581
480.79	29.751
481.14	29.504
481.49	28.896
481.84	30.200
482.19	30.151
482.53	30.083
482.88	30.660
483.23	30.814
483.58	29.651
483.92	29.433
484.27	30.821
484.62	30.198
484.97	29.355
485.31	29.250
485.66	27.788
486.01	26.981
486.36	27.614
486.70	28.998
487.05	29.893
487.40	29.487
487.75	29.822
488.09	29.952
488.44	28.946
488.79	29.916
489.13	29.580
489.48	29.476
489.83	29.859
490.17	29.972
490.52	30.213
490.87	30.668
491.22	30.676
491.56	30.205
491.91	31.007
492.26	31.372
492.60	30.870
492.95	30.847
493.30	30.659
493.64	30.793
493.99	30.570
494.34	30.401
494.68	30.707
495.03	30.793
495.37	30.626
495.72	31.020
496.07	31.201
496.41	30.931
496.76	31.318
497.11	31.720
497.45	31.549
497.80	31.897
498.14	30.930
498.49	31.112
498.84	32.176
499.18	31.534
499.53	32.197
499.87	31.648
500.22	30.766
500.56	31.444
500.91	31.808
501.26	32.364
501.60	31.374
501.95	32.262
502.29	32.646
502.64	32.707
502.98	31.536
503.33	31.663
503.67	32.141
504.02	32.356
504.36	32.618
504.71	32.889
505.06	31.924
505.40	32.587
505.75	32.195
506.09	32.643
506.44	32.869
506.78	33.028
507.13	33.149
507.47	33.349
507.82	33.712
508.16	33.078
508.51	32.865
508.85	34.152
509.19	33.633
509.54	35.062
509.88	33.851
510.23	33.949
510.57	35.379
510.92	34.156
511.26	33.718
511.61	33.655
511.95	34.700
512.30	34.318
512.64	34.633
512.98	34.067
513.33	34.980
513.67	34.727
514.02	34.747
514.36	35.703
514.70	35.833
515.05	36.027
515.39	35.643
515.74	36.320
516.08	35.869
516.42	35.583
516.77	36.803
517.11	35.173
517.46	35.525
517.80	35.970
518.14	36.670
518.49	36.822
518.83	35.977
519.17	35.649
519.52	35.849
519.86	36.325
520.20	35.836
520.55	35.926
520.89	37.218
521.23	35.678
521.58	36.893
521.92	37.110
522.26	35.567
522.61	36.169
522.95	38.062
523.29	36.839
523.64	36.603
523.98	37.365
524.32	38.166
524.66	37.849
525.01	36.806
525.35	36.358
525.69	37.065
526.04	35.821
526.38	38.391
526.72	37.255
527.06	37.361
527.41	37.085
527.75	37.292
528.09	36.954
528.43	37.063
528.78	37.630
529.12	36.984
529.46	37.886
529.80	37.700
530.15	38.377
530.49	37.485
530.83	38.312
531.17	36.858
531.51	37.545
531.86	37.740
532.20	37.927
532.54	37.642
532.88	37.394
533.22	37.537
533.57	38.257
533.91	37.823
534.25	36.405
534.59	38.621
534.93	36.616
535.27	37.183
535.62	36.782
535.96	38.466
536.30	37.779
536.64	37.958
536.98	38.007
537.32	37.716
537.66	38.116
538.01	36.979
538.35	37.393
538.69	37.320
539.03	38.627
539.37	37.279
539.71	39.279
540.05	37.650
540.39	37.225
540.73	37.462
541.07	37.462
541.42	37.271
541.76	37.011
542.10	37.756
542.44	36.906
542.78	36.922
543.12	38.021
543.46	38.400
543.80	37.290
544.14	37.163
544.48	37.825
544.82	38.300
545.16	37.388
545.50	37.208
545.84	37.355
546.18	38.827
546.52	38.662
546.86	37.862
547.20	37.341
547.54	38.140
547.88	36.769
548.22	37.661
548.56	37.683
548.90	37.433
549.24	37.751
549.58	37.729
549.92	37.755
550.26	38.188
550.60	37.269
550.94	39.263
551.28	38.152
551.62	39.420
551.96	38.252
552.30	37.285
552.64	37.897
552.98	37.617
553.32	38.778
553.66	38.585
554.00	38.525
554.34	37.773
554.68	37.056
555.02	37.648
555.36	39.053
555.69	37.092
556.03	37.831
556.37	37.422
556.71	37.096
557.05	37.444
557.39	38.487
557.73	38.177
558.07	37.947
558.41	39.136
558.75	39.419
559.08	38.831
559.42	38.340
559.76	39.077
560.10	37.575
560.44	38.588
560.78	38.250
561.12	38.608
561.45	37.774
561.79	37.729
562.13	38.078
562.47	38.779
562.81	37.722
563.15	38.447
563.48	38.347
563.82	37.606
564.16	37.190
564.50	37.783
564.84	36.342
565.17	37.412
565.51	36.594
565.85	37.767
566.19	36.233
566.52	37.156
566.86	37.974
567.20	35.617
567.54	36.113
567.88	36.188
568.21	37.401
568.55	38.225
568.89	36.360
569.23	35.657
569.56	35.952
569.90	34.319
570.24	35.076
570.57	34.734
570.91	33.833
571.25	33.787
571.59	34.233
571.92	34.355
572.26	33.801
572.60	34.316
572.93	33.621
573.27	33.633
573.61	33.457
573.95	33.261
574.28	32.843
574.62	33.220
574.96	32.841
575.29	32.761
575.63	32.848
575.97	33.796
576.30	33.161
576.64	33.596
576.98	32.870
577.31	32.852
577.65	32.769
577.98	32.549
578.32	32.341
578.66	32.925
578.99	32.746
579.33	32.970
579.67	33.024
580.00	32.704
580.34	32.766
580.67	32.701
581.01	32.562
581.35	32.242
581.68	32.422
582.02	32.622
582.35	32.637
582.69	32.980
583.02	33.059
583.36	33.498
583.70	33.379
584.03	33.069
584.37	33.029
584.70	32.616
585.04	32.132
585.37	32.567
585.71	32.492
586.04	32.695
586.38	33.310
586.72	32.815
587.05	32.975
587.39	33.583
587.72	33.301
588.06	33.511
588.39	32.811
588.73	33.280
589.06	34.537
589.40	34.419
589.73	34.383
590.07	34.814
590.40	34.618
590.73	34.783
591.07	35.369
591.40	34.681
591.74	35.016
592.07	35.242
592.41	34.582
592.74	34.469
593.08	33.726
593.41	34.062
593.75	33.793
594.08	33.959
594.41	33.974
594.75	33.876
595.08	34.017
595.42	34.643
595.75	33.710
596.09	33.887
596.42	34.360
596.75	34.929
597.09	34.990
597.42	34.406
597.75	34.575
598.09	34.206
598.42	35.103
598.76	33.703
599.09	33.855
599.42	33.389
599.76	34.038
600.09	34.201
600.42	34.134
600.76	33.785
601.09	33.820
601.42	34.157
601.76	33.655
602.09	34.346
602.42	33.988
602.76	34.428
603.09	34.141
603.42	34.249
603.76	33.897
604.09	34.776
604.42	34.495
604.76	33.942
605.09	34.703
605.42	34.131
605.75	33.385
606.09	34.192
606.42	33.528
606.75	33.771
607.09	33.871
607.42	33.487
607.75	33.763
608.08	33.820
608.42	33.938
608.75	34.992
609.08	33.913
609.41	35.598
609.75	35.402
610.08	35.444
610.41	34.282
610.74	35.000
611.07	35.169
611.41	35.247
611.74	35.658
612.07	35.624
612.40	34.838
612.73	35.892
613.07	34.914
613.40	36.141
613.73	35.869
614.06	36.261
614.39	34.985
614.72	34.643
615.06	34.793
615.39	34.993
615.72	35.355
616.05	35.260
616.38	35.923
616.71	34.639
617.05	35.463
617.38	35.420
617.71	36.609
618.04	36.158
618.37	36.503
618.70	36.934
619.03	36.380
619.36	37.423
619.69	36.067
620.03	36.723
620.36	35.890
620.69	36.891
621.02	37.927
621.35	40.058
621.68	38.829
622.01	38.078
622.34	38.075
622.67	37.045
623.00	37.922
623.33	37.956
623.66	37.873
623.99	37.722
624.32	38.012
624.65	36.615
624.99	36.931
625.32	38.210
625.65	37.694
625.98	37.356
626.31	38.767
626.64	38.388
626.97	38.785
627.30	37.889
627.63	37.284
627.96	38.664
628.29	39.066
628.62	39.043
628.95	39.527
629.28	39.762
629.61	38.889
629.94	39.331
630.26	39.407
630.59	39.119
630.92	38.182
631.25	40.429
631.58	42.750
631.91	39.925
632.24	39.866
632.57	40.323
632.90	40.221
633.23	41.429
633.56	40.714
633.89	41.012
634.22	42.100
634.55	42.589
634.88	41.126
635.20	42.411
635.53	43.277
635.86	41.387
636.19	40.191
636.52	41.561
636.85	39.428
637.18	40.748
637.51	41.613
637.83	42.857
638.16	42.396
638.49	42.254
638.82	41.601
639.15	42.153
639.48	42.379
639.81	42.032
640.13	41.461
640.46	41.212
640.79	41.667
641.12	41.366
641.45	41.531
641.77	46.085
642.10	42.257
642.43	44.149
642.76	41.599
643.09	41.918
643.41	43.697
643.74	43.862
644.07	44.276
644.40	43.281
644.73	45.718
645.05	42.731
645.38	46.906
645.71	43.988
646.04	45.050
646.36	44.818
646.69	44.785
647.02	45.413
647.35	45.649
647.67	46.216
648.00	45.701
648.33	44.294
648.66	42.796
648.98	43.129
649.31	43.302
649.64	41.965
649.96	40.849
650.29	42.142
650.62	43.423
650.94	43.393
651.27	42.066
651.60	41.374
651.92	44.073
652.25	43.994
652.58	43.054
652.90	42.151
653.23	44.507
653.56	43.081
653.88	43.258
654.21	41.549
654.54	43.497
654.86	43.484
655.19	39.272
655.52	36.872
655.84	29.938
656.17	35.626
656.49	50.259
656.82	55.476
657.15	43.685
657.47	33.135
657.80	24.716
658.13	19.252
658.45	25.395
658.78	31.432
659.10	30.047
659.43	30.940
659.75	30.847
660.08	31.485
660.41	34.822
660.73	37.058
661.06	40.382
661.38	43.381
661.71	43.103
662.03	43.563
662.36	46.154
662.68	44.653
663.01	43.009
663.33	47.448
663.66	46.520
663.98	46.538
664.31	46.154
664.63	42.775
664.96	46.098
665.28	43.557
665.61	44.755
665.93	43.571
666.26	46.416
666.58	43.911
666.91	46.542
667.23	46.476
667.56	47.337
667.88	48.400
668.21	42.383
668.53	40.734
668.86	45.776
669.18	44.399
669.50	43.936
669.83	44.600
670.15	43.504
670.48	46.825
670.80	44.742
671.13	43.100
671.45	45.866
671.77	45.763
672.10	41.667
672.42	39.968
672.75	42.089
673.07	39.701
673.39	41.911
673.72	42.450
674.04	44.655
674.37	45.081
674.69	41.975
675.01	42.857
675.34	44.084
675.66	45.318
675.98	44.216
676.31	46.094
676.63	45.437
676.95	45.019
677.28	45.565
677.60	43.504
677.92	42.226
678.25	43.693
678.57	43.060
678.89	40.956
679.22	41.638
679.54	42.222
679.86	41.356
680.18	41.294
680.51	42.610
680.83	41.899
681.15	41.034
681.48	41.451
681.80	41.623
682.12	41.084
682.44	40.902
682.77	42.376
683.09	42.992
683.41	46.318
683.73	41.746
684.06	41.144
684.38	39.893
684.70	45.242
685.02	40.792
685.34	42.596
685.67	38.959
685.99	38.650
686.31	35.320
686.63	41.864
686.96	38.328
687.28	41.531
687.60	41.414
687.92	38.585
688.24	42.070
688.56	39.310
688.89	43.920
689.21	43.053
689.53	39.804
689.85	42.406
690.17	38.889
690.49	42.032
690.82	41.386
691.14	41.093
691.46	44.359
691.78	42.173
692.10	42.385
692.42	41.429
692.74	39.020
693.06	37.037
693.39	38.710
693.71	38.910
694.03	40.892
694.35	41.143
694.67	39.220
694.99	40.426
695.31	41.722
695.63	43.939
695.95	41.822
696.27	39.780
696.59	42.699
696.91	45.495
697.23	44.835
697.56	40.937
697.88	39.205
698.20	41.243
698.52	40.909
698.84	39.501
699.16	43.878
699.48	43.305
699.80	39.149
700.12	41.048
700.44	42.857
700.76	42.518
701.08	44.068
701.40	49.482
701.72	44.030
702.04	44.920
702.36	42.670
702.68	44.254
703.00	42.787
703.32	41.872
703.64	41.565
703.96	44.869
704.28	41.769
704.60	46.076
704.91	44.388
705.23	44.658
705.55	41.226
705.87	47.879
706.19	50.000
706.51	44.578
706.83	46.398
707.15	40.212
707.47	41.355
707.79	40.175
708.11	38.136
708.43	36.989
708.74	37.723
709.06	41.299
709.38	43.192
709.70	41.935
710.02	42.894
710.34	43.617
710.66	44.413
710.98	39.891
711.29	42.033
711.61	40.678
711.93	43.020
712.25	40.270
712.57	45.723
712.89	45.000
713.20	40.828
713.52	47.110
713.84	40.390
714.16	42.368
714.48	40.979
714.80	42.597
715.11	39.633
715.43	42.440
715.75	39.474
716.07	40.608
716.39	44.536
716.70	41.566
717.02	41.639
717.34	43.554
717.66	47.315
717.97	41.781
718.29	45.704
718.61	41.776
718.93	39.482
719.24	44.410
719.56	45.399
719.88	37.538
720.20	44.516
720.51	42.547
720.83	42.188
721.15	38.816
721.46	40.753
721.78	43.333
722.10	40.453
722.42	42.617
722.73	40.645
723.05	40.702
723.37	42.014
723.68	45.878
724.00	41.155
724.32	40.493
724.63	42.308
724.95	45.035
725.27	36.934
725.58	39.929
725.90	47.586
726.22	41.066
726.53	37.662
726.85	43.396
727.16	39.577
727.48	41.590
727.80	41.722
728.11	42.049
728.43	46.465
728.74	40.134
729.06	37.417
729.38	43.506
729.69	39.262
730.01	36.012
730.32	35.152
730.64	44.025
730.96	39.130
731.27	39.665
731.59	38.462
731.90	34.805
732.22	35.937
732.53	33.978
732.85	36.286
733.16	39.003
733.48	35.366
733.80	34.819
734.11	39.886
734.43	36.757
734.74	40.759
735.06	37.940
735.37	39.459
735.69	38.108
736.00	37.288
736.32	39.084
736.63	36.389
736.95	34.770
737.26	36.970
737.58	34.242
737.89	37.353
738.21	39.144
738.52	34.426
738.83	41.297
739.15	41.135
739.46	43.537
739.78	38.957
740.09	34.957
740.41	40.525
740.72	43.000
741.04	39.482
741.35	40.702
741.66	42.745
741.98	43.443
742.29	39.749
742.61	41.667
742.92	36.538
743.23	37.545
743.55	43.411
743.86	42.400
744.18	38.843
744.49	40.084
744.80	39.918
745.12	40.928
745.43	40.244
745.74	40.517
746.06	42.797
746.37	47.679
746.68	46.341
747.00	40.417
747.31	42.060
747.62	43.846
747.94	43.725
748.25	39.759
748.56	41.224
748.88	41.453
749.19	44.397
749.50	35.931
749.82	46.988
750.13	41.637
750.44	37.667
750.75	37.846
751.07	38.154
751.38	37.224
751.69	38.339
752.01	39.159
752.32	38.235
752.63	43.537
752.94	39.100
753.26	39.033
753.57	35.556
753.88	38.202
754.19	36.656
754.51	36.977
754.82	37.299
755.13	38.361
755.44	37.884
755.75	37.829
756.07	37.612
756.38	37.736
756.69	36.446
757.00	32.133
757.31	33.880
757.63	32.225
757.94	31.690
758.25	33.409
758.56	32.898
758.87	35.455
759.18	34.133
759.50	37.394
759.81	36.415
760.12	38.814
760.43	36.198
760.74	34.729
761.05	36.750
761.36	32.530
761.67	34.772
761.99	36.216
762.30	38.720
762.61	34.323
762.92	39.925
763.23	40.824
763.54	36.331
763.85	38.144
764.16	35.354
764.47	39.437
764.78	41.214
765.10	33.431
765.41	36.923
765.72	31.746
766.03	35.593
766.34	33.542
766.65	35.540
766.96	33.865
767.27	38.710
767.58	39.801
767.89	41.346
768.20	44.601
768.51	38.426
768.82	39.759
769.13	34.470
769.44	35.769
769.75	35.379
770.06	30.000
770.37	42.520
770.68	31.915
770.99	36.842
771.30	42.593
771.61	34.601
771.92	31.481
772.23	41.700
772.54	36.111
772.85	35.023
773.16	43.810
773.47	35.979
773.78	36.757
774.09	46.023
774.39	44.500
774.70	43.169
775.01	37.805
775.32	33.529
775.63	42.331
775.94	38.854
776.25	41.290
776.56	45.513
776.87	40.816
777.18	38.621
777.48	34.965
777.79	34.459
778.10	44.118
778.41	42.361
778.72	32.414
779.03	40.741
779.34	36.970
779.65	34.715
779.95	38.333
780.26	39.205
780.57	33.548
780.88	40.580
781.19	38.065
781.50	41.765
781.80	37.634
782.11	33.333
782.42	31.818
782.73	37.126
783.04	36.313
783.34	32.727
783.65	35.294
783.96	38.509
784.27	32.143
784.57	37.086
784.88	35.000
785.19	37.795
785.50	36.220
785.81	38.346
786.11	36.154
786.42	29.496
786.73	39.568
787.04	37.594
787.34	36.066
787.65	36.800
787.96	40.299
788.26	39.161
788.57	42.657
788.88	33.553
789.19	35.948
789.49	42.466
789.80	34.752
790.11	38.583
790.41	38.281
790.72	37.288
791.03	33.981
791.33	43.478
791.64	35.965
791.95	37.500
792.25	35.238
792.56	32.143
792.87	41.667
793.17	33.036
793.48	30.208
793.79	27.711
794.09	27.523
794.40	46.789
794.70	36.054
795.01	33.117
795.32	37.671
795.62	29.577
795.93	29.545
796.23	36.885
796.54	30.357
796.85	42.553
797.15	39.130
797.46	27.397
797.76	40.000
798.07	33.696
798.37	28.866
798.68	35.065
798.99	33.333
799.29	41.573
799.60	39.362
799.90	36.145
800.21	43.077
800.51	32.836
800.82	27.941
801.12	17.808
801.43	10.294
801.73	42.373
802.04	24.242
802.34	26.667
802.65	32.203
802.95	37.313
803.26	47.458
803.56	35.616
803.87	47.143
804.17	46.575
804.48	26.316
804.78	37.500
805.09	12.069
805.39	40.541
805.70	30.986
806.00	29.268
806.30	33.735
806.61	21.918
806.91	34.615
807.22	35.556
807.52	28.736
807.83	44.444
808.13	38.554
808.43	40.449
808.74	30.000
809.04	19.118
809.35	28.000
809.65	41.429
809.95	47.945
810.26	43.860
810.56	44.828
810.86	38.235
811.17	38.596
811.47	34.426
811.77	22.222
812.08	40.678
812.38	40.000
812.69	41.379
812.99	39.623
813.29	33.333
813.59	48.000
813.90	38.596
814.20	34.545
814.50	59.155
814.81	46.154
815.11	29.508
815.41	28.358
815.72	44.828
816.02	53.571
816.32	44.444
816.62	27.273
816.93	44.444
817.23	42.593
817.53	19.149
817.84	50.000
818.14	67.647
818.44	36.735
818.74	37.778
819.04	25.641
819.35	17.143
819.65	42.308
819.95	22.642
820.25	57.778
820.56	30.952
820.86	18.750
821.16	58.974
821.46	18.605
821.76	28.000
822.07	33.929
822.37	45.652
822.67	8.511
822.97	13.514
823.27	27.500
823.57	22.449
823.88	51.111
824.18	47.500
824.48	23.333
824.78	28.000
825.08	36.364
825.38	62.222
825.69	46.809
825.99	44.444
826.29	-20.000
826.59	46.154
826.89	34.884
827.19	12.000
827.49	26.471
827.79	50.000
828.09	-5.405
828.39	60.000
828.70	39.024
829.00	37.209
829.30	32.143
829.60	35.294
829.90	36.957
830.20	11.429
830.50	0.000
830.80	77.778
831.10	34.615
831.40	14.706
831.70	71.429
832.00	58.065
832.30	-23.529
832.60	-8.333
832.90	15.385
833.20	52.632
833.50	35.000
833.80	78.947
834.10	-47.619
834.40	50.000
834.70	56.250
835.00	20.000
835.30	52.941
835.60	26.667
835.90	24.000
836.20	-13.636
836.50	52.000
836.80	3.030
837.10	18.519
837.40	40.741
837.70	-18.750
838.00	28.571
838.30	39.130
838.60	51.724
838.90	42.857
839.19	43.478
839.49	-66.667
839.79	39.130
840.09	6.250
840.39	30.000
840.69	45.161
840.99	10.714
841.29	60.000
841.59	47.368
841.88	61.538
842.18	26.923
842.48	-10.000
842.78	10.000
843.08	20.000
843.38	48.387
843.68	-16.667
843.97	50.000
844.27	50.000
844.57	31.579
844.87	-50.000
845.17	13.333
845.47	71.429
845.76	-9.524
846.06	33.333
846.36	-5.882
846.66	50.000
846.96	26.667
847.25	52.941
847.55	43.478
847.85	35.000
848.15	23.529
848.44	36.364
848.74	52.381
849.04	33.333
849.34	18.750
849.63	47.826
849.93	-100.000
850.23	-6.667
850.53	42.308
850.82	-18.182
851.12	86.364
851.42	27.273
851.71	92.308
852.01	-5.000
852.31	15.385
852.61	42.105
852.90	41.667
853.20	38.889
853.50	-22.222
853.79	-9.524
854.09	9.091
854.39	-75.000
854.68	22.581
854.98	46.154
855.28	83.333
855.57	0.000
855.87	4.000
856.17	13.636
856.46	51.852
856.76	66.667
857.05	17.391
857.35	-4.167
857.65	-15.385
857.94	4.762
858.24	55.556
858.53	52.174
858.83	41.176
859.13	52.941
859.42	41.176
859.72	-14.286
860.01	25.000
860.31	11.111
860.60	10.000
860.90	100.000
861.20	116.667
861.49	38.462
861.79	43.333
862.08	-46.154
862.38	34.375
862.67	47.059
862.97	37.500
863.26	55.556
863.56	-20.000
863.85	9.091
864.15	-22.222
864.44	-66.667
864.74	35.714
865.03	-37.500
865.33	-50.000
865.62	-22.581
865.92	31.818
866.21	30.435
866.51	71.429
866.80	60.000
867.10	-8.333
867.39	-100.000
867.69	1400.000
867.98	28.571
868.27	41.176
868.57	-900.000
868.86	10.000
869.16	0.000
869.45	25.000
869.75	27.273
870.04	-28.571
870.33	-33.333
870.63	-242.857
870.92	75.000
871.22	-162.500
871.51	-45.455
871.80	-133.333
872.10	200.000
>>>>>End Processed Spectral Data<<<<<
