SpectraSuite Data File
++++++++++++++++++++++++++++++++++++
Date: Thu May 14 14:41:08 PDT 2015
User: schluterlab
Dark Spectrum Present: Yes
Reference Spectrum Present: Yes
Number of Sampled Component Spectra: 1
Spectrometers: USB2E3373
Integration Time (usec): 3000 (USB2E3373)
Spectra Averaged: 3 (USB2E3373)
Boxcar Smoothing: 0 (USB2E3373)
Correct for Electrical Dark: No (USB2E3373)
Strobe/Lamp Enabled: No (USB2E3373)
Correct for Detector Non-linearity: No (USB2E3373)
Correct for Stray Light: No (USB2E3373)
Number of Pixels in Processed Spectrum: 2048
>>>>>Begin Processed Spectral Data<<<<<
178.53	0.000
178.91	-200.000
179.29	0.000
179.67	100.000
180.04	71.429
180.42	20.000
180.80	-200.000
181.18	200.000
181.56	1500.000
181.94	-100.000
182.31	100.000
182.69	-200.000
183.07	500.000
183.45	25.000
183.83	83.333
184.20	-100.000
184.58	-1700.000
184.96	75.000
185.34	-22.222
185.72	400.000
186.09	44.444
186.47	-450.000
186.85	-60.000
187.23	-33.333
187.61	0.000
187.98	-220.000
188.36	-325.000
188.74	100.000
189.12	533.333
189.49	93.750
189.87	137.500
190.25	44.444
190.63	220.000
191.00	66.667
191.38	0.000
191.76	275.000
192.14	33.333
192.51	-0.000
192.89	316.667
193.27	0.000
193.65	128.571
194.02	800.000
194.40	71.429
194.78	-157.143
195.15	0.000
195.53	100.000
195.91	0.000
196.29	375.000
196.66	107.692
197.04	1500.000
197.42	142.857
197.79	450.000
198.17	50.000
198.55	114.286
198.92	88.889
199.30	137.500
199.68	209.091
200.05	100.000
200.43	-150.000
200.81	-142.857
201.18	0.000
201.56	111.111
201.94	0.000
202.31	-166.667
202.69	88.889
203.07	-700.000
203.44	100.000
203.82	300.000
204.19	75.000
204.57	166.667
204.95	50.000
205.32	300.000
205.70	-400.000
206.08	100.000
206.45	66.667
206.83	-120.000
207.20	166.667
207.58	-60.000
207.96	83.333
208.33	316.667
208.71	-41.667
209.08	150.000
209.46	0.000
209.84	-116.667
210.21	-150.000
210.59	-700.000
210.96	-233.333
211.34	275.000
211.71	112.500
212.09	900.000
212.46	0.000
212.84	-50.000
213.22	80.000
213.59	200.000
213.97	100.000
214.34	200.000
214.72	-116.667
215.09	25.000
215.47	0.000
215.84	-214.286
216.22	-300.000
216.59	200.000
216.97	0.000
217.34	250.000
217.72	175.000
218.09	200.000
218.47	150.000
218.84	0.000
219.22	-140.000
219.59	100.000
219.97	55.000
220.34	-50.000
220.72	55.556
221.09	84.615
221.47	200.000
221.84	200.000
222.22	71.429
222.59	0.000
222.97	162.500
223.34	100.000
223.72	300.000
224.09	225.000
224.46	225.000
224.84	340.000
225.21	142.857
225.59	150.000
225.96	-25.000
226.34	53.846
226.71	-66.667
227.08	300.000
227.46	160.000
227.83	-75.000
228.21	73.684
228.58	12.500
228.95	-400.000
229.33	100.000
229.70	110.000
230.08	121.053
230.45	-40.000
230.82	500.000
231.20	64.286
231.57	125.000
231.95	81.818
232.32	54.545
232.69	125.000
233.07	50.000
233.44	17.647
233.81	70.000
234.19	77.778
234.56	36.364
234.93	82.759
235.31	100.000
235.68	83.333
236.05	55.000
236.43	88.462
236.80	140.000
237.17	48.148
237.55	63.636
237.92	40.000
238.29	45.161
238.67	36.364
239.04	36.111
239.41	30.952
239.79	32.609
240.16	25.926
240.53	41.304
240.91	29.412
241.28	18.033
241.65	47.761
242.02	29.730
242.40	23.077
242.77	18.667
243.14	19.512
243.51	15.789
243.89	24.359
244.26	29.703
244.63	38.235
245.00	24.299
245.38	22.807
245.75	8.850
246.12	24.603
246.49	21.705
246.87	24.286
247.24	23.841
247.61	23.684
247.98	18.792
248.36	20.988
248.73	19.632
249.10	20.765
249.47	24.876
249.84	30.366
250.22	23.316
250.59	24.444
250.96	26.818
251.33	14.286
251.70	23.504
252.08	20.417
252.45	23.770
252.82	21.488
253.19	19.922
253.56	19.772
253.94	16.923
254.31	23.864
254.68	20.979
255.05	22.150
255.42	22.449
255.79	19.417
256.16	19.536
256.54	16.887
256.91	19.672
257.28	18.689
257.65	18.471
258.02	17.699
258.39	18.803
258.76	26.300
259.14	21.839
259.51	19.885
259.88	18.130
260.25	16.944
260.62	23.288
260.99	23.224
261.36	19.839
261.73	18.302
262.10	18.681
262.47	19.571
262.85	23.737
263.22	18.701
263.59	16.579
263.96	16.113
264.33	19.949
264.70	20.988
265.07	20.525
265.44	21.995
265.81	21.759
266.18	19.274
266.55	18.304
266.92	19.818
267.29	19.475
267.66	19.956
268.03	19.214
268.40	18.580
268.77	18.907
269.14	15.859
269.51	18.860
269.88	19.877
270.25	20.121
270.62	20.464
270.99	20.404
271.36	20.792
271.73	19.450
272.10	22.044
272.47	18.437
272.84	16.265
273.21	18.637
273.58	20.363
273.95	16.538
274.32	17.110
274.69	17.021
275.06	20.513
275.43	15.896
275.80	19.929
276.17	18.519
276.54	18.657
276.91	18.068
277.28	18.083
277.65	19.390
278.02	17.647
278.39	18.297
278.76	17.750
279.13	19.504
279.50	21.306
279.87	17.710
280.23	16.549
280.60	18.644
280.97	18.586
281.34	17.827
281.71	19.797
282.08	20.100
282.45	16.858
282.82	18.524
283.19	15.994
283.56	16.393
283.92	18.018
284.29	18.483
284.66	20.197
285.03	16.667
285.40	17.620
285.77	19.195
286.14	20.763
286.51	17.199
286.87	16.588
287.24	18.675
287.61	15.695
287.98	16.163
288.35	16.420
288.72	16.272
289.08	17.570
289.45	16.716
289.82	17.018
290.19	16.092
290.56	17.746
290.93	14.979
291.29	15.702
291.66	15.427
292.03	16.825
292.40	18.639
292.77	15.903
293.13	15.562
293.50	16.163
293.87	15.570
294.24	16.400
294.60	16.056
294.97	15.034
295.34	16.645
295.71	14.250
296.08	14.212
296.44	15.074
296.81	14.982
297.18	14.197
297.55	13.915
297.91	12.930
298.28	13.270
298.65	14.031
299.02	13.932
299.38	14.874
299.75	15.304
300.12	14.352
300.48	13.825
300.85	14.848
301.22	14.206
301.59	13.242
301.95	14.350
302.32	16.222
302.69	12.596
303.05	14.363
303.42	14.523
303.79	14.271
304.15	15.457
304.52	13.848
304.89	13.508
305.25	13.251
305.62	14.107
305.99	14.021
306.35	14.113
306.72	13.133
307.09	13.503
307.45	13.768
307.82	13.017
308.19	13.724
308.55	14.465
308.92	13.340
309.29	14.176
309.65	14.425
310.02	14.059
310.38	13.189
310.75	13.592
311.12	15.916
311.48	13.685
311.85	15.575
312.22	14.326
312.58	14.648
312.95	13.958
313.31	15.357
313.68	15.110
314.05	16.983
314.41	15.938
314.78	17.257
315.14	17.151
315.51	16.990
315.87	17.372
316.24	18.174
316.61	18.117
316.97	17.828
317.34	18.166
317.70	19.738
318.07	17.725
318.43	19.558
318.80	20.151
319.16	19.914
319.53	18.680
319.89	19.982
320.26	20.374
320.62	22.074
320.99	21.053
321.35	21.627
321.72	23.907
322.08	22.002
322.45	24.029
322.81	23.827
323.18	23.805
323.54	24.397
323.91	26.068
324.27	24.355
324.64	26.700
325.00	25.954
325.37	25.962
325.73	27.190
326.10	28.629
326.46	28.827
326.83	29.464
327.19	29.055
327.56	30.119
327.92	28.403
328.29	29.677
328.65	29.564
329.01	31.387
329.38	31.761
329.74	32.620
330.11	33.647
330.47	32.772
330.84	33.161
331.20	33.750
331.56	32.582
331.93	33.556
332.29	35.763
332.66	34.635
333.02	35.176
333.38	35.738
333.75	35.438
334.11	35.863
334.48	34.571
334.84	35.429
335.20	35.013
335.57	36.003
335.93	35.289
336.29	35.191
336.66	36.333
337.02	34.866
337.38	36.905
337.75	35.124
338.11	36.922
338.47	35.815
338.84	35.448
339.20	34.709
339.56	36.738
339.93	35.550
340.29	36.312
340.65	36.010
341.02	37.271
341.38	36.217
341.74	35.916
342.11	35.961
342.47	35.107
342.83	36.473
343.20	35.977
343.56	36.087
343.92	35.388
344.28	34.844
344.65	36.124
345.01	35.881
345.37	36.547
345.73	34.606
346.10	36.193
346.46	36.234
346.82	36.105
347.19	35.294
347.55	35.357
347.91	34.695
348.27	35.053
348.63	35.263
349.00	34.079
349.36	35.762
349.72	36.310
350.08	35.364
350.45	35.133
350.81	34.691
351.17	35.263
351.53	36.467
351.89	35.687
352.26	34.701
352.62	35.597
352.98	36.412
353.34	33.234
353.70	34.900
354.07	34.203
354.43	34.396
354.79	34.854
355.15	33.996
355.51	34.868
355.87	35.228
356.24	35.513
356.60	33.999
356.96	34.618
357.32	33.755
357.68	34.480
358.04	34.356
358.40	34.328
358.77	34.868
359.13	34.490
359.49	34.572
359.85	33.865
360.21	34.146
360.57	34.314
360.93	34.838
361.29	33.123
361.66	33.671
362.02	34.168
362.38	33.942
362.74	34.078
363.10	34.869
363.46	33.587
363.82	33.665
364.18	34.905
364.54	34.786
364.90	34.047
365.26	33.862
365.62	33.933
365.98	33.901
366.35	33.490
366.71	34.150
367.07	34.303
367.43	34.209
367.79	34.439
368.15	33.913
368.51	33.897
368.87	33.377
369.23	33.867
369.59	34.631
369.95	33.739
370.31	34.436
370.67	34.388
371.03	35.180
371.39	32.975
371.75	33.975
372.11	34.553
372.47	33.988
372.83	33.115
373.19	33.556
373.55	33.875
373.91	33.401
374.27	32.536
374.63	33.965
374.99	33.554
375.35	34.675
375.71	33.871
376.07	33.828
376.42	33.501
376.78	34.183
377.14	34.061
377.50	35.231
377.86	34.052
378.22	34.790
378.58	33.888
378.94	33.392
379.30	33.275
379.66	33.568
380.02	33.987
380.38	34.389
380.74	33.014
381.09	34.262
381.45	34.375
381.81	35.012
382.17	34.323
382.53	33.392
382.89	33.578
383.25	33.118
383.61	33.912
383.97	34.099
384.32	35.646
384.68	32.947
385.04	34.644
385.40	34.237
385.76	34.642
386.12	34.530
386.48	33.529
386.83	35.578
387.19	34.299
387.55	34.096
387.91	33.904
388.27	34.700
388.62	34.479
388.98	33.333
389.34	34.237
389.70	33.585
390.06	33.866
390.42	34.036
390.77	34.919
391.13	34.038
391.49	34.541
391.85	34.182
392.20	33.867
392.56	34.908
392.92	33.751
393.28	34.826
393.64	32.905
393.99	33.934
394.35	33.879
394.71	34.251
395.07	33.653
395.42	34.209
395.78	34.613
396.14	34.581
396.50	34.857
396.85	33.810
397.21	33.195
397.57	33.922
397.92	33.963
398.28	33.351
398.64	32.952
399.00	32.565
399.35	34.188
399.71	33.043
400.07	33.520
400.42	33.877
400.78	33.333
401.14	33.580
401.49	34.451
401.85	34.244
402.21	34.473
402.57	34.272
402.92	33.865
403.28	32.728
403.63	33.174
403.99	33.254
404.35	34.281
404.70	33.768
405.06	33.478
405.42	33.255
405.77	33.806
406.13	33.712
406.49	34.065
406.84	33.352
407.20	32.420
407.55	33.979
407.91	34.318
408.27	33.098
408.62	33.857
408.98	33.024
409.34	33.196
409.69	33.498
410.05	33.822
410.40	34.281
410.76	33.259
411.11	33.255
411.47	33.784
411.83	33.039
412.18	33.614
412.54	33.729
412.89	33.877
413.25	33.578
413.60	33.142
413.96	33.217
414.31	32.635
414.67	32.618
415.03	33.354
415.38	33.417
415.74	33.354
416.09	33.991
416.45	32.999
416.80	33.537
417.16	32.822
417.51	34.247
417.87	33.660
418.22	33.653
418.58	33.519
418.93	34.400
419.29	33.477
419.64	32.413
420.00	32.819
420.35	33.352
420.71	32.797
421.06	33.295
421.42	32.569
421.77	32.310
422.12	32.452
422.48	32.975
422.83	33.297
423.19	33.103
423.54	34.181
423.90	33.738
424.25	33.067
424.61	32.491
424.96	32.565
425.31	33.280
425.67	33.011
426.02	33.315
426.38	33.410
426.73	33.482
427.09	34.025
427.44	32.769
427.79	34.494
428.15	33.219
428.50	33.483
428.85	32.262
429.21	34.362
429.56	32.675
429.92	33.464
430.27	33.639
430.62	33.708
430.98	32.710
431.33	31.965
431.68	32.375
432.04	32.809
432.39	33.101
432.74	33.048
433.10	33.423
433.45	33.445
433.80	32.511
434.16	32.645
434.51	33.042
434.86	34.419
435.22	33.369
435.57	34.552
435.92	33.890
436.28	32.821
436.63	33.971
436.98	33.977
437.34	33.484
437.69	33.957
438.04	32.998
438.39	33.314
438.75	33.536
439.10	34.249
439.45	33.371
439.81	33.672
440.16	33.619
440.51	33.779
440.86	34.130
441.22	33.923
441.57	33.700
441.92	33.996
442.27	33.737
442.63	33.085
442.98	34.525
443.33	34.193
443.68	34.737
444.03	33.255
444.39	33.749
444.74	34.150
445.09	32.742
445.44	34.668
445.79	33.860
446.15	33.967
446.50	32.920
446.85	34.095
447.20	33.172
447.55	35.303
447.91	34.136
448.26	33.457
448.61	34.272
448.96	34.764
449.31	33.881
449.66	33.824
450.02	33.597
450.37	34.204
450.72	33.854
451.07	34.339
451.42	33.102
451.77	33.685
452.12	34.199
452.47	34.046
452.83	34.459
453.18	33.859
453.53	33.429
453.88	33.738
454.23	34.407
454.58	35.345
454.93	34.830
455.28	34.377
455.63	33.997
455.98	34.860
456.34	34.276
456.69	34.627
457.04	34.515
457.39	34.479
457.74	34.452
458.09	33.278
458.44	34.644
458.79	33.987
459.14	34.400
459.49	34.805
459.84	34.260
460.19	34.758
460.54	34.526
460.89	34.569
461.24	33.908
461.59	34.643
461.94	34.341
462.29	34.546
462.64	34.098
462.99	34.589
463.34	35.302
463.69	34.525
464.04	34.908
464.39	34.865
464.74	35.120
465.09	34.602
465.44	34.925
465.79	34.796
466.14	34.184
466.49	34.684
466.84	34.656
467.19	36.590
467.54	32.844
467.89	34.828
468.24	34.238
468.59	34.974
468.94	33.916
469.29	34.133
469.64	33.757
469.99	34.863
470.34	34.406
470.68	34.997
471.03	35.102
471.38	35.317
471.73	35.501
472.08	35.025
472.43	34.016
472.78	35.642
473.13	35.335
473.48	35.589
473.83	35.403
474.17	35.287
474.52	35.117
474.87	35.936
475.22	34.817
475.57	34.683
475.92	34.993
476.27	34.931
476.61	34.839
476.96	34.619
477.31	34.406
477.66	35.939
478.01	34.621
478.36	34.197
478.70	35.961
479.05	36.503
479.40	35.143
479.75	35.351
480.10	35.812
480.45	35.552
480.79	35.193
481.14	35.616
481.49	34.711
481.84	35.205
482.19	34.495
482.53	35.724
482.88	35.268
483.23	35.305
483.58	35.109
483.92	34.885
484.27	34.970
484.62	34.818
484.97	35.614
485.31	33.897
485.66	32.298
486.01	32.207
486.36	32.849
486.70	33.847
487.05	34.885
487.40	34.154
487.75	34.809
488.09	34.489
488.44	33.909
488.79	34.772
489.13	34.685
489.48	34.874
489.83	34.728
490.17	34.548
490.52	33.949
490.87	35.364
491.22	35.399
491.56	35.452
491.91	36.023
492.26	35.266
492.60	35.680
492.95	36.507
493.30	35.276
493.64	35.961
493.99	35.570
494.34	35.148
494.68	35.760
495.03	36.256
495.37	36.041
495.72	35.601
496.07	36.415
496.41	35.350
496.76	35.696
497.11	36.051
497.45	35.822
497.80	36.384
498.14	35.964
498.49	36.765
498.84	35.192
499.18	35.987
499.53	36.278
499.87	36.571
500.22	35.574
500.56	35.717
500.91	37.346
501.26	36.500
501.60	35.528
501.95	36.648
502.29	36.463
502.64	36.205
502.98	35.634
503.33	35.594
503.67	35.761
504.02	36.471
504.36	36.506
504.71	35.416
505.06	35.971
505.40	35.009
505.75	36.931
506.09	36.372
506.44	37.001
506.78	36.881
507.13	36.515
507.47	36.902
507.82	37.027
508.16	36.138
508.51	35.490
508.85	35.994
509.19	36.712
509.54	37.320
509.88	36.280
510.23	37.154
510.57	38.376
510.92	37.252
511.26	36.027
511.61	36.456
511.95	36.750
512.30	37.420
512.64	36.732
512.98	36.718
513.33	37.298
513.67	37.889
514.02	37.404
514.36	37.289
514.70	37.917
515.05	37.435
515.39	37.375
515.74	38.176
516.08	37.824
516.42	38.566
516.77	37.697
517.11	37.029
517.46	37.381
517.80	38.856
518.14	38.901
518.49	37.581
518.83	37.573
519.17	38.180
519.52	37.369
519.86	37.962
520.20	37.540
520.55	38.445
520.89	39.302
521.23	38.526
521.58	39.266
521.92	38.980
522.26	38.603
522.61	39.468
522.95	38.120
523.29	38.506
523.64	38.789
523.98	38.962
524.32	39.828
524.66	38.816
525.01	38.109
525.35	38.024
525.69	38.573
526.04	37.543
526.38	38.506
526.72	37.947
527.06	38.768
527.41	38.076
527.75	38.420
528.09	38.607
528.43	38.484
528.78	38.439
529.12	38.933
529.46	38.336
529.80	39.073
530.15	39.014
530.49	39.383
530.83	38.961
531.17	39.367
531.51	39.170
531.86	38.702
532.20	40.366
532.54	38.241
532.88	39.697
533.22	38.598
533.57	38.315
533.91	38.552
534.25	38.383
534.59	39.253
534.93	38.144
535.27	37.859
535.62	39.056
535.96	38.815
536.30	39.307
536.64	39.279
536.98	39.114
537.32	38.951
537.66	38.989
538.01	37.885
538.35	38.916
538.69	39.123
539.03	38.749
539.37	38.869
539.71	37.658
540.05	38.669
540.39	38.998
540.73	38.616
541.07	39.301
541.42	37.626
541.76	37.900
542.10	38.359
542.44	38.246
542.78	37.774
543.12	38.319
543.46	38.095
543.80	38.429
544.14	39.019
544.48	38.121
544.82	39.198
545.16	38.939
545.50	38.466
545.84	38.763
546.18	40.432
546.52	40.127
546.86	38.365
547.20	39.249
547.54	37.953
547.88	38.276
548.22	39.006
548.56	38.151
548.90	38.925
549.24	39.149
549.58	39.495
549.92	38.520
550.26	39.288
550.60	38.992
550.94	39.004
551.28	38.284
551.62	40.027
551.96	37.476
552.30	39.324
552.64	38.830
552.98	38.366
553.32	39.228
553.66	39.228
554.00	39.723
554.34	38.996
554.68	38.928
555.02	38.633
555.36	39.908
555.69	37.476
556.03	38.146
556.37	39.362
556.71	38.998
557.05	39.169
557.39	39.748
557.73	39.894
558.07	38.146
558.41	39.668
558.75	39.216
559.08	40.431
559.42	39.300
559.76	39.417
560.10	38.848
560.44	39.116
560.78	39.688
561.12	38.978
561.45	40.024
561.79	38.278
562.13	38.879
562.47	37.855
562.81	39.051
563.15	38.763
563.48	38.409
563.82	39.420
564.16	39.431
564.50	39.094
564.84	38.466
565.17	38.588
565.51	37.860
565.85	38.302
566.19	37.788
566.52	38.912
566.86	37.465
567.20	38.227
567.54	37.334
567.88	38.073
568.21	37.599
568.55	37.938
568.89	36.541
569.23	36.671
569.56	36.772
569.90	35.745
570.24	35.616
570.57	35.183
570.91	34.538
571.25	34.915
571.59	35.541
571.92	34.542
572.26	34.516
572.60	34.808
572.93	35.124
573.27	34.954
573.61	34.198
573.95	34.499
574.28	34.128
574.62	33.902
574.96	33.172
575.29	33.862
575.63	34.073
575.97	34.251
576.30	33.925
576.64	33.572
576.98	34.009
577.31	34.341
577.65	33.801
577.98	33.245
578.32	32.708
578.66	33.754
578.99	33.811
579.33	33.882
579.67	34.066
580.00	33.805
580.34	33.988
580.67	33.252
581.01	33.643
581.35	33.216
581.68	32.795
582.02	32.866
582.35	33.525
582.69	33.681
583.02	33.751
583.36	34.401
583.70	33.992
584.03	33.669
584.37	33.695
584.70	33.839
585.04	33.760
585.37	33.849
585.71	33.441
586.04	33.465
586.38	33.496
586.72	33.542
587.05	34.024
587.39	33.433
587.72	34.211
588.06	33.293
588.39	34.130
588.73	33.466
589.06	35.073
589.40	34.296
589.73	35.347
590.07	34.615
590.40	34.145
590.73	35.136
591.07	34.959
591.40	35.031
591.74	35.533
592.07	36.784
592.41	34.345
592.74	34.327
593.08	34.936
593.41	34.908
593.75	34.282
594.08	34.232
594.41	35.032
594.75	35.071
595.08	34.758
595.42	34.416
595.75	34.872
596.09	34.768
596.42	36.044
596.75	36.241
597.09	35.838
597.42	35.797
597.75	34.888
598.09	35.357
598.42	35.625
598.76	34.849
599.09	34.496
599.42	33.825
599.76	33.939
600.09	34.668
600.42	33.867
600.76	35.238
601.09	34.982
601.42	34.535
601.76	34.655
602.09	34.989
602.42	33.988
602.76	35.055
603.09	34.765
603.42	35.332
603.76	34.531
604.09	35.309
604.42	34.606
604.76	34.665
605.09	35.660
605.42	35.726
605.75	34.192
606.09	34.976
606.42	34.294
606.75	34.258
607.09	34.178
607.42	34.412
607.75	35.326
608.08	35.320
608.42	34.180
608.75	35.614
609.08	34.423
609.41	35.421
609.75	35.134
610.08	35.840
610.41	35.769
610.74	35.000
611.07	35.524
611.41	36.368
611.74	36.305
612.07	35.951
612.40	35.789
612.73	36.235
613.07	35.159
613.40	36.092
613.73	35.243
614.06	36.703
614.39	36.006
614.72	35.953
615.06	35.226
615.39	35.186
615.72	36.019
616.05	35.600
616.38	35.621
616.71	36.207
617.05	36.422
617.38	35.955
617.71	36.015
618.04	36.158
618.37	36.831
618.70	36.538
619.03	36.022
619.36	37.053
619.69	36.643
620.03	37.225
620.36	37.117
620.69	37.446
621.02	36.877
621.35	39.187
621.68	39.190
622.01	38.861
622.34	38.285
622.67	38.282
623.00	35.830
623.33	37.823
623.66	37.873
623.99	37.591
624.32	38.077
624.65	37.580
624.99	37.191
625.32	38.733
625.65	37.492
625.98	37.153
626.31	38.412
626.64	38.828
626.97	38.935
627.30	38.876
627.63	36.834
627.96	39.790
628.29	39.144
628.62	38.791
628.95	39.527
629.28	40.272
629.61	40.993
629.94	38.410
630.26	38.220
630.59	39.896
630.92	39.307
631.25	41.950
631.58	42.750
631.91	41.237
632.24	41.306
632.57	41.271
632.90	40.421
633.23	42.755
633.56	41.837
633.89	40.909
634.22	42.723
634.55	42.171
634.88	42.100
635.20	42.304
635.53	42.147
635.86	40.412
636.19	43.054
636.52	42.405
636.85	40.041
637.18	40.437
637.51	42.366
637.83	42.636
638.16	41.129
638.49	41.432
638.82	41.826
639.15	41.123
639.48	41.686
639.81	42.494
640.13	42.049
640.46	39.394
640.79	42.157
641.12	43.727
641.45	42.911
641.77	46.213
642.10	43.570
642.43	46.011
642.76	45.257
643.09	43.699
643.41	44.818
643.74	44.414
644.07	43.724
644.40	43.140
644.73	45.283
645.05	44.493
645.38	44.604
645.71	43.988
646.04	45.337
646.36	42.774
646.69	45.552
647.02	47.095
647.35	44.733
647.67	46.055
648.00	46.497
648.33	45.345
648.66	44.936
648.98	41.088
649.31	43.978
649.64	44.223
649.96	42.175
650.29	41.586
650.62	41.584
650.94	42.943
651.27	41.018
651.60	43.275
651.92	42.705
652.25	41.968
652.58	39.890
652.90	40.407
653.23	42.676
653.56	40.799
653.88	42.416
654.21	43.099
654.54	42.197
654.86	41.501
655.19	39.774
655.52	35.196
655.84	29.330
656.17	35.143
656.49	49.469
656.82	54.356
657.15	43.159
657.47	32.627
657.80	24.207
658.13	19.133
658.45	25.382
658.78	31.256
659.10	30.890
659.43	31.209
659.75	31.779
660.08	32.941
660.41	34.822
660.73	38.312
661.06	39.060
661.38	42.265
661.71	44.655
662.03	43.034
662.36	46.691
662.68	46.341
663.01	44.248
663.33	45.180
663.66	45.971
663.98	45.000
664.31	45.403
664.63	43.738
664.96	45.009
665.28	41.561
665.61	43.881
665.93	43.214
666.26	46.057
666.58	43.911
666.91	43.925
667.23	46.476
667.56	44.576
667.88	46.400
668.21	42.188
668.53	41.313
668.86	45.580
669.18	44.807
669.50	43.141
669.83	45.000
670.15	45.079
670.48	48.214
670.80	42.256
671.13	44.802
671.45	45.472
671.77	43.503
672.10	39.833
672.42	41.262
672.75	41.321
673.07	39.254
673.39	38.829
673.72	43.121
674.04	44.138
674.37	42.755
674.69	43.386
675.01	44.000
675.34	43.893
675.66	41.948
675.98	43.470
676.31	43.945
676.63	44.677
676.95	43.103
677.28	43.548
677.60	42.323
677.92	43.954
678.25	40.402
678.57	41.993
678.89	41.468
679.22	40.070
679.54	41.368
679.86	38.814
680.18	42.454
680.51	38.994
680.83	41.571
681.15	43.103
681.48	41.796
681.80	41.105
682.12	43.531
682.44	40.735
682.77	42.730
683.09	42.992
683.41	42.248
683.73	40.987
684.06	40.037
684.38	39.356
684.70	42.549
685.02	41.136
685.34	40.433
685.67	38.170
685.99	38.650
686.31	38.227
686.63	38.705
686.96	38.170
687.28	38.274
687.60	38.552
687.92	38.264
688.24	38.731
688.56	39.310
688.89	39.383
689.21	43.053
689.53	40.784
689.85	41.815
690.17	37.407
690.49	40.040
690.82	38.614
691.14	42.105
691.46	39.006
691.78	41.252
692.10	39.450
692.42	38.036
692.74	39.746
693.06	37.407
693.39	39.848
693.71	40.038
694.03	38.662
694.35	42.095
694.67	42.300
694.99	41.915
695.31	42.605
695.63	41.991
695.95	39.752
696.27	43.077
696.59	43.142
696.91	43.018
697.23	42.637
697.56	38.493
697.88	39.394
698.20	37.288
698.52	42.614
698.84	39.501
699.16	43.061
699.48	39.749
699.80	39.149
700.12	39.083
700.44	39.401
700.76	42.043
701.08	43.099
701.40	45.855
701.72	43.532
702.04	44.920
702.36	37.173
702.68	41.076
703.00	41.076
703.32	41.626
703.64	42.543
703.96	43.198
704.28	42.260
704.60	43.544
704.91	40.306
705.23	49.863
705.55	44.011
705.87	48.788
706.19	45.706
706.51	43.072
706.83	43.516
707.15	39.947
707.47	40.888
707.79	39.301
708.11	36.229
708.43	35.484
708.74	34.598
709.06	39.211
709.38	40.610
709.70	39.702
710.02	38.760
710.34	43.617
710.66	39.944
710.98	43.716
711.29	39.011
711.61	41.243
711.93	43.020
712.25	41.622
712.57	44.838
712.89	40.294
713.20	42.604
713.52	42.197
713.84	37.326
714.16	40.263
714.48	41.753
714.80	44.156
715.11	40.682
715.43	38.992
715.75	40.789
716.07	38.950
716.39	39.617
716.70	38.855
717.02	42.623
717.34	43.902
717.66	42.282
717.97	37.329
718.29	39.175
718.61	41.118
718.93	41.424
719.24	37.267
719.56	38.650
719.88	42.643
720.20	38.387
720.51	37.267
720.83	40.625
721.15	39.803
721.46	36.301
721.78	38.000
722.10	38.835
722.42	39.933
722.73	40.000
723.05	41.053
723.37	44.792
723.68	43.369
724.00	39.711
724.32	41.901
724.63	37.762
724.95	45.390
725.27	39.373
725.58	38.163
725.90	41.034
726.22	36.677
726.53	41.234
726.85	41.509
727.16	38.671
727.48	43.425
727.80	41.722
728.11	41.343
728.43	41.751
728.74	38.127
729.06	39.404
729.38	38.961
729.69	41.275
730.01	40.476
730.32	34.242
730.64	34.591
730.96	36.646
731.27	41.061
731.59	38.462
731.90	34.026
732.22	32.552
732.53	35.359
732.85	35.143
733.16	37.537
733.48	38.415
733.80	36.490
734.11	37.037
734.43	37.027
734.74	36.709
735.06	33.668
735.37	35.135
735.69	36.486
736.00	35.311
736.32	33.693
736.63	35.278
736.95	37.644
737.26	37.879
737.58	34.545
737.89	38.824
738.21	35.168
738.52	34.426
738.83	38.225
739.15	35.816
739.46	37.415
739.78	38.344
740.09	33.238
740.41	37.901
740.72	38.000
741.04	38.188
741.35	40.000
741.66	39.608
741.98	45.082
742.29	37.238
742.61	43.421
742.92	38.462
743.23	38.267
743.55	41.473
743.86	38.000
744.18	40.083
744.49	43.460
744.80	42.798
745.12	38.397
745.43	36.992
745.74	39.224
746.06	44.068
746.37	44.726
746.68	45.528
747.00	39.583
747.31	40.343
747.62	44.615
747.94	42.915
748.25	41.767
748.56	41.633
748.88	36.325
749.19	38.793
749.50	38.528
749.82	40.161
750.13	42.705
750.44	37.000
750.75	31.692
751.07	36.615
751.38	33.754
751.69	38.339
752.01	36.570
752.32	40.523
752.63	36.054
752.94	39.792
753.26	34.572
753.57	41.111
753.88	38.577
754.19	36.977
754.51	39.228
754.82	37.942
755.13	36.066
755.44	38.908
755.75	35.526
756.07	40.000
756.38	35.220
756.69	39.157
757.00	30.194
757.31	31.967
757.63	33.504
757.94	32.864
758.25	34.537
758.56	32.898
758.87	32.273
759.18	33.067
759.50	36.261
759.81	32.493
760.12	32.345
760.43	32.031
760.74	33.251
761.05	35.750
761.36	30.602
761.67	34.518
761.99	33.784
762.30	38.720
762.61	30.033
762.92	32.836
763.23	36.704
763.54	41.367
763.85	34.364
764.16	35.354
764.47	30.986
764.78	36.422
765.10	30.205
765.41	35.128
765.72	30.952
766.03	33.333
766.34	30.094
766.65	31.010
766.96	36.653
767.27	40.092
767.58	32.338
767.89	36.058
768.20	39.437
768.51	34.722
768.82	34.137
769.13	37.500
769.44	35.000
769.75	32.130
770.06	37.692
770.37	35.827
770.68	39.149
770.99	33.198
771.30	37.407
771.61	34.221
771.92	34.444
772.23	39.271
772.54	32.870
772.85	44.240
773.16	38.571
773.47	38.095
773.78	37.838
774.09	39.773
774.39	39.000
774.70	42.077
775.01	35.976
775.32	30.588
775.63	38.037
775.94	33.121
776.25	43.871
776.56	46.795
776.87	43.537
777.18	37.931
777.48	48.951
777.79	35.811
778.10	33.824
778.41	46.528
778.72	42.069
779.03	35.802
779.34	40.606
779.65	32.124
779.95	39.444
780.26	32.386
780.57	34.194
780.88	44.203
781.19	43.226
781.50	40.588
781.80	39.247
782.11	43.915
782.42	26.768
782.73	36.527
783.04	28.492
783.34	30.909
783.65	36.601
783.96	30.435
784.27	38.095
784.57	35.099
784.88	36.429
785.19	33.858
785.50	43.307
785.81	41.353
786.11	46.923
786.42	30.935
786.73	38.129
787.04	43.609
787.34	33.607
787.65	36.800
787.96	43.284
788.26	42.657
788.57	41.958
788.88	39.474
789.19	34.641
789.49	34.932
789.80	46.809
790.11	41.732
790.41	38.281
790.72	37.288
791.03	35.922
791.33	33.913
791.64	36.842
791.95	40.179
792.25	38.095
792.56	31.250
792.87	41.667
793.17	40.179
793.48	32.292
793.79	43.373
794.09	33.945
794.40	34.862
794.70	40.136
795.01	31.818
795.32	38.356
795.62	33.099
795.93	34.848
796.23	39.344
796.54	36.607
796.85	46.809
797.15	38.043
797.46	47.945
797.76	40.000
798.07	44.565
798.37	38.144
798.68	33.766
798.99	40.230
799.29	41.573
799.60	45.745
799.90	44.578
800.21	46.154
800.51	44.776
800.82	54.412
801.12	27.397
801.43	23.529
801.73	52.542
802.04	46.970
802.34	25.000
802.65	61.017
802.95	50.746
803.26	57.627
803.56	49.315
803.87	54.286
804.17	43.836
804.48	29.825
804.78	54.167
805.09	44.828
805.39	47.297
805.70	33.803
806.00	37.805
806.30	45.783
806.61	35.616
806.91	35.577
807.22	44.444
807.52	35.632
807.83	43.056
808.13	45.783
808.43	41.573
808.74	33.750
809.04	44.118
809.35	41.333
809.65	50.000
809.95	46.575
810.26	43.860
810.56	43.103
810.86	48.529
811.17	42.105
811.47	44.262
811.77	40.000
812.08	44.068
812.38	40.000
812.69	55.172
812.99	41.509
813.29	20.513
813.59	70.000
813.90	47.368
814.20	50.909
814.50	57.746
814.81	47.436
815.11	50.820
815.41	38.806
815.72	58.621
816.02	44.643
816.32	75.556
816.62	63.636
816.93	44.444
817.23	46.296
817.53	40.426
817.84	80.952
818.14	70.588
818.44	40.816
818.74	51.111
819.04	35.897
819.35	48.571
819.65	65.385
819.95	60.377
820.25	60.000
820.56	66.667
820.86	65.625
821.16	58.974
821.46	37.209
821.76	34.000
822.07	39.286
822.37	43.478
822.67	31.915
822.97	18.919
823.27	52.500
823.57	59.184
823.88	53.333
824.18	30.000
824.48	63.333
824.78	68.000
825.08	75.758
825.38	55.556
825.69	48.936
825.99	44.444
826.29	22.857
826.59	30.769
826.89	37.209
827.19	30.000
827.49	26.471
827.79	56.250
828.09	43.243
828.39	76.667
828.70	43.902
829.00	48.837
829.30	35.714
829.60	58.824
829.90	54.348
830.20	62.857
830.50	62.069
830.80	94.444
831.10	65.385
831.40	47.059
831.70	85.714
832.00	96.774
832.30	-17.647
832.60	25.000
832.90	0.000
833.20	115.789
833.50	65.000
833.80	105.263
834.10	-9.524
834.40	61.111
834.70	78.125
835.00	40.000
835.30	67.647
835.60	50.000
835.90	100.000
836.20	50.000
836.50	76.000
836.80	51.515
837.10	29.630
837.40	85.185
837.70	56.250
838.00	89.286
838.30	56.522
838.60	72.414
838.90	121.429
839.19	-13.043
839.49	66.667
839.79	47.826
840.09	68.750
840.39	70.000
840.69	77.419
840.99	53.571
841.29	86.667
841.59	78.947
841.88	53.846
842.18	76.923
842.48	120.000
842.78	95.000
843.08	66.667
843.38	54.839
843.68	-5.556
843.97	76.471
844.27	43.750
844.57	47.368
844.87	70.000
845.17	80.000
845.47	61.905
845.76	61.905
846.06	88.889
846.36	47.059
846.66	61.538
846.96	60.000
847.25	76.471
847.55	73.913
847.85	35.000
848.15	58.824
848.44	54.545
848.74	33.333
849.04	-16.667
849.34	18.750
849.63	47.826
849.93	-400.000
850.23	60.000
850.53	84.615
850.82	145.455
851.12	72.727
851.42	190.909
851.71	192.308
852.01	-30.000
852.31	69.231
852.61	89.474
852.90	133.333
853.20	88.889
853.50	66.667
853.79	47.619
854.09	27.273
854.39	75.000
854.68	45.161
854.98	46.154
855.28	61.111
855.57	50.000
855.87	56.000
856.17	36.364
856.46	59.259
856.76	66.667
857.05	13.043
857.35	8.333
857.65	115.385
857.94	100.000
858.24	85.185
858.53	69.565
858.83	111.765
859.13	52.941
859.42	35.294
859.72	114.286
860.01	85.000
860.31	66.667
860.60	150.000
860.90	86.667
861.20	72.222
861.49	92.308
861.79	63.333
862.08	61.538
862.38	46.875
862.67	82.353
862.97	106.250
863.26	-55.556
863.56	140.000
863.85	45.455
864.15	55.556
864.44	266.667
864.74	128.571
865.03	81.250
865.33	-30.000
865.62	54.839
865.92	86.364
866.21	95.652
866.51	157.143
866.80	120.000
867.10	50.000
867.39	83.333
867.69	-500.000
867.98	200.000
868.27	111.765
868.57	400.000
868.86	-50.000
869.16	33.333
869.45	104.167
869.75	145.455
870.04	85.714
870.33	100.000
870.63	57.143
870.92	275.000
871.22	112.500
871.51	9.091
871.80	133.333
872.10	150.000
>>>>>End Processed Spectral Data<<<<<
