SpectraSuite Data File
++++++++++++++++++++++++++++++++++++
Date: Thu May 14 15:16:23 PDT 2015
User: schluterlab
Dark Spectrum Present: Yes
Reference Spectrum Present: Yes
Number of Sampled Component Spectra: 1
Spectrometers: USB2E3373
Integration Time (usec): 3000 (USB2E3373)
Spectra Averaged: 3 (USB2E3373)
Boxcar Smoothing: 0 (USB2E3373)
Correct for Electrical Dark: No (USB2E3373)
Strobe/Lamp Enabled: No (USB2E3373)
Correct for Detector Non-linearity: No (USB2E3373)
Correct for Stray Light: No (USB2E3373)
Number of Pixels in Processed Spectrum: 2048
>>>>>Begin Processed Spectral Data<<<<<
178.53	0.000
178.91	542.857
179.29	-3900.000
179.67	-3400.000
180.04	385.714
180.42	370.000
180.80	760.000
181.18	-4200.000
181.56	-3800.000
181.94	1025.000
182.31	-925.000
182.69	1166.667
183.07	-1750.000
183.45	1125.000
183.83	-633.333
184.20	-1233.333
184.58	5000.000
184.96	-1200.000
185.34	-411.111
185.72	-740.000
186.09	511.111
186.47	2200.000
186.85	860.000
187.23	-533.333
187.61	-5700.000
187.98	860.000
188.36	925.000
188.74	-1075.000
189.12	-1200.000
189.49	-206.250
189.87	-475.000
190.25	-444.444
190.63	-820.000
191.00	-433.333
191.38	0.000
191.76	-1300.000
192.14	-700.000
192.51	1700.000
192.89	-616.667
193.27	0.000
193.65	-485.714
194.02	-4700.000
194.40	-514.286
194.78	657.143
195.15	0.000
195.53	-345.455
195.91	0.000
196.29	-900.000
196.66	-292.308
197.04	-4800.000
197.42	-485.714
197.79	-2150.000
198.17	-537.500
198.55	-571.429
198.92	-333.333
199.30	-575.000
199.68	-336.364
200.05	-242.857
200.43	-2150.000
200.81	557.143
201.18	0.000
201.56	522.222
201.94	0.000
202.31	1233.333
202.69	-477.778
203.07	3400.000
203.44	-422.222
203.82	-1075.000
204.19	-275.000
204.57	-683.333
204.95	-537.500
205.32	-4300.000
205.70	1150.000
206.08	-700.000
206.45	-533.333
206.83	980.000
207.20	-600.000
207.58	-720.000
207.96	-733.333
208.33	-516.667
208.71	408.333
209.08	-483.333
209.46	0.000
209.84	733.333
210.21	1650.000
210.59	2100.000
210.96	1433.333
211.34	-950.000
211.71	-550.000
212.09	-4200.000
212.46	0.000
212.84	2500.000
213.22	-760.000
213.59	-1125.000
213.97	-360.000
214.34	-1300.000
214.72	683.333
215.09	-1000.000
215.47	0.000
215.84	571.429
216.22	2600.000
216.59	-920.000
216.97	-800.000
217.34	-1050.000
217.72	-537.500
218.09	-875.000
218.47	-1100.000
218.84	0.000
219.22	880.000
219.59	-217.647
219.97	-200.000
220.34	2050.000
220.72	-333.333
221.09	-261.538
221.47	-1100.000
221.84	-300.000
222.22	-614.286
222.59	0.000
222.97	-387.500
223.34	-1080.000
223.72	-4400.000
224.09	-1025.000
224.46	-975.000
224.84	-640.000
225.21	-642.857
225.59	-1150.000
225.96	-975.000
226.34	-80.769
226.71	700.000
227.08	-1600.000
227.46	-226.667
227.83	-1075.000
228.21	-136.842
228.58	525.000
228.95	2100.000
229.33	-233.333
229.70	-390.000
230.08	-94.737
230.45	410.000
230.82	-1233.333
231.20	-235.714
231.57	-300.000
231.95	-354.545
232.32	-300.000
232.69	-135.000
233.07	-925.000
233.44	-241.176
233.81	-420.000
234.19	-194.444
234.56	-145.455
234.93	-134.483
235.31	-157.895
235.68	-227.778
236.05	-205.000
236.43	-123.077
236.80	-100.000
237.17	-133.333
237.55	-93.939
237.92	-370.000
238.29	-93.548
238.67	-84.091
239.04	-58.333
239.41	-78.571
239.79	-52.174
240.16	-62.963
240.53	-67.391
240.91	-76.471
241.28	-59.016
241.65	-26.866
242.02	-18.919
242.40	-53.846
242.77	-25.333
243.14	-40.244
243.51	-53.947
243.89	-29.487
244.26	-30.693
244.63	-9.804
245.00	-12.150
245.38	-19.298
245.75	-31.858
246.12	-11.905
246.49	-19.380
246.87	-10.000
247.24	-11.921
247.61	-8.553
247.98	-11.409
248.36	-11.111
248.73	-12.270
249.10	-4.918
249.47	1.493
249.84	1.047
250.22	-6.218
250.59	0.556
250.96	1.818
251.33	-4.592
251.70	1.709
252.08	-1.250
252.45	2.049
252.82	2.066
253.19	-1.953
253.56	0.000
253.94	-1.923
254.31	2.652
254.68	6.993
255.05	3.257
255.42	5.442
255.79	2.913
256.16	3.311
256.54	0.993
256.91	5.246
257.28	0.656
257.65	1.274
258.02	5.605
258.39	5.983
258.76	7.339
259.14	6.322
259.51	4.611
259.88	2.833
260.25	2.500
260.62	7.397
260.99	8.743
261.36	5.898
261.73	5.040
262.10	6.593
262.47	5.094
262.85	8.586
263.22	2.857
263.59	6.316
263.96	8.184
264.33	6.138
264.70	5.185
265.07	10.501
265.44	9.070
265.81	6.481
266.18	7.937
266.55	6.473
266.92	3.417
267.29	10.066
267.66	7.761
268.03	6.987
268.40	7.724
268.77	6.378
269.14	5.947
269.51	5.263
269.88	9.836
270.25	7.646
270.62	8.439
270.99	10.505
271.36	9.901
271.73	7.269
272.10	9.218
272.47	9.419
272.84	8.434
273.21	8.016
273.58	8.871
273.95	6.731
274.32	7.605
274.69	8.511
275.06	9.158
275.43	8.318
275.80	8.642
276.17	7.963
276.54	7.836
276.91	6.798
277.28	7.957
277.65	7.720
278.02	8.640
278.39	8.877
278.76	7.909
279.13	7.447
279.50	9.794
279.87	6.619
280.23	6.162
280.60	7.966
280.97	8.224
281.34	8.149
281.71	9.814
282.08	9.136
282.45	8.020
282.82	7.849
283.19	6.139
283.56	6.393
283.92	9.459
284.29	9.795
284.66	9.688
285.03	6.250
285.40	8.810
285.77	7.585
286.14	10.076
286.51	7.763
286.87	6.793
287.24	9.488
287.61	7.623
287.98	6.344
288.35	8.580
288.72	9.615
289.08	8.931
289.45	7.249
289.82	6.476
290.19	8.046
290.56	7.324
290.93	7.846
291.29	6.061
291.66	6.887
292.03	6.242
292.40	7.755
292.77	6.604
293.13	9.202
293.50	6.307
293.87	7.919
294.24	8.133
294.60	9.102
294.97	6.846
295.34	8.579
295.71	6.431
296.08	7.494
296.44	7.353
296.81	8.161
297.18	6.227
297.55	5.307
297.91	6.762
298.28	6.161
298.65	8.442
299.02	6.494
299.38	7.323
299.75	8.178
300.12	6.597
300.48	6.912
300.85	6.412
301.22	7.271
301.59	6.393
301.95	6.554
302.32	7.000
302.69	7.448
303.05	5.985
303.42	8.315
303.79	7.604
304.15	7.886
304.52	6.660
304.89	7.644
305.25	7.143
305.62	7.419
305.99	6.804
306.35	6.956
306.72	7.859
307.09	6.497
307.45	7.246
307.82	6.862
308.19	6.256
308.55	7.040
308.92	6.913
309.29	7.280
309.65	6.530
310.02	5.545
310.38	6.102
310.75	7.087
311.12	6.999
311.48	6.745
311.85	7.028
312.22	6.926
312.58	6.385
312.95	5.736
313.31	7.227
313.68	8.333
314.05	7.678
314.41	7.832
314.78	7.811
315.14	8.530
315.51	8.033
315.87	8.371
316.24	8.128
316.61	8.348
316.97	6.516
317.34	7.937
317.70	8.035
318.07	8.642
318.43	9.269
318.80	10.368
319.16	8.155
319.53	8.398
319.89	7.888
320.26	9.431
320.62	8.156
320.99	8.864
321.35	10.166
321.72	10.419
322.08	8.656
322.45	10.659
322.81	10.650
323.18	10.354
323.54	11.121
323.91	11.121
324.27	9.639
324.64	11.839
325.00	10.448
325.37	11.384
325.73	10.579
326.10	12.409
326.46	12.215
326.83	12.410
327.19	13.150
327.56	12.411
327.92	12.510
328.29	12.258
328.65	11.893
329.01	13.706
329.38	13.395
329.74	14.555
330.11	13.955
330.47	13.479
330.84	13.092
331.20	14.667
331.56	14.038
331.93	14.477
332.29	15.169
332.66	15.615
333.02	14.573
333.38	14.513
333.75	14.983
334.11	15.013
334.48	14.686
334.84	15.038
335.20	15.365
335.57	14.587
335.93	15.537
336.29	14.309
336.66	15.139
337.02	15.217
337.38	15.901
337.75	15.702
338.11	15.896
338.47	15.550
338.84	15.059
339.20	15.670
339.56	14.827
339.93	15.107
340.29	15.378
340.65	15.247
341.02	16.201
341.38	16.653
341.74	15.174
342.11	15.688
342.47	15.330
342.83	16.184
343.20	16.435
343.56	16.520
343.92	15.612
344.28	15.781
344.65	17.442
345.01	16.381
345.37	17.185
345.73	14.887
346.10	16.537
346.46	16.772
346.82	16.854
347.19	17.341
347.55	16.616
347.91	16.642
348.27	17.375
348.63	16.756
349.00	17.226
349.36	17.621
349.72	16.443
350.08	16.716
350.45	16.350
350.81	16.365
351.17	16.842
351.53	17.665
351.89	17.844
352.26	17.015
352.62	15.821
352.98	16.870
353.34	15.833
353.70	17.565
354.07	16.766
354.43	16.553
354.79	16.230
355.15	17.071
355.51	18.056
355.87	16.978
356.24	16.578
356.60	17.147
356.96	16.827
357.32	16.877
357.68	17.496
358.04	17.066
358.40	17.761
358.77	17.105
359.13	18.612
359.49	16.134
359.85	18.492
360.21	17.647
360.57	17.803
360.93	17.842
361.29	18.456
361.66	17.958
362.02	18.928
362.38	18.131
362.74	18.925
363.10	18.157
363.46	18.767
363.82	18.963
364.18	19.141
364.54	18.326
364.90	18.729
365.26	19.103
365.62	19.467
365.98	18.720
366.35	19.329
366.71	19.388
367.07	19.147
367.43	19.238
367.79	20.040
368.15	20.201
368.51	19.215
368.87	19.726
369.23	19.200
369.59	20.287
369.95	20.284
370.31	21.269
370.67	20.770
371.03	20.083
371.39	19.678
371.75	20.977
372.11	20.528
372.47	20.447
372.83	20.681
373.19	19.880
373.55	20.732
373.91	20.927
374.27	20.569
374.63	21.583
374.99	21.684
375.35	22.078
375.71	21.677
376.07	22.660
376.42	22.607
376.78	22.374
377.14	22.208
377.50	22.960
377.86	23.707
378.22	23.473
378.58	23.365
378.94	23.709
379.30	23.081
379.66	24.691
380.02	23.370
380.38	24.251
380.74	23.831
381.09	23.984
381.45	24.659
381.81	25.703
382.17	24.584
382.53	25.673
382.89	25.000
383.25	26.026
383.61	25.463
383.97	26.090
384.32	26.615
384.68	26.276
385.04	26.721
385.40	27.048
385.76	28.195
386.12	26.870
386.48	27.882
386.83	27.890
387.19	27.868
387.55	27.758
387.91	28.425
388.27	28.118
388.62	27.721
388.98	28.257
389.34	28.462
389.70	29.460
390.06	28.893
390.42	29.458
390.77	30.464
391.13	29.871
391.49	30.616
391.85	28.182
392.20	29.597
392.56	30.301
392.92	30.207
393.28	31.012
393.64	31.006
393.99	31.784
394.35	31.133
394.71	31.677
395.07	31.377
395.42	31.525
395.78	32.785
396.14	31.848
396.50	31.413
396.85	30.531
397.21	32.426
397.57	31.802
397.92	31.558
398.28	32.265
398.64	32.208
399.00	32.461
399.35	32.932
399.71	32.337
400.07	33.801
400.42	33.760
400.78	33.160
401.14	33.694
401.49	33.769
401.85	33.953
402.21	34.531
402.57	34.331
402.92	33.156
403.28	33.021
403.63	34.308
403.99	34.264
404.35	34.963
404.70	34.278
405.06	33.641
405.42	34.895
405.77	35.333
406.13	35.332
406.49	35.360
406.84	35.346
407.20	35.271
407.55	35.494
407.91	35.072
408.27	35.748
408.62	35.428
408.98	36.448
409.34	35.425
409.69	36.836
410.05	36.694
410.40	36.195
410.76	36.231
411.11	37.347
411.47	36.794
411.83	37.390
412.18	36.988
412.54	36.633
412.89	37.020
413.25	37.641
413.60	38.196
413.96	37.354
414.31	37.167
414.67	37.746
415.03	37.231
415.38	38.777
415.74	37.752
416.09	37.693
416.45	37.508
416.80	37.760
417.16	38.186
417.51	38.605
417.87	39.117
418.22	38.623
418.58	38.971
418.93	39.697
419.29	39.766
419.64	38.655
420.00	39.228
420.35	40.090
420.71	38.196
421.06	39.333
421.42	40.023
421.77	38.988
422.12	39.958
422.48	40.297
422.83	40.745
423.19	40.159
423.54	41.316
423.90	41.082
424.25	40.587
424.61	39.724
424.96	41.241
425.31	40.870
425.67	41.975
426.02	41.339
426.38	41.447
426.73	41.518
427.09	41.407
427.44	41.453
427.79	41.902
428.15	41.324
428.50	42.921
428.85	42.710
429.21	42.553
429.56	43.189
429.92	42.211
430.27	41.253
430.62	42.501
430.98	42.499
431.33	42.131
431.68	42.481
432.04	44.540
432.39	43.010
432.74	42.922
433.10	43.483
433.45	41.360
433.80	41.524
434.16	43.182
434.51	44.450
434.86	44.625
435.22	45.005
435.57	43.809
435.92	44.908
436.28	43.572
436.63	45.931
436.98	44.283
437.34	44.589
437.69	44.744
438.04	45.320
438.39	44.744
438.75	44.826
439.10	45.560
439.45	44.997
439.81	45.763
440.16	45.791
440.51	46.210
440.86	45.359
441.22	44.534
441.57	45.597
441.92	45.247
442.27	46.515
442.63	45.902
442.98	46.158
443.33	46.712
443.68	47.423
444.03	47.413
444.39	47.388
444.74	47.882
445.09	46.883
445.44	47.787
445.79	48.084
446.15	47.020
446.50	46.408
446.85	47.811
447.20	46.712
447.55	47.490
447.91	48.639
448.26	47.463
448.61	46.759
448.96	48.820
449.31	48.303
449.66	47.876
450.02	48.101
450.37	46.990
450.72	47.740
451.07	48.235
451.42	48.354
451.77	47.304
452.12	49.661
452.47	48.960
452.83	48.423
453.18	49.270
453.53	49.052
453.88	49.034
454.23	48.927
454.58	48.578
454.93	48.908
455.28	49.669
455.63	49.517
455.98	47.821
456.34	49.588
456.69	49.677
457.04	49.941
457.39	49.889
457.74	50.168
458.09	48.929
458.44	50.647
458.79	49.613
459.14	50.184
459.49	50.764
459.84	50.735
460.19	49.528
460.54	51.051
460.89	50.503
461.24	49.885
461.59	50.858
461.94	49.059
462.29	51.176
462.64	49.909
462.99	51.538
463.34	50.681
463.69	50.176
464.04	50.639
464.39	51.289
464.74	50.513
465.09	51.096
465.44	50.215
465.79	50.608
466.14	51.277
466.49	51.474
466.84	52.011
467.19	51.503
467.54	50.470
467.89	50.345
468.24	51.745
468.59	51.129
468.94	51.457
469.29	52.130
469.64	51.748
469.99	52.581
470.34	51.361
470.68	53.383
471.03	53.307
471.38	53.630
471.73	51.756
472.08	53.236
472.43	52.920
472.78	53.401
473.13	53.161
473.48	52.568
473.83	53.685
474.17	52.286
474.52	54.299
474.87	52.713
475.22	53.577
475.57	52.908
475.92	52.912
476.27	53.355
476.61	53.375
476.96	52.711
477.31	52.772
477.66	54.302
478.01	53.330
478.36	52.493
478.70	52.808
479.05	53.732
479.40	53.801
479.75	53.266
480.10	53.245
480.45	53.464
480.79	53.923
481.14	53.722
481.49	53.567
481.84	53.220
482.19	54.409
482.53	53.957
482.88	55.117
483.23	54.780
483.58	53.930
483.92	53.590
484.27	53.302
484.62	52.805
484.97	54.121
485.31	52.728
485.66	48.420
486.01	48.440
486.36	51.707
486.70	55.283
487.05	57.746
487.40	56.141
487.75	55.140
488.09	54.325
488.44	52.836
488.79	53.120
489.13	53.005
489.48	52.039
489.83	53.722
490.17	52.531
490.52	53.900
490.87	54.780
491.22	54.939
491.56	54.224
491.91	54.557
492.26	55.041
492.60	54.482
492.95	54.585
493.30	55.580
493.64	55.322
493.99	54.342
494.34	54.834
494.68	54.390
495.03	54.273
495.37	55.570
495.72	55.102
496.07	54.557
496.41	54.869
496.76	55.421
497.11	55.711
497.45	56.280
497.80	54.776
498.14	55.465
498.49	56.526
498.84	55.393
499.18	55.556
499.53	55.830
499.87	56.000
500.22	55.076
500.56	55.601
500.91	56.979
501.26	56.364
501.60	56.032
501.95	56.014
502.29	55.331
502.64	55.400
502.98	55.220
503.33	55.076
503.67	55.997
504.02	56.086
504.36	57.328
504.71	57.281
505.06	55.616
505.40	56.901
505.75	55.874
506.09	55.801
506.44	57.799
506.78	57.018
507.13	57.077
507.47	59.261
507.82	57.008
508.16	57.457
508.51	56.118
508.85	57.959
509.19	58.314
509.54	59.078
509.88	57.212
510.23	57.309
510.57	58.579
510.92	58.249
511.26	57.576
511.61	58.088
511.95	57.443
512.30	57.262
512.64	57.221
512.98	57.379
513.33	59.577
513.67	58.848
514.02	60.245
514.36	58.875
514.70	59.792
515.05	58.968
515.39	58.163
515.74	59.332
516.08	58.743
516.42	59.288
516.77	59.411
517.11	59.412
517.46	60.551
517.80	60.075
518.14	60.664
518.49	59.544
518.83	59.180
519.17	59.828
519.52	59.434
519.86	60.190
520.20	60.863
520.55	60.350
520.89	60.191
521.23	60.078
521.58	62.260
521.92	60.850
522.26	59.507
522.61	61.748
522.95	61.707
523.29	62.471
523.64	60.538
523.98	61.380
524.32	61.719
524.66	61.810
525.01	61.325
525.35	59.391
525.69	60.093
526.04	61.137
526.38	61.839
526.72	60.438
527.06	60.587
527.41	61.341
527.75	61.283
528.09	61.570
528.43	61.930
528.78	60.751
529.12	60.034
529.46	61.327
529.80	62.014
530.15	60.580
530.49	61.566
530.83	62.043
531.17	61.410
531.51	61.252
531.86	62.500
532.20	62.988
532.54	60.922
532.88	61.515
533.22	60.931
533.57	61.396
533.91	60.718
534.25	61.221
534.59	62.586
534.93	61.743
535.27	60.225
535.62	62.820
535.96	61.476
536.30	62.162
536.64	62.162
536.98	61.870
537.32	62.222
537.66	60.948
538.01	60.785
538.35	60.049
538.69	62.079
539.03	62.416
539.37	59.953
539.71	60.901
540.05	61.631
540.39	61.064
540.73	61.263
541.07	61.496
541.42	59.835
541.76	60.795
542.10	61.218
542.44	60.780
542.78	61.010
543.12	60.250
543.46	60.134
543.80	59.412
544.14	59.964
544.48	60.757
544.82	61.460
545.16	61.717
545.50	61.294
545.84	62.033
546.18	61.975
546.52	61.274
546.86	60.818
547.20	61.387
547.54	61.049
547.88	59.855
548.22	60.292
548.56	61.673
548.90	60.955
549.24	61.763
549.58	60.883
549.92	61.607
550.26	61.359
550.60	61.264
550.94	61.772
551.28	61.122
551.62	62.197
551.96	60.065
552.30	61.122
552.64	61.108
552.98	61.323
553.32	62.830
553.66	61.350
554.00	61.412
554.34	61.647
554.68	61.524
555.02	61.235
555.36	63.379
555.69	60.794
556.03	60.971
556.37	61.890
556.71	61.826
557.05	62.045
557.39	61.579
557.73	62.814
558.07	61.457
558.41	61.661
558.75	61.934
559.08	62.978
559.42	61.385
559.76	61.398
560.10	61.353
560.44	60.950
560.78	60.562
561.12	62.131
561.45	62.105
561.79	62.515
562.13	61.491
562.47	61.221
562.81	61.646
563.15	61.237
563.48	61.591
563.82	60.822
564.16	60.630
564.50	59.952
564.84	60.590
565.17	62.059
565.51	60.414
565.85	60.808
566.19	58.007
566.52	59.684
566.86	61.404
567.20	60.305
567.54	60.276
567.88	61.213
568.21	60.277
568.55	60.048
568.89	59.601
569.23	59.865
569.56	58.695
569.90	58.232
570.24	59.157
570.57	58.018
570.91	58.083
571.25	57.535
571.59	57.668
571.92	57.116
572.26	56.988
572.60	58.149
572.93	58.196
573.27	56.898
573.61	56.670
573.95	56.057
574.28	55.571
574.62	56.685
574.96	55.382
575.29	56.224
575.63	56.410
575.97	56.838
576.30	55.514
576.64	56.240
576.98	55.923
577.31	56.088
577.65	56.521
577.98	55.572
578.32	55.396
578.66	55.918
578.99	56.277
579.33	56.959
579.67	56.052
580.00	55.316
580.34	55.846
580.67	56.267
581.01	56.123
581.35	55.426
581.68	55.421
582.02	55.147
582.35	56.708
582.69	56.500
583.02	56.700
583.36	56.582
583.70	57.328
584.03	56.228
584.37	56.406
584.70	55.012
585.04	54.476
585.37	54.795
585.71	55.167
586.04	55.328
586.38	56.221
586.72	55.854
587.05	56.536
587.39	56.270
587.72	56.531
588.06	56.093
588.39	56.510
588.73	55.238
589.06	55.982
589.40	57.191
589.73	56.202
590.07	56.698
590.40	57.133
590.73	56.875
591.07	58.377
591.40	55.832
591.74	57.790
592.07	57.694
592.41	57.058
592.74	57.366
593.08	56.911
593.41	56.693
593.75	56.351
594.08	57.679
594.41	58.526
594.75	56.991
595.08	57.133
595.42	57.630
595.75	57.088
596.09	57.303
596.42	57.757
596.75	56.542
597.09	58.020
597.42	57.608
597.75	56.370
598.09	57.460
598.42	58.062
598.76	56.477
599.09	56.461
599.42	56.252
599.76	56.157
600.09	57.090
600.42	56.523
600.76	56.110
601.09	56.654
601.42	56.505
601.76	55.483
602.09	55.933
602.42	55.871
602.76	56.273
603.09	56.938
603.42	56.358
603.76	55.638
604.09	57.417
604.42	56.587
604.76	56.317
605.09	57.479
605.42	56.978
605.75	56.654
606.09	57.111
606.42	56.476
606.75	55.247
607.09	55.952
607.42	57.110
607.75	57.249
608.08	56.827
608.42	55.945
608.75	57.048
609.08	56.791
609.41	57.389
609.75	57.098
610.08	57.740
610.41	57.094
610.74	56.891
611.07	57.060
611.41	57.354
611.74	58.060
612.07	57.223
612.40	56.844
612.73	58.044
613.07	57.115
613.40	58.181
613.73	57.053
614.06	57.704
614.39	57.046
614.72	56.623
615.06	57.122
615.39	56.936
615.72	56.967
616.05	57.504
616.38	57.820
616.71	58.255
617.05	57.188
617.38	57.785
617.71	57.667
618.04	58.392
618.37	58.415
618.70	59.050
619.03	58.244
619.36	59.679
619.69	58.680
620.03	57.815
620.36	57.853
620.69	58.051
621.02	58.727
621.35	62.119
621.68	60.882
622.01	60.071
622.34	58.508
622.67	59.244
623.00	58.300
623.33	59.987
623.66	59.209
623.99	59.250
624.32	59.324
624.65	58.687
624.99	60.208
625.32	58.263
625.65	59.811
625.98	58.102
626.31	59.957
626.64	60.806
626.97	59.715
627.30	59.150
627.63	58.365
627.96	60.511
628.29	60.156
628.62	61.713
628.95	61.525
629.28	60.493
629.61	61.532
629.94	60.586
630.26	59.492
630.59	60.535
630.92	59.567
631.25	62.970
631.58	62.712
631.91	62.699
632.24	59.750
632.57	61.765
632.90	63.791
633.23	62.755
633.56	63.265
633.89	62.500
634.22	63.202
634.55	61.900
634.88	63.203
635.20	63.294
635.53	62.260
635.86	62.730
636.19	61.612
636.52	60.021
636.85	59.551
637.18	61.123
637.51	61.613
637.83	63.123
638.16	63.134
638.49	63.028
638.82	63.247
639.15	63.688
639.48	63.626
639.81	62.933
640.13	64.193
640.46	60.848
640.79	60.172
641.12	63.478
641.45	62.610
641.77	63.928
642.10	64.173
642.43	64.628
642.76	61.924
643.09	61.370
643.41	61.485
643.74	63.310
644.07	63.448
644.40	61.386
644.73	63.861
645.05	65.198
645.38	63.885
645.71	64.663
646.04	64.275
646.36	63.066
646.69	63.497
647.02	64.985
647.35	63.969
647.67	66.023
648.00	67.516
648.33	63.363
648.66	62.054
648.98	60.136
649.31	61.570
649.64	61.487
649.96	61.538
650.29	62.031
650.62	62.518
650.94	65.165
651.27	59.132
651.60	59.795
651.92	62.310
652.25	61.795
652.58	59.560
652.90	61.337
653.23	59.577
653.56	61.912
653.88	62.219
654.21	60.282
654.54	61.272
654.86	60.057
655.19	57.591
655.52	61.532
655.84	57.476
656.17	63.415
656.49	86.792
656.82	93.060
657.15	73.519
657.47	56.730
657.80	41.883
658.13	32.686
658.45	42.993
658.78	50.693
659.10	47.892
659.43	46.230
659.75	45.359
660.08	43.754
660.41	46.071
660.73	50.057
661.06	56.535
661.38	60.447
661.71	58.966
662.03	61.376
662.36	61.360
662.68	65.478
663.01	60.531
663.33	65.406
663.66	61.172
663.98	62.885
664.31	60.038
664.63	60.308
664.96	63.158
665.28	60.254
665.61	63.636
665.93	61.964
666.26	62.903
666.58	59.779
666.91	59.626
667.23	62.286
667.56	65.878
667.88	61.200
668.21	59.375
668.53	58.108
668.86	60.904
669.18	62.525
669.50	62.028
669.83	63.400
670.15	61.811
670.48	61.905
670.80	61.185
671.13	59.924
671.45	62.205
671.77	64.407
672.10	58.667
672.42	60.356
672.75	60.215
673.07	57.164
673.39	57.781
673.72	58.893
674.04	59.655
674.37	61.538
674.69	58.554
675.01	60.571
675.34	57.634
675.66	58.801
675.98	62.127
676.31	60.938
676.63	61.597
676.95	60.153
677.28	59.879
677.60	60.630
677.92	59.693
678.25	59.415
678.57	59.609
678.89	62.116
679.22	55.749
679.54	57.094
679.86	56.441
680.18	56.882
680.51	55.346
680.83	57.938
681.15	60.000
681.48	61.140
681.80	58.377
682.12	61.364
682.44	53.589
682.77	56.915
683.09	61.364
683.41	60.659
683.73	59.583
684.06	58.856
684.38	54.919
684.70	58.707
685.02	57.487
685.34	57.404
685.67	57.256
685.99	55.828
686.31	53.198
686.63	56.714
686.96	55.836
687.28	55.049
687.60	56.229
687.92	54.180
688.24	57.262
688.56	55.690
688.89	55.535
689.21	55.969
689.53	56.863
689.85	58.383
690.17	53.148
690.49	56.773
690.82	56.040
691.14	57.692
691.46	57.361
691.78	58.195
692.10	56.330
692.42	55.000
692.74	53.902
693.06	52.222
693.39	54.269
693.71	52.632
694.03	53.717
694.35	54.286
694.67	55.852
694.99	54.255
695.31	56.512
695.63	58.442
695.95	54.037
696.27	55.385
696.59	57.522
696.91	54.505
697.23	61.538
697.56	53.768
697.88	52.462
698.20	52.542
698.52	57.008
698.84	55.301
699.16	56.531
699.48	53.766
699.80	54.043
700.12	54.803
700.44	55.300
700.76	57.007
701.08	54.479
701.40	59.326
701.72	55.473
702.04	58.824
702.36	54.712
702.68	53.790
703.00	54.279
703.32	51.478
703.64	54.034
703.96	53.699
704.28	53.071
704.60	57.215
704.91	53.827
705.23	53.151
705.55	52.089
705.87	56.364
706.19	61.350
706.51	54.819
706.83	54.755
707.15	53.968
707.47	54.439
707.79	50.655
708.11	51.059
708.43	50.968
708.74	52.902
709.06	51.508
709.38	54.930
709.70	54.342
710.02	50.904
710.34	53.723
710.66	48.045
710.98	52.186
711.29	51.099
711.61	49.435
711.93	53.276
712.25	51.622
712.57	56.342
712.89	53.824
713.20	54.438
713.52	55.491
713.84	52.368
714.16	50.789
714.48	49.742
714.80	51.948
715.11	53.281
715.43	50.398
715.75	53.158
716.07	47.238
716.39	50.000
716.70	48.795
717.02	46.885
717.34	53.310
717.66	50.671
717.97	48.973
718.29	47.766
718.61	48.355
718.93	49.515
719.24	47.205
719.56	49.080
719.88	50.751
720.20	53.548
720.51	50.621
720.83	50.000
721.15	50.000
721.46	47.945
721.78	53.333
722.10	47.249
722.42	51.007
722.73	44.516
723.05	51.228
723.37	48.264
723.68	53.047
724.00	54.874
724.32	47.887
724.63	43.706
724.95	50.355
725.27	44.948
725.58	51.237
725.90	51.379
726.22	46.082
726.53	50.649
726.85	47.799
727.16	48.338
727.48	47.095
727.80	45.033
728.11	46.290
728.43	48.148
728.74	45.819
729.06	47.020
729.38	47.078
729.69	50.336
730.01	46.726
730.32	43.030
730.64	46.855
730.96	48.447
731.27	45.810
731.59	47.527
731.90	45.455
732.22	45.833
732.53	40.884
732.85	44.000
733.16	46.334
733.48	41.463
733.80	44.011
734.11	43.305
734.43	47.838
734.74	45.316
735.06	46.231
735.37	49.189
735.69	46.757
736.00	44.915
736.32	42.588
736.63	46.111
736.95	44.253
737.26	44.242
737.58	46.667
737.89	47.059
738.21	41.284
738.52	43.934
738.83	45.734
739.15	47.518
739.46	47.959
739.78	42.331
740.09	44.413
740.41	45.773
740.72	44.333
741.04	42.395
741.35	43.860
741.66	42.745
741.98	40.574
742.29	41.004
742.61	51.316
742.92	42.692
743.23	43.682
743.55	44.186
743.86	40.000
744.18	41.322
744.49	41.772
744.80	46.091
745.12	41.772
745.43	43.902
745.74	42.241
746.06	42.797
746.37	49.789
746.68	50.000
747.00	44.167
747.31	45.494
747.62	49.231
747.94	42.915
748.25	42.570
748.56	39.184
748.88	43.162
749.19	46.121
749.50	44.589
749.82	49.398
750.13	47.687
750.44	44.333
750.75	44.615
751.07	42.462
751.38	41.640
751.69	43.131
752.01	39.806
752.32	48.039
752.63	38.095
752.94	43.599
753.26	36.803
753.57	46.296
753.88	42.322
754.19	40.836
754.51	42.444
754.82	45.338
755.13	44.262
755.44	43.686
755.75	46.053
756.07	41.194
756.38	43.082
756.69	46.084
757.00	40.443
757.31	43.169
757.63	40.665
757.94	40.610
758.25	41.535
758.56	42.484
758.87	38.864
759.18	36.800
759.50	41.926
759.81	42.577
760.12	42.049
760.43	41.406
760.74	42.611
761.05	43.500
761.36	37.108
761.67	38.832
761.99	39.459
762.30	36.280
762.61	38.944
762.92	42.910
763.23	40.824
763.54	38.489
763.85	42.612
764.16	35.690
764.47	42.958
764.78	42.492
765.10	43.109
765.41	40.769
765.72	37.566
766.03	38.418
766.34	35.737
766.65	39.373
766.96	36.255
767.27	40.092
767.58	35.821
767.89	37.019
768.20	32.864
768.51	31.481
768.82	37.349
769.13	36.742
769.44	33.846
769.75	36.101
770.06	41.923
770.37	39.370
770.68	38.298
770.99	32.794
771.30	43.704
771.61	36.122
771.92	34.074
772.23	38.462
772.54	29.167
772.85	38.249
773.16	42.857
773.47	36.508
773.78	31.351
774.09	35.227
774.39	35.000
774.70	31.694
775.01	28.049
775.32	29.412
775.63	31.288
775.94	26.115
776.25	33.548
776.56	34.615
776.87	36.735
777.18	22.759
777.48	28.671
777.79	27.703
778.10	27.206
778.41	31.250
778.72	23.448
779.03	32.099
779.34	26.061
779.65	31.088
779.95	32.778
780.26	21.591
780.57	34.839
780.88	29.710
781.19	30.323
781.50	32.941
781.80	31.183
782.11	26.455
782.42	26.263
782.73	23.952
783.04	27.933
783.34	26.061
783.65	20.915
783.96	24.224
784.27	28.571
784.57	23.179
784.88	20.714
785.19	25.984
785.50	31.496
785.81	23.308
786.11	22.308
786.42	16.547
786.73	20.863
787.04	26.316
787.34	18.852
787.65	16.800
787.96	23.881
788.26	30.769
788.57	32.168
788.88	22.368
789.19	28.105
789.49	15.068
789.80	27.660
790.11	15.748
790.41	14.844
790.72	18.644
791.03	9.709
791.33	18.261
791.64	17.544
791.95	12.500
792.25	17.143
792.56	18.750
792.87	9.375
793.17	12.500
793.48	1.042
793.79	0.000
794.09	11.927
794.40	13.761
794.70	25.170
795.01	26.623
795.32	20.548
795.62	28.169
795.93	19.697
796.23	27.049
796.54	12.500
796.85	-5.319
797.15	7.609
797.46	8.219
797.76	-3.750
798.07	13.043
798.37	6.186
798.68	3.896
798.99	5.747
799.29	11.236
799.60	6.383
799.90	13.253
800.21	-6.154
800.51	-4.478
800.82	-4.412
801.12	-24.658
801.43	-14.706
801.73	-13.559
802.04	-12.121
802.34	-10.000
802.65	-11.864
802.95	4.478
803.26	-5.085
803.56	2.740
803.87	-2.857
804.17	2.740
804.48	-19.298
804.78	2.778
805.09	-31.034
805.39	2.703
805.70	-23.944
806.00	-1.220
806.30	-8.434
806.61	0.000
806.91	11.538
807.22	5.556
807.52	-13.793
807.83	2.778
808.13	8.434
808.43	0.000
808.74	-8.750
809.04	-8.824
809.35	10.667
809.65	-5.714
809.95	-6.849
810.26	-15.789
810.56	-15.517
810.86	1.471
811.17	-26.316
811.47	-29.508
811.77	-31.111
812.08	-25.424
812.38	0.000
812.69	-13.793
812.99	-24.528
813.29	-48.718
813.59	-10.000
813.90	-14.035
814.20	-9.091
814.50	2.817
814.81	-14.103
815.11	-11.475
815.41	-16.418
815.72	-12.069
816.02	-16.071
816.32	-2.222
816.62	-40.909
816.93	-35.556
817.23	-3.704
817.53	-36.170
817.84	-26.190
818.14	-35.294
818.44	-26.531
818.74	-46.667
819.04	-69.231
819.35	-62.857
819.65	-96.154
819.95	-28.302
820.25	-42.222
820.56	-47.619
820.86	-71.875
821.16	-61.538
821.46	-32.558
821.76	-44.000
822.07	-26.786
822.37	-41.304
822.67	-31.915
822.97	-72.973
823.27	-42.500
823.57	-16.327
823.88	-28.889
824.18	-30.000
824.48	-76.667
824.78	-80.000
825.08	-66.667
825.38	-46.667
825.69	-36.170
825.99	-41.667
826.29	-97.143
826.59	-48.718
826.89	-34.884
827.19	-40.000
827.49	-38.235
827.79	-45.833
828.09	-86.486
828.39	-86.667
828.70	-31.707
829.00	-41.860
829.30	-89.286
829.60	-58.824
829.90	-36.957
830.20	-71.429
830.50	-100.000
830.80	-177.778
831.10	-92.308
831.40	-85.294
831.70	-100.000
832.00	-41.935
832.30	-229.412
832.60	-137.500
832.90	-253.846
833.20	-178.947
833.50	-170.000
833.80	-110.526
834.10	-166.667
834.40	-50.000
834.70	-50.000
835.00	-91.429
835.30	-35.294
835.60	-93.333
835.90	-104.000
836.20	-172.727
836.50	-92.000
836.80	-84.848
837.10	-77.778
837.40	-66.667
837.70	-231.250
838.00	-103.571
838.30	-117.391
838.60	-100.000
838.90	-228.571
839.19	-173.913
839.49	-266.667
839.79	-100.000
840.09	-250.000
840.39	-150.000
840.69	-77.419
840.99	-85.714
841.29	-220.000
841.59	-178.947
841.88	-69.231
842.18	-111.538
842.48	-440.000
842.78	-130.000
843.08	-73.333
843.38	-61.290
843.68	-216.667
843.97	-85.294
844.27	-206.250
844.57	-173.684
844.87	-420.000
845.17	-233.333
845.47	-123.810
845.76	-152.381
846.06	-411.111
846.36	-258.824
846.66	-130.769
846.96	-273.333
847.25	-194.118
847.55	-117.391
847.85	-150.000
848.15	-188.235
848.44	-318.182
848.74	-142.857
849.04	-116.667
849.34	-206.250
849.63	-143.478
849.93	1950.000
850.23	-193.333
850.53	-76.923
850.82	-345.455
851.12	-95.455
851.42	-290.909
851.71	-184.615
852.01	-135.000
852.31	-269.231
852.61	-136.842
852.90	-283.333
853.20	-161.111
853.50	-600.000
853.79	-204.762
854.09	-136.364
854.39	-300.000
854.68	-87.097
854.98	-96.154
855.28	-177.778
855.57	-107.143
855.87	-132.000
856.17	-109.091
856.46	-88.889
856.76	-250.000
857.05	-156.522
857.35	-129.167
857.65	-307.692
857.94	-147.619
858.24	-100.000
858.53	-130.435
858.83	-170.588
859.13	-158.824
859.42	-152.941
859.72	-235.714
860.01	-160.000
860.31	-388.889
860.60	-350.000
860.90	-213.333
861.20	-172.222
861.49	-215.385
861.79	-83.333
862.08	-315.385
862.38	-75.000
862.67	-164.706
862.97	-187.500
863.26	-433.333
863.56	-320.000
863.85	-300.000
864.15	-144.444
864.44	-1200.000
864.74	-228.571
865.03	-162.500
865.33	-370.000
865.62	-122.581
865.92	-127.273
866.21	-117.391
866.51	-235.714
866.80	-840.000
867.10	-258.333
867.39	-325.000
867.69	4500.000
867.98	-471.429
868.27	-147.059
868.57	-4100.000
868.86	-480.000
869.16	-161.905
869.45	-108.333
869.75	-272.727
870.04	-514.286
870.33	-233.333
870.63	-600.000
870.92	-700.000
871.22	-575.000
871.51	-418.182
871.80	-1600.000
872.10	-1700.000
>>>>>End Processed Spectral Data<<<<<
