SpectraSuite Data File
++++++++++++++++++++++++++++++++++++
Date: Thu May 14 14:35:09 PDT 2015
User: schluterlab
Dark Spectrum Present: Yes
Reference Spectrum Present: Yes
Number of Sampled Component Spectra: 1
Spectrometers: USB2E3373
Integration Time (usec): 3000 (USB2E3373)
Spectra Averaged: 3 (USB2E3373)
Boxcar Smoothing: 0 (USB2E3373)
Correct for Electrical Dark: No (USB2E3373)
Strobe/Lamp Enabled: No (USB2E3373)
Correct for Detector Non-linearity: No (USB2E3373)
Correct for Stray Light: No (USB2E3373)
Number of Pixels in Processed Spectrum: 2048
>>>>>Begin Processed Spectral Data<<<<<
178.53	0.000
178.91	-242.857
179.29	1100.000
179.67	1300.000
180.04	-85.714
180.42	-260.000
180.80	-440.000
181.18	1400.000
181.56	2400.000
181.94	-475.000
182.31	475.000
182.69	-833.333
183.07	850.000
183.45	-300.000
183.83	283.333
184.20	766.667
184.58	-1400.000
184.96	475.000
185.34	166.667
185.72	380.000
186.09	-188.889
186.47	-1100.000
186.85	-480.000
187.23	155.556
187.61	1800.000
187.98	-280.000
188.36	-300.000
188.74	400.000
189.12	600.000
189.49	93.750
189.87	262.500
190.25	277.778
190.63	380.000
191.00	-11.111
191.38	0.000
191.76	250.000
192.14	366.667
192.51	-550.000
192.89	350.000
193.27	0.000
193.65	157.143
194.02	2300.000
194.40	300.000
194.78	-114.286
195.15	0.000
195.53	245.455
195.91	0.000
196.29	550.000
196.66	161.538
197.04	1400.000
197.42	171.429
197.79	600.000
198.17	237.500
198.55	314.286
198.92	344.444
199.30	150.000
199.68	100.000
200.05	164.286
200.43	600.000
200.81	-42.857
201.18	0.000
201.56	-77.778
201.94	0.000
202.31	-266.667
202.69	188.889
203.07	-2200.000
203.44	233.333
203.82	75.000
204.19	141.667
204.57	200.000
204.95	137.500
205.32	2100.000
205.70	-350.000
206.08	200.000
206.45	283.333
206.83	-320.000
207.20	383.333
207.58	200.000
207.96	183.333
208.33	416.667
208.71	-141.667
209.08	516.667
209.46	0.000
209.84	-266.667
210.21	-550.000
210.59	-450.000
210.96	-233.333
211.34	425.000
211.71	300.000
212.09	1400.000
212.46	0.000
212.84	50.000
213.22	200.000
213.59	550.000
213.97	280.000
214.34	566.667
214.72	-183.333
215.09	350.000
215.47	0.000
215.84	-200.000
216.22	-650.000
216.59	360.000
216.97	100.000
217.34	425.000
217.72	362.500
218.09	550.000
218.47	450.000
218.84	0.000
219.22	-320.000
219.59	100.000
219.97	135.000
220.34	-800.000
220.72	155.556
221.09	269.231
221.47	633.333
221.84	230.000
222.22	171.429
222.59	0.000
222.97	275.000
223.34	460.000
223.72	1400.000
224.09	175.000
224.46	350.000
224.84	480.000
225.21	300.000
225.59	175.000
225.96	325.000
226.34	119.231
226.71	-266.667
227.08	400.000
227.46	120.000
227.83	250.000
228.21	157.895
228.58	-187.500
228.95	-600.000
229.33	158.333
229.70	220.000
230.08	163.158
230.45	-150.000
230.82	566.667
231.20	164.286
231.57	175.000
231.95	209.091
232.32	263.636
232.69	85.000
233.07	375.000
233.44	94.118
233.81	170.000
234.19	88.889
234.56	100.000
234.93	110.345
235.31	131.579
235.68	127.778
236.05	70.000
236.43	138.462
236.80	108.000
237.17	59.259
237.55	84.848
237.92	50.000
238.29	64.516
238.67	25.000
239.04	58.333
239.41	71.429
239.79	34.783
240.16	25.926
240.53	23.913
240.91	29.412
241.28	34.426
241.65	41.791
242.02	39.189
242.40	29.231
242.77	29.333
243.14	20.732
243.51	10.526
243.89	21.795
244.26	30.693
244.63	23.529
245.00	19.626
245.38	15.789
245.75	9.735
246.12	18.254
246.49	15.504
246.87	21.429
247.24	18.543
247.61	11.184
247.98	12.752
248.36	11.728
248.73	8.589
249.10	12.022
249.47	16.915
249.84	13.089
250.22	7.772
250.59	7.222
250.96	13.636
251.33	3.061
251.70	8.547
252.08	11.667
252.45	11.066
252.82	9.091
253.19	7.422
253.56	9.886
253.94	7.308
254.31	5.682
254.68	10.490
255.05	9.446
255.42	6.463
255.79	11.974
256.16	8.940
256.54	7.616
256.91	6.557
257.28	6.885
257.65	6.051
258.02	4.720
258.39	8.547
258.76	11.927
259.14	7.184
259.51	6.916
259.88	7.082
260.25	7.500
260.62	6.849
260.99	5.191
261.36	6.971
261.73	5.836
262.10	3.846
262.47	4.290
262.85	6.061
263.22	4.935
263.59	3.947
263.96	4.604
264.33	4.859
264.70	5.926
265.07	8.115
265.44	6.803
265.81	5.556
266.18	5.896
266.55	6.920
266.92	4.784
267.29	7.221
267.66	6.208
268.03	5.895
268.40	5.846
268.77	4.784
269.14	4.185
269.51	6.360
269.88	7.377
270.25	5.835
270.62	6.540
270.99	6.465
271.36	7.129
271.73	3.536
272.10	5.611
272.47	5.010
272.84	5.422
273.21	2.806
273.58	5.242
273.95	5.577
274.32	4.563
274.69	2.128
275.06	5.678
275.43	3.142
275.80	6.526
276.17	3.519
276.54	5.224
276.91	2.862
277.28	3.255
277.65	5.027
278.02	5.882
278.39	4.167
278.76	3.691
279.13	3.901
279.50	4.983
279.87	6.082
280.23	2.993
280.60	4.068
280.97	4.934
281.34	1.528
281.71	5.076
282.08	6.645
282.45	2.946
282.82	5.181
283.19	3.554
283.56	2.459
283.92	4.204
284.29	5.529
284.66	4.762
285.03	2.724
285.40	5.564
285.77	3.870
286.14	5.191
286.51	4.110
286.87	3.160
287.24	4.367
287.61	5.232
287.98	1.662
288.35	2.515
288.72	3.698
289.08	4.832
289.45	4.290
289.82	2.560
290.19	3.592
290.56	5.352
290.93	3.709
291.29	4.270
291.66	3.306
292.03	4.613
292.40	5.170
292.77	3.504
293.13	2.842
293.50	3.022
293.87	4.161
294.24	4.933
294.60	3.919
294.97	3.087
295.34	5.506
295.71	2.648
296.08	3.101
296.44	3.799
296.81	4.629
297.18	3.736
297.55	2.830
297.91	2.610
298.28	2.370
298.65	3.924
299.02	3.188
299.38	4.348
299.75	3.505
300.12	2.778
300.48	3.341
300.85	4.274
301.22	4.139
301.59	3.082
301.95	3.842
302.32	4.889
302.69	4.162
303.05	3.591
303.42	4.213
303.79	4.062
304.15	4.627
304.52	2.326
304.89	3.665
305.25	4.037
305.62	3.971
305.99	5.052
306.35	3.831
306.72	4.654
307.09	3.553
307.45	4.658
307.82	4.541
308.19	4.339
308.55	5.111
308.92	3.992
309.29	4.693
309.65	4.873
310.02	4.653
310.38	5.020
310.75	6.019
311.12	6.424
311.48	4.497
311.85	5.508
312.22	5.503
312.58	5.540
312.95	4.971
313.31	5.420
313.68	7.143
314.05	6.956
314.41	7.468
314.78	8.447
315.14	7.441
315.51	7.018
315.87	7.381
316.24	8.493
316.61	8.970
316.97	9.321
317.34	8.554
317.70	9.607
318.07	8.818
318.43	10.034
318.80	11.204
319.16	10.300
319.53	10.111
319.89	10.868
320.26	11.210
320.62	11.791
320.99	11.911
321.35	12.384
321.72	13.953
322.08	13.165
322.45	13.279
322.81	13.809
323.18	14.336
323.54	13.966
323.91	16.370
324.27	16.179
324.64	16.541
325.00	16.584
325.37	17.772
325.73	17.934
326.10	18.735
326.46	19.625
326.83	20.576
327.19	20.551
327.56	21.581
327.92	20.692
328.29	21.935
328.65	22.697
329.01	22.504
329.38	22.578
329.74	24.229
330.11	25.257
330.47	23.673
330.84	23.945
331.20	25.917
331.56	24.523
331.93	26.527
332.29	26.525
332.66	25.498
333.02	24.707
333.38	26.091
333.75	26.515
334.11	27.023
334.48	26.155
334.84	26.338
335.20	26.113
335.57	26.981
335.93	27.107
336.29	25.458
336.66	26.829
337.02	27.676
337.38	26.190
337.75	26.364
338.11	27.334
338.47	25.889
338.84	25.296
339.20	25.695
339.56	25.700
339.93	26.683
340.29	25.201
340.65	25.223
341.02	26.097
341.38	26.839
341.74	25.504
342.11	26.307
342.47	24.464
342.83	27.134
343.20	25.266
343.56	25.662
343.92	25.620
344.28	25.547
344.65	25.504
345.01	25.429
345.37	26.050
345.73	24.240
346.10	25.273
346.46	24.446
346.82	25.993
347.19	25.363
347.55	24.355
347.91	24.889
348.27	23.596
348.63	25.133
349.00	24.981
349.36	24.461
349.72	25.074
350.08	24.591
350.45	25.095
350.81	25.867
351.17	23.759
351.53	25.322
351.89	24.450
352.26	23.507
352.62	23.284
352.98	25.191
353.34	24.421
353.70	24.422
354.07	24.218
354.43	24.070
354.79	24.308
355.15	23.032
355.51	24.561
355.87	22.737
356.24	24.563
356.60	23.577
356.96	23.795
357.32	24.015
357.68	23.939
358.04	22.530
358.40	23.582
358.77	23.684
359.13	23.117
359.49	22.305
359.85	23.350
360.21	22.525
360.57	23.475
360.93	22.920
361.29	23.018
361.66	23.678
362.02	23.800
362.38	23.612
362.74	23.254
363.10	23.177
363.46	22.784
363.82	23.722
364.18	22.871
364.54	23.859
364.90	23.077
365.26	23.034
365.62	23.333
365.98	22.737
366.35	22.886
366.71	23.061
367.07	22.192
367.43	22.390
367.79	23.623
368.15	23.010
368.51	23.072
368.87	22.992
369.23	22.733
369.59	23.292
369.95	23.597
370.31	23.970
370.67	23.315
371.03	23.130
371.39	22.364
371.75	23.521
372.11	22.967
372.47	23.087
372.83	23.102
373.19	22.348
373.55	23.713
373.91	22.086
374.27	22.962
374.63	22.598
374.99	22.878
375.35	23.247
375.71	23.226
376.07	22.983
376.42	22.418
376.78	23.990
377.14	22.271
377.50	22.707
377.86	23.953
378.22	23.713
378.58	23.722
378.94	23.122
379.30	23.316
379.66	23.398
380.02	22.562
380.38	23.041
380.74	23.606
381.09	22.822
381.45	23.068
381.81	24.649
382.17	23.337
382.53	23.216
382.89	22.686
383.25	23.271
383.61	21.933
383.97	23.852
384.32	23.206
384.68	22.970
385.04	23.366
385.40	23.689
385.76	24.033
386.12	23.399
386.48	23.235
386.83	23.361
387.19	22.943
387.55	23.709
387.91	22.546
388.27	22.748
388.62	23.196
388.98	23.858
389.34	23.512
389.70	23.300
390.06	22.439
390.42	23.133
390.77	23.420
391.13	23.650
391.49	23.490
391.85	23.455
392.20	23.665
392.56	24.217
392.92	23.555
393.28	23.715
393.64	22.793
393.99	24.463
394.35	23.949
394.71	24.012
395.07	23.593
395.42	23.301
395.78	24.010
396.14	23.589
396.50	23.812
396.85	22.898
397.21	24.142
397.57	23.969
397.92	23.540
398.28	22.542
398.64	23.913
399.00	22.513
399.35	23.403
399.71	23.043
400.07	23.751
400.42	23.574
400.78	23.148
401.14	23.904
401.49	23.081
401.85	24.186
402.21	24.855
402.57	24.296
402.92	22.931
403.28	23.244
403.63	22.792
403.99	23.159
404.35	23.252
404.70	23.853
405.06	23.859
405.42	23.946
405.77	23.937
406.13	23.447
406.49	23.930
406.84	24.044
407.20	23.197
407.55	23.259
407.91	23.821
408.27	23.027
408.62	23.735
408.98	23.912
409.34	22.463
409.69	24.289
410.05	23.798
410.40	24.130
410.76	23.780
411.11	22.385
411.47	23.464
411.83	23.810
412.18	24.157
412.54	23.118
412.89	23.574
413.25	23.081
413.60	22.746
413.96	23.893
414.31	23.343
414.67	23.792
415.03	23.569
415.38	23.960
415.74	23.946
416.09	24.614
416.45	23.419
416.80	22.766
417.16	23.755
417.51	24.284
417.87	24.218
418.22	24.371
418.58	24.226
418.93	24.854
419.29	24.106
419.64	24.010
420.00	23.680
420.35	23.863
420.71	22.975
421.06	23.807
421.42	24.541
421.77	23.209
422.12	23.679
422.48	24.168
422.83	24.151
423.19	24.297
423.54	24.115
423.90	24.075
424.25	24.533
424.61	24.053
424.96	24.547
425.31	24.469
425.67	24.799
426.02	25.235
426.38	23.766
426.73	23.493
427.09	24.798
427.44	25.123
427.79	24.710
428.15	24.201
428.50	23.820
428.85	24.569
429.21	24.947
429.56	25.025
429.92	23.931
430.27	25.108
430.62	24.084
430.98	24.299
431.33	23.803
431.68	24.138
432.04	24.632
432.39	24.638
432.74	25.114
433.10	25.257
433.45	24.693
433.80	25.268
434.16	24.742
434.51	24.820
434.86	24.864
435.22	25.292
435.57	26.769
435.92	25.264
436.28	25.085
436.63	25.505
436.98	24.799
437.34	25.366
437.69	24.216
438.04	25.066
438.39	25.215
438.75	25.069
439.10	26.057
439.45	25.936
439.81	25.650
440.16	24.933
440.51	26.031
440.86	26.459
441.22	25.938
441.57	25.943
441.92	25.218
442.27	26.515
442.63	25.633
442.98	25.880
443.33	26.302
443.68	26.016
444.03	25.588
444.39	26.075
444.74	26.442
445.09	25.443
445.44	26.660
445.79	26.580
446.15	27.030
446.50	26.305
446.85	26.702
447.20	26.015
447.55	26.935
447.91	26.126
448.26	26.004
448.61	25.930
448.96	27.253
449.31	26.246
449.66	26.362
450.02	26.530
450.37	26.478
450.72	27.072
451.07	27.506
451.42	26.979
451.77	27.071
452.12	28.104
452.47	27.510
452.83	26.689
453.18	26.270
453.53	27.111
453.88	26.781
454.23	27.458
454.58	28.033
454.93	27.488
455.28	28.356
455.63	27.800
455.98	27.151
456.34	28.092
456.69	27.102
457.04	28.191
457.39	27.716
457.74	28.356
458.09	28.062
458.44	28.718
458.79	27.282
459.14	27.530
459.49	28.183
459.84	28.174
460.19	27.929
460.54	28.620
460.89	27.581
461.24	27.644
461.59	28.500
461.94	27.952
462.29	28.219
462.64	29.028
462.99	30.132
463.34	29.202
463.69	27.550
464.04	28.627
464.39	28.083
464.74	28.905
465.09	28.662
465.44	28.273
465.79	29.350
466.14	29.338
466.49	29.263
466.84	28.871
467.19	28.902
467.54	29.083
467.89	28.276
468.24	28.643
468.59	28.662
468.94	29.779
469.29	29.334
469.64	28.353
469.99	30.210
470.34	30.012
470.68	30.075
471.03	30.648
471.38	29.039
471.73	29.259
472.08	29.188
472.43	29.681
472.78	30.605
473.13	29.709
473.48	29.849
473.83	30.238
474.17	30.012
474.52	30.006
474.87	29.457
475.22	30.592
475.57	29.128
475.92	29.915
476.27	30.245
476.61	29.855
476.96	29.979
477.31	30.594
477.66	30.850
478.01	30.300
478.36	29.462
478.70	30.493
479.05	31.339
479.40	31.194
479.75	31.268
480.10	29.986
480.45	30.720
480.79	30.930
481.14	30.515
481.49	30.895
481.84	31.288
482.19	30.538
482.53	30.608
482.88	32.078
483.23	30.903
483.58	30.349
483.92	30.629
484.27	30.906
484.62	30.858
484.97	30.715
485.31	31.221
485.66	30.246
486.01	29.344
486.36	29.374
486.70	29.399
487.05	29.933
487.40	30.392
487.75	31.069
488.09	31.079
488.44	31.073
488.79	31.096
489.13	31.535
489.48	31.340
489.83	31.348
490.17	30.903
490.52	30.911
490.87	31.557
491.22	31.542
491.56	32.039
491.91	32.490
492.26	31.848
492.60	32.532
492.95	32.646
493.30	31.735
493.64	32.501
493.99	31.667
494.34	32.186
494.68	32.163
495.03	32.555
495.37	32.623
495.72	32.472
496.07	32.515
496.41	33.033
496.76	33.069
497.11	32.611
497.45	32.326
497.80	33.008
498.14	32.880
498.49	32.858
498.84	33.090
499.18	33.333
499.53	33.543
499.87	34.110
500.22	32.814
500.56	33.333
500.91	34.096
501.26	34.364
501.60	33.451
501.95	33.956
502.29	34.928
502.64	34.368
502.98	33.348
503.33	33.909
503.67	33.580
504.02	34.238
504.36	35.165
504.71	34.589
505.06	34.516
505.40	35.101
505.75	34.426
506.09	35.221
506.44	35.794
506.78	35.642
507.13	34.486
507.47	35.765
507.82	35.890
508.16	35.325
508.51	35.865
508.85	35.427
509.19	35.860
509.54	36.359
509.88	35.308
510.23	36.183
510.57	36.104
510.92	36.333
511.26	34.921
511.61	35.297
511.95	35.774
512.30	36.731
512.64	35.482
512.98	35.868
513.33	37.046
513.67	37.379
514.02	36.944
514.36	37.033
514.70	37.500
515.05	37.435
515.39	37.323
515.74	38.759
516.08	37.824
516.42	37.781
516.77	37.592
517.11	36.256
517.46	37.699
517.80	38.108
518.14	38.466
518.49	38.449
518.83	37.467
519.17	38.611
519.52	38.470
519.86	38.332
520.20	39.404
520.55	39.102
520.89	38.232
521.23	38.079
521.58	38.475
521.92	38.357
522.26	38.259
522.61	39.757
522.95	40.369
523.29	39.828
523.64	38.565
523.98	39.418
524.32	40.573
524.66	39.385
525.01	39.524
525.35	39.632
525.69	40.429
526.04	39.265
526.38	40.115
526.72	40.542
527.06	40.176
527.41	39.883
527.75	40.974
528.09	40.791
528.43	39.728
528.78	39.653
529.12	39.908
529.46	41.203
529.80	41.190
530.15	40.870
530.49	41.934
530.83	40.083
531.17	42.354
531.51	41.215
531.86	40.865
532.20	41.524
532.54	41.113
532.88	42.424
533.22	41.897
533.57	40.796
533.91	42.368
534.25	40.927
534.59	41.437
534.93	41.200
535.27	41.070
535.62	41.899
535.96	41.604
536.30	41.598
536.64	43.303
536.98	42.497
537.32	42.531
537.66	42.296
538.01	42.417
538.35	42.266
538.69	41.947
539.03	43.225
539.37	41.343
539.71	42.583
540.05	42.266
540.39	41.809
540.73	40.862
541.07	42.796
541.42	41.701
541.76	41.696
542.10	42.642
542.44	42.753
542.78	42.518
543.12	42.491
543.46	42.674
543.80	42.146
544.14	41.652
544.48	42.435
544.82	43.986
545.16	42.636
545.50	43.559
545.84	41.764
546.18	44.074
546.52	42.611
546.86	42.830
547.20	44.211
547.54	43.196
547.88	43.460
548.22	42.398
548.56	43.651
548.90	42.746
549.24	44.924
549.58	43.975
549.92	42.411
550.26	44.660
550.60	43.523
550.94	43.726
551.28	43.696
551.62	43.531
551.96	43.107
552.30	43.913
552.64	42.937
552.98	42.732
553.32	44.437
553.66	44.566
554.00	44.325
554.34	43.436
554.68	42.931
555.02	44.218
555.36	45.299
555.69	42.345
556.03	44.073
556.37	44.243
556.71	43.817
557.05	44.281
557.39	44.194
557.73	45.046
558.07	43.709
558.41	45.781
558.75	43.272
559.08	44.885
559.42	43.484
559.76	42.877
560.10	44.139
560.44	44.723
560.78	43.812
561.12	43.473
561.45	43.370
561.79	44.567
562.13	44.670
562.47	42.910
562.81	44.241
563.15	44.066
563.48	43.940
563.82	43.712
564.16	43.973
564.50	43.623
564.84	42.950
565.17	43.706
565.51	42.865
565.85	43.468
566.19	43.203
566.52	43.300
566.86	43.463
567.20	43.665
567.54	42.220
567.88	42.762
568.21	43.182
568.55	43.213
568.89	42.124
569.23	42.417
569.56	41.852
569.90	40.948
570.24	41.349
570.57	40.827
570.91	40.600
571.25	40.035
571.59	40.774
571.92	40.352
572.26	40.365
572.60	40.076
572.93	40.106
573.27	39.702
573.61	39.915
573.95	39.476
574.28	39.594
574.62	39.609
574.96	39.259
575.29	38.841
575.63	39.155
575.97	39.473
576.30	39.107
576.64	38.988
576.98	39.089
577.31	39.115
577.65	39.311
577.98	38.272
578.32	38.720
578.66	38.673
578.99	38.644
579.33	38.773
579.67	38.622
580.00	38.908
580.34	39.071
580.67	37.930
581.01	38.533
581.35	38.535
581.68	38.403
582.02	38.094
582.35	38.819
582.69	38.522
583.02	39.039
583.36	38.550
583.70	39.082
584.03	38.709
584.37	38.904
584.70	38.509
585.04	37.875
585.37	37.936
585.71	37.907
586.04	37.891
586.38	37.674
586.72	38.030
587.05	38.373
587.39	38.544
587.72	38.278
588.06	38.008
588.39	38.262
588.73	38.122
589.06	38.177
589.40	38.814
589.73	38.400
590.07	38.793
590.40	38.472
590.73	38.530
591.07	39.278
591.40	38.608
591.74	38.434
592.07	38.530
592.41	38.446
592.74	37.806
593.08	38.599
593.41	37.999
593.75	37.270
594.08	38.019
594.41	37.372
594.75	37.496
595.08	37.550
595.42	37.370
595.75	37.649
596.09	37.953
596.42	37.442
596.75	38.788
597.09	38.828
597.42	37.783
597.75	37.279
598.09	37.500
598.42	37.998
598.76	36.607
599.09	36.988
599.42	36.272
599.76	35.787
600.09	36.537
600.42	36.270
600.76	36.229
601.09	36.575
601.42	36.080
601.76	36.345
602.09	36.204
602.42	36.605
602.76	36.421
603.09	35.830
603.42	36.850
603.76	35.518
604.09	36.586
604.42	36.587
604.76	35.997
605.09	36.737
605.42	36.085
605.75	35.808
606.09	35.312
606.42	35.389
606.75	34.933
607.09	35.292
607.42	35.723
607.75	35.248
608.08	35.478
608.42	35.671
608.75	36.153
609.08	35.187
609.41	35.730
609.75	35.223
610.08	35.796
610.41	35.599
610.74	35.042
611.07	35.435
611.41	34.798
611.74	35.427
612.07	35.764
612.40	35.076
612.73	35.599
613.07	35.403
613.40	35.371
613.73	34.665
614.06	35.427
614.39	34.840
614.72	35.274
615.06	34.360
615.39	33.978
615.72	33.791
616.05	34.531
616.38	35.570
616.71	35.162
617.05	34.026
617.38	34.617
617.71	35.367
618.04	34.862
618.37	35.027
618.70	36.143
619.03	35.484
619.36	34.649
619.69	34.465
620.03	34.903
620.36	35.337
620.69	35.225
621.02	35.630
621.35	35.486
621.68	36.226
622.01	35.374
622.34	34.310
622.67	34.296
623.00	32.861
623.33	35.435
623.66	35.019
623.99	34.431
624.32	34.828
624.65	33.848
624.99	34.460
625.32	35.206
625.65	34.255
625.98	33.966
626.31	34.018
626.64	34.872
626.97	34.584
627.30	34.624
627.63	33.008
627.96	33.859
628.29	34.475
628.62	35.013
628.95	35.320
629.28	34.155
629.61	34.596
629.94	32.720
630.26	33.220
630.59	33.765
630.92	33.593
631.25	35.063
631.58	35.311
631.91	33.552
632.24	35.831
632.57	34.156
632.90	33.701
633.23	35.000
633.56	34.490
633.89	33.781
634.22	34.719
634.55	35.073
634.88	35.498
635.20	36.168
635.53	34.915
635.86	35.103
636.19	34.040
636.52	34.072
636.85	32.380
637.18	33.576
637.51	34.409
637.83	35.437
638.16	35.023
638.49	33.333
638.82	34.160
639.15	32.532
639.48	34.296
639.81	33.718
640.13	35.336
640.46	33.212
640.79	33.333
641.12	33.913
641.45	31.619
641.77	36.842
642.10	32.677
642.43	36.170
642.76	33.740
643.09	34.658
643.41	32.073
643.74	34.069
644.07	34.207
644.40	33.098
644.73	34.543
645.05	34.949
645.38	34.388
645.71	32.845
646.04	34.864
646.36	33.869
646.69	32.669
647.02	33.180
647.35	33.435
647.67	35.749
648.00	34.076
648.33	33.634
648.66	34.094
648.98	33.469
649.31	30.717
649.64	30.810
649.96	31.565
650.29	30.737
650.62	32.390
650.94	32.132
651.27	33.832
651.60	31.725
651.92	31.459
652.25	32.417
652.58	31.362
652.90	32.849
653.23	30.845
653.56	31.384
653.88	32.584
654.21	30.563
654.54	30.780
654.86	31.586
655.19	28.607
655.52	25.778
655.84	22.741
656.17	28.798
656.49	40.871
656.82	45.550
657.15	35.631
657.47	26.249
657.80	19.423
658.13	15.495
658.45	20.297
658.78	25.103
659.10	24.707
659.43	25.075
659.75	25.821
660.08	26.611
660.41	27.461
660.73	27.936
661.06	29.515
661.38	30.622
661.71	30.862
662.03	32.451
662.36	31.127
662.68	28.893
663.01	31.150
663.33	32.703
663.66	33.700
663.98	30.769
664.31	33.771
664.63	27.938
664.96	31.216
665.28	29.038
665.61	30.420
665.93	28.393
666.26	31.183
666.58	27.675
666.91	31.028
667.23	35.048
667.56	31.361
667.88	29.600
668.21	29.102
668.53	26.834
668.86	29.862
669.18	28.921
669.50	28.628
669.83	29.000
670.15	30.315
670.48	31.944
670.80	28.681
671.13	28.355
671.45	30.709
671.77	30.697
672.10	26.667
672.42	27.832
672.75	26.114
673.07	27.761
673.39	26.040
673.72	30.034
674.04	31.034
674.37	30.769
674.69	30.159
675.01	29.143
675.34	28.053
675.66	29.963
675.98	28.358
676.31	29.883
676.63	30.038
676.95	29.310
677.28	29.435
677.60	27.362
677.92	30.518
678.25	27.422
678.57	29.181
678.89	27.986
679.22	27.875
679.54	25.299
679.86	24.576
680.18	27.032
680.51	24.843
680.83	25.696
681.15	26.724
681.48	26.079
681.80	27.461
682.12	26.923
682.44	24.875
682.77	24.113
683.09	26.894
683.41	30.039
683.73	25.806
684.06	25.461
684.38	24.687
684.70	26.212
685.02	27.711
685.34	23.794
685.67	23.659
685.99	25.920
686.31	22.965
686.63	24.645
686.96	25.868
687.28	25.407
687.60	24.579
687.92	22.990
688.24	27.045
688.56	24.483
688.89	26.860
689.21	24.658
689.53	25.294
689.85	24.063
690.17	25.370
690.49	27.291
690.82	25.743
691.14	22.672
691.46	27.151
691.78	26.519
692.10	22.569
692.42	22.679
692.74	23.230
693.06	20.000
693.39	24.858
693.71	24.812
694.03	24.164
694.35	26.095
694.67	26.078
694.99	28.298
695.31	24.724
695.63	26.407
695.95	23.395
696.27	23.077
696.59	26.549
696.91	25.000
697.23	26.593
697.56	22.607
697.88	23.106
698.20	24.859
698.52	24.811
698.84	24.116
699.16	26.531
699.48	23.849
699.80	23.830
700.12	25.546
700.44	22.120
700.76	25.891
701.08	24.697
701.40	26.943
701.72	24.876
702.04	27.807
702.36	23.560
702.68	24.450
703.00	24.694
703.32	25.616
703.64	25.428
703.96	27.685
704.28	24.324
704.60	26.835
704.91	25.000
705.23	24.384
705.55	23.955
705.87	25.455
706.19	25.460
706.51	23.494
706.83	24.207
707.15	23.810
707.47	22.430
707.79	23.581
708.11	21.186
708.43	22.581
708.74	20.313
709.06	25.522
709.38	23.239
709.70	25.558
710.02	23.514
710.34	26.330
710.66	22.626
710.98	26.230
711.29	22.802
711.61	24.011
711.93	25.926
712.25	23.514
712.57	28.024
712.89	28.824
713.20	25.148
713.52	26.301
713.84	22.841
714.16	27.895
714.48	24.227
714.80	27.013
715.11	25.197
715.43	22.281
715.75	26.842
716.07	24.586
716.39	24.044
716.70	23.193
717.02	27.213
717.34	24.390
717.66	25.168
717.97	23.288
718.29	26.460
718.61	24.342
718.93	22.977
719.24	22.360
719.56	25.460
719.88	24.024
720.20	26.774
720.51	22.981
720.83	24.375
721.15	22.039
721.46	20.548
721.78	24.000
722.10	20.388
722.42	23.154
722.73	23.871
723.05	27.018
723.37	24.306
723.68	30.466
724.00	28.520
724.32	23.592
724.63	22.727
724.95	25.177
725.27	18.467
725.58	24.382
725.90	26.552
726.22	26.019
726.53	24.351
726.85	23.899
727.16	26.586
727.48	25.688
727.80	20.199
728.11	20.141
728.43	21.212
728.74	23.746
729.06	21.523
729.38	24.026
729.69	25.503
730.01	23.810
730.32	20.606
730.64	24.214
730.96	19.255
731.27	22.067
731.59	20.879
731.90	22.597
732.22	19.271
732.53	24.309
732.85	22.000
733.16	21.408
733.48	18.598
733.80	24.513
734.11	19.658
734.43	22.162
734.74	24.304
735.06	20.352
735.37	21.892
735.69	20.270
736.00	20.056
736.32	20.485
736.63	23.889
736.95	22.414
737.26	20.000
737.58	20.303
737.89	26.471
738.21	20.183
738.52	23.279
738.83	24.232
739.15	22.340
739.46	20.068
739.78	21.779
740.09	19.771
740.41	22.157
740.72	22.667
741.04	24.919
741.35	24.211
741.66	25.490
741.98	29.918
742.29	26.778
742.61	22.368
742.92	23.077
743.23	24.910
743.55	23.643
743.86	23.200
744.18	20.248
744.49	22.785
744.80	25.926
745.12	22.785
745.43	24.797
745.74	21.121
746.06	22.458
746.37	26.160
746.68	26.423
747.00	22.500
747.31	19.313
747.62	26.538
747.94	23.887
748.25	23.293
748.56	17.959
748.88	20.085
749.19	29.310
749.50	19.913
749.82	27.711
750.13	26.335
750.44	19.000
750.75	20.923
751.07	21.538
751.38	21.136
751.69	17.891
752.01	19.741
752.32	23.529
752.63	21.088
752.94	19.723
753.26	23.792
753.57	20.370
753.88	20.974
754.19	23.151
754.51	23.473
754.82	20.257
755.13	23.607
755.44	24.573
755.75	19.408
756.07	23.881
756.38	22.013
756.69	23.795
757.00	21.607
757.31	20.765
757.63	15.857
757.94	20.188
758.25	18.284
758.56	18.736
758.87	21.136
759.18	20.533
759.50	22.946
759.81	20.168
760.12	18.598
760.43	16.667
760.74	21.675
761.05	19.500
761.36	17.349
761.67	18.020
761.99	15.676
762.30	18.293
762.61	17.492
762.92	20.149
763.23	24.345
763.54	19.065
763.85	18.213
764.16	20.875
764.47	19.718
764.78	23.642
765.10	18.475
765.41	21.538
765.72	16.402
766.03	19.209
766.34	20.376
766.65	19.861
766.96	21.116
767.27	23.502
767.58	24.876
767.89	27.885
768.20	23.944
768.51	19.907
768.82	23.293
769.13	18.561
769.44	21.154
769.75	18.773
770.06	19.615
770.37	24.016
770.68	21.702
770.99	16.599
771.30	24.444
771.61	22.053
771.92	20.000
772.23	21.053
772.54	18.519
772.85	26.728
773.16	24.762
773.47	19.577
773.78	18.378
774.09	25.568
774.39	27.000
774.70	21.311
775.01	21.341
775.32	27.647
775.63	20.859
775.94	24.204
776.25	29.677
776.56	30.128
776.87	26.531
777.18	26.897
777.48	37.063
777.79	29.054
778.10	28.676
778.41	25.000
778.72	27.586
779.03	27.160
779.34	21.818
779.65	22.280
779.95	26.667
780.26	25.000
780.57	27.097
780.88	34.783
781.19	24.516
781.50	28.235
781.80	19.355
782.11	22.222
782.42	13.636
782.73	19.162
783.04	25.140
783.34	18.788
783.65	17.647
783.96	22.981
784.27	27.381
784.57	29.139
784.88	27.857
785.19	30.709
785.50	29.921
785.81	22.556
786.11	23.077
786.42	33.094
786.73	23.022
787.04	32.331
787.34	32.787
787.65	24.000
787.96	23.134
788.26	34.266
788.57	27.273
788.88	30.921
789.19	32.680
789.49	30.822
789.80	33.333
790.11	34.646
790.41	33.594
790.72	33.051
791.03	17.476
791.33	21.739
791.64	30.702
791.95	26.786
792.25	40.952
792.56	26.786
792.87	21.875
793.17	40.179
793.48	28.125
793.79	22.892
794.09	29.358
794.40	26.606
794.70	23.810
795.01	17.532
795.32	23.288
795.62	26.056
795.93	23.485
796.23	26.230
796.54	22.321
796.85	30.851
797.15	35.870
797.46	17.808
797.76	33.750
798.07	41.304
798.37	21.649
798.68	33.766
798.99	37.931
799.29	25.843
799.60	36.170
799.90	39.759
800.21	32.308
800.51	28.358
800.82	27.941
801.12	26.027
801.43	17.647
801.73	50.847
802.04	33.333
802.34	35.000
802.65	47.458
802.95	31.343
803.26	38.983
803.56	39.726
803.87	41.429
804.17	31.507
804.48	15.789
804.78	34.722
805.09	29.310
805.39	39.189
805.70	21.127
806.00	34.146
806.30	28.916
806.61	30.137
806.91	31.731
807.22	24.444
807.52	40.230
807.83	36.111
808.13	37.349
808.43	37.079
808.74	37.500
809.04	30.882
809.35	18.667
809.65	22.857
809.95	35.616
810.26	29.825
810.56	41.379
810.86	47.059
811.17	35.088
811.47	42.623
811.77	35.556
812.08	33.898
812.38	50.000
812.69	41.379
812.99	32.075
813.29	35.897
813.59	60.000
813.90	31.579
814.20	50.909
814.50	35.211
814.81	32.051
815.11	52.459
815.41	29.851
815.72	43.103
816.02	51.786
816.32	71.111
816.62	63.636
816.93	33.333
817.23	50.000
817.53	59.574
817.84	59.524
818.14	38.235
818.44	42.857
818.74	35.556
819.04	41.026
819.35	40.000
819.65	61.538
819.95	47.170
820.25	44.444
820.56	50.000
820.86	68.750
821.16	43.590
821.46	20.930
821.76	16.000
822.07	50.000
822.37	47.826
822.67	42.553
822.97	18.919
823.27	67.500
823.57	61.224
823.88	66.667
824.18	65.000
824.48	66.667
824.78	56.000
825.08	54.545
825.38	66.667
825.69	44.681
825.99	75.000
826.29	31.429
826.59	46.154
826.89	39.535
827.19	58.000
827.49	50.000
827.79	75.000
828.09	29.730
828.39	46.667
828.70	34.146
829.00	76.744
829.30	46.429
829.60	91.176
829.90	52.174
830.20	48.571
830.50	44.828
830.80	66.667
831.10	50.000
831.40	23.529
831.70	61.905
832.00	77.419
832.30	94.118
832.60	33.333
832.90	76.923
833.20	89.474
833.50	110.000
833.80	26.316
834.10	23.810
834.40	69.444
834.70	87.500
835.00	40.000
835.30	58.824
835.60	60.000
835.90	72.000
836.20	22.727
836.50	136.000
836.80	36.364
837.10	66.667
837.40	14.815
837.70	68.750
838.00	103.571
838.30	78.261
838.60	65.517
838.90	164.286
839.19	39.130
839.49	125.000
839.79	82.609
840.09	137.500
840.39	75.000
840.69	67.742
840.99	57.143
841.29	126.667
841.59	89.474
841.88	71.795
842.18	26.923
842.48	30.000
842.78	110.000
843.08	96.667
843.38	83.871
843.68	11.111
843.97	61.765
844.27	81.250
844.57	89.474
844.87	-10.000
845.17	113.333
845.47	123.810
845.76	85.714
846.06	100.000
846.36	100.000
846.66	61.538
846.96	153.333
847.25	105.882
847.55	78.261
847.85	75.000
848.15	158.824
848.44	172.727
848.74	61.905
849.04	50.000
849.34	81.250
849.63	43.478
849.93	-150.000
850.23	173.333
850.53	119.231
850.82	100.000
851.12	118.182
851.42	181.818
851.71	207.692
852.01	75.000
852.31	115.385
852.61	110.526
852.90	125.000
853.20	88.889
853.50	166.667
853.79	109.524
854.09	31.818
854.39	108.333
854.68	48.387
854.98	73.077
855.28	116.667
855.57	75.000
855.87	100.000
856.17	131.818
856.46	100.000
856.76	127.778
857.05	73.913
857.35	25.000
857.65	92.308
857.94	61.905
858.24	77.778
858.53	73.913
858.83	88.235
859.13	94.118
859.42	129.412
859.72	57.143
860.01	80.000
860.31	188.889
860.60	210.000
860.90	106.667
861.20	100.000
861.49	153.846
861.79	83.333
862.08	100.000
862.38	90.625
862.67	141.176
862.97	118.750
863.26	88.889
863.56	210.000
863.85	172.727
864.15	88.889
864.44	600.000
864.74	157.143
865.03	137.500
865.33	150.000
865.62	61.290
865.92	122.727
866.21	52.174
866.51	192.857
866.80	200.000
867.10	141.667
867.39	150.000
867.69	-800.000
867.98	228.571
868.27	152.941
868.57	900.000
868.86	40.000
869.16	100.000
869.45	108.333
869.75	190.909
870.04	242.857
870.33	166.667
870.63	157.143
870.92	500.000
871.22	100.000
871.51	72.727
871.80	300.000
872.10	200.000
>>>>>End Processed Spectral Data<<<<<
