SpectraSuite Data File
++++++++++++++++++++++++++++++++++++
Date: Thu May 14 14:54:48 PDT 2015
User: schluterlab
Dark Spectrum Present: Yes
Reference Spectrum Present: Yes
Number of Sampled Component Spectra: 1
Spectrometers: USB2E3373
Integration Time (usec): 3000 (USB2E3373)
Spectra Averaged: 3 (USB2E3373)
Boxcar Smoothing: 0 (USB2E3373)
Correct for Electrical Dark: No (USB2E3373)
Strobe/Lamp Enabled: No (USB2E3373)
Correct for Detector Non-linearity: No (USB2E3373)
Correct for Stray Light: No (USB2E3373)
Number of Pixels in Processed Spectrum: 2048
>>>>>Begin Processed Spectral Data<<<<<
178.53	0.000
178.91	214.286
179.29	-1800.000
179.67	-2100.000
180.04	200.000
180.42	10.000
180.80	640.000
181.18	-1500.000
181.56	-600.000
181.94	650.000
182.31	-550.000
182.69	600.000
183.07	-550.000
183.45	500.000
183.83	-266.667
184.20	-233.333
184.58	900.000
184.96	-450.000
185.34	-155.556
185.72	-180.000
186.09	188.889
186.47	1100.000
186.85	280.000
187.23	-233.333
187.61	-1500.000
187.98	160.000
188.36	725.000
188.74	-250.000
189.12	-400.000
189.49	-18.750
189.87	-162.500
190.25	-100.000
190.63	-240.000
191.00	-133.333
191.38	0.000
191.76	-700.000
192.14	-200.000
192.51	900.000
192.89	-100.000
193.27	0.000
193.65	-114.286
194.02	-2300.000
194.40	-185.714
194.78	142.857
195.15	0.000
195.53	-109.091
195.91	0.000
196.29	-350.000
196.66	-76.923
197.04	-800.000
197.42	-214.286
197.79	-950.000
198.17	-75.000
198.55	-185.714
198.92	-144.444
199.30	-187.500
199.68	-54.545
200.05	-85.714
200.43	-800.000
200.81	200.000
201.18	0.000
201.56	222.222
201.94	0.000
202.31	633.333
202.69	-222.222
203.07	100.000
203.44	-144.444
203.82	-425.000
204.19	-83.333
204.57	-350.000
204.95	-162.500
205.32	-1700.000
205.70	375.000
206.08	-133.333
206.45	-100.000
206.83	540.000
207.20	-183.333
207.58	-440.000
207.96	-316.667
208.33	-150.000
208.71	150.000
209.08	-133.333
209.46	0.000
209.84	283.333
210.21	1100.000
210.59	400.000
210.96	533.333
211.34	-200.000
211.71	-37.500
212.09	-2200.000
212.46	0.000
212.84	1500.000
213.22	-460.000
213.59	-375.000
213.97	-40.000
214.34	-666.667
214.72	300.000
215.09	-375.000
215.47	0.000
215.84	314.286
216.22	1500.000
216.59	-480.000
216.97	-340.000
217.34	-300.000
217.72	-237.500
218.09	-400.000
218.47	-275.000
218.84	0.000
219.22	240.000
219.59	-17.647
219.97	0.000
220.34	1050.000
220.72	-122.222
221.09	-61.538
221.47	-433.333
221.84	-130.000
222.22	-257.143
222.59	0.000
222.97	-100.000
223.34	-420.000
223.72	-2000.000
224.09	-400.000
224.46	-500.000
224.84	-60.000
225.21	-300.000
225.59	-350.000
225.96	-350.000
226.34	-42.308
226.71	400.000
227.08	-500.000
227.46	-80.000
227.83	-275.000
228.21	-52.632
228.58	350.000
228.95	1100.000
229.33	-50.000
229.70	-70.000
230.08	10.526
230.45	160.000
230.82	-366.667
231.20	-64.286
231.57	-91.667
231.95	-145.455
232.32	-118.182
232.69	-90.000
233.07	-450.000
233.44	-52.941
233.81	-180.000
234.19	-61.111
234.56	-31.818
234.93	34.483
235.31	-57.895
235.68	-50.000
236.05	-65.000
236.43	26.923
236.80	16.000
237.17	3.704
237.55	6.061
237.92	-90.000
238.29	0.000
238.67	-9.091
239.04	11.111
239.41	-21.429
239.79	-4.348
240.16	24.074
240.53	0.000
240.91	-3.922
241.28	27.869
241.65	25.373
242.02	27.027
242.40	12.308
242.77	30.667
243.14	19.512
243.51	18.421
243.89	8.974
244.26	20.792
244.63	21.569
245.00	32.710
245.38	27.193
245.75	19.469
246.12	34.921
246.49	22.481
246.87	26.429
247.24	31.126
247.61	36.184
247.98	26.846
248.36	26.543
248.73	31.902
249.10	24.044
249.47	30.348
249.84	32.461
250.22	32.124
250.59	24.444
250.96	32.273
251.33	24.490
251.70	26.068
252.08	32.083
252.45	28.279
252.82	27.273
253.19	34.375
253.56	33.080
253.94	30.385
254.31	31.439
254.68	34.965
255.05	34.528
255.42	31.293
255.79	28.479
256.16	32.119
256.54	28.808
256.91	33.443
257.28	34.426
257.65	31.210
258.02	30.678
258.39	30.484
258.76	33.945
259.14	33.333
259.51	34.006
259.88	30.312
260.25	33.611
260.62	36.164
260.99	31.967
261.36	34.316
261.73	32.891
262.10	32.692
262.47	32.708
262.85	37.121
263.22	30.390
263.59	30.526
263.96	33.248
264.33	33.248
264.70	35.062
265.07	33.413
265.44	35.147
265.81	32.176
266.18	34.014
266.55	35.491
266.92	33.257
267.29	35.230
267.66	34.368
268.03	32.969
268.40	33.612
268.77	29.841
269.14	32.819
269.51	32.895
269.88	32.992
270.25	31.791
270.62	33.333
270.99	33.737
271.36	32.277
271.73	34.774
272.10	31.463
272.47	33.066
272.84	32.731
273.21	29.659
273.58	31.452
273.95	34.231
274.32	32.890
274.69	30.754
275.06	33.700
275.43	31.793
275.80	32.275
276.17	31.852
276.54	33.582
276.91	32.558
277.28	30.561
277.65	34.291
278.02	32.353
278.39	32.790
278.76	31.459
279.13	31.915
279.50	31.615
279.87	31.306
280.23	30.634
280.60	32.203
280.97	32.730
281.34	30.730
281.71	31.134
282.08	32.226
282.45	28.805
282.82	29.513
283.19	28.433
283.56	31.967
283.92	33.033
284.29	33.017
284.66	31.034
285.03	30.449
285.40	30.603
285.77	30.186
286.14	31.908
286.51	33.029
286.87	29.858
287.24	29.970
287.61	29.148
287.98	28.852
288.35	28.846
288.72	28.846
289.08	29.868
289.45	27.515
289.82	30.120
290.19	27.730
290.56	28.732
290.93	29.529
291.29	28.926
291.66	26.722
292.03	26.459
292.40	28.163
292.77	26.819
293.13	26.658
293.50	26.938
293.87	26.040
294.24	27.333
294.60	25.664
294.97	25.503
295.34	24.712
295.71	25.851
296.08	25.065
296.44	24.755
296.81	26.188
297.18	24.658
297.55	23.585
297.91	23.962
298.28	24.526
298.65	22.592
299.02	23.377
299.38	22.998
299.75	23.949
300.12	23.495
300.48	24.078
300.85	24.072
301.22	24.049
301.59	24.201
301.95	22.034
302.32	22.778
302.69	22.892
303.05	24.810
303.42	22.062
303.79	23.854
304.15	24.185
304.52	23.996
304.89	21.885
305.25	22.153
305.62	23.406
305.99	23.918
306.35	21.472
306.72	24.095
307.09	22.741
307.45	24.017
307.82	23.713
308.19	24.218
308.55	23.240
308.92	22.785
309.29	23.659
309.65	23.197
310.02	22.871
310.38	22.638
310.75	23.107
311.12	25.503
311.48	22.581
311.85	22.792
312.22	23.150
312.58	24.883
312.95	22.849
313.31	24.661
313.68	25.000
314.05	24.390
314.41	25.137
314.78	24.705
315.14	24.501
315.51	23.823
315.87	24.662
316.24	26.210
316.61	26.110
316.97	23.529
317.34	25.926
317.70	27.598
318.07	26.543
318.43	25.425
318.80	27.926
319.16	25.408
319.53	27.335
319.89	26.468
320.26	27.936
320.62	27.837
320.99	28.532
321.35	27.911
321.72	29.953
322.08	29.486
322.45	30.894
322.81	31.137
323.18	31.858
323.54	29.914
323.91	33.630
324.27	31.497
324.64	32.914
325.00	32.338
325.37	32.842
325.73	33.884
326.10	33.982
326.46	35.505
326.83	35.869
327.19	37.165
327.56	36.680
327.92	35.641
328.29	35.887
328.65	35.511
329.01	37.140
329.38	39.427
329.74	38.014
330.11	38.099
330.47	38.416
330.84	39.190
331.20	39.917
331.56	38.908
331.93	39.163
332.29	40.508
332.66	39.701
333.02	38.610
333.38	39.178
333.75	38.552
334.11	38.198
334.48	39.934
334.84	39.847
335.20	38.035
335.57	39.713
335.93	40.744
336.29	37.438
336.66	39.024
337.02	39.381
337.38	40.816
337.75	39.669
338.11	39.781
338.47	37.634
338.84	38.494
339.20	36.816
339.56	37.644
339.93	38.177
340.29	37.842
340.65	36.415
341.02	38.468
341.38	38.319
341.74	37.772
342.11	39.179
342.47	37.172
342.83	39.372
343.20	37.776
343.56	37.370
343.92	37.950
344.28	37.969
344.65	38.140
345.01	37.520
345.37	37.947
345.73	38.659
346.10	38.222
346.46	36.709
346.82	37.528
347.19	36.669
347.55	38.240
347.91	36.850
348.27	37.633
348.63	37.243
349.00	37.286
349.36	37.026
349.72	37.574
350.08	38.484
350.45	37.414
350.81	36.124
351.17	36.767
351.53	36.998
351.89	36.826
352.26	36.045
352.62	36.194
352.98	36.947
353.34	36.520
353.70	36.826
354.07	35.917
354.43	35.687
354.79	35.527
355.15	35.909
355.51	36.550
355.87	34.181
356.24	36.274
356.60	35.329
356.96	35.211
357.32	35.465
357.68	36.237
358.04	34.506
358.40	35.597
358.77	35.453
359.13	36.484
359.49	35.093
359.85	34.808
360.21	34.864
360.57	34.745
360.93	35.190
361.29	35.719
361.66	35.626
362.02	36.326
362.38	33.802
362.74	35.545
363.10	35.557
363.46	35.180
363.82	35.014
364.18	35.116
364.54	35.408
364.90	36.187
365.26	35.931
365.62	35.800
365.98	35.126
366.35	34.698
366.71	35.306
367.07	33.829
367.43	34.603
367.79	35.103
368.15	35.117
368.51	34.777
368.87	34.422
369.23	34.733
369.59	35.109
369.95	34.956
370.31	34.166
370.67	35.282
371.03	34.280
371.39	34.385
371.75	34.732
372.11	34.417
372.47	34.665
372.83	35.668
373.19	34.623
373.55	34.417
373.91	33.674
374.27	34.994
374.63	35.183
374.99	34.483
375.35	34.675
375.71	34.323
376.07	34.668
376.42	35.264
376.78	35.674
377.14	34.435
377.50	34.915
377.86	34.360
378.22	35.210
378.58	34.721
378.94	35.270
379.30	34.505
379.66	34.685
380.02	35.026
380.38	34.793
380.74	34.873
381.09	34.727
381.45	35.284
381.81	35.422
382.17	35.154
382.53	35.439
382.89	34.763
383.25	34.642
383.61	34.259
383.97	35.807
384.32	35.885
384.68	34.281
385.04	34.644
385.40	36.005
385.76	36.049
386.12	34.949
386.48	34.529
386.83	35.399
387.19	35.458
387.55	34.977
387.91	35.046
388.27	35.855
388.62	34.593
388.98	34.969
389.34	35.887
389.70	34.980
390.06	36.471
390.42	35.241
390.77	35.942
391.13	35.739
391.49	34.903
391.85	34.848
392.20	35.528
392.56	36.208
392.92	34.733
393.28	35.047
393.64	35.642
393.99	35.677
394.35	35.572
394.71	35.269
395.07	34.491
395.42	35.009
395.78	36.319
396.14	34.759
396.50	34.501
396.85	35.063
397.21	35.385
397.57	35.571
397.92	34.994
398.28	34.764
398.64	35.641
399.00	34.398
399.35	34.869
399.71	35.000
400.07	34.868
400.42	35.215
400.78	35.069
401.14	33.580
401.49	35.247
401.85	34.709
402.21	35.342
402.57	35.798
402.92	34.338
403.28	35.187
403.63	33.652
403.99	34.620
404.35	34.451
404.70	34.448
405.06	34.185
405.42	34.602
405.77	35.278
406.13	34.252
406.49	35.023
406.84	34.903
407.20	34.321
407.55	34.585
407.91	33.501
408.27	35.100
408.62	34.497
408.98	34.068
409.34	34.487
409.69	35.785
410.05	34.291
410.40	35.035
410.76	34.773
411.11	35.243
411.47	35.197
411.83	35.567
412.18	34.880
412.54	33.966
412.89	34.633
413.25	34.142
413.60	34.233
413.96	35.431
414.31	33.598
414.67	34.764
415.03	34.400
415.38	34.805
415.74	35.003
416.09	34.670
416.45	32.812
416.80	34.272
417.16	34.866
417.51	33.811
417.87	34.641
418.22	34.431
418.58	33.209
418.93	34.575
419.29	33.539
419.64	35.414
420.00	34.955
420.35	34.756
420.71	34.520
421.06	33.870
421.42	34.576
421.77	34.033
422.12	34.408
422.48	35.125
422.83	35.323
423.19	35.862
423.54	35.896
423.90	35.781
424.25	34.773
424.61	35.476
424.96	35.420
425.31	35.032
425.67	34.997
426.02	36.082
426.38	34.902
426.73	34.487
427.09	36.332
427.44	33.916
427.79	35.323
428.15	34.703
428.50	34.775
428.85	34.041
429.21	35.213
429.56	34.798
429.92	35.283
430.27	35.277
430.62	36.004
430.98	35.317
431.33	35.093
431.68	35.201
432.04	35.754
432.39	34.494
432.74	34.817
433.10	35.479
433.45	35.340
433.80	34.603
434.16	35.382
434.51	35.612
434.86	37.676
435.22	36.876
435.57	37.264
435.92	36.004
436.28	35.267
436.63	35.773
436.98	34.192
437.34	35.738
437.69	35.168
438.04	36.224
438.39	35.612
438.75	35.141
439.10	36.311
439.45	35.774
439.81	34.520
440.16	36.193
440.51	35.396
440.86	35.131
441.22	35.048
441.57	36.268
441.92	36.178
442.27	38.283
442.63	35.668
442.98	37.086
443.33	36.086
443.68	36.918
444.03	37.723
444.39	36.847
444.74	36.396
445.09	35.884
445.44	37.197
445.79	36.494
446.15	35.971
446.50	36.796
446.85	36.722
447.20	37.089
447.55	36.454
447.91	36.230
448.26	37.104
448.61	35.707
448.96	37.017
449.31	35.896
449.66	36.275
450.02	37.658
450.37	36.761
450.72	36.437
451.07	37.358
451.42	35.817
451.77	36.020
452.12	35.948
452.47	35.710
452.83	37.556
453.18	36.661
453.53	36.301
453.88	36.168
454.23	36.949
454.58	37.086
454.93	36.165
455.28	36.243
455.63	37.123
455.98	36.145
456.34	36.749
456.69	37.155
457.04	36.170
457.39	36.086
457.74	36.353
458.09	35.640
458.44	37.338
458.79	35.998
459.14	37.598
459.49	37.238
459.84	36.097
460.19	36.535
460.54	37.592
460.89	37.798
461.24	36.322
461.59	37.687
461.94	35.596
462.29	37.570
462.64	36.874
462.99	36.786
463.34	36.794
463.69	36.635
464.04	36.909
464.39	37.220
464.74	36.545
465.09	36.563
465.44	36.534
465.79	36.965
466.14	36.634
466.49	36.211
466.84	36.419
467.19	36.590
467.54	35.899
467.89	34.483
468.24	36.620
468.59	35.727
468.94	37.063
469.29	36.173
469.64	36.618
469.99	36.648
470.34	35.520
470.68	37.184
471.03	36.411
471.38	36.298
471.73	36.281
472.08	36.104
472.43	35.340
472.78	36.398
473.13	35.398
473.48	35.952
473.83	37.725
474.17	36.753
474.52	37.041
474.87	35.659
475.22	37.239
475.57	37.175
475.92	36.735
476.27	37.061
476.61	35.929
476.96	36.236
477.31	35.990
477.66	37.828
478.01	36.401
478.36	35.593
478.70	36.700
479.05	37.168
479.40	35.982
479.75	37.320
480.10	36.333
480.45	36.737
480.79	36.054
481.14	36.397
481.49	36.847
481.84	37.119
482.19	37.935
482.53	37.123
482.88	37.262
483.23	36.372
483.58	36.550
483.92	36.215
484.27	36.367
484.62	36.304
484.97	36.742
485.31	36.677
485.66	35.809
486.01	36.602
486.36	38.818
486.70	40.687
487.05	40.927
487.40	39.192
487.75	38.041
488.09	37.560
488.44	36.097
488.79	36.155
489.13	35.880
489.48	35.883
489.83	35.050
490.17	35.966
490.52	36.166
490.87	36.379
491.22	35.919
491.56	35.666
491.91	36.154
492.26	36.132
492.60	35.855
492.95	36.156
493.30	36.531
493.64	36.399
493.99	36.754
494.34	35.409
494.68	35.546
495.03	36.344
495.37	36.618
495.72	35.918
496.07	36.459
496.41	35.950
496.76	37.281
497.11	36.178
497.45	36.729
497.80	36.162
498.14	34.966
498.49	35.524
498.84	36.197
499.18	35.942
499.53	37.265
499.87	36.879
500.22	36.598
500.56	35.628
500.91	35.469
501.26	36.545
501.60	35.440
501.95	36.344
502.29	35.674
502.64	36.117
502.98	36.066
503.33	35.464
503.67	35.543
504.02	35.333
504.36	35.702
504.71	36.380
505.06	35.061
505.40	35.695
505.75	36.430
506.09	35.773
506.44	36.165
506.78	35.459
507.13	36.100
507.47	35.765
507.82	35.938
508.16	35.038
508.51	34.459
508.85	35.522
509.19	35.386
509.54	35.207
509.88	34.434
510.23	35.891
510.57	35.524
510.92	35.075
511.26	34.873
511.61	34.911
511.95	34.358
512.30	35.303
512.64	33.883
512.98	34.517
513.33	34.778
513.67	34.931
514.02	35.411
514.36	34.936
514.70	33.906
515.05	35.036
515.39	34.646
515.74	35.101
516.08	35.024
516.42	35.113
516.77	34.595
517.11	34.348
517.46	34.836
517.80	35.703
518.14	34.984
518.49	35.087
518.83	33.848
519.17	35.218
519.52	34.067
519.86	34.688
520.20	34.505
520.55	34.009
520.89	34.234
521.23	33.668
521.58	34.689
521.92	33.994
522.26	34.651
522.61	34.433
522.95	33.506
523.29	34.368
523.64	34.249
523.98	34.912
524.32	34.785
524.66	34.775
525.01	34.655
525.35	33.601
525.69	33.527
526.04	33.352
526.38	34.885
526.72	34.198
527.06	34.604
527.41	33.761
527.75	33.492
528.09	35.006
528.43	32.860
528.78	33.295
529.12	34.748
529.46	32.996
529.80	35.183
530.15	33.623
530.49	34.342
530.83	33.589
531.17	33.572
531.51	34.055
531.86	34.195
532.20	34.146
532.54	33.333
532.88	33.273
533.22	33.294
533.57	34.680
533.91	34.175
534.25	33.861
534.59	34.540
534.93	34.352
535.27	33.634
535.62	34.906
535.96	34.689
536.30	33.431
536.64	33.453
536.98	34.932
537.32	33.333
537.66	33.874
538.01	33.837
538.35	33.678
538.69	34.075
539.03	34.028
539.37	33.098
539.71	33.994
540.05	33.993
540.39	33.068
540.73	33.212
541.07	34.948
541.42	33.786
541.76	32.740
542.10	33.655
542.44	33.374
542.78	33.637
543.12	34.565
543.46	33.761
543.80	32.914
544.14	33.094
544.48	33.333
544.82	34.889
545.16	34.049
545.50	33.733
545.84	33.864
546.18	34.877
546.52	33.694
546.86	32.075
547.20	32.824
547.54	33.146
547.88	32.429
548.22	32.982
548.56	33.411
548.90	33.373
549.24	33.678
549.58	33.375
549.92	32.589
550.26	32.751
550.60	32.993
550.94	33.571
551.28	32.145
551.62	32.345
551.96	32.039
552.30	34.162
552.64	34.287
552.98	33.624
553.32	33.633
553.66	33.569
554.00	32.913
554.34	32.754
554.68	32.408
555.02	32.917
555.36	33.202
555.69	31.326
556.03	32.850
556.37	34.168
556.71	32.467
557.05	32.843
557.39	31.984
557.73	31.902
558.07	32.517
558.41	32.957
558.75	33.333
559.08	32.777
559.42	31.962
559.76	31.208
560.10	31.748
560.44	32.784
560.78	32.750
561.12	32.820
561.45	33.698
561.79	33.761
562.13	33.272
562.47	32.182
562.81	32.468
563.15	33.207
563.48	33.313
563.82	32.769
564.16	32.405
564.50	33.135
564.84	32.507
565.17	33.176
565.51	32.566
565.85	33.610
566.19	32.488
566.52	32.066
566.86	32.598
567.20	32.572
567.54	33.298
567.88	34.811
568.21	34.091
568.55	34.580
568.89	34.317
569.23	34.178
569.56	35.053
569.90	34.961
570.24	35.616
570.57	34.798
570.91	34.936
571.25	34.799
571.59	34.762
571.92	34.995
572.26	34.992
572.60	35.654
572.93	34.790
573.27	34.532
573.61	34.966
573.95	34.717
574.28	34.782
574.62	35.107
574.96	34.274
575.29	34.853
575.63	34.719
575.97	34.731
576.30	33.654
576.64	34.646
576.98	34.374
577.31	34.428
577.65	35.411
577.98	35.297
578.32	35.209
578.66	34.960
578.99	35.040
579.33	34.815
579.67	34.497
580.00	34.053
580.34	34.533
580.67	34.113
581.01	34.401
581.35	34.697
581.68	34.889
582.02	35.489
582.35	35.860
582.69	36.384
583.02	35.433
583.36	35.100
583.70	34.219
584.03	33.741
584.37	33.374
584.70	33.521
585.04	33.969
585.37	33.562
585.71	34.196
586.04	34.148
586.38	34.680
586.72	33.567
587.05	33.768
587.39	34.181
587.72	34.234
588.06	34.260
588.39	34.130
588.73	33.175
589.06	33.775
589.40	33.497
589.73	33.901
590.07	33.588
590.40	32.657
590.73	33.157
591.07	33.098
591.40	31.882
591.74	32.909
592.07	32.521
592.41	32.295
592.74	32.907
593.08	33.567
593.41	34.791
593.75	34.080
594.08	34.474
594.41	33.750
594.75	32.946
595.08	32.537
595.42	32.760
595.75	33.097
596.09	32.972
596.42	32.784
596.75	32.729
597.09	32.566
597.42	31.943
597.75	32.105
598.09	32.540
598.42	32.851
598.76	31.830
599.09	32.823
599.42	32.551
599.76	32.717
600.09	33.133
600.42	33.400
600.76	32.827
601.09	32.028
601.42	32.372
601.76	32.621
602.09	32.130
602.42	31.334
602.76	32.140
603.09	32.195
603.42	31.395
603.76	32.276
604.09	32.789
604.42	32.294
604.76	32.002
605.09	32.150
605.42	31.818
605.75	30.808
606.09	31.803
606.42	32.287
606.75	31.072
607.09	30.799
607.42	31.599
607.75	30.989
608.08	31.413
608.42	30.673
608.75	31.095
609.08	30.772
609.41	31.231
609.75	30.446
610.08	31.486
610.41	30.884
610.74	31.008
611.07	31.661
611.41	31.704
611.74	31.824
612.07	31.604
612.40	30.466
612.73	30.709
613.07	30.465
613.40	31.232
613.73	30.910
614.06	30.471
614.39	29.689
614.72	29.985
615.06	30.366
615.39	30.498
615.72	31.090
616.05	30.403
616.38	30.373
616.71	29.885
617.05	28.860
617.38	29.856
617.71	29.428
618.04	29.951
618.37	29.836
618.70	30.317
619.03	28.793
619.36	28.730
619.69	29.340
620.03	29.253
620.36	28.957
620.69	28.748
621.02	28.543
621.35	29.318
621.68	28.778
622.01	28.256
622.34	27.197
622.67	28.935
623.00	28.340
623.33	28.932
623.66	29.053
623.99	28.045
624.32	28.460
624.65	28.314
624.99	29.454
625.32	29.589
625.65	28.928
625.98	27.525
626.31	28.065
626.64	27.253
626.97	26.332
627.30	27.107
627.63	26.707
627.96	28.078
628.29	27.860
628.62	26.364
628.95	26.468
629.28	25.913
629.61	26.852
629.94	26.360
630.26	26.780
630.59	26.511
630.92	25.974
631.25	27.370
631.58	26.742
631.91	27.648
632.24	25.648
632.57	26.376
632.90	25.577
633.23	25.612
633.56	25.408
633.89	25.000
634.22	26.819
634.55	26.096
634.88	24.784
635.20	26.803
635.53	25.763
635.86	24.377
636.19	26.087
636.52	25.633
636.85	24.515
637.18	26.091
637.51	24.731
637.83	26.135
638.16	25.346
638.49	25.000
638.82	25.705
639.15	23.597
639.48	27.829
639.81	24.365
640.13	26.502
640.46	24.242
640.79	23.284
641.12	23.851
641.45	21.832
641.77	25.931
642.10	24.934
642.43	23.936
642.76	23.442
643.09	23.288
643.41	23.249
643.74	24.552
644.07	23.862
644.40	22.348
644.73	22.787
645.05	23.201
645.38	23.453
645.71	22.581
646.04	24.247
646.36	22.774
646.69	24.540
647.02	24.006
647.35	22.137
647.67	21.095
648.00	24.363
648.33	22.673
648.66	22.967
648.98	22.449
649.31	25.304
649.64	24.701
649.96	24.536
650.29	23.227
650.62	22.772
650.94	23.423
651.27	21.108
651.60	20.175
651.92	22.948
652.25	24.891
652.58	23.934
652.90	24.273
653.23	21.831
653.56	24.822
653.88	25.983
654.21	23.380
654.54	23.410
654.86	22.805
655.19	22.961
655.52	29.290
655.84	32.912
656.17	39.079
656.49	54.359
656.82	58.276
657.15	44.262
657.47	32.788
657.80	23.630
658.13	17.878
658.45	22.669
658.78	26.236
659.10	24.450
659.43	23.848
659.75	22.335
660.08	20.280
660.41	19.024
660.73	18.130
661.06	20.117
661.38	20.893
661.71	19.828
662.03	21.693
662.36	21.825
662.68	20.826
663.01	23.186
663.33	22.873
663.66	23.077
663.98	18.654
664.31	23.640
664.63	18.882
664.96	21.779
665.28	22.323
665.61	23.077
665.93	19.107
666.26	22.939
666.58	19.004
666.91	21.682
667.23	20.000
667.56	23.471
667.88	20.200
668.21	19.531
668.53	19.498
668.86	19.450
669.18	21.385
669.50	21.471
669.83	19.200
670.15	20.079
670.48	23.016
670.80	18.164
671.13	18.904
671.45	19.291
671.77	21.281
672.10	21.000
672.42	22.330
672.75	20.276
673.07	21.940
673.39	21.572
673.72	24.329
674.04	24.655
674.37	20.572
674.69	22.222
675.01	20.190
675.34	19.847
675.66	18.914
675.98	19.590
676.31	20.508
676.63	20.342
676.95	22.989
677.28	20.766
677.60	18.307
677.92	21.113
678.25	21.207
678.57	21.530
678.89	21.160
679.22	19.512
679.54	19.658
679.86	19.492
680.18	21.227
680.51	21.226
680.83	20.458
681.15	20.690
681.48	22.798
681.80	21.589
682.12	19.406
682.44	20.033
682.77	19.149
683.09	18.939
683.41	21.899
683.73	20.114
684.06	21.402
684.38	19.857
684.70	22.980
685.02	20.654
685.34	21.464
685.67	19.558
685.99	21.319
686.31	20.058
686.63	21.169
686.96	21.293
687.28	20.684
687.60	20.034
687.92	18.971
688.24	20.701
688.56	20.862
688.89	21.053
689.21	23.092
689.53	18.627
689.85	20.907
690.17	19.630
690.49	19.522
690.82	18.812
691.14	18.219
691.46	18.547
691.78	19.521
692.10	18.532
692.42	18.214
692.74	20.508
693.06	18.519
693.39	19.734
693.71	19.549
694.03	20.074
694.35	21.714
694.67	20.329
694.99	18.511
695.31	16.998
695.63	18.615
695.95	19.255
696.27	21.758
696.59	20.133
696.91	18.919
697.23	23.736
697.56	21.792
697.88	20.644
698.20	19.397
698.52	25.000
698.84	17.048
699.16	21.429
699.48	20.921
699.80	20.426
700.12	21.397
700.44	17.972
700.76	19.477
701.08	17.918
701.40	19.430
701.72	16.915
702.04	17.647
702.36	15.969
702.68	14.670
703.00	21.027
703.32	19.704
703.64	18.582
703.96	21.002
704.28	18.182
704.60	18.987
704.91	15.561
705.23	15.616
705.55	19.220
705.87	16.667
706.19	18.712
706.51	14.458
706.83	14.409
707.15	16.402
707.47	21.028
707.79	19.432
708.11	17.585
708.43	16.344
708.74	17.187
709.06	19.258
709.38	19.249
709.70	20.844
710.02	17.571
710.34	17.553
710.66	12.570
710.98	18.579
711.29	15.659
711.61	20.339
711.93	19.088
712.25	17.838
712.57	21.534
712.89	22.941
713.20	16.864
713.52	17.630
713.84	16.992
714.16	21.842
714.48	16.237
714.80	21.299
715.11	18.110
715.43	19.894
715.75	18.947
716.07	16.575
716.39	21.311
716.70	16.265
717.02	17.705
717.34	13.589
717.66	15.436
717.97	13.356
718.29	15.464
718.61	11.184
718.93	14.563
719.24	15.528
719.56	15.337
719.88	18.919
720.20	18.387
720.51	16.770
720.83	15.000
721.15	12.171
721.46	17.123
721.78	17.000
722.10	17.152
722.42	15.436
722.73	15.161
723.05	14.737
723.37	14.931
723.68	16.846
724.00	17.690
724.32	13.380
724.63	13.636
724.95	18.085
725.27	15.331
725.58	19.788
725.90	17.241
726.22	18.495
726.53	18.506
726.85	12.264
727.16	17.221
727.48	16.514
727.80	17.550
728.11	12.367
728.43	15.488
728.74	17.057
729.06	16.887
729.38	18.182
729.69	21.477
730.01	16.369
730.32	11.515
730.64	13.208
730.96	15.217
731.27	20.112
731.59	19.231
731.90	16.623
732.22	15.625
732.53	14.917
732.85	18.571
733.16	14.370
733.48	15.244
733.80	15.320
734.11	17.949
734.43	18.378
734.74	23.797
735.06	17.337
735.37	16.486
735.69	17.838
736.00	16.384
736.32	14.286
736.63	18.889
736.95	19.540
737.26	16.364
737.58	16.364
737.89	19.412
738.21	12.538
738.52	18.689
738.83	18.089
739.15	13.475
739.46	14.966
739.78	20.245
740.09	15.186
740.41	20.408
740.72	14.667
741.04	15.210
741.35	14.737
741.66	12.549
741.98	18.443
742.29	15.481
742.61	9.211
742.92	13.077
743.23	18.412
743.55	13.566
743.86	16.000
744.18	12.810
744.49	8.439
744.80	12.346
745.12	19.409
745.43	14.634
745.74	12.500
746.06	12.712
746.37	18.143
746.68	14.228
747.00	15.000
747.31	15.451
747.62	20.000
747.94	15.789
748.25	15.663
748.56	14.694
748.88	13.248
749.19	15.517
749.50	15.152
749.82	15.663
750.13	21.708
750.44	18.667
750.75	18.769
751.07	16.923
751.38	14.511
751.69	17.252
752.01	13.916
752.32	18.954
752.63	18.027
752.94	18.339
753.26	13.383
753.57	9.630
753.88	16.854
754.19	14.469
754.51	18.328
754.82	16.720
755.13	16.721
755.44	14.334
755.75	16.776
756.07	19.403
756.38	16.667
756.69	18.373
757.00	13.019
757.31	18.852
757.63	14.578
757.94	19.718
758.25	18.284
758.56	19.390
758.87	17.955
759.18	16.000
759.50	18.980
759.81	17.087
760.12	16.981
760.43	19.271
760.74	19.704
761.05	19.000
761.36	17.590
761.67	15.736
761.99	20.000
762.30	15.549
762.61	18.152
762.92	13.060
763.23	16.105
763.54	21.223
763.85	13.746
764.16	16.835
764.47	16.549
764.78	20.128
765.10	19.355
765.41	22.821
765.72	15.608
766.03	16.102
766.34	14.734
766.65	13.240
766.96	11.155
767.27	12.442
767.58	13.433
767.89	12.981
768.20	7.512
768.51	15.278
768.82	17.671
769.13	15.530
769.44	11.923
769.75	17.690
770.06	20.769
770.37	20.079
770.68	11.064
770.99	10.121
771.30	20.741
771.61	18.631
771.92	15.185
772.23	14.575
772.54	11.111
772.85	12.442
773.16	11.905
773.47	13.757
773.78	9.730
774.09	12.500
774.39	17.500
774.70	14.208
775.01	13.415
775.32	7.059
775.63	9.816
775.94	3.822
776.25	20.000
776.56	12.179
776.87	10.204
777.18	14.483
777.48	9.790
777.79	8.784
778.10	1.471
778.41	10.417
778.72	8.276
779.03	11.111
779.34	13.333
779.65	13.990
779.95	15.000
780.26	14.773
780.57	10.323
780.88	13.043
781.19	15.484
781.50	16.471
781.80	9.677
782.11	14.815
782.42	6.566
782.73	7.784
783.04	15.084
783.34	2.424
783.65	3.922
783.96	18.012
784.27	12.500
784.57	9.272
784.88	10.000
785.19	5.512
785.50	15.748
785.81	15.038
786.11	14.615
786.42	5.036
786.73	1.439
787.04	12.782
787.34	9.836
787.65	15.200
787.96	9.701
788.26	14.685
788.57	9.091
788.88	10.526
789.19	18.954
789.49	16.438
789.80	9.220
790.11	5.512
790.41	2.344
790.72	9.322
791.03	6.796
791.33	5.217
791.64	2.632
791.95	5.357
792.25	1.905
792.56	7.143
792.87	14.583
793.17	9.821
793.48	-2.083
793.79	-15.663
794.09	0.917
794.40	6.422
794.70	13.605
795.01	9.740
795.32	8.904
795.62	10.563
795.93	12.879
796.23	4.918
796.54	10.714
796.85	0.000
797.15	-3.261
797.46	-9.589
797.76	-5.000
798.07	9.783
798.37	-2.062
798.68	0.000
798.99	-1.149
799.29	-3.371
799.60	15.957
799.90	6.024
800.21	-21.538
800.51	-8.955
800.82	-17.647
801.12	-21.918
801.43	-26.471
801.73	-13.559
802.04	-3.030
802.34	-3.333
802.65	-16.949
802.95	-5.970
803.26	-11.864
803.56	-15.068
803.87	-10.000
804.17	15.068
804.48	-22.807
804.78	-5.556
805.09	-29.310
805.39	0.000
805.70	-19.718
806.00	3.659
806.30	6.024
806.61	-2.740
806.91	7.692
807.22	8.889
807.52	-2.299
807.83	11.111
808.13	4.819
808.43	12.360
808.74	5.000
809.04	-23.529
809.35	-4.000
809.65	-11.429
809.95	5.479
810.26	-15.789
810.56	-17.241
810.86	-1.471
811.17	-14.035
811.47	-19.672
811.77	-42.222
812.08	-28.814
812.38	5.000
812.69	12.069
812.99	-18.868
813.29	-41.026
813.59	-6.000
813.90	22.807
814.20	-9.091
814.50	4.225
814.81	-8.974
815.11	-8.197
815.41	2.985
815.72	13.793
816.02	-1.786
816.32	-6.667
816.62	-22.727
816.93	-20.000
817.23	1.852
817.53	-19.149
817.84	-7.143
818.14	-44.118
818.44	-12.245
818.74	-8.889
819.04	-38.462
819.35	-54.286
819.65	-57.692
819.95	-9.434
820.25	-13.333
820.56	-21.429
820.86	-9.375
821.16	-7.692
821.46	-25.581
821.76	-20.000
822.07	-1.786
822.37	-36.957
822.67	-27.660
822.97	-37.838
823.27	-32.500
823.57	2.041
823.88	-17.778
824.18	2.500
824.48	-13.333
824.78	-48.000
825.08	-24.242
825.38	2.222
825.69	0.000
825.99	-25.000
826.29	-71.429
826.59	-46.154
826.89	-23.256
827.19	-26.000
827.49	-20.588
827.79	-25.000
828.09	-27.027
828.39	-53.333
828.70	-7.317
829.00	-18.605
829.30	-64.286
829.60	2.941
829.90	-4.348
830.20	-42.857
830.50	-48.276
830.80	-88.889
831.10	-34.615
831.40	-29.412
831.70	-47.619
832.00	-12.903
832.30	-158.824
832.60	-66.667
832.90	-192.308
833.20	-42.105
833.50	-80.000
833.80	-89.474
834.10	-100.000
834.40	-2.778
834.70	-9.375
835.00	-54.286
835.30	-29.412
835.60	-46.667
835.90	-28.000
836.20	-77.273
836.50	-32.000
836.80	-60.606
837.10	-70.370
837.40	-59.259
837.70	-112.500
838.00	-28.571
838.30	-60.870
838.60	-65.517
838.90	-107.143
839.19	-82.609
839.49	-141.667
839.79	-65.217
840.09	-125.000
840.39	-70.000
840.69	-19.355
840.99	-50.000
841.29	-93.333
841.59	-73.684
841.88	-17.949
842.18	-73.077
842.48	-150.000
842.78	-60.000
843.08	-30.000
843.38	-45.161
843.68	-105.556
843.97	-17.647
844.27	-87.500
844.57	-52.632
844.87	-150.000
845.17	-93.333
845.47	-28.571
845.76	-61.905
846.06	-266.667
846.36	-117.647
846.66	-53.846
846.96	-113.333
847.25	-88.235
847.55	-26.087
847.85	-85.000
848.15	-82.353
848.44	-127.273
848.74	-47.619
849.04	-45.833
849.34	-137.500
849.63	-26.087
849.93	950.000
850.23	-80.000
850.53	-30.769
850.82	-136.364
851.12	0.000
851.42	-154.545
851.71	-61.538
852.01	-120.000
852.31	-84.615
852.61	-94.737
852.90	-33.333
853.20	-38.889
853.50	-233.333
853.79	-76.190
854.09	-50.000
854.39	-141.667
854.68	6.452
854.98	-11.538
855.28	-77.778
855.57	-32.143
855.87	-52.000
856.17	-86.364
856.46	-40.741
856.76	-105.556
857.05	-47.826
857.35	-79.167
857.65	-161.538
857.94	-47.619
858.24	-25.926
858.53	4.348
858.83	-76.471
859.13	-111.765
859.42	-100.000
859.72	-128.571
860.01	-35.000
860.31	-155.556
860.60	-170.000
860.90	-40.000
861.20	-83.333
861.49	-115.385
861.79	-23.333
862.08	-107.692
862.38	15.625
862.67	-35.294
862.97	-6.250
863.26	-155.556
863.56	-90.000
863.85	-118.182
864.15	-38.889
864.44	-966.667
864.74	-57.143
865.03	-87.500
865.33	-270.000
865.62	-35.484
865.92	-27.273
866.21	-73.913
866.51	-107.143
866.80	-400.000
867.10	-83.333
867.39	-141.667
867.69	2500.000
867.98	-185.714
868.27	-17.647
868.57	-2500.000
868.86	-220.000
869.16	-52.381
869.45	-54.167
869.75	-181.818
870.04	-228.571
870.33	-150.000
870.63	-242.857
870.92	-275.000
871.22	-300.000
871.51	-136.364
871.80	-1133.333
872.10	-1300.000
>>>>>End Processed Spectral Data<<<<<
