SpectraSuite Data File
++++++++++++++++++++++++++++++++++++
Date: Thu May 14 14:39:13 PDT 2015
User: schluterlab
Dark Spectrum Present: Yes
Reference Spectrum Present: Yes
Number of Sampled Component Spectra: 1
Spectrometers: USB2E3373
Integration Time (usec): 3000 (USB2E3373)
Spectra Averaged: 3 (USB2E3373)
Boxcar Smoothing: 0 (USB2E3373)
Correct for Electrical Dark: No (USB2E3373)
Strobe/Lamp Enabled: No (USB2E3373)
Correct for Detector Non-linearity: No (USB2E3373)
Correct for Stray Light: No (USB2E3373)
Number of Pixels in Processed Spectrum: 2048
>>>>>Begin Processed Spectral Data<<<<<
178.53	0.000
178.91	-342.857
179.29	800.000
179.67	600.000
180.04	42.857
180.42	-60.000
180.80	-200.000
181.18	1100.000
181.56	1300.000
181.94	-250.000
182.31	300.000
182.69	-500.000
183.07	950.000
183.45	-375.000
183.83	116.667
184.20	400.000
184.58	-1500.000
184.96	25.000
185.34	100.000
185.72	320.000
186.09	-55.556
186.47	-250.000
186.85	40.000
187.23	11.111
187.61	200.000
187.98	-260.000
188.36	-225.000
188.74	325.000
189.12	600.000
189.49	193.750
189.87	50.000
190.25	88.889
190.63	260.000
191.00	100.000
191.38	0.000
191.76	250.000
192.14	66.667
192.51	-850.000
192.89	300.000
193.27	0.000
193.65	171.429
194.02	-1200.000
194.40	228.571
194.78	-85.714
195.15	0.000
195.53	218.182
195.91	0.000
196.29	425.000
196.66	138.462
197.04	500.000
197.42	157.143
197.79	350.000
198.17	87.500
198.55	171.429
198.92	166.667
199.30	112.500
199.68	181.818
200.05	57.143
200.43	500.000
200.81	-57.143
201.18	0.000
201.56	88.889
201.94	0.000
202.31	-600.000
202.69	44.444
203.07	-1000.000
203.44	233.333
203.82	275.000
204.19	108.333
204.57	66.667
204.95	150.000
205.32	1000.000
205.70	-425.000
206.08	216.667
206.45	400.000
206.83	-100.000
207.20	333.333
207.58	60.000
207.96	133.333
208.33	166.667
208.71	-16.667
209.08	350.000
209.46	0.000
209.84	-216.667
210.21	50.000
210.59	-650.000
210.96	66.667
211.34	300.000
211.71	125.000
212.09	1000.000
212.46	0.000
212.84	-150.000
213.22	160.000
213.59	75.000
213.97	100.000
214.34	533.333
214.72	-150.000
215.09	625.000
215.47	0.000
215.84	-100.000
216.22	-150.000
216.59	120.000
216.97	160.000
217.34	200.000
217.72	150.000
218.09	250.000
218.47	275.000
218.84	0.000
219.22	-220.000
219.59	94.118
219.97	75.000
220.34	-450.000
220.72	11.111
221.09	138.462
221.47	66.667
221.84	170.000
222.22	185.714
222.59	0.000
222.97	262.500
223.34	40.000
223.72	1600.000
224.09	200.000
224.46	0.000
224.84	320.000
225.21	85.714
225.59	175.000
225.96	200.000
226.34	38.462
226.71	16.667
227.08	450.000
227.46	73.333
227.83	375.000
228.21	105.263
228.58	-125.000
228.95	-300.000
229.33	83.333
229.70	30.000
230.08	147.368
230.45	-80.000
230.82	400.000
231.20	107.143
231.57	141.667
231.95	54.545
232.32	118.182
232.69	65.000
233.07	450.000
233.44	64.706
233.81	170.000
234.19	111.111
234.56	127.273
234.93	44.828
235.31	42.105
235.68	122.222
236.05	-10.000
236.43	100.000
236.80	92.000
237.17	70.370
237.55	39.394
237.92	140.000
238.29	38.710
238.67	31.818
239.04	41.667
239.41	38.095
239.79	2.174
240.16	27.778
240.53	36.957
240.91	29.412
241.28	39.344
241.65	23.881
242.02	28.378
242.40	18.462
242.77	32.000
243.14	13.415
243.51	-3.947
243.89	11.538
244.26	27.723
244.63	24.510
245.00	20.561
245.38	10.526
245.75	2.655
246.12	20.635
246.49	19.380
246.87	21.429
247.24	19.205
247.61	15.132
247.98	10.738
248.36	17.284
248.73	20.245
249.10	14.754
249.47	20.896
249.84	17.277
250.22	18.135
250.59	13.333
250.96	12.727
251.33	8.673
251.70	14.957
252.08	8.750
252.45	13.934
252.82	10.331
253.19	10.547
253.56	15.209
253.94	8.462
254.31	14.773
254.68	16.434
255.05	12.052
255.42	10.884
255.79	12.621
256.16	14.570
256.54	7.285
256.91	13.115
257.28	14.754
257.65	9.873
258.02	8.850
258.39	10.541
258.76	11.621
259.14	11.782
259.51	12.968
259.88	11.048
260.25	13.611
260.62	11.233
260.99	13.388
261.36	14.209
261.73	9.814
262.10	10.989
262.47	10.188
262.85	14.899
263.22	9.351
263.59	7.895
263.96	10.486
264.33	7.928
264.70	8.148
265.07	11.695
265.44	12.925
265.81	9.491
266.18	12.245
266.55	11.161
266.92	7.745
267.29	11.597
267.66	10.643
268.03	11.135
268.40	9.812
268.77	8.428
269.14	9.031
269.51	11.404
269.88	9.426
270.25	10.262
270.62	12.025
270.99	11.717
271.36	11.287
271.73	9.823
272.10	11.022
272.47	11.022
272.84	9.839
273.21	8.417
273.58	10.081
273.95	8.077
274.32	8.175
274.69	10.058
275.06	12.454
275.43	10.351
275.80	11.464
276.17	8.519
276.54	8.022
276.91	7.871
277.28	10.488
277.65	11.311
278.02	9.926
278.39	11.413
278.76	8.963
279.13	9.397
279.50	12.027
279.87	9.302
280.23	5.986
280.60	11.017
280.97	11.020
281.34	7.810
281.71	11.844
282.08	8.472
282.45	8.674
282.82	8.634
283.19	6.947
283.56	9.672
283.92	10.210
284.29	12.164
284.66	8.703
285.03	6.410
285.40	8.192
285.77	9.752
286.14	10.534
286.51	7.763
286.87	8.531
287.24	8.434
287.61	8.520
287.98	8.006
288.35	8.876
288.72	7.840
289.08	11.420
289.45	7.840
289.82	7.681
290.19	7.471
290.56	8.732
290.93	8.274
291.29	8.402
291.66	7.163
292.03	7.327
292.40	8.980
292.77	7.412
293.13	8.796
293.50	7.227
293.87	8.456
294.24	8.667
294.60	8.597
294.97	6.577
295.34	10.243
295.71	6.431
296.08	7.752
296.44	8.211
296.81	8.039
297.18	6.351
297.55	6.722
297.91	6.643
298.28	6.398
298.65	6.778
299.02	7.084
299.38	7.323
299.75	6.542
300.12	6.366
300.48	7.488
300.85	6.637
301.22	7.718
301.59	7.192
301.95	6.893
302.32	7.444
302.69	7.119
303.05	6.202
303.42	7.871
303.79	6.875
304.15	6.940
304.52	6.554
304.89	8.168
305.25	6.832
305.62	7.210
305.99	6.804
306.35	6.552
306.72	7.446
307.09	6.904
307.45	7.350
307.82	5.853
308.19	6.963
308.55	6.847
308.92	6.134
309.29	7.471
309.65	5.945
310.02	5.644
310.38	5.906
310.75	6.602
311.12	7.191
311.48	5.865
311.85	6.078
312.22	5.977
312.58	6.761
312.95	5.545
313.31	6.414
313.68	6.593
314.05	7.498
314.41	8.015
314.78	7.084
315.14	6.806
315.51	6.925
315.87	7.021
316.24	6.758
316.61	8.082
316.97	6.244
317.34	5.556
317.70	6.550
318.07	6.790
318.43	7.058
318.80	7.943
319.16	7.382
319.53	5.998
319.89	6.398
320.26	6.406
320.62	6.472
320.99	6.925
321.35	6.470
321.72	6.884
322.08	6.312
322.45	6.323
322.81	7.040
323.18	7.876
323.54	6.638
323.91	6.762
324.27	7.487
324.64	8.816
325.00	7.546
325.37	7.289
325.73	7.603
326.10	7.705
326.46	7.410
326.83	8.247
327.19	8.031
327.56	7.352
327.92	6.688
328.29	7.742
328.65	7.119
329.01	7.868
329.38	7.329
329.74	9.075
330.11	8.647
330.47	7.582
330.84	8.269
331.20	7.833
331.56	7.626
331.93	9.540
332.29	7.966
332.66	8.306
333.02	8.124
333.38	7.466
333.75	8.502
334.11	7.506
334.48	7.756
334.84	8.751
335.20	7.725
335.57	9.612
335.93	8.843
336.29	8.319
336.66	8.074
337.02	8.361
337.38	8.929
337.75	8.264
338.11	9.167
338.47	8.106
338.84	7.614
339.20	6.908
339.56	8.320
339.93	7.471
340.29	8.696
340.65	8.354
341.02	8.619
341.38	9.135
341.74	7.264
342.11	8.126
342.47	7.228
342.83	8.535
343.20	8.177
343.56	7.859
343.92	8.487
344.28	8.594
344.65	8.915
345.01	8.814
345.37	8.009
345.73	7.872
346.10	8.112
346.46	7.911
346.82	8.539
347.19	7.869
347.55	8.118
347.91	7.578
348.27	7.436
348.63	8.149
349.00	7.084
349.36	8.476
349.72	8.110
350.08	8.247
350.45	7.072
350.81	7.315
351.17	6.917
351.53	8.567
351.89	7.897
352.26	8.881
352.62	7.537
352.98	7.634
353.34	7.618
353.70	7.242
354.07	7.750
354.43	6.606
354.79	7.779
355.15	7.506
355.51	8.260
355.87	7.928
356.24	7.300
356.60	7.391
356.96	7.265
357.32	6.989
357.68	7.101
358.04	6.662
358.40	7.612
358.77	7.895
359.13	7.016
359.49	7.138
359.85	7.252
360.21	8.106
360.57	7.538
360.93	7.193
361.29	8.211
361.66	7.241
362.02	8.559
362.38	8.011
362.74	7.332
363.10	7.772
363.46	7.964
363.82	7.884
364.18	7.460
364.54	7.331
364.90	6.756
365.26	6.759
365.62	7.733
365.98	6.671
366.35	7.718
366.71	6.463
367.07	7.172
367.43	8.404
367.79	7.498
368.15	7.826
368.51	7.645
368.87	7.642
369.23	7.467
369.59	7.923
369.95	7.437
370.31	7.292
370.67	7.703
371.03	7.479
371.39	7.253
371.75	6.946
372.11	7.317
372.47	7.583
372.83	8.181
373.19	7.138
373.55	7.046
373.91	7.703
374.27	7.503
374.63	7.172
374.99	7.427
375.35	7.662
375.71	7.806
376.07	7.876
376.42	8.249
376.78	7.955
377.14	7.985
377.50	7.147
377.86	8.682
378.22	8.443
378.58	7.610
378.94	7.160
379.30	7.674
379.66	7.231
380.02	7.098
380.38	7.604
380.74	7.944
381.09	8.246
381.45	7.614
381.81	8.021
382.17	8.135
382.53	8.070
382.89	8.352
383.25	7.503
383.61	8.391
383.97	7.597
384.32	7.955
384.68	7.889
385.04	8.097
385.40	8.662
385.76	8.792
386.12	7.959
386.48	8.294
386.83	8.403
387.19	7.648
387.55	7.805
387.91	7.820
388.27	8.314
388.62	8.477
388.98	8.291
389.34	8.780
389.70	8.077
390.06	8.940
390.42	8.072
390.77	9.272
391.13	8.157
391.49	8.696
391.85	8.667
392.20	8.244
392.56	8.565
392.92	9.106
393.28	8.955
393.64	8.827
393.99	9.413
394.35	8.703
394.71	8.862
395.07	7.904
395.42	8.909
395.78	9.263
396.14	9.091
396.50	8.076
396.85	8.766
397.21	8.521
397.57	8.245
397.92	8.935
398.28	8.854
398.64	8.295
399.00	7.906
399.35	9.267
399.71	8.750
400.07	8.815
400.42	9.371
400.78	8.391
401.14	9.163
401.49	8.869
401.85	8.372
402.21	9.212
402.57	9.624
402.92	9.279
403.28	8.255
403.63	8.234
403.99	8.432
404.35	8.300
404.70	9.235
405.06	9.130
405.42	8.548
405.77	9.269
406.13	9.022
406.49	9.065
406.84	9.141
407.20	8.776
407.55	9.207
407.91	8.171
408.27	9.894
408.62	8.668
408.98	8.764
409.34	8.270
409.69	8.653
410.05	8.675
410.40	8.527
410.76	8.749
411.11	8.708
411.47	8.907
411.83	9.230
412.18	9.337
412.54	9.781
412.89	9.197
413.25	8.691
413.60	8.558
413.96	9.674
414.31	9.632
414.67	9.064
415.03	8.246
415.38	9.016
415.74	8.919
416.09	8.883
416.45	8.391
416.80	9.425
417.16	9.004
417.51	9.589
417.87	8.277
418.22	8.922
418.58	9.727
418.93	9.255
419.29	8.323
419.64	8.463
420.00	8.131
420.35	9.377
420.71	9.305
421.06	8.741
421.42	8.830
421.77	8.939
422.12	8.562
422.48	8.858
422.83	9.693
423.19	8.966
423.54	8.960
423.90	9.221
424.25	9.227
424.61	7.979
424.96	8.841
425.31	9.236
425.67	8.427
426.02	9.131
426.38	8.783
426.73	8.761
427.09	9.919
427.44	8.848
427.79	8.458
428.15	8.733
428.50	8.820
428.85	9.472
429.21	9.734
429.56	8.736
429.92	9.042
430.27	9.253
430.62	9.135
430.98	8.657
431.33	8.700
431.68	8.621
432.04	8.685
432.39	8.998
432.74	9.418
433.10	9.356
433.45	8.640
433.80	9.496
434.16	9.143
434.51	8.736
434.86	9.338
435.22	9.458
435.57	9.670
435.92	8.792
436.28	9.443
436.63	9.448
436.98	9.447
437.34	8.737
437.69	9.081
438.04	8.514
438.39	8.616
438.75	8.633
439.10	10.254
439.45	9.223
439.81	8.701
440.16	9.062
440.51	9.699
440.86	8.894
441.22	9.593
441.57	8.962
441.92	8.826
442.27	9.495
442.63	9.240
442.98	9.605
443.33	9.206
443.68	9.613
444.03	9.737
444.39	9.339
444.74	9.852
445.09	9.427
445.44	9.958
445.79	9.387
446.15	9.558
446.50	8.992
446.85	9.776
447.20	9.574
447.55	9.937
447.91	9.372
448.26	9.831
448.61	9.405
448.96	9.818
449.31	9.544
449.66	9.259
450.02	9.494
450.37	10.069
450.72	9.903
451.07	9.226
451.42	9.936
451.77	9.116
452.12	9.989
452.47	8.259
452.83	9.459
453.18	9.924
453.53	8.960
453.88	9.718
454.23	9.492
454.58	9.576
454.93	8.738
455.28	9.874
455.63	9.267
455.98	9.721
456.34	10.188
456.69	10.053
457.04	9.574
457.39	9.368
457.74	9.732
458.09	9.445
458.44	9.806
458.79	8.871
459.14	10.278
459.49	8.885
459.84	9.286
460.19	9.273
460.54	9.540
460.89	9.264
461.24	8.506
461.59	9.906
461.94	9.241
462.29	9.686
462.64	9.113
462.99	9.667
463.34	9.864
463.69	9.906
464.04	10.061
464.39	10.090
464.74	9.920
465.09	9.400
465.44	9.710
465.79	10.259
466.14	9.745
466.49	9.632
466.84	9.256
467.19	9.422
467.54	10.106
467.89	9.253
468.24	10.139
468.59	9.265
468.94	9.207
469.29	9.538
469.64	9.218
469.99	9.496
470.34	9.592
470.68	9.638
471.03	10.609
471.38	10.007
471.73	9.363
472.08	9.898
472.43	9.633
472.78	9.698
473.13	9.735
473.48	9.668
473.83	10.041
474.17	10.551
474.52	10.162
474.87	9.967
475.22	9.465
475.57	9.969
475.92	10.154
476.27	9.318
476.61	10.332
476.96	9.437
477.31	9.802
477.66	9.706
478.01	9.304
478.36	9.322
478.70	9.606
479.05	10.429
479.40	9.526
479.75	10.567
480.10	9.427
480.45	9.207
480.79	9.660
481.14	9.237
481.49	9.314
481.84	10.487
482.19	9.419
482.53	10.101
482.88	9.482
483.23	9.916
483.58	9.170
483.92	9.752
484.27	9.356
484.62	9.736
484.97	9.759
485.31	9.257
485.66	9.155
486.01	8.495
486.36	8.557
486.70	9.056
487.05	9.370
487.40	9.334
487.75	9.440
488.09	9.186
488.44	9.248
488.79	9.983
489.13	9.413
489.48	9.243
489.83	9.215
490.17	9.802
490.52	9.811
490.87	9.560
491.22	9.705
491.56	10.154
491.91	10.249
492.26	9.433
492.60	9.926
492.95	9.917
493.30	9.951
493.64	9.374
493.99	10.000
494.34	9.800
494.68	9.036
495.03	10.132
495.37	10.431
495.72	10.159
496.07	9.553
496.41	9.481
496.76	9.842
497.11	10.021
497.45	9.236
497.80	9.773
498.14	9.887
498.49	9.237
498.84	9.872
499.18	10.301
499.53	10.045
499.87	10.286
500.22	9.573
500.56	9.582
500.91	9.931
501.26	10.273
501.60	9.898
501.95	10.378
502.29	10.355
502.64	9.882
502.98	10.397
503.33	9.892
503.67	9.682
504.02	9.720
504.36	9.875
504.71	9.187
505.06	10.095
505.40	10.055
505.75	10.018
506.09	10.958
506.44	9.749
506.78	9.633
507.13	10.604
507.47	10.516
507.82	10.180
508.16	10.134
508.51	9.611
508.85	10.392
509.19	10.658
509.54	10.951
509.88	10.345
510.23	11.268
510.57	10.778
510.92	10.353
511.26	10.053
511.61	9.705
511.95	10.249
512.30	9.995
512.64	9.895
512.98	10.055
513.33	10.534
513.67	10.352
514.02	10.629
514.36	10.179
514.70	10.573
515.05	11.001
515.39	11.286
515.74	11.082
516.08	11.094
516.42	11.931
516.77	10.988
517.11	9.747
517.46	10.870
517.80	10.850
518.14	10.936
518.49	10.683
518.83	10.697
519.17	10.985
519.52	10.797
519.86	11.299
520.20	11.395
520.55	10.789
520.89	11.318
521.23	10.999
521.58	10.904
521.92	10.935
522.26	10.538
522.61	11.458
522.95	10.727
523.29	10.460
523.64	11.267
523.98	11.751
524.32	11.633
524.66	11.269
525.01	11.382
525.35	10.913
525.69	10.905
526.04	10.850
526.38	10.977
526.72	12.514
527.06	11.437
527.41	10.904
527.75	12.114
528.09	11.511
528.43	11.723
528.78	11.272
529.12	11.239
529.46	11.580
529.80	11.613
530.15	10.725
530.49	11.032
530.83	10.980
531.17	11.350
531.51	11.492
531.86	11.779
532.20	11.707
532.54	11.131
532.88	11.576
533.22	11.668
533.57	11.598
533.91	11.672
534.25	10.967
534.59	11.092
534.93	10.922
535.27	11.324
535.62	11.711
535.96	10.633
536.30	11.633
536.64	12.372
536.98	11.501
537.32	11.975
537.66	11.728
538.01	11.782
538.35	11.389
538.69	10.577
539.03	11.465
539.37	12.132
539.71	10.871
540.05	11.691
540.39	10.575
540.73	10.868
541.07	11.404
541.42	11.164
541.76	11.744
542.10	11.098
542.44	10.840
542.78	11.192
543.12	12.157
543.46	11.966
543.80	11.031
544.14	11.730
544.48	11.643
544.82	11.789
545.16	11.628
545.50	10.785
545.84	11.206
546.18	13.025
546.52	11.911
546.86	11.698
547.20	11.323
547.54	11.111
547.88	11.875
548.22	11.579
548.56	11.410
548.90	12.060
549.24	11.733
549.58	12.177
549.92	12.819
550.26	12.298
550.60	11.615
550.94	12.096
551.28	12.145
551.62	13.005
551.96	12.362
552.30	12.811
552.64	12.197
552.98	12.102
553.32	11.833
553.66	12.283
554.00	12.484
554.34	11.776
554.68	11.685
555.02	11.564
555.36	12.492
555.69	11.851
556.03	11.349
556.37	12.578
556.71	12.302
557.05	12.013
557.39	11.812
557.73	12.682
558.07	11.722
558.41	12.492
558.75	11.494
559.08	13.013
559.42	13.100
559.76	13.026
560.10	11.989
560.44	11.807
560.78	11.875
561.12	12.254
561.45	11.861
561.79	12.454
562.13	12.508
562.47	10.974
562.81	11.709
563.15	12.437
563.48	12.181
563.82	11.911
564.16	11.508
564.50	11.740
564.84	12.507
565.17	12.118
565.51	11.507
565.85	12.233
566.19	11.982
566.52	11.761
566.86	11.545
567.20	11.582
567.54	12.055
567.88	11.417
568.21	11.759
568.55	11.655
568.89	11.711
569.23	12.041
569.56	11.098
569.90	11.190
570.24	11.197
570.57	10.744
570.91	10.410
571.25	10.761
571.59	10.938
571.92	10.794
572.26	10.455
572.60	10.947
572.93	11.188
573.27	10.846
573.61	10.799
573.95	10.804
574.28	10.862
574.62	10.414
574.96	10.763
575.29	10.421
575.63	10.511
575.97	11.162
576.30	10.535
576.64	10.618
576.98	10.251
577.31	10.688
577.65	10.792
577.98	10.260
578.32	10.351
578.66	10.008
578.99	10.588
579.33	10.316
579.67	10.517
580.00	10.811
580.34	10.689
580.67	10.327
581.01	10.472
581.35	10.579
581.68	10.488
582.02	10.326
582.35	10.786
582.69	10.537
583.02	10.409
583.36	10.659
583.70	10.429
584.03	10.535
584.37	11.034
584.70	10.440
585.04	10.463
585.37	10.672
585.71	10.464
586.04	10.480
586.38	10.446
586.72	10.203
587.05	10.617
587.39	10.646
587.72	10.885
588.06	11.025
588.39	10.879
588.73	10.688
589.06	10.638
589.40	10.848
589.73	10.829
590.07	11.041
590.40	11.494
590.73	11.417
591.07	11.690
591.40	11.120
591.74	11.169
592.07	11.774
592.41	10.962
592.74	11.360
593.08	11.019
593.41	11.169
593.75	11.293
594.08	11.178
594.41	11.154
594.75	11.126
595.08	11.272
595.42	11.266
595.75	11.108
596.09	11.555
596.42	11.035
596.75	12.080
597.09	11.515
597.42	11.323
597.75	10.819
598.09	11.468
598.42	11.379
598.76	11.311
599.09	11.748
599.42	10.795
599.76	11.225
600.09	11.378
600.42	11.111
600.76	11.394
601.09	10.687
601.42	10.985
601.76	11.069
602.09	11.258
602.42	11.269
602.76	11.218
603.09	11.197
603.42	11.344
603.76	11.029
604.09	11.781
604.42	10.789
604.76	10.921
605.09	11.607
605.42	12.081
605.75	10.885
606.09	10.825
606.42	11.018
606.75	11.244
607.09	10.791
607.42	11.175
607.75	11.411
608.08	11.484
608.42	11.366
608.75	11.567
609.08	11.460
609.41	10.719
609.75	11.250
610.08	11.917
610.41	11.257
610.74	11.555
611.07	11.901
611.41	11.659
611.74	11.732
612.07	11.968
612.40	11.454
612.73	12.421
613.07	11.883
613.40	11.742
613.73	11.122
614.06	11.923
614.39	11.176
614.72	11.160
615.06	11.598
615.39	10.681
615.72	11.611
616.05	11.753
616.38	12.210
616.71	11.546
617.05	11.661
617.38	11.985
617.71	12.095
618.04	11.765
618.37	12.787
618.70	12.500
619.03	12.306
619.36	12.084
619.69	12.556
620.03	12.178
620.36	11.902
620.69	11.659
621.02	12.730
621.35	12.264
621.68	12.581
622.01	12.598
622.34	11.925
622.67	12.302
623.00	10.931
623.33	11.812
623.66	12.581
623.99	11.718
624.32	13.385
624.65	10.875
624.99	12.744
625.32	12.345
625.65	12.407
625.98	11.390
626.31	12.757
626.64	12.527
626.97	11.853
627.30	11.921
627.63	12.228
627.96	13.288
628.29	12.062
628.62	13.014
628.95	12.533
629.28	12.489
629.61	13.300
629.94	12.552
630.26	13.814
630.59	12.349
630.92	12.208
631.25	13.417
631.58	12.524
631.91	13.027
632.24	13.160
632.57	13.283
632.90	12.538
633.23	13.673
633.56	12.347
633.89	12.293
634.22	14.969
634.55	13.779
634.88	13.095
635.20	14.747
635.53	13.559
635.86	14.085
636.19	15.483
636.52	14.241
636.85	13.790
637.18	13.306
637.51	12.688
637.83	15.947
638.16	13.710
638.49	12.559
638.82	13.980
639.15	12.600
639.48	14.088
639.81	13.741
640.13	14.605
640.46	12.848
640.79	11.397
641.12	13.168
641.45	13.425
641.77	14.891
642.10	13.648
642.43	15.691
642.76	13.144
643.09	13.699
643.41	13.305
643.74	13.517
644.07	15.310
644.40	13.720
644.73	13.933
645.05	12.775
645.38	13.525
645.71	13.930
646.04	16.643
646.36	15.620
646.69	15.798
647.02	14.067
647.35	14.046
647.67	15.298
648.00	14.172
648.33	13.814
648.66	13.837
648.98	14.422
649.31	13.938
649.64	14.343
649.96	14.721
650.29	12.796
650.62	14.144
650.94	13.514
651.27	12.874
651.60	14.181
651.92	14.438
652.25	14.472
652.58	14.168
652.90	14.826
653.23	13.521
653.56	13.124
653.88	17.135
654.21	14.930
654.54	12.428
654.86	13.598
655.19	13.049
655.52	11.891
655.84	9.464
656.17	11.714
656.49	16.671
656.82	18.563
657.15	14.539
657.47	10.898
657.80	8.049
658.13	6.530
658.45	8.561
658.78	10.412
659.10	10.304
659.43	10.114
659.75	10.458
660.08	10.812
660.41	11.745
660.73	12.087
661.06	13.363
661.38	12.919
661.71	14.655
662.03	13.051
662.36	16.100
662.68	14.634
663.01	14.159
663.33	15.123
663.66	19.414
663.98	13.269
664.31	16.135
664.63	13.873
664.96	15.608
665.28	12.886
665.61	16.259
665.93	15.357
666.26	14.695
666.58	12.546
666.91	15.514
667.23	16.000
667.56	14.201
667.88	16.600
668.21	12.695
668.53	13.320
668.86	16.896
669.18	13.849
669.50	15.905
669.83	14.800
670.15	15.157
670.48	16.468
670.80	11.855
671.13	15.312
671.45	13.386
671.77	14.878
672.10	12.500
672.42	13.430
672.75	12.750
673.07	13.284
673.39	12.635
673.72	13.591
674.04	13.103
674.37	14.311
674.69	15.873
675.01	12.762
675.34	15.649
675.66	13.858
675.98	13.246
676.31	15.430
676.63	16.350
676.95	16.092
677.28	11.895
677.60	13.976
677.92	15.739
678.25	16.088
678.57	14.947
678.89	14.676
679.22	13.415
679.54	14.359
679.86	11.525
680.18	13.599
680.51	15.094
680.83	15.548
681.15	14.310
681.48	13.817
681.80	14.680
682.12	12.762
682.44	13.189
682.77	13.652
683.09	14.962
683.41	15.310
683.73	15.560
684.06	14.760
684.38	12.880
684.70	14.722
685.02	15.835
685.34	13.478
685.67	13.249
685.99	12.270
686.31	13.808
686.63	13.428
686.96	13.565
687.28	13.844
687.60	12.458
687.92	13.344
688.24	15.860
688.56	12.931
688.89	14.338
689.21	15.068
689.53	11.765
689.85	11.440
690.17	13.519
690.49	14.940
690.82	14.653
691.14	12.146
691.46	12.811
691.78	16.022
692.10	14.312
692.42	12.321
692.74	14.156
693.06	13.148
693.39	14.801
693.71	13.910
694.03	15.242
694.35	14.286
694.67	14.374
694.99	12.553
695.31	12.362
695.63	15.801
695.95	14.079
696.27	14.505
696.59	15.265
696.91	14.640
697.23	16.264
697.56	11.813
697.88	12.879
698.20	14.124
698.52	15.341
698.84	12.890
699.16	14.898
699.48	14.017
699.80	12.128
700.12	12.882
700.44	14.055
700.76	14.252
701.08	16.223
701.40	13.990
701.72	17.164
702.04	16.043
702.36	9.686
702.68	16.381
703.00	14.914
703.32	14.286
703.64	14.670
703.96	14.081
704.28	12.776
704.60	18.481
704.91	12.245
705.23	14.247
705.55	13.649
705.87	15.152
706.19	17.178
706.51	12.651
706.83	13.545
707.15	12.169
707.47	13.084
707.79	13.974
708.11	9.958
708.43	11.183
708.74	12.277
709.06	13.921
709.38	16.667
709.70	14.888
710.02	11.886
710.34	16.223
710.66	11.453
710.98	13.115
711.29	13.736
711.61	15.537
711.93	15.100
712.25	13.784
712.57	17.994
712.89	16.471
713.20	12.426
713.52	16.474
713.84	16.435
714.16	13.947
714.48	12.887
714.80	16.364
715.11	14.173
715.43	14.589
715.75	13.158
716.07	16.022
716.39	17.213
716.70	14.458
717.02	17.377
717.34	12.892
717.66	16.779
717.97	10.959
718.29	13.058
718.61	17.105
718.93	14.887
719.24	15.528
719.56	12.577
719.88	10.511
720.20	9.355
720.51	15.217
720.83	12.500
721.15	14.145
721.46	10.274
721.78	14.667
722.10	12.298
722.42	15.101
722.73	13.548
723.05	15.439
723.37	15.625
723.68	17.921
724.00	15.884
724.32	16.549
724.63	12.587
724.95	19.504
725.27	14.983
725.58	15.901
725.90	16.207
726.22	12.539
726.53	15.909
726.85	16.667
727.16	15.408
727.48	15.596
727.80	16.225
728.11	10.601
728.43	20.539
728.74	13.378
729.06	13.576
729.38	15.584
729.69	13.423
730.01	15.774
730.32	10.000
730.64	15.409
730.96	11.180
731.27	15.922
731.59	13.462
731.90	12.468
732.22	13.021
732.53	11.878
732.85	13.714
733.16	12.023
733.48	14.634
733.80	13.649
734.11	14.245
734.43	14.595
734.74	17.722
735.06	11.558
735.37	15.135
735.69	14.595
736.00	14.407
736.32	15.094
736.63	11.389
736.95	15.805
737.26	15.758
737.58	13.333
737.89	15.588
738.21	11.621
738.52	13.770
738.83	13.993
739.15	13.830
739.46	15.306
739.78	16.871
740.09	14.040
740.41	14.577
740.72	17.000
741.04	17.799
741.35	13.684
741.66	17.255
741.98	16.393
742.29	15.481
742.61	16.667
742.92	16.538
743.23	13.357
743.55	18.992
743.86	16.800
744.18	11.157
744.49	10.127
744.80	20.576
745.12	11.814
745.43	15.041
745.74	16.810
746.06	13.983
746.37	18.565
746.68	23.577
747.00	17.500
747.31	13.305
747.62	15.769
747.94	13.360
748.25	14.056
748.56	11.429
748.88	14.957
749.19	15.948
749.50	16.017
749.82	17.269
750.13	17.794
750.44	12.000
750.75	14.154
751.07	16.000
751.38	17.035
751.69	12.460
752.01	12.298
752.32	15.359
752.63	13.605
752.94	13.841
753.26	11.524
753.57	12.593
753.88	11.985
754.19	13.183
754.51	14.791
754.82	14.148
755.13	14.098
755.44	15.017
755.75	12.500
756.07	17.612
756.38	16.981
756.69	15.663
757.00	12.188
757.31	14.208
757.63	10.997
757.94	11.033
758.25	14.221
758.56	13.290
758.87	14.773
759.18	13.600
759.50	14.164
759.81	14.846
760.12	15.364
760.43	16.406
760.74	15.764
761.05	13.000
761.36	13.494
761.67	12.690
761.99	12.973
762.30	11.890
762.61	11.881
762.92	15.299
763.23	16.854
763.54	12.950
763.85	15.808
764.16	13.468
764.47	13.732
764.78	15.974
765.10	10.264
765.41	14.615
765.72	12.169
766.03	15.537
766.34	12.853
766.65	9.059
766.96	13.147
767.27	11.060
767.58	11.940
767.89	16.346
768.20	17.371
768.51	18.519
768.82	13.655
769.13	14.394
769.44	8.077
769.75	16.245
770.06	16.154
770.37	18.504
770.68	9.787
770.99	10.121
771.30	15.556
771.61	16.350
771.92	10.000
772.23	18.623
772.54	12.963
772.85	22.120
773.16	17.619
773.47	11.640
773.78	9.189
774.09	16.477
774.39	21.000
774.70	18.579
775.01	15.244
775.32	15.294
775.63	20.859
775.94	10.828
776.25	18.710
776.56	19.231
776.87	25.170
777.18	17.931
777.48	19.580
777.79	19.595
778.10	18.382
778.41	19.444
778.72	15.862
779.03	19.753
779.34	20.000
779.65	19.171
779.95	22.778
780.26	15.909
780.57	21.935
780.88	23.913
781.19	13.548
781.50	22.941
781.80	19.892
782.11	16.931
782.42	13.131
782.73	16.766
783.04	18.994
783.34	7.879
783.65	16.993
783.96	18.012
784.27	14.286
784.57	17.881
784.88	20.714
785.19	16.535
785.50	21.260
785.81	14.286
786.11	15.385
786.42	12.950
786.73	15.108
787.04	24.812
787.34	21.311
787.65	16.000
787.96	20.149
788.26	27.972
788.57	27.273
788.88	17.763
789.19	22.876
789.49	19.863
789.80	19.149
790.11	17.323
790.41	10.938
790.72	24.576
791.03	22.330
791.33	28.696
791.64	26.316
791.95	22.321
792.25	20.952
792.56	23.214
792.87	15.625
793.17	24.107
793.48	28.125
793.79	13.253
794.09	12.844
794.40	11.927
794.70	10.884
795.01	14.935
795.32	14.384
795.62	11.972
795.93	18.939
796.23	23.770
796.54	23.214
796.85	25.532
797.15	28.261
797.46	34.247
797.76	11.250
798.07	20.652
798.37	22.680
798.68	10.390
798.99	22.989
799.29	24.719
799.60	20.213
799.90	10.843
800.21	12.308
800.51	20.896
800.82	29.412
801.12	10.959
801.43	2.941
801.73	35.593
802.04	31.818
802.34	23.333
802.65	37.288
802.95	38.806
803.26	33.898
803.56	12.329
803.87	34.286
804.17	24.658
804.48	12.281
804.78	31.944
805.09	29.310
805.39	39.189
805.70	15.493
806.00	24.390
806.30	28.916
806.61	27.397
806.91	15.385
807.22	43.333
807.52	9.195
807.83	40.278
808.13	28.916
808.43	24.719
808.74	22.500
809.04	10.294
809.35	33.333
809.65	15.714
809.95	27.397
810.26	19.298
810.56	24.138
810.86	33.824
811.17	29.825
811.47	21.311
811.77	22.222
812.08	20.339
812.38	28.333
812.69	37.931
812.99	1.887
813.29	25.641
813.59	52.000
813.90	35.088
814.20	18.182
814.50	42.254
814.81	34.615
815.11	26.230
815.41	20.896
815.72	29.310
816.02	25.000
816.32	62.222
816.62	43.182
816.93	26.667
817.23	42.593
817.53	48.936
817.84	47.619
818.14	58.824
818.44	38.776
818.74	51.111
819.04	28.205
819.35	34.286
819.65	38.462
819.95	35.849
820.25	33.333
820.56	42.857
820.86	50.000
821.16	61.538
821.46	30.233
821.76	14.000
822.07	42.857
822.37	34.783
822.67	34.043
822.97	24.324
823.27	40.000
823.57	36.735
823.88	60.000
824.18	47.500
824.48	53.333
824.78	24.000
825.08	57.576
825.38	53.333
825.69	51.064
825.99	44.444
826.29	22.857
826.59	43.590
826.89	18.605
827.19	44.000
827.49	44.118
827.79	12.500
828.09	24.324
828.39	40.000
828.70	26.829
829.00	34.884
829.30	32.143
829.60	58.824
829.90	30.435
830.20	45.714
830.50	51.724
830.80	38.889
831.10	34.615
831.40	41.176
831.70	47.619
832.00	54.839
832.30	47.059
832.60	4.167
832.90	69.231
833.20	47.368
833.50	75.000
833.80	73.684
834.10	38.095
834.40	50.000
834.70	56.250
835.00	28.571
835.30	29.412
835.60	-10.000
835.90	52.000
836.20	-9.091
836.50	16.000
836.80	51.515
837.10	51.852
837.40	44.444
837.70	81.250
838.00	32.143
838.30	56.522
838.60	48.276
838.90	14.286
839.19	17.391
839.49	16.667
839.79	21.739
840.09	25.000
840.39	25.000
840.69	80.645
840.99	46.429
841.29	93.333
841.59	84.211
841.88	84.615
842.18	65.385
842.48	60.000
842.78	40.000
843.08	63.333
843.38	64.516
843.68	16.667
843.97	73.529
844.27	118.750
844.57	47.368
844.87	90.000
845.17	86.667
845.47	119.048
845.76	47.619
846.06	188.889
846.36	17.647
846.66	76.923
846.96	13.333
847.25	82.353
847.55	73.913
847.85	70.000
848.15	70.588
848.44	81.818
848.74	71.429
849.04	75.000
849.34	100.000
849.63	86.957
849.93	-200.000
850.23	93.333
850.53	119.231
850.82	136.364
851.12	95.455
851.42	45.455
851.71	53.846
852.01	25.000
852.31	92.308
852.61	89.474
852.90	158.333
853.20	88.889
853.50	-44.444
853.79	47.619
854.09	40.909
854.39	-25.000
854.68	58.065
854.98	23.077
855.28	94.444
855.57	53.571
855.87	40.000
856.17	95.455
856.46	55.556
856.76	100.000
857.05	26.087
857.35	33.333
857.65	115.385
857.94	80.952
858.24	81.481
858.53	34.783
858.83	47.059
859.13	82.353
859.42	123.529
859.72	128.571
860.01	20.000
860.31	66.667
860.60	170.000
860.90	126.667
861.20	66.667
861.49	115.385
861.79	60.000
862.08	84.615
862.38	46.875
862.67	29.412
862.97	118.750
863.26	66.667
863.56	200.000
863.85	145.455
864.15	138.889
864.44	700.000
864.74	121.429
865.03	112.500
865.33	40.000
865.62	45.161
865.92	86.364
866.21	69.565
866.51	50.000
866.80	280.000
867.10	83.333
867.39	83.333
867.69	-600.000
867.98	271.429
868.27	70.588
868.57	700.000
868.86	70.000
869.16	76.190
869.45	50.000
869.75	127.273
870.04	228.571
870.33	83.333
870.63	114.286
870.92	300.000
871.22	50.000
871.51	45.455
871.80	166.667
872.10	400.000
>>>>>End Processed Spectral Data<<<<<
