SpectraSuite Data File
++++++++++++++++++++++++++++++++++++
Date: Thu May 14 14:59:39 PDT 2015
User: schluterlab
Dark Spectrum Present: Yes
Reference Spectrum Present: Yes
Number of Sampled Component Spectra: 1
Spectrometers: USB2E3373
Integration Time (usec): 3000 (USB2E3373)
Spectra Averaged: 3 (USB2E3373)
Boxcar Smoothing: 0 (USB2E3373)
Correct for Electrical Dark: No (USB2E3373)
Strobe/Lamp Enabled: No (USB2E3373)
Correct for Detector Non-linearity: No (USB2E3373)
Correct for Stray Light: No (USB2E3373)
Number of Pixels in Processed Spectrum: 2048
>>>>>Begin Processed Spectral Data<<<<<
178.53	0.000
178.91	285.714
179.29	-2600.000
179.67	-2200.000
180.04	292.857
180.42	190.000
180.80	620.000
181.18	-1800.000
181.56	-600.000
181.94	475.000
182.31	-550.000
182.69	866.667
183.07	-1250.000
183.45	550.000
183.83	-316.667
184.20	-900.000
184.58	2600.000
184.96	-450.000
185.34	-233.333
185.72	-440.000
186.09	344.444
186.47	1400.000
186.85	520.000
187.23	-266.667
187.61	-3100.000
187.98	540.000
188.36	675.000
188.74	-400.000
189.12	-566.667
189.49	-100.000
189.87	-250.000
190.25	-255.556
190.63	-420.000
191.00	-300.000
191.38	0.000
191.76	-450.000
192.14	-416.667
192.51	1250.000
192.89	-183.333
193.27	0.000
193.65	-228.571
194.02	-3300.000
194.40	-357.143
194.78	428.571
195.15	0.000
195.53	-118.182
195.91	0.000
196.29	-475.000
196.66	-138.462
197.04	-2800.000
197.42	-214.286
197.79	-900.000
198.17	-225.000
198.55	-328.571
198.92	-277.778
199.30	-437.500
199.68	-190.909
200.05	-107.143
200.43	-1450.000
200.81	414.286
201.18	0.000
201.56	400.000
201.94	0.000
202.31	900.000
202.69	-266.667
203.07	1300.000
203.44	-188.889
203.82	-375.000
204.19	-150.000
204.57	-466.667
204.95	-300.000
205.32	-2100.000
205.70	350.000
206.08	-216.667
206.45	-283.333
206.83	660.000
207.20	-300.000
207.58	-360.000
207.96	-583.333
208.33	-250.000
208.71	233.333
209.08	-300.000
209.46	0.000
209.84	466.667
210.21	950.000
210.59	1000.000
210.96	900.000
211.34	-325.000
211.71	-350.000
212.09	-2300.000
212.46	0.000
212.84	1700.000
213.22	-460.000
213.59	-275.000
213.97	-220.000
214.34	-1133.333
214.72	516.667
215.09	-675.000
215.47	0.000
215.84	371.429
216.22	1500.000
216.59	-320.000
216.97	-400.000
217.34	-400.000
217.72	-262.500
218.09	-450.000
218.47	-925.000
218.84	0.000
219.22	640.000
219.59	-100.000
219.97	-110.000
220.34	1700.000
220.72	-222.222
221.09	-123.077
221.47	-700.000
221.84	-170.000
222.22	-385.714
222.59	0.000
222.97	-137.500
223.34	-620.000
223.72	-2400.000
224.09	-625.000
224.46	-625.000
224.84	-340.000
225.21	-314.286
225.59	-775.000
225.96	-725.000
226.34	-50.000
226.71	433.333
227.08	-1100.000
227.46	-120.000
227.83	-550.000
228.21	-89.474
228.58	287.500
228.95	1550.000
229.33	-133.333
229.70	-100.000
230.08	-63.158
230.45	330.000
230.82	-533.333
231.20	-157.143
231.57	-116.667
231.95	-181.818
232.32	-163.636
232.69	-70.000
233.07	-675.000
233.44	-100.000
233.81	-230.000
234.19	-111.111
234.56	-95.455
234.93	-62.069
235.31	-131.579
235.68	-94.444
236.05	-135.000
236.43	-34.615
236.80	-60.000
237.17	-74.074
237.55	-51.515
237.92	-240.000
238.29	-45.161
238.67	-47.727
239.04	-44.444
239.41	-59.524
239.79	-32.609
240.16	-33.333
240.53	-43.478
240.91	-62.745
241.28	-18.033
241.65	-14.925
242.02	-14.865
242.40	-41.538
242.77	-25.333
243.14	-35.366
243.51	-39.474
243.89	-24.359
244.26	-19.802
244.63	-13.725
245.00	-17.757
245.38	-18.421
245.75	-30.088
246.12	-17.460
246.49	-10.853
246.87	-7.857
247.24	-8.609
247.61	-11.842
247.98	-19.463
248.36	-14.815
248.73	-14.110
249.10	-13.115
249.47	-2.488
249.84	-5.236
250.22	-8.808
250.59	-11.667
250.96	-1.364
251.33	-12.755
251.70	-7.265
252.08	-7.500
252.45	-2.869
252.82	-5.372
253.19	-7.422
253.56	-5.323
253.94	-7.692
254.31	-8.712
254.68	-5.245
255.05	-1.629
255.42	-5.442
255.79	-7.443
256.16	-5.298
256.54	-6.954
256.91	-4.262
257.28	-3.934
257.65	-7.962
258.02	-6.195
258.39	-3.989
258.76	-5.505
259.14	-2.586
259.51	-7.493
259.88	-6.799
260.25	-5.000
260.62	-3.836
260.99	-3.552
261.36	-2.949
261.73	-4.775
262.10	-6.044
262.47	-5.362
262.85	-1.768
263.22	-5.974
263.59	-6.316
263.96	-5.371
264.33	-5.882
264.70	-4.938
265.07	-3.580
265.44	-0.680
265.81	-5.787
266.18	-4.308
266.55	-4.688
266.92	-3.417
267.29	-1.532
267.66	-4.656
268.03	-1.965
268.40	-4.384
268.77	-5.467
269.14	-5.066
269.51	-4.386
269.88	-2.459
270.25	-3.219
270.62	-3.586
270.99	-1.616
271.36	-2.772
271.73	-2.161
272.10	-2.806
272.47	-4.609
272.84	-2.410
273.21	-3.006
273.58	-2.823
273.95	-3.077
274.32	-5.703
274.69	-4.642
275.06	-1.282
275.43	-2.957
275.80	-1.764
276.17	-4.630
276.54	-3.731
276.91	-3.936
277.28	-1.627
277.65	-2.334
278.02	-2.022
278.39	-2.717
278.76	-2.812
279.13	-3.901
279.50	-0.687
279.87	-1.252
280.23	-6.338
280.60	-3.220
280.97	-3.125
281.34	-4.754
281.71	0.000
282.08	-0.997
282.45	-1.637
282.82	-3.454
283.19	-4.362
283.56	-3.934
283.92	0.601
284.29	-2.054
284.66	-0.821
285.03	-2.404
285.40	-1.700
285.77	-2.477
286.14	-2.137
286.51	-3.196
286.87	-3.002
287.24	-2.861
287.61	-2.840
287.98	-3.323
288.35	-1.775
288.72	-3.846
289.08	-0.878
289.45	-2.663
289.82	-2.861
290.19	-3.305
290.56	-0.563
290.93	-2.710
291.29	-2.479
291.66	-3.719
292.03	-3.664
292.40	-0.816
292.77	-2.695
293.13	-0.947
293.50	-1.708
293.87	-1.745
294.24	-1.200
294.60	-1.643
294.97	-4.161
295.34	-1.152
295.71	-2.900
296.08	-2.455
296.44	-1.838
296.81	-1.949
297.18	-2.242
297.55	-1.769
297.91	-2.966
298.28	-2.607
298.65	-0.595
299.02	-1.535
299.38	-0.458
299.75	-2.103
300.12	-2.894
300.48	-1.152
300.85	0.000
301.22	-1.454
301.59	-2.511
301.95	-1.808
302.32	0.778
302.69	-1.314
303.05	-1.088
303.42	-2.217
303.79	-1.979
304.15	-1.262
304.52	-0.951
304.89	-1.675
305.25	-1.242
305.62	-1.254
305.99	-0.825
306.35	-1.310
306.72	-1.655
307.09	-1.624
307.45	-0.725
307.82	-1.312
308.19	-0.706
308.55	-0.289
308.92	-0.974
309.29	-1.341
309.65	-1.267
310.02	-1.386
310.38	-0.787
310.75	-0.291
311.12	-0.288
311.48	-0.587
311.85	-0.475
312.22	-0.759
312.58	0.000
312.95	-0.478
313.31	-0.181
313.68	0.549
314.05	0.903
314.41	0.820
314.78	0.272
315.14	0.635
315.51	1.570
315.87	0.900
316.24	1.370
316.61	2.664
316.97	1.357
317.34	1.146
317.70	2.969
318.07	1.852
318.43	3.231
318.80	4.348
319.16	3.348
319.53	2.142
319.89	3.155
320.26	4.270
320.62	2.926
320.99	3.693
321.35	3.050
321.72	5.767
322.08	4.418
322.45	6.323
322.81	5.325
323.18	4.425
323.54	5.345
323.91	6.673
324.27	7.315
324.64	7.221
325.00	7.629
325.37	9.255
325.73	9.174
326.10	9.813
326.46	10.586
326.83	11.129
327.19	9.921
327.56	11.937
327.92	11.723
328.29	13.145
328.65	12.982
329.01	13.198
329.38	14.238
329.74	14.212
330.11	14.041
330.47	13.901
330.84	14.384
331.20	14.583
331.56	15.165
331.93	15.983
332.29	15.932
332.66	17.110
333.02	15.578
333.38	15.940
333.75	15.404
334.11	16.264
334.48	16.172
334.84	17.587
335.20	16.289
335.57	17.116
335.93	17.025
336.29	16.057
336.66	16.400
337.02	17.726
337.38	17.602
337.75	17.686
338.11	17.073
338.47	18.528
338.84	17.174
339.20	16.259
339.56	16.639
339.93	17.570
340.29	18.599
340.65	17.275
341.02	18.117
341.38	17.542
341.74	17.030
342.11	16.814
342.47	15.488
342.83	18.519
343.20	17.661
343.56	16.680
343.92	17.774
344.28	16.641
344.65	17.519
345.01	17.083
345.37	17.729
345.73	16.368
346.10	16.693
346.46	16.297
346.82	17.903
347.19	16.883
347.55	16.920
347.91	16.419
348.27	16.540
348.63	17.136
349.00	16.331
349.36	16.506
349.72	17.188
350.08	17.162
350.45	15.741
350.81	15.309
351.17	16.917
351.53	16.528
351.89	17.312
352.26	16.269
352.62	17.388
352.98	16.794
353.34	16.206
353.70	15.716
354.07	16.766
354.43	15.490
354.79	16.230
355.15	15.894
355.51	16.813
355.87	16.081
356.24	16.730
356.60	16.260
356.96	17.198
357.32	16.431
357.68	16.252
358.04	16.093
358.40	16.567
358.77	15.643
359.13	16.174
359.49	16.134
359.85	17.331
360.21	17.217
360.57	16.368
360.93	15.867
361.29	17.123
361.66	15.496
362.02	17.328
362.38	16.304
362.74	16.201
363.10	16.575
363.46	16.343
363.82	16.832
364.18	16.256
364.54	15.906
364.90	17.793
365.26	15.931
365.62	17.400
365.98	17.291
366.35	16.510
366.71	17.619
367.07	15.900
367.43	16.875
367.79	17.319
368.15	17.258
368.51	17.727
368.87	16.917
369.23	16.400
369.59	16.803
369.95	16.227
370.31	17.151
370.67	16.162
371.03	17.452
371.39	15.581
371.75	16.713
372.11	16.802
372.47	17.062
372.83	17.605
373.19	15.544
373.55	17.073
373.91	16.496
374.27	17.464
374.63	17.591
374.99	16.844
375.35	18.377
375.71	16.774
376.07	17.301
376.42	18.514
376.78	17.713
377.14	17.904
377.50	18.153
377.86	18.534
378.22	18.683
378.58	19.679
378.94	17.840
379.30	17.809
379.66	17.989
380.02	18.696
380.38	19.067
380.74	18.254
381.09	18.641
381.45	19.205
381.81	19.204
382.17	19.240
382.53	19.064
382.89	19.018
383.25	19.226
383.61	19.329
383.97	19.611
384.32	19.677
384.68	19.026
385.04	20.301
385.40	19.976
385.76	19.930
386.12	19.449
386.48	20.059
386.83	20.501
387.19	20.742
387.55	19.542
387.91	19.977
388.27	20.208
388.62	20.103
388.98	19.402
389.34	21.096
389.70	20.105
390.06	20.426
390.42	19.940
390.77	20.650
391.13	19.718
391.49	20.592
391.85	20.242
392.20	21.530
392.56	20.791
392.92	20.883
393.28	21.338
393.64	20.782
393.99	21.441
394.35	20.502
394.71	21.437
395.07	20.659
395.42	20.560
395.78	21.511
396.14	21.687
396.50	21.021
396.85	20.990
397.21	20.000
397.57	19.611
397.92	20.790
398.28	19.826
398.64	20.080
399.00	19.948
399.35	20.419
399.71	20.109
400.07	20.887
400.42	20.664
400.78	20.660
401.14	21.172
401.49	20.466
401.85	20.116
402.21	20.568
402.57	21.831
402.92	20.390
403.28	20.785
403.63	20.346
403.99	19.893
404.35	19.955
404.70	20.453
405.06	19.946
405.42	21.194
405.77	20.229
406.13	20.259
406.49	20.946
406.84	19.612
407.20	19.788
407.55	21.018
407.91	19.925
408.27	19.788
408.62	20.186
408.98	19.443
409.34	18.475
409.69	19.778
410.05	20.340
410.40	20.244
410.76	20.303
411.11	20.339
411.47	20.700
411.83	21.282
412.18	20.783
412.54	20.510
412.89	20.489
413.25	20.598
413.60	20.046
413.96	20.921
414.31	20.000
414.67	20.513
415.03	20.369
415.38	19.924
415.74	19.120
416.09	21.036
416.45	19.850
416.80	19.951
417.16	20.243
417.51	20.610
417.87	19.865
418.22	19.880
418.58	20.136
418.93	20.198
419.29	19.852
419.64	19.748
420.00	19.347
420.35	20.270
420.71	20.505
421.06	19.839
421.42	20.126
421.77	19.817
422.12	20.455
422.48	20.737
422.83	21.249
423.19	20.265
423.54	21.350
423.90	20.817
424.25	20.000
424.61	19.747
424.96	19.440
425.31	21.550
425.67	19.592
426.02	21.195
426.38	20.494
426.73	19.420
427.09	21.165
427.44	19.934
427.79	20.619
428.15	20.434
428.50	20.562
428.85	20.608
429.21	20.798
429.56	19.694
429.92	19.803
430.27	20.048
430.62	20.371
430.98	20.708
431.33	20.186
431.68	19.923
432.04	20.518
432.39	20.461
432.74	20.833
433.10	20.227
433.45	19.677
433.80	21.030
434.16	21.023
434.51	20.298
434.86	20.901
435.22	21.520
435.57	20.342
435.92	21.091
436.28	21.217
436.63	21.300
436.98	20.505
437.34	19.955
437.69	20.804
438.04	21.153
438.39	21.597
438.75	20.587
439.10	21.247
439.45	21.241
439.81	20.791
440.16	21.126
440.51	21.126
440.86	19.789
441.22	20.686
441.57	20.860
441.92	20.466
442.27	21.010
442.63	21.311
442.98	22.412
443.33	21.357
443.68	21.457
444.03	21.919
444.39	22.145
444.74	22.205
445.09	21.237
445.44	21.707
445.79	21.839
446.15	21.942
446.50	21.395
446.85	21.304
447.20	21.760
447.55	20.711
447.91	21.885
448.26	21.353
448.61	21.998
448.96	21.781
449.31	21.156
449.66	20.588
450.02	21.835
450.37	21.470
450.72	21.475
451.07	21.811
451.42	21.433
451.77	21.512
452.12	21.727
452.47	21.985
452.83	22.635
453.18	21.366
453.53	21.654
453.88	21.204
454.23	21.469
454.58	22.577
454.93	20.328
455.28	22.216
455.63	21.660
455.98	22.346
456.34	22.026
456.69	21.634
457.04	21.158
457.39	22.561
457.74	21.812
458.09	21.087
458.44	21.875
458.79	21.454
459.14	21.972
459.49	22.920
459.84	21.931
460.19	21.488
460.54	22.260
460.89	21.810
461.24	20.977
461.59	22.690
461.94	21.620
462.29	22.228
462.64	21.786
462.99	22.097
463.34	22.323
463.69	22.098
464.04	22.179
464.39	22.029
464.74	22.178
465.09	21.626
465.44	21.996
465.79	21.206
466.14	22.303
466.49	22.789
466.84	21.433
467.19	22.370
467.54	21.622
467.89	21.264
468.24	21.496
468.59	21.482
468.94	20.921
469.29	21.296
469.64	22.123
469.99	21.734
470.34	22.339
470.68	22.010
471.03	22.266
471.38	21.452
471.73	20.936
472.08	22.652
472.43	21.613
472.78	21.474
473.13	22.503
473.48	21.873
473.83	21.416
474.17	21.219
474.52	21.888
474.87	21.872
475.22	21.521
475.57	21.807
475.92	21.702
476.27	22.630
476.61	22.066
476.96	21.689
477.31	22.030
477.66	23.137
478.01	21.556
478.36	21.934
478.70	21.527
479.05	22.802
479.40	23.001
479.75	23.103
480.10	22.406
480.45	22.060
480.79	22.268
481.14	21.783
481.49	21.808
481.84	22.367
482.19	22.108
482.53	22.868
482.88	23.084
483.23	22.054
483.58	22.227
483.92	21.853
484.27	22.777
484.62	22.442
484.97	22.706
485.31	21.718
485.66	20.983
486.01	21.551
486.36	22.363
486.70	23.635
487.05	24.208
487.40	23.334
487.75	23.308
488.09	22.626
488.44	22.688
488.79	22.192
489.13	21.941
489.48	21.786
489.83	21.690
490.17	21.547
490.52	22.250
490.87	22.293
491.22	22.877
491.56	21.928
491.91	22.416
492.26	22.198
492.60	21.775
492.95	22.334
493.30	22.725
493.64	22.251
493.99	22.368
494.34	21.559
494.68	21.884
495.03	22.907
495.37	21.838
495.72	22.948
496.07	22.480
496.41	22.308
496.76	22.394
497.11	21.656
497.45	23.047
497.80	23.056
498.14	21.995
498.49	22.748
498.84	22.029
499.18	22.132
499.53	22.422
499.87	22.593
500.22	22.306
500.56	22.222
500.91	22.654
501.26	22.364
501.60	22.006
501.95	23.100
502.29	22.071
502.64	23.306
502.98	21.872
503.33	22.419
503.67	22.111
504.02	22.329
504.36	23.056
504.71	22.646
505.06	22.465
505.40	22.578
505.75	21.812
506.09	22.192
506.44	23.073
506.78	22.706
507.13	22.314
507.47	22.643
507.82	22.538
508.16	22.132
508.51	22.222
508.85	22.201
509.19	22.643
509.54	22.815
509.88	22.195
510.23	22.875
510.57	22.668
510.92	22.400
511.26	22.318
511.61	21.632
511.95	21.767
512.30	22.452
512.64	21.989
512.98	22.661
513.33	23.690
513.67	22.081
514.02	23.403
514.36	23.632
514.70	22.865
515.05	22.993
515.39	22.415
515.74	22.375
516.08	23.032
516.42	22.920
516.77	22.292
517.11	21.919
517.46	22.375
517.80	22.822
518.14	22.579
518.49	22.505
518.83	22.725
519.17	22.509
519.52	22.275
519.86	23.178
520.20	22.684
520.55	22.618
520.89	22.691
521.23	22.055
521.58	23.277
521.92	22.833
522.26	22.337
522.61	22.164
522.95	22.088
523.29	22.471
523.64	22.926
523.98	23.959
524.32	23.496
524.66	22.880
525.01	22.707
525.35	22.688
525.69	22.042
526.04	22.331
526.38	22.184
526.72	21.972
527.06	22.757
527.41	23.265
527.75	22.862
528.09	22.845
528.43	23.091
528.78	22.081
529.12	22.305
529.46	21.922
529.80	22.826
530.15	22.957
530.49	22.835
530.83	22.845
531.17	22.879
531.51	23.045
531.86	22.837
532.20	22.927
532.54	22.741
532.88	22.727
533.22	22.451
533.57	22.908
533.91	22.727
534.25	22.838
534.59	23.276
534.93	22.807
535.27	22.761
535.62	23.593
535.96	22.661
536.30	22.620
536.64	23.363
536.98	23.493
537.32	23.086
537.66	23.456
538.01	23.021
538.35	22.290
538.69	23.317
539.03	23.053
539.37	22.026
539.71	22.883
540.05	23.561
540.39	22.677
540.73	22.283
541.07	22.502
541.42	22.268
541.76	22.954
542.10	22.014
542.44	22.777
542.78	23.662
543.12	22.706
543.46	22.100
543.80	21.583
544.14	23.040
544.48	22.813
544.82	22.501
545.16	23.017
545.50	23.008
545.84	23.209
546.18	23.519
546.52	21.656
546.86	22.579
547.20	22.328
547.54	22.285
547.88	22.483
548.22	21.754
548.56	22.528
548.90	22.328
549.24	23.100
549.58	22.713
549.92	22.513
550.26	22.524
550.60	22.463
550.94	23.092
551.28	22.244
551.62	22.507
551.96	22.524
552.30	23.008
552.64	22.029
552.98	22.146
553.32	22.958
553.66	22.508
554.00	21.879
554.34	23.037
554.68	22.143
555.02	23.456
555.36	22.682
555.69	21.781
556.03	21.942
556.37	23.091
556.71	22.955
557.05	22.748
557.39	22.296
557.73	22.589
558.07	21.656
558.41	22.857
558.75	22.110
559.08	22.547
559.42	21.674
559.76	22.659
560.10	21.098
560.44	21.900
560.78	22.688
561.12	21.613
561.45	21.776
561.79	22.650
562.13	22.797
562.47	21.702
562.81	22.025
563.15	21.528
563.48	21.690
563.82	21.584
564.16	21.502
564.50	22.527
564.84	21.593
565.17	21.941
565.51	22.094
565.85	22.565
566.19	21.947
566.52	22.411
566.86	22.524
567.20	22.240
567.54	22.995
567.88	22.936
568.21	22.974
568.55	22.398
568.89	22.061
569.23	22.518
569.56	22.704
569.90	22.523
570.24	22.799
570.57	22.322
570.91	21.647
571.25	22.708
571.59	22.071
571.92	22.575
572.26	22.155
572.60	22.386
572.93	22.544
573.27	22.478
573.61	21.890
573.95	21.996
574.28	22.191
574.62	21.828
574.96	21.460
575.29	21.877
575.63	21.830
575.97	21.892
576.30	21.564
576.64	21.379
576.98	21.731
577.31	21.682
577.65	21.647
577.98	21.668
578.32	21.475
578.66	21.862
578.99	21.442
579.33	21.988
579.67	21.578
580.00	22.027
580.34	22.142
580.67	21.403
581.01	21.441
581.35	21.605
581.68	22.094
582.02	22.085
582.35	22.394
582.69	22.152
583.02	22.127
583.36	21.709
583.70	21.700
584.03	20.926
584.37	20.958
584.70	20.856
585.04	21.065
585.37	21.078
585.71	21.402
586.04	21.510
586.38	21.425
586.72	21.133
587.05	21.028
587.39	20.942
587.72	21.722
588.06	22.026
588.39	21.533
588.73	21.190
589.06	21.473
589.40	21.512
589.73	21.401
590.07	21.054
590.40	21.636
590.73	21.562
591.07	20.961
591.40	21.112
591.74	21.264
592.07	20.950
592.41	20.505
592.74	20.731
593.08	21.369
593.41	22.222
593.75	21.609
594.08	21.387
594.41	20.865
594.75	20.624
595.08	21.063
595.42	21.136
595.75	21.053
596.09	21.552
596.42	21.032
596.75	21.189
597.09	21.212
597.42	20.779
597.75	21.051
598.09	21.548
598.42	21.472
598.76	21.093
599.09	21.004
599.42	20.248
599.76	20.700
600.09	21.455
600.42	20.320
600.76	21.268
601.09	20.810
601.42	20.494
601.76	20.517
602.09	20.908
602.42	20.320
602.76	19.889
603.09	20.852
603.42	20.773
603.76	20.613
604.09	20.405
604.42	20.550
604.76	20.890
605.09	20.104
605.42	20.973
605.75	20.731
606.09	20.605
606.42	20.722
606.75	20.090
607.09	19.931
607.42	20.694
607.75	20.360
608.08	19.929
608.42	20.032
608.75	20.149
609.08	20.076
609.41	20.379
609.75	19.643
610.08	20.756
610.41	20.178
610.74	20.168
611.07	19.849
611.41	20.224
611.74	20.462
612.07	20.383
612.40	20.437
612.73	19.756
613.07	20.293
613.40	19.779
613.73	20.558
614.06	20.216
614.39	20.457
614.72	19.554
615.06	19.490
615.39	19.526
615.72	20.427
616.05	19.815
616.38	20.737
616.71	20.010
617.05	19.702
617.38	20.011
617.71	20.464
618.04	20.183
618.37	20.328
618.70	19.910
619.03	19.833
619.36	19.914
619.69	19.603
620.03	19.586
620.36	19.325
620.69	19.679
621.02	19.160
621.35	19.666
621.68	19.884
622.01	20.214
622.34	18.480
622.67	19.519
623.00	18.016
623.33	19.973
623.66	19.715
623.99	19.421
624.32	19.753
624.65	18.211
624.99	20.351
625.32	19.268
625.65	20.094
625.98	19.322
626.31	19.277
626.64	20.000
626.97	18.755
627.30	18.527
627.63	19.355
627.96	20.721
628.29	19.066
628.62	18.724
628.95	18.668
629.28	19.371
629.61	19.108
629.94	18.159
630.26	18.559
630.59	18.912
630.92	18.442
631.25	19.141
631.58	18.832
631.91	18.932
632.24	17.771
632.57	16.793
632.90	19.057
633.23	18.469
633.56	18.980
633.89	17.459
634.22	18.919
634.55	18.267
634.88	17.749
635.20	17.438
635.53	18.644
635.86	17.876
636.19	19.300
636.52	18.776
636.85	17.773
637.18	18.399
637.51	16.989
637.83	19.934
638.16	17.396
638.49	18.545
638.82	18.940
639.15	17.526
639.48	18.476
639.81	17.552
640.13	18.139
640.46	17.212
640.79	17.770
641.12	18.385
641.45	19.072
641.77	20.282
642.10	17.192
642.43	19.282
642.76	17.615
643.09	17.534
643.41	16.106
643.74	16.690
644.07	17.517
644.40	16.124
644.73	17.417
645.05	18.796
645.38	17.986
645.71	17.155
646.04	18.221
646.36	16.058
646.69	16.411
647.02	16.667
647.35	18.015
647.67	21.095
648.00	17.197
648.33	17.718
648.66	17.118
648.98	16.599
649.31	16.238
649.64	17.397
649.96	16.446
650.29	15.855
650.62	16.407
650.94	16.066
651.27	15.719
651.60	16.374
651.92	14.742
652.25	16.787
652.58	17.194
652.90	15.988
653.23	18.310
653.56	16.120
653.88	18.399
654.21	17.183
654.54	16.185
654.86	17.139
655.19	16.186
655.52	17.478
655.84	19.224
656.17	22.496
656.49	31.381
656.82	33.910
657.15	26.091
657.47	19.701
657.80	14.139
658.13	10.669
658.45	13.822
658.78	16.761
659.10	15.621
659.43	15.111
659.75	14.512
660.08	13.445
660.41	13.482
660.73	12.885
661.06	12.922
661.38	15.630
661.71	14.138
662.03	16.049
662.36	17.352
662.68	16.886
663.01	13.805
663.33	15.501
663.66	15.201
663.98	15.000
664.31	15.197
664.63	17.148
664.96	17.060
665.28	12.704
665.61	18.007
665.93	13.929
666.26	16.129
666.58	12.546
666.91	17.570
667.23	14.857
667.56	13.215
667.88	13.000
668.21	13.672
668.53	12.934
668.86	13.752
669.18	13.238
669.50	13.917
669.83	13.600
670.15	15.551
670.48	16.270
670.80	13.958
671.13	12.665
671.45	13.780
671.77	17.891
672.10	14.500
672.42	13.916
672.75	14.132
673.07	14.478
673.39	12.789
673.72	17.114
674.04	15.000
674.37	15.564
674.69	16.049
675.01	12.000
675.34	12.786
675.66	13.109
675.98	16.231
676.31	14.844
676.63	14.829
676.95	14.176
677.28	14.919
677.60	10.630
677.92	13.628
678.25	14.260
678.57	16.548
678.89	15.188
679.22	12.718
679.54	11.966
679.86	10.000
680.18	13.599
680.51	14.151
680.83	13.912
681.15	12.759
681.48	15.544
681.80	13.126
682.12	12.063
682.44	14.357
682.77	13.475
683.09	13.258
683.41	14.729
683.73	12.903
684.06	14.576
684.38	13.238
684.70	14.901
685.02	13.597
685.34	13.644
685.67	11.672
685.99	12.270
686.31	13.227
686.63	11.058
686.96	12.776
687.28	15.309
687.60	10.943
687.92	11.254
688.24	13.022
688.56	10.690
688.89	9.800
689.21	11.546
689.53	10.588
689.85	11.834
690.17	12.593
690.49	10.956
690.82	12.871
691.14	9.514
691.46	13.576
691.78	12.707
692.10	11.927
692.42	11.429
692.74	12.704
693.06	10.185
693.39	12.524
693.71	11.466
694.03	12.454
694.35	12.571
694.67	15.400
694.99	13.404
695.31	11.479
695.63	13.203
695.95	10.352
696.27	11.209
696.59	10.841
696.91	11.937
697.23	15.385
697.56	11.405
697.88	10.606
698.20	10.358
698.52	13.068
698.84	10.187
699.16	14.694
699.48	12.134
699.80	11.702
700.12	12.227
700.44	9.447
700.76	10.926
701.08	12.107
701.40	11.658
701.72	14.428
702.04	10.963
702.36	11.780
702.68	8.313
703.00	7.824
703.32	9.606
703.64	7.824
703.96	11.933
704.28	11.057
704.60	11.139
704.91	9.184
705.23	10.411
705.55	7.521
705.87	8.485
706.19	13.804
706.51	4.217
706.83	7.781
707.15	6.085
707.47	7.710
707.79	9.170
708.11	9.534
708.43	9.677
708.74	7.143
709.06	11.137
709.38	11.737
709.70	12.159
710.02	9.561
710.34	11.436
710.66	6.704
710.98	7.377
711.29	4.396
711.61	10.452
711.93	10.256
712.25	10.811
712.57	11.799
712.89	10.588
713.20	6.213
713.52	11.561
713.84	10.585
714.16	11.053
714.48	8.763
714.80	11.688
715.11	8.924
715.43	9.549
715.75	9.211
716.07	5.525
716.39	11.202
716.70	7.229
717.02	8.197
717.34	6.620
717.66	6.040
717.97	5.137
718.29	4.124
718.61	6.579
718.93	6.796
719.24	7.764
719.56	9.509
719.88	6.306
720.20	4.839
720.51	8.696
720.83	9.063
721.15	4.605
721.46	5.822
721.78	8.667
722.10	5.502
722.42	3.691
722.73	8.065
723.05	9.825
723.37	6.944
723.68	10.394
724.00	4.332
724.32	1.761
724.63	6.294
724.95	8.865
725.27	6.620
725.58	4.240
725.90	10.000
726.22	4.389
726.53	7.468
726.85	10.063
727.16	6.949
727.48	11.927
727.80	6.291
728.11	6.360
728.43	9.428
728.74	6.020
729.06	6.291
729.38	7.468
729.69	6.040
730.01	8.036
730.32	2.727
730.64	9.434
730.96	6.522
731.27	10.615
731.59	9.890
731.90	4.935
732.22	8.854
732.53	6.906
732.85	7.143
733.16	4.106
733.48	5.793
733.80	8.357
734.11	5.698
734.43	6.486
734.74	8.608
735.06	5.779
735.37	8.378
735.69	6.757
736.00	7.345
736.32	5.660
736.63	9.722
736.95	5.747
737.26	4.545
737.58	7.879
737.89	6.176
738.21	5.810
738.52	3.934
738.83	8.874
739.15	3.901
739.46	5.102
739.78	8.896
740.09	6.304
740.41	4.956
740.72	5.000
741.04	7.767
741.35	11.930
741.66	3.529
741.98	9.016
742.29	1.674
742.61	4.386
742.92	1.923
743.23	5.054
743.55	4.264
743.86	4.400
744.18	0.413
744.49	-2.110
744.80	6.173
745.12	1.266
745.43	2.033
745.74	3.017
746.06	2.966
746.37	4.641
746.68	8.943
747.00	5.000
747.31	2.575
747.62	7.308
747.94	4.858
748.25	2.008
748.56	0.000
748.88	-0.427
749.19	8.621
749.50	3.896
749.82	7.229
750.13	11.388
750.44	1.667
750.75	6.462
751.07	4.615
751.38	4.101
751.69	5.431
752.01	4.854
752.32	5.556
752.63	2.041
752.94	7.958
753.26	4.089
753.57	2.222
753.88	0.000
754.19	4.823
754.51	4.502
754.82	4.180
755.13	7.541
755.44	6.485
755.75	8.553
756.07	8.955
756.38	4.717
756.69	7.530
757.00	4.986
757.31	6.557
757.63	2.302
757.94	5.399
758.25	6.546
758.56	6.972
758.87	8.409
759.18	6.933
759.50	7.082
759.81	5.322
760.12	7.008
760.43	5.729
760.74	7.635
761.05	5.500
761.36	7.952
761.67	4.061
761.99	7.568
762.30	7.317
762.61	0.000
762.92	5.597
763.23	2.622
763.54	3.597
763.85	6.529
764.16	1.010
764.47	4.930
764.78	6.390
765.10	5.279
765.41	8.462
765.72	6.878
766.03	7.627
766.34	3.448
766.65	0.000
766.96	6.375
767.27	0.461
767.58	-2.985
767.89	4.808
768.20	2.347
768.51	0.463
768.82	1.205
769.13	1.894
769.44	-2.692
769.75	5.054
770.06	-1.154
770.37	5.118
770.68	2.128
770.99	1.619
771.30	11.111
771.61	6.464
771.92	4.074
772.23	1.619
772.54	0.000
772.85	5.991
773.16	5.238
773.47	-5.291
773.78	0.000
774.09	1.705
774.39	8.000
774.70	3.279
775.01	1.220
775.32	-5.294
775.63	-4.908
775.94	-2.548
776.25	2.581
776.56	4.487
776.87	5.442
777.18	-4.828
777.48	-6.993
777.79	-6.757
778.10	-4.412
778.41	-0.694
778.72	-1.379
779.03	1.235
779.34	-2.424
779.65	-0.518
779.95	3.889
780.26	-2.273
780.57	1.935
780.88	2.174
781.19	-1.290
781.50	5.294
781.80	2.688
782.11	1.587
782.42	-1.010
782.73	-7.186
783.04	-1.117
783.34	-6.667
783.65	-9.804
783.96	-1.242
784.27	-1.190
784.57	-2.649
784.88	1.429
785.19	3.150
785.50	-0.787
785.81	-7.519
786.11	-3.846
786.42	-12.230
786.73	-2.158
787.04	-5.263
787.34	-8.197
787.65	-10.400
787.96	0.000
788.26	-4.895
788.57	0.699
788.88	-4.605
789.19	4.575
789.49	-5.479
789.80	-3.546
790.11	-0.787
790.41	-9.375
790.72	-5.932
791.03	-22.330
791.33	-3.478
791.64	-6.140
791.95	-8.036
792.25	-3.810
792.56	-1.786
792.87	-13.542
793.17	-1.786
793.48	-17.708
793.79	-26.506
794.09	-13.761
794.40	-13.761
794.70	-1.361
795.01	-3.896
795.32	0.000
795.62	-2.113
795.93	-12.121
796.23	-0.820
796.54	-5.357
796.85	-13.830
797.15	-26.087
797.46	-28.767
797.76	-15.000
798.07	-4.348
798.37	-22.680
798.68	-27.273
798.99	-21.839
799.29	-13.483
799.60	-13.830
799.90	-16.867
800.21	-36.923
800.51	-35.821
800.82	-22.059
801.12	-23.288
801.43	-32.353
801.73	-27.119
802.04	-28.788
802.34	-25.000
802.65	-25.424
802.95	-17.910
803.26	-30.508
803.56	-16.438
803.87	-25.714
804.17	-31.507
804.48	-43.860
804.78	-25.000
805.09	-32.759
805.39	-14.865
805.70	-33.803
806.00	-10.976
806.30	-10.843
806.61	-15.068
806.91	-2.885
807.22	-11.111
807.52	-22.989
807.83	-2.778
808.13	-3.614
808.43	-16.854
808.74	-17.500
809.04	-33.824
809.35	-25.333
809.65	-27.143
809.95	-5.479
810.26	-29.825
810.56	-17.241
810.86	-19.118
811.17	-35.088
811.47	-29.508
811.77	-62.222
812.08	-23.729
812.38	-18.333
812.69	-25.862
812.99	-30.189
813.29	-79.487
813.59	-14.000
813.90	-22.807
814.20	-30.909
814.50	1.408
814.81	-3.846
815.11	-29.508
815.41	-17.910
815.72	-27.586
816.02	-35.714
816.32	-6.667
816.62	-27.273
816.93	-46.667
817.23	-25.926
817.53	-38.298
817.84	-30.952
818.14	-61.765
818.44	-51.020
818.74	-22.222
819.04	-61.538
819.35	-80.000
819.65	-103.846
819.95	-30.189
820.25	-35.556
820.56	-38.095
820.86	-75.000
821.16	-35.897
821.46	-44.186
821.76	-36.000
822.07	-21.429
822.37	-47.826
822.67	-40.426
822.97	-72.973
823.27	-55.000
823.57	-22.449
823.88	-28.889
824.18	-42.500
824.48	-40.000
824.78	-96.000
825.08	-72.727
825.38	-24.444
825.69	-29.787
825.99	-38.889
826.29	-77.143
826.59	-56.410
826.89	-39.535
827.19	-26.000
827.49	-44.118
827.79	-12.500
828.09	-54.054
828.39	-70.000
828.70	-26.829
829.00	-20.930
829.30	-89.286
829.60	-55.882
829.90	-45.652
830.20	-45.714
830.50	-41.379
830.80	-127.778
831.10	-84.615
831.40	-85.294
831.70	-80.952
832.00	-45.161
832.30	-152.941
832.60	-104.167
832.90	-246.154
833.20	-131.579
833.50	-140.000
833.80	-89.474
834.10	-100.000
834.40	-38.889
834.70	-62.500
835.00	-74.286
835.30	-32.353
835.60	-83.333
835.90	-40.000
836.20	-113.636
836.50	-64.000
836.80	-78.788
837.10	-88.889
837.40	-51.852
837.70	-200.000
838.00	-53.571
838.30	-104.348
838.60	-37.931
838.90	-164.286
839.19	-147.826
839.49	-225.000
839.79	-60.870
840.09	-175.000
840.39	-75.000
840.69	-32.258
840.99	-103.571
841.29	-166.667
841.59	-68.421
841.88	-33.333
842.18	-107.692
842.48	-210.000
842.78	-110.000
843.08	-60.000
843.38	-29.032
843.68	-161.111
843.97	-58.824
844.27	-137.500
844.57	-115.789
844.87	-320.000
845.17	-200.000
845.47	-76.190
845.76	-119.048
846.06	-188.889
846.36	-111.765
846.66	-46.154
846.96	-186.667
847.25	-147.059
847.55	-65.217
847.85	-120.000
848.15	-105.882
848.44	-236.364
848.74	-109.524
849.04	-87.500
849.34	-156.250
849.63	-108.696
849.93	1850.000
850.23	-186.667
850.53	-19.231
850.82	-236.364
851.12	-86.364
851.42	-172.727
851.71	-130.769
852.01	-115.000
852.31	-146.154
852.61	-68.421
852.90	-150.000
853.20	-172.222
853.50	-311.111
853.79	-100.000
854.09	-140.909
854.39	-258.333
854.68	-70.968
854.98	-57.692
855.28	-83.333
855.57	-75.000
855.87	-80.000
856.17	-90.909
856.46	-51.852
856.76	-111.111
857.05	-104.348
857.35	-83.333
857.65	-176.923
857.94	-76.190
858.24	-96.296
858.53	-78.261
858.83	-94.118
859.13	-105.882
859.42	-117.647
859.72	-114.286
860.01	-125.000
860.31	-244.444
860.60	-160.000
860.90	-100.000
861.20	-94.444
861.49	-207.692
861.79	-56.667
862.08	-223.077
862.38	-12.500
862.67	-117.647
862.97	-131.250
863.26	-388.889
863.56	-140.000
863.85	-209.091
864.15	-100.000
864.44	-633.333
864.74	-128.571
865.03	-162.500
865.33	-270.000
865.62	-87.097
865.92	-77.273
866.21	-52.174
866.51	-150.000
866.80	-680.000
867.10	-200.000
867.39	-275.000
867.69	3300.000
867.98	-228.571
868.27	-70.588
868.57	-3500.000
868.86	-240.000
869.16	-66.667
869.45	-91.667
869.75	-136.364
870.04	-242.857
870.33	-183.333
870.63	-542.857
870.92	-475.000
871.22	-325.000
871.51	-154.545
871.80	-1266.667
872.10	-950.000
>>>>>End Processed Spectral Data<<<<<
