SpectraSuite Data File
++++++++++++++++++++++++++++++++++++
Date: Thu May 14 14:44:54 PDT 2015
User: schluterlab
Dark Spectrum Present: Yes
Reference Spectrum Present: Yes
Number of Sampled Component Spectra: 1
Spectrometers: USB2E3373
Integration Time (usec): 3000 (USB2E3373)
Spectra Averaged: 3 (USB2E3373)
Boxcar Smoothing: 0 (USB2E3373)
Correct for Electrical Dark: No (USB2E3373)
Strobe/Lamp Enabled: No (USB2E3373)
Correct for Detector Non-linearity: No (USB2E3373)
Correct for Stray Light: No (USB2E3373)
Number of Pixels in Processed Spectrum: 2048
>>>>>Begin Processed Spectral Data<<<<<
178.53	0.000
178.91	57.143
179.29	-700.000
179.67	-300.000
180.04	157.143
180.42	40.000
180.80	80.000
181.18	200.000
181.56	-100.000
181.94	100.000
182.31	150.000
182.69	-233.333
183.07	50.000
183.45	-75.000
183.83	0.000
184.20	133.333
184.58	-600.000
184.96	50.000
185.34	-22.222
185.72	120.000
186.09	188.889
186.47	450.000
186.85	140.000
187.23	-22.222
187.61	-800.000
187.98	-140.000
188.36	75.000
188.74	-125.000
189.12	166.667
189.49	43.750
189.87	-100.000
190.25	33.333
190.63	-180.000
191.00	-44.444
191.38	0.000
191.76	-50.000
192.14	-83.333
192.51	-100.000
192.89	100.000
193.27	0.000
193.65	0.000
194.02	-1300.000
194.40	-128.571
194.78	-85.714
195.15	0.000
195.53	0.000
195.91	0.000
196.29	75.000
196.66	46.154
197.04	-700.000
197.42	-128.571
197.79	-650.000
198.17	-12.500
198.55	-85.714
198.92	22.222
199.30	0.000
199.68	27.273
200.05	64.286
200.43	-250.000
200.81	185.714
201.18	0.000
201.56	100.000
201.94	0.000
202.31	66.667
202.69	-88.889
203.07	-500.000
203.44	11.111
203.82	100.000
204.19	91.667
204.57	116.667
204.95	-125.000
205.32	900.000
205.70	175.000
206.08	66.667
206.45	66.667
206.83	120.000
207.20	-50.000
207.58	-300.000
207.96	33.333
208.33	150.000
208.71	-8.333
209.08	100.000
209.46	0.000
209.84	83.333
210.21	-250.000
210.59	-150.000
210.96	166.667
211.34	200.000
211.71	75.000
212.09	-700.000
212.46	0.000
212.84	500.000
213.22	20.000
213.59	-25.000
213.97	10.000
214.34	-133.333
214.72	50.000
215.09	200.000
215.47	0.000
215.84	28.571
216.22	50.000
216.59	60.000
216.97	40.000
217.34	225.000
217.72	75.000
218.09	-125.000
218.47	-175.000
218.84	0.000
219.22	-40.000
219.59	70.588
219.97	30.000
220.34	150.000
220.72	33.333
221.09	30.769
221.47	33.333
221.84	30.000
222.22	-42.857
222.59	0.000
222.97	125.000
223.34	-80.000
223.72	-300.000
224.09	-25.000
224.46	175.000
224.84	140.000
225.21	-85.714
225.59	-200.000
225.96	-150.000
226.34	-11.538
226.71	-16.667
227.08	250.000
227.46	53.333
227.83	0.000
228.21	52.632
228.58	-62.500
228.95	150.000
229.33	0.000
229.70	70.000
230.08	89.474
230.45	10.000
230.82	200.000
231.20	0.000
231.57	66.667
231.95	-9.091
232.32	9.091
232.69	30.000
233.07	-375.000
233.44	41.176
233.81	-10.000
234.19	61.111
234.56	54.545
234.93	68.966
235.31	68.421
235.68	61.111
236.05	30.000
236.43	88.462
236.80	100.000
237.17	37.037
237.55	54.545
237.92	20.000
238.29	64.516
238.67	38.636
239.04	63.889
239.41	14.286
239.79	6.522
240.16	37.037
240.53	30.435
240.91	27.451
241.28	27.869
241.65	65.672
242.02	52.703
242.40	41.538
242.77	49.333
243.14	39.024
243.51	31.579
243.89	33.333
244.26	43.564
244.63	43.137
245.00	47.664
245.38	42.105
245.75	32.743
246.12	46.032
246.49	38.760
246.87	43.571
247.24	49.669
247.61	40.789
247.98	38.255
248.36	40.123
248.73	39.877
249.10	42.623
249.47	44.279
249.84	48.168
250.22	43.523
250.59	47.778
250.96	43.636
251.33	42.857
251.70	44.017
252.08	42.500
252.45	41.803
252.82	43.388
253.19	41.016
253.56	42.205
253.94	40.769
254.31	41.288
254.68	40.559
255.05	40.065
255.42	40.816
255.79	41.100
256.16	40.066
256.54	38.411
256.91	44.918
257.28	40.656
257.65	41.401
258.02	37.463
258.39	39.601
258.76	45.260
259.14	45.690
259.51	41.499
259.88	42.210
260.25	42.778
260.62	43.014
260.99	43.989
261.36	42.091
261.73	40.053
262.10	43.956
262.47	42.627
262.85	43.687
263.22	43.377
263.59	41.053
263.96	44.246
264.33	40.153
264.70	44.691
265.07	45.585
265.44	42.177
265.81	43.056
266.18	45.578
266.55	41.741
266.92	41.230
267.29	41.794
267.66	42.794
268.03	43.450
268.40	42.171
268.77	39.408
269.14	40.529
269.51	37.939
269.88	42.418
270.25	40.443
270.62	41.772
270.99	41.414
271.36	41.386
271.73	40.472
272.10	45.291
272.47	42.485
272.84	42.369
273.21	40.481
273.58	42.540
273.95	38.846
274.32	41.635
274.69	39.845
275.06	41.575
275.43	39.372
275.80	40.388
276.17	40.000
276.54	40.299
276.91	40.608
277.28	40.687
277.65	41.293
278.02	41.544
278.39	40.580
278.76	38.489
279.13	41.489
279.50	39.691
279.87	38.640
280.23	36.444
280.60	40.169
280.97	37.993
281.34	38.370
281.71	40.271
282.08	37.542
282.45	37.971
282.82	36.892
283.19	37.641
283.56	38.361
283.92	39.489
284.29	39.179
284.66	41.215
285.03	34.135
285.40	37.558
285.77	39.474
286.14	37.405
286.51	39.117
286.87	39.494
287.24	37.952
287.61	37.818
287.98	35.196
288.35	38.018
288.72	38.462
289.08	37.189
289.45	37.722
289.82	34.337
290.19	37.500
290.56	36.338
290.93	34.807
291.29	35.675
291.66	34.022
292.03	32.836
292.40	35.646
292.77	34.367
293.13	33.153
293.50	33.640
293.87	32.752
294.24	35.333
294.60	32.870
294.97	30.872
295.34	33.803
295.71	33.039
296.08	32.300
296.44	31.985
296.81	31.303
297.18	31.382
297.55	29.245
297.91	30.249
298.28	29.502
298.65	31.510
299.02	31.287
299.38	28.490
299.75	31.308
300.12	29.167
300.48	29.839
300.85	29.696
301.22	30.649
301.59	28.995
301.95	31.412
302.32	29.667
302.69	29.025
303.05	29.815
303.42	28.492
303.79	29.688
304.15	28.917
304.52	27.590
304.89	28.901
305.25	29.503
305.62	27.377
305.99	28.454
306.35	27.823
306.72	28.542
307.09	28.731
307.45	29.607
307.82	27.346
308.19	27.750
308.55	28.062
308.92	29.698
309.29	27.969
309.65	27.290
310.02	28.218
310.38	26.870
310.75	27.670
311.12	28.667
311.48	27.761
311.85	27.730
312.22	28.558
312.58	27.793
312.95	27.725
313.31	26.107
313.68	28.205
314.05	27.913
314.41	27.231
314.78	26.794
315.14	27.132
315.51	28.070
315.87	28.173
316.24	27.854
316.61	27.620
316.97	27.059
317.34	26.190
317.70	27.948
318.07	27.249
318.43	27.126
318.80	28.261
319.16	27.039
319.53	25.450
319.89	27.169
320.26	26.157
320.62	25.355
320.99	24.838
321.35	26.895
321.72	27.814
322.08	26.781
322.45	27.191
322.81	27.166
323.18	27.788
323.54	27.069
323.91	27.224
324.27	26.850
324.64	26.532
325.00	26.119
325.37	26.454
325.73	26.860
326.10	26.926
326.46	27.280
326.83	27.382
327.19	25.669
327.56	25.850
327.92	27.144
328.29	26.855
328.65	26.549
329.01	27.073
329.38	27.548
329.74	28.596
330.11	27.825
330.47	26.285
330.84	27.993
331.20	27.667
331.56	26.170
331.93	26.695
332.29	27.627
332.66	26.827
333.02	25.712
333.38	26.426
333.75	25.842
334.11	26.188
334.48	26.650
334.84	26.593
335.20	25.525
335.57	26.981
335.93	25.537
336.29	25.790
336.66	25.820
337.02	24.916
337.38	26.531
337.75	25.702
338.11	26.325
338.47	26.882
338.84	25.465
339.20	24.347
339.56	24.712
339.93	26.273
340.29	25.282
340.65	25.142
341.02	26.417
341.38	26.273
341.74	25.262
342.11	27.112
342.47	25.099
342.83	26.087
343.20	26.329
343.56	24.940
343.92	26.581
344.28	25.703
344.65	25.581
345.01	24.805
345.37	26.439
345.73	24.552
346.10	25.273
346.46	25.949
346.82	25.094
347.19	25.745
347.55	24.431
347.91	24.963
348.27	24.431
348.63	24.219
349.00	24.683
349.36	24.981
349.72	25.223
350.08	25.706
350.45	24.411
350.81	23.982
351.17	25.038
351.53	24.640
351.89	24.753
352.26	24.478
352.62	24.552
352.98	25.115
353.34	23.749
353.70	24.807
354.07	25.410
354.43	24.677
354.79	24.832
355.15	24.430
355.51	24.488
355.87	23.261
356.24	24.639
356.60	23.503
356.96	24.092
357.32	24.164
357.68	24.597
358.04	23.578
358.40	25.075
358.77	24.196
359.13	23.708
359.49	23.271
359.85	24.003
360.21	23.601
360.57	23.475
360.93	24.330
361.29	23.930
361.66	24.837
362.02	24.565
362.38	24.807
362.74	22.556
363.10	24.278
363.46	23.892
363.82	24.219
364.18	24.560
364.54	23.928
364.90	24.615
365.26	23.724
365.62	24.200
365.98	24.506
366.35	24.631
366.71	24.490
367.07	24.087
367.43	23.506
367.79	23.490
368.15	25.151
368.51	23.884
368.87	23.057
369.23	23.467
369.59	24.044
369.95	24.070
370.31	25.051
370.67	23.453
371.03	22.438
371.39	22.498
371.75	23.040
372.11	23.645
372.47	23.832
372.83	24.280
373.19	23.883
373.55	21.409
373.91	22.563
374.27	23.933
374.63	23.816
374.99	23.342
375.35	24.091
375.71	23.742
376.07	23.693
376.42	22.985
376.78	22.747
377.14	23.581
377.50	24.415
377.86	24.076
378.22	23.653
378.58	23.543
378.94	23.474
379.30	23.667
379.66	24.162
380.02	23.081
380.38	23.733
380.74	23.662
381.09	23.577
381.45	23.807
381.81	24.590
382.17	23.931
382.53	23.158
382.89	22.743
383.25	24.443
383.61	22.743
383.97	23.557
384.32	24.043
384.68	22.448
385.04	23.424
385.40	23.925
385.76	24.033
386.12	23.160
386.48	24.118
386.83	24.970
387.19	24.044
387.55	23.063
387.91	23.288
388.27	24.076
388.62	23.654
388.98	23.745
389.34	23.335
389.70	24.637
390.06	23.742
390.42	23.253
390.77	24.503
391.13	23.592
391.49	24.034
391.85	23.697
392.20	24.021
392.56	25.162
392.92	24.209
393.28	23.881
393.64	23.575
393.99	24.056
394.35	24.474
394.71	24.431
395.07	24.072
395.42	24.272
395.78	24.619
396.14	24.599
396.50	24.109
396.85	24.270
397.21	23.254
397.57	24.853
397.92	24.055
398.28	23.737
398.64	24.314
399.00	24.136
399.35	23.089
399.71	23.641
400.07	23.133
400.42	24.505
400.78	23.264
401.14	24.132
401.49	24.616
401.85	24.360
402.21	24.334
402.57	23.592
402.92	23.759
403.28	23.595
403.63	24.105
403.99	24.228
404.35	23.764
404.70	23.739
405.06	23.370
405.42	23.946
405.77	24.373
406.13	23.285
406.49	24.268
406.84	24.266
407.20	23.477
407.55	23.259
407.91	24.576
408.27	24.087
408.62	24.666
408.98	23.912
409.34	23.402
409.69	24.722
410.05	24.209
410.40	24.130
410.76	24.790
411.11	23.670
411.47	24.079
411.83	23.810
412.18	23.976
412.54	23.592
412.89	23.166
413.25	23.420
413.60	23.492
413.96	24.476
414.31	23.173
414.67	23.733
415.03	24.554
415.38	24.338
415.74	23.335
416.09	24.923
416.45	23.857
416.80	23.807
417.16	24.393
417.51	23.537
417.87	23.053
418.22	23.892
418.58	23.792
418.93	24.796
419.29	23.366
419.64	23.649
420.00	23.442
420.35	23.358
420.71	22.803
421.06	23.002
421.42	24.255
421.77	22.886
422.12	23.573
422.48	23.349
422.83	24.096
423.19	22.865
423.54	24.281
423.90	23.744
424.25	23.893
424.61	22.732
424.96	23.394
425.31	23.779
425.67	23.135
426.02	23.907
426.38	23.708
426.73	23.326
427.09	25.029
427.44	23.758
427.79	23.328
428.15	23.288
428.50	22.978
428.85	22.962
429.21	23.351
429.56	23.050
429.92	23.096
430.27	23.855
430.62	23.596
430.98	23.561
431.33	22.972
431.68	23.132
432.04	24.479
432.39	23.835
432.74	23.516
433.10	24.121
433.45	22.687
433.80	22.854
434.16	23.347
434.51	23.741
434.86	24.539
435.22	23.751
435.57	23.349
435.92	24.040
436.28	23.094
436.63	23.867
436.98	22.491
437.34	22.717
437.69	22.950
438.04	23.585
438.39	23.377
438.75	22.690
439.10	23.573
439.45	23.309
439.81	23.333
440.16	22.735
440.51	23.188
440.86	23.235
441.22	23.312
441.57	22.642
441.92	22.842
442.27	22.929
442.63	23.000
442.98	23.586
443.33	23.356
443.68	23.241
444.03	24.506
444.39	23.070
444.74	24.094
445.09	23.467
445.44	23.815
445.79	23.755
446.15	23.484
446.50	23.773
446.85	23.881
447.20	23.549
447.55	23.745
447.91	22.984
448.26	22.463
448.61	23.379
448.96	23.981
449.31	23.542
449.66	23.039
450.02	22.785
450.37	23.815
450.72	23.735
451.07	22.893
451.42	23.686
451.77	22.679
452.12	23.307
452.47	22.282
452.83	23.198
453.18	23.001
453.53	23.320
453.88	21.977
454.23	22.881
454.58	23.273
454.93	22.755
455.28	24.082
455.63	23.081
455.98	23.687
456.34	22.320
456.69	23.104
457.04	22.518
457.39	22.894
457.74	23.490
458.09	22.900
458.44	23.653
458.79	22.383
459.14	21.919
459.49	22.694
459.84	23.085
460.19	22.376
460.54	22.771
460.89	23.452
461.24	22.414
461.59	23.243
461.94	22.476
462.29	23.404
462.64	22.631
462.99	22.913
463.34	23.232
463.69	22.333
464.04	22.902
464.39	22.814
464.74	22.349
465.09	21.742
465.44	22.318
465.79	22.898
466.14	22.408
466.49	23.053
466.84	23.691
467.19	23.064
467.54	23.267
467.89	22.644
468.24	22.825
468.59	22.814
468.94	21.737
469.29	22.136
469.64	22.250
469.99	22.243
470.34	22.092
470.68	22.488
471.03	22.790
471.38	23.349
471.73	21.782
472.08	22.018
472.43	21.613
472.78	22.481
473.13	22.566
473.48	22.296
473.83	22.983
474.17	22.098
474.52	22.730
474.87	22.093
475.22	22.535
475.57	21.495
475.92	22.051
476.27	21.565
476.61	22.170
476.96	21.324
477.31	22.376
477.66	23.242
478.01	21.861
478.36	22.084
478.70	22.709
479.05	22.444
479.40	22.458
479.75	21.614
480.10	22.075
480.45	22.151
480.79	21.950
481.14	22.151
481.49	21.945
481.84	21.889
482.19	22.366
482.53	22.431
482.88	22.818
483.23	21.387
483.58	22.183
483.92	21.277
484.27	22.396
484.62	21.906
484.97	22.784
485.31	21.471
485.66	21.172
486.01	21.090
486.36	22.088
486.70	23.330
487.05	24.148
487.40	23.543
487.75	24.224
488.09	23.979
488.44	23.428
488.79	23.137
489.13	22.266
489.48	22.097
489.83	21.247
490.17	21.304
490.52	21.511
490.87	20.770
491.22	21.880
491.56	21.459
491.91	21.893
492.26	21.679
492.60	21.600
492.95	20.842
493.30	20.798
493.64	21.419
493.99	21.711
494.34	21.167
494.68	20.814
495.03	21.630
495.37	21.749
495.72	21.451
496.07	21.823
496.41	21.836
496.76	22.394
497.11	21.274
497.45	21.191
497.80	21.724
498.14	21.451
498.49	21.967
498.84	21.389
499.18	21.772
499.53	21.166
499.87	21.582
500.22	20.481
500.56	21.368
500.91	21.419
501.26	22.227
501.60	21.388
501.95	21.928
502.29	21.545
502.64	20.944
502.98	21.743
503.33	21.123
503.67	20.759
504.02	20.972
504.36	22.207
504.71	21.773
505.06	21.601
505.40	21.069
505.75	21.129
506.09	21.409
506.44	21.356
506.78	21.284
507.13	21.116
507.47	21.506
507.82	21.354
508.16	21.319
508.51	20.581
508.85	21.682
509.19	22.170
509.54	21.950
509.88	20.932
510.23	21.467
510.57	21.750
510.92	21.384
511.26	20.875
511.61	20.956
511.95	20.693
512.30	21.467
512.64	21.089
512.98	20.960
513.33	21.472
513.67	21.673
514.02	21.053
514.36	21.841
514.70	21.094
515.05	21.220
515.39	20.997
515.74	21.368
516.08	20.972
516.42	21.402
516.77	20.662
517.11	21.454
517.46	21.792
517.80	21.700
518.14	21.491
518.49	21.367
518.83	20.809
519.17	20.463
519.52	20.335
519.86	21.278
520.20	21.193
520.55	21.468
520.89	20.833
521.23	21.441
521.58	21.130
521.92	21.246
522.26	20.447
522.61	21.123
522.95	20.473
523.29	20.690
523.64	21.357
523.98	21.278
524.32	21.490
524.66	20.660
525.01	20.498
525.35	20.908
525.69	20.882
526.04	20.953
526.38	20.977
526.72	21.107
527.06	20.997
527.41	21.633
527.75	20.903
528.09	21.783
528.43	20.959
528.78	20.636
529.12	21.502
529.46	20.967
529.80	22.197
530.15	21.217
530.49	21.234
530.83	21.074
531.17	21.266
531.51	20.999
531.86	20.853
532.20	21.098
532.54	20.527
532.88	21.576
533.22	21.273
533.57	21.870
533.91	21.717
534.25	21.764
534.59	21.264
534.93	21.392
535.27	21.859
535.62	22.513
535.96	22.603
536.30	22.033
536.64	22.282
536.98	22.079
537.32	21.481
537.66	22.146
538.01	21.752
538.35	20.889
538.69	21.394
539.03	21.888
539.37	21.201
539.71	21.982
540.05	22.242
540.39	21.394
540.73	22.040
541.07	22.256
541.42	21.914
541.76	22.361
542.10	21.894
542.44	21.437
542.78	21.898
543.12	22.110
543.46	22.100
543.80	21.223
544.14	21.544
544.48	21.986
544.82	22.382
545.16	22.779
545.50	21.390
545.84	21.862
546.18	22.840
546.52	23.057
546.86	21.509
547.20	22.455
547.54	23.221
547.88	21.157
548.22	21.579
548.56	21.709
548.90	21.851
549.24	23.404
549.58	22.587
549.92	22.640
550.26	22.330
550.60	22.782
550.94	23.092
551.28	22.706
551.62	22.978
551.96	22.589
552.30	21.861
552.64	22.651
552.98	23.082
553.32	21.736
553.66	22.958
554.00	22.383
554.34	22.136
554.68	21.950
555.02	21.551
555.36	22.945
555.69	22.037
556.03	22.636
556.37	22.340
556.71	23.272
557.05	22.556
557.39	22.827
557.73	23.448
558.07	22.119
558.41	22.857
558.75	22.718
559.08	21.712
559.42	21.948
559.76	23.202
560.10	23.108
560.44	22.361
560.78	23.125
561.12	22.783
561.45	24.088
561.79	22.527
562.13	22.921
562.47	23.120
562.81	22.785
563.15	23.485
563.48	23.679
563.82	22.430
564.16	22.774
564.50	23.063
564.84	22.714
565.17	23.471
565.51	22.440
565.85	23.159
566.19	22.926
566.52	22.879
566.86	23.713
567.20	23.437
567.54	23.526
567.88	24.210
568.21	23.617
568.55	23.885
568.89	24.058
569.23	24.546
569.56	24.033
569.90	24.091
570.24	24.789
570.57	24.022
570.91	24.127
571.25	24.009
571.59	24.826
571.92	24.307
572.26	24.696
572.60	24.652
572.93	25.244
573.27	24.923
573.61	24.563
573.95	24.812
574.28	24.924
574.62	24.829
574.96	24.658
575.29	24.719
575.63	25.017
575.97	24.790
576.30	24.772
576.64	25.125
576.98	25.080
577.31	25.405
577.65	25.217
577.98	25.282
578.32	24.968
578.66	24.972
578.99	25.128
579.33	26.167
579.67	25.363
580.00	25.421
580.34	24.651
580.67	25.044
581.01	25.076
581.35	25.132
581.68	24.827
582.02	25.049
582.35	26.077
582.69	25.864
583.02	25.734
583.36	26.248
583.70	26.289
584.03	25.678
584.37	25.574
584.70	25.306
585.04	25.110
585.37	25.144
585.71	24.984
586.04	25.143
586.38	25.279
586.72	25.194
587.05	25.249
587.39	25.131
587.72	25.383
588.06	25.193
588.39	24.994
588.73	25.106
589.06	25.790
589.40	25.538
589.73	25.321
590.07	25.497
590.40	25.828
590.73	25.062
591.07	25.279
591.40	24.883
591.74	24.881
592.07	25.294
592.41	24.132
592.74	23.962
593.08	24.554
593.41	25.168
593.75	24.454
594.08	25.023
594.41	25.833
594.75	24.743
595.08	24.731
595.42	25.812
595.75	25.057
596.09	25.754
596.42	25.224
596.75	25.125
597.09	24.768
597.42	24.315
597.75	24.500
598.09	24.206
598.42	24.688
598.76	24.150
599.09	23.994
599.42	24.371
599.76	24.728
600.09	24.558
600.42	25.125
600.76	24.835
601.09	24.726
601.42	25.129
601.76	24.828
602.09	24.911
602.42	23.955
602.76	24.723
603.09	25.257
603.42	24.711
603.76	23.996
604.09	25.656
604.42	24.624
604.76	24.467
605.09	24.890
605.42	24.522
605.75	24.154
606.09	25.047
606.42	24.480
606.75	24.700
607.09	24.232
607.42	24.663
607.75	25.049
608.08	24.467
608.42	24.305
608.75	24.710
609.08	24.618
609.41	24.790
609.75	24.420
610.08	24.406
610.41	23.789
610.74	23.782
611.07	24.645
611.41	25.112
611.74	24.665
612.07	24.684
612.40	24.952
612.73	24.401
613.07	24.548
613.40	24.880
613.73	24.218
614.06	23.651
614.39	23.858
614.72	23.726
615.06	24.013
615.39	23.780
615.72	25.071
616.05	24.429
616.38	24.874
616.71	24.556
617.05	23.536
617.38	24.131
617.71	24.298
618.04	23.907
618.37	24.809
618.70	24.717
619.03	23.596
619.36	23.983
619.69	23.639
620.03	24.294
620.36	23.313
620.69	23.196
621.02	23.819
621.35	23.875
621.68	23.427
622.01	23.274
622.34	22.803
622.67	22.818
623.00	21.457
623.33	23.424
623.66	24.189
623.99	22.976
624.32	24.691
624.65	22.394
624.99	24.317
625.32	24.428
625.65	24.073
625.98	23.864
626.31	22.537
626.64	23.883
626.97	24.156
627.30	22.855
627.63	22.656
627.96	24.850
628.29	22.802
628.62	21.998
628.95	22.436
629.28	23.364
629.61	24.916
629.94	21.925
630.26	22.373
630.59	22.625
630.92	22.684
631.25	23.792
631.58	22.599
631.91	22.024
632.24	21.518
632.57	22.296
632.90	22.467
633.23	21.224
633.56	21.224
633.89	21.488
634.22	21.933
634.55	22.129
634.88	19.913
635.20	23.897
635.53	22.938
635.86	22.319
636.19	22.269
636.52	22.257
636.85	23.085
637.18	21.830
637.51	23.333
637.83	23.256
638.16	22.465
638.49	21.244
638.82	21.646
639.15	19.702
639.48	21.594
639.81	22.055
640.13	22.968
640.46	20.000
640.79	20.343
641.12	21.242
641.45	21.330
641.77	23.620
642.10	20.604
642.43	22.872
642.76	20.867
643.09	19.863
643.41	20.028
643.74	20.552
644.07	23.034
644.40	20.368
644.73	21.771
645.05	21.439
645.38	23.022
645.71	22.287
646.04	23.816
646.36	20.292
646.69	21.012
647.02	21.254
647.35	21.374
647.67	21.900
648.00	22.452
648.33	23.423
648.66	21.683
648.98	22.585
649.31	22.057
649.64	21.912
649.96	19.761
650.29	19.889
650.62	20.792
650.94	19.820
651.27	20.060
651.60	21.637
651.92	20.821
652.25	21.708
652.58	21.320
652.90	18.314
653.23	23.944
653.56	19.829
653.88	24.017
654.21	20.986
654.54	22.254
654.86	22.663
655.19	22.083
655.52	22.346
655.84	22.790
656.17	28.442
656.49	41.440
656.82	47.120
657.15	37.693
657.47	29.158
657.80	22.061
658.13	17.242
658.45	22.778
658.78	27.720
659.10	26.979
659.43	25.943
659.75	25.132
660.08	24.202
660.41	22.829
660.73	20.525
661.06	19.971
661.38	21.372
661.71	21.379
662.03	20.106
662.36	23.614
662.68	20.826
663.01	20.354
663.33	20.794
663.66	22.711
663.98	20.000
664.31	20.826
664.63	19.268
664.96	21.416
665.28	17.060
665.61	20.105
665.93	21.607
666.26	20.968
666.58	19.926
666.91	23.178
667.23	19.619
667.56	20.710
667.88	21.600
668.21	18.359
668.53	18.147
668.86	22.397
669.18	20.367
669.50	21.471
669.83	19.200
670.15	20.669
670.48	22.817
670.80	20.459
671.13	19.471
671.45	21.850
671.77	20.339
672.10	18.833
672.42	21.359
672.75	18.280
673.07	20.597
673.39	19.877
673.72	21.309
674.04	20.000
674.37	22.719
674.69	21.869
675.01	20.190
675.34	18.321
675.66	19.476
675.98	21.642
676.31	20.313
676.63	22.433
676.95	22.031
677.28	21.371
677.60	19.488
677.92	20.345
678.25	19.561
678.57	23.132
678.89	22.014
679.22	19.512
679.54	21.709
679.86	20.678
680.18	21.393
680.51	22.013
680.83	23.077
681.15	23.103
681.48	21.244
681.80	23.316
682.12	20.629
682.44	21.536
682.77	21.631
683.09	21.402
683.41	20.543
683.73	20.873
684.06	20.111
684.38	19.678
684.70	20.287
685.02	22.892
685.34	19.468
685.67	20.662
685.99	20.552
686.31	19.186
686.63	20.695
686.96	20.505
687.28	22.313
687.60	20.539
687.92	20.096
688.24	20.200
688.56	21.207
688.89	22.505
689.21	22.309
689.53	20.000
689.85	19.527
690.17	20.926
690.49	23.108
690.82	18.020
691.14	19.636
691.46	21.224
691.78	22.284
692.10	20.550
692.42	19.821
692.74	17.967
693.06	17.963
693.39	22.960
693.71	19.173
694.03	19.703
694.35	19.619
694.67	22.998
694.99	21.702
695.31	19.647
695.63	19.048
695.95	20.083
696.27	17.143
696.59	22.345
696.91	22.072
697.23	19.341
697.56	18.941
697.88	19.886
698.20	21.846
698.52	22.727
698.84	20.790
699.16	24.082
699.48	21.548
699.80	18.298
700.12	16.594
700.44	18.664
700.76	22.803
701.08	21.550
701.40	18.912
701.72	22.388
702.04	20.321
702.36	16.492
702.68	19.071
703.00	19.071
703.32	20.197
703.64	20.049
703.96	18.854
704.28	21.130
704.60	18.481
704.91	21.939
705.23	21.644
705.55	15.042
705.87	23.636
706.19	21.472
706.51	16.566
706.83	20.173
707.15	19.841
707.47	23.131
707.79	19.651
708.11	17.161
708.43	17.849
708.74	17.634
709.06	18.561
709.38	23.944
709.70	21.092
710.02	20.155
710.34	20.745
710.66	17.318
710.98	19.945
711.29	18.132
711.61	17.797
711.93	18.803
712.25	18.919
712.57	23.599
712.89	19.118
713.20	15.089
713.52	18.786
713.84	18.663
714.16	21.053
714.48	14.691
714.80	21.818
715.11	21.260
715.43	18.568
715.75	19.211
716.07	18.785
716.39	20.219
716.70	18.072
717.02	18.689
717.34	16.376
717.66	20.470
717.97	12.329
718.29	20.275
718.61	20.066
718.93	18.447
719.24	18.012
719.56	18.098
719.88	20.721
720.20	16.452
720.51	18.323
720.83	20.000
721.15	17.434
721.46	15.753
721.78	18.667
722.10	17.152
722.42	18.456
722.73	17.419
723.05	22.456
723.37	17.708
723.68	23.656
724.00	20.939
724.32	22.887
724.63	19.930
724.95	22.340
725.27	18.815
725.58	16.961
725.90	23.103
726.22	19.436
726.53	21.104
726.85	21.384
727.16	19.033
727.48	24.159
727.80	20.861
728.11	15.901
728.43	22.222
728.74	24.080
729.06	17.550
729.38	17.208
729.69	20.470
730.01	19.940
730.32	17.576
730.64	18.553
730.96	18.323
731.27	23.184
731.59	21.429
731.90	19.740
732.22	21.354
732.53	19.061
732.85	18.000
733.16	19.941
733.48	16.768
733.80	19.499
734.11	19.373
734.43	20.000
734.74	24.304
735.06	18.593
735.37	22.973
735.69	21.622
736.00	18.927
736.32	19.677
736.63	20.278
736.95	19.253
737.26	19.091
737.58	17.879
737.89	23.235
738.21	18.349
738.52	19.344
738.83	18.089
739.15	17.376
739.46	21.769
739.78	20.245
740.09	18.911
740.41	18.950
740.72	20.667
741.04	19.094
741.35	22.456
741.66	18.431
741.98	27.049
742.29	20.084
742.61	16.228
742.92	18.846
743.23	20.939
743.55	20.155
743.86	20.000
744.18	16.529
744.49	20.253
744.80	24.280
745.12	20.675
745.43	18.293
745.74	17.672
746.06	16.102
746.37	18.987
746.68	20.732
747.00	20.000
747.31	16.309
747.62	19.231
747.94	17.814
748.25	21.687
748.56	14.694
748.88	18.803
749.19	21.552
749.50	14.286
749.82	13.655
750.13	23.488
750.44	16.333
750.75	22.769
751.07	16.923
751.38	20.189
751.69	19.808
752.01	20.065
752.32	19.281
752.63	19.048
752.94	17.647
753.26	17.100
753.57	21.481
753.88	18.352
754.19	22.186
754.51	17.042
754.82	21.543
755.13	24.262
755.44	21.502
755.75	20.395
756.07	21.493
756.38	19.497
756.69	21.386
757.00	18.006
757.31	19.126
757.63	18.926
757.94	17.136
758.25	19.413
758.56	21.133
758.87	22.045
759.18	21.600
759.50	24.363
759.81	21.849
760.12	18.598
760.43	21.094
760.74	21.182
761.05	20.500
761.36	22.169
761.67	19.289
761.99	21.892
762.30	23.171
762.61	16.502
762.92	20.896
763.23	20.974
763.54	21.223
763.85	18.557
764.16	21.212
764.47	21.831
764.78	22.684
765.10	22.287
765.41	24.872
765.72	17.725
766.03	22.316
766.34	18.495
766.65	21.254
766.96	17.131
767.27	21.659
767.58	19.403
767.89	23.077
768.20	16.901
768.51	16.667
768.82	21.687
769.13	21.212
769.44	14.615
769.75	23.827
770.06	20.769
770.37	22.047
770.68	18.723
770.99	15.789
771.30	27.037
771.61	19.772
771.92	17.778
772.23	23.077
772.54	15.741
772.85	21.659
773.16	23.333
773.47	17.460
773.78	18.378
774.09	25.000
774.39	24.500
774.70	17.486
775.01	10.976
775.32	14.706
775.63	14.724
775.94	15.287
776.25	23.226
776.56	25.000
776.87	19.048
777.18	19.310
777.48	20.979
777.79	10.811
778.10	18.382
778.41	18.056
778.72	20.690
779.03	16.667
779.34	20.000
779.65	19.689
779.95	25.000
780.26	19.318
780.57	14.839
780.88	22.464
781.19	24.516
781.50	22.353
781.80	23.118
782.11	21.164
782.42	16.162
782.73	19.162
783.04	15.084
783.34	16.970
783.65	15.033
783.96	22.360
784.27	15.476
784.57	20.530
784.88	17.143
785.19	18.110
785.50	10.236
785.81	24.060
786.11	16.923
786.42	10.072
786.73	14.388
787.04	21.805
787.34	11.475
787.65	20.000
787.96	17.164
788.26	23.776
788.57	27.273
788.88	11.842
789.19	22.876
789.49	15.068
789.80	22.695
790.11	24.409
790.41	14.844
790.72	24.576
791.03	23.301
791.33	16.522
791.64	29.825
791.95	6.250
792.25	14.286
792.56	10.714
792.87	15.625
793.17	18.750
793.48	11.458
793.79	10.843
794.09	20.183
794.40	21.101
794.70	19.048
795.01	19.481
795.32	15.068
795.62	24.648
795.93	16.667
796.23	18.852
796.54	8.036
796.85	8.511
797.15	15.217
797.46	13.699
797.76	11.250
798.07	22.826
798.37	15.464
798.68	15.584
798.99	19.540
799.29	11.236
799.60	18.085
799.90	14.458
800.21	18.462
800.51	-4.478
800.82	2.941
801.12	6.849
801.43	0.000
801.73	6.780
802.04	22.727
802.34	3.333
802.65	0.000
802.95	26.866
803.26	16.949
803.56	24.658
803.87	20.000
804.17	32.877
804.48	-1.754
804.78	20.833
805.09	3.448
805.39	16.216
805.70	16.901
806.00	21.951
806.30	24.096
806.61	12.329
806.91	15.385
807.22	23.333
807.52	14.943
807.83	26.389
808.13	16.867
808.43	13.483
808.74	20.000
809.04	14.706
809.35	20.000
809.65	18.571
809.95	23.288
810.26	-5.263
810.56	22.414
810.86	25.000
811.17	10.526
811.47	4.918
811.77	17.778
812.08	25.424
812.38	11.667
812.69	20.690
812.99	20.755
813.29	5.128
813.59	28.000
813.90	15.789
814.20	5.455
814.50	26.761
814.81	21.795
815.11	36.066
815.41	19.403
815.72	41.379
816.02	12.500
816.32	40.000
816.62	27.273
816.93	17.778
817.23	18.519
817.53	12.766
817.84	19.048
818.14	23.529
818.44	20.408
818.74	6.667
819.04	12.821
819.35	0.000
819.65	-11.538
819.95	1.887
820.25	6.667
820.56	21.429
820.86	15.625
821.16	2.564
821.46	16.279
821.76	-4.000
822.07	12.500
822.37	15.217
822.67	29.787
822.97	-5.405
823.27	2.500
823.57	22.449
823.88	31.111
824.18	22.500
824.48	10.000
824.78	36.000
825.08	36.364
825.38	28.889
825.69	27.660
825.99	38.889
826.29	8.571
826.59	7.692
826.89	0.000
827.19	14.000
827.49	11.765
827.79	27.083
828.09	-5.405
828.39	10.000
828.70	14.634
829.00	6.977
829.30	-10.714
829.60	35.294
829.90	21.739
830.20	-17.143
830.50	20.690
830.80	38.889
831.10	0.000
831.40	-5.882
831.70	14.286
832.00	9.677
832.30	-58.824
832.60	8.333
832.90	-46.154
833.20	-15.789
833.50	-30.000
833.80	0.000
834.10	-71.429
834.40	-11.111
834.70	21.875
835.00	-8.571
835.30	47.059
835.60	16.667
835.90	24.000
836.20	-40.909
836.50	36.000
836.80	0.000
837.10	7.407
837.40	11.111
837.70	0.000
838.00	10.714
838.30	-30.435
838.60	27.586
838.90	21.429
839.19	-34.783
839.49	-41.667
839.79	-21.739
840.09	-50.000
840.39	-25.000
840.69	25.806
840.99	-21.429
841.29	26.667
841.59	21.053
841.88	10.256
842.18	3.846
842.48	80.000
842.78	0.000
843.08	50.000
843.38	41.935
843.68	-33.333
843.97	5.882
844.27	6.250
844.57	52.632
844.87	-90.000
845.17	33.333
845.47	23.810
845.76	4.762
846.06	33.333
846.36	-11.765
846.66	34.615
846.96	-33.333
847.25	-35.294
847.55	39.130
847.85	0.000
848.15	58.824
848.44	36.364
848.74	-14.286
849.04	-25.000
849.34	37.500
849.63	4.348
849.93	400.000
850.23	-13.333
850.53	46.154
850.82	0.000
851.12	40.909
851.42	-9.091
851.71	84.615
852.01	25.000
852.31	30.769
852.61	-15.789
852.90	25.000
853.20	11.111
853.50	-111.111
853.79	23.810
854.09	4.545
854.39	-25.000
854.68	19.355
854.98	3.846
855.28	5.556
855.57	0.000
855.87	20.000
856.17	9.091
856.46	3.704
856.76	-11.111
857.05	-13.043
857.35	-16.667
857.65	15.385
857.94	42.857
858.24	40.741
858.53	43.478
858.83	35.294
859.13	58.824
859.42	17.647
859.72	92.857
860.01	5.000
860.31	22.222
860.60	30.000
860.90	-13.333
861.20	22.222
861.49	0.000
861.79	30.000
862.08	-7.692
862.38	31.250
862.67	52.941
862.97	-12.500
863.26	-33.333
863.56	50.000
863.85	36.364
864.15	-16.667
864.44	-100.000
864.74	71.429
865.03	-18.750
865.33	0.000
865.62	22.581
865.92	-9.091
866.21	26.087
866.51	14.286
866.80	80.000
867.10	50.000
867.39	-16.667
867.69	1100.000
867.98	128.571
868.27	35.294
868.57	-700.000
868.86	20.000
869.16	-14.286
869.45	8.333
869.75	118.182
870.04	28.571
870.33	-25.000
870.63	-114.286
870.92	150.000
871.22	-25.000
871.51	18.182
871.80	-500.000
872.10	-150.000
>>>>>End Processed Spectral Data<<<<<
