SpectraSuite Data File
++++++++++++++++++++++++++++++++++++
Date: Thu May 14 14:27:11 PDT 2015
User: schluterlab
Dark Spectrum Present: Yes
Reference Spectrum Present: Yes
Number of Sampled Component Spectra: 1
Spectrometers: USB2E3373
Integration Time (usec): 3000 (USB2E3373)
Spectra Averaged: 3 (USB2E3373)
Boxcar Smoothing: 0 (USB2E3373)
Correct for Electrical Dark: No (USB2E3373)
Strobe/Lamp Enabled: No (USB2E3373)
Correct for Detector Non-linearity: No (USB2E3373)
Correct for Stray Light: No (USB2E3373)
Number of Pixels in Processed Spectrum: 2048
>>>>>Begin Processed Spectral Data<<<<<
178.53	0.000
178.91	-57.143
179.29	900.000
179.67	600.000
180.04	-7.143
180.42	-140.000
180.80	-60.000
181.18	1800.000
181.56	1800.000
181.94	25.000
182.31	350.000
182.69	-33.333
183.07	450.000
183.45	-175.000
183.83	166.667
184.20	333.333
184.58	-1100.000
184.96	300.000
185.34	55.556
185.72	440.000
186.09	-100.000
186.47	-350.000
186.85	-0.000
187.23	33.333
187.61	-500.000
187.98	-280.000
188.36	-25.000
188.74	225.000
189.12	200.000
189.49	93.750
189.87	37.500
190.25	55.556
190.63	320.000
191.00	33.333
191.38	0.000
191.76	225.000
192.14	66.667
192.51	-450.000
192.89	150.000
193.27	0.000
193.65	28.571
194.02	0.000
194.40	185.714
194.78	-100.000
195.15	0.000
195.53	172.727
195.91	0.000
196.29	150.000
196.66	115.385
197.04	1200.000
197.42	171.429
197.79	650.000
198.17	75.000
198.55	0.000
198.92	88.889
199.30	100.000
199.68	109.091
200.05	121.429
200.43	350.000
200.81	42.857
201.18	0.000
201.56	33.333
201.94	0.000
202.31	-0.000
202.69	0.000
203.07	-700.000
203.44	122.222
203.82	150.000
204.19	41.667
204.57	183.333
204.95	175.000
205.32	500.000
205.70	-325.000
206.08	100.000
206.45	50.000
206.83	80.000
207.20	200.000
207.58	160.000
207.96	0.000
208.33	133.333
208.71	25.000
209.08	116.667
209.46	0.000
209.84	-33.333
210.21	-700.000
210.59	-500.000
210.96	33.333
211.34	425.000
211.71	187.500
212.09	100.000
212.46	0.000
212.84	-150.000
213.22	120.000
213.59	325.000
213.97	190.000
214.34	166.667
214.72	-66.667
215.09	-75.000
215.47	0.000
215.84	14.286
216.22	-250.000
216.59	520.000
216.97	160.000
217.34	400.000
217.72	225.000
218.09	250.000
218.47	250.000
218.84	0.000
219.22	-320.000
219.59	105.882
219.97	70.000
220.34	-350.000
220.72	177.778
221.09	153.846
221.47	100.000
221.84	70.000
222.22	0.000
222.59	0.000
222.97	175.000
223.34	260.000
223.72	600.000
224.09	175.000
224.46	50.000
224.84	340.000
225.21	171.429
225.59	-150.000
225.96	250.000
226.34	50.000
226.71	-66.667
227.08	800.000
227.46	73.333
227.83	25.000
228.21	42.105
228.58	-175.000
228.95	-250.000
229.33	58.333
229.70	70.000
230.08	89.474
230.45	-30.000
230.82	100.000
231.20	121.429
231.57	91.667
231.95	-18.182
232.32	172.727
232.69	85.000
233.07	150.000
233.44	41.176
233.81	60.000
234.19	88.889
234.56	95.455
234.93	72.414
235.31	89.474
235.68	44.444
236.05	10.000
236.43	100.000
236.80	116.000
237.17	40.741
237.55	48.485
237.92	30.000
238.29	41.935
238.67	18.182
239.04	66.667
239.41	26.190
239.79	17.391
240.16	27.778
240.53	4.348
240.91	-1.961
241.28	14.754
241.65	14.925
242.02	31.081
242.40	15.385
242.77	-1.333
243.14	7.317
243.51	5.263
243.89	19.231
244.26	20.792
244.63	7.843
245.00	14.019
245.38	13.158
245.75	2.655
246.12	15.873
246.49	5.426
246.87	15.000
247.24	12.583
247.61	17.763
247.98	7.383
248.36	8.642
248.73	4.294
249.10	6.011
249.47	14.925
249.84	15.707
250.22	10.881
250.59	8.333
250.96	10.455
251.33	8.163
251.70	11.111
252.08	8.333
252.45	11.066
252.82	9.504
253.19	6.641
253.56	11.027
253.94	6.538
254.31	9.091
254.68	16.783
255.05	11.401
255.42	5.442
255.79	8.414
256.16	6.623
256.54	8.609
256.91	8.852
257.28	9.180
257.65	5.096
258.02	6.490
258.39	9.117
258.76	11.315
259.14	7.471
259.51	6.916
259.88	11.048
260.25	8.889
260.62	9.589
260.99	10.383
261.36	9.651
261.73	7.162
262.10	7.143
262.47	6.434
262.85	12.121
263.22	7.792
263.59	6.842
263.96	7.417
264.33	6.650
264.70	8.889
265.07	8.831
265.44	11.565
265.81	5.556
266.18	7.483
266.55	7.812
266.92	6.834
267.29	7.440
267.66	7.317
268.03	9.389
268.40	7.724
268.77	5.011
269.14	5.286
269.51	6.360
269.88	7.992
270.25	8.451
270.62	7.806
270.99	8.687
271.36	9.703
271.73	7.662
272.10	9.218
272.47	8.216
272.84	7.831
273.21	6.814
273.58	10.282
273.95	8.269
274.32	6.654
274.69	7.157
275.06	8.608
275.43	6.285
275.80	7.584
276.17	6.481
276.54	6.903
276.91	6.440
277.28	8.137
277.65	5.925
278.02	7.904
278.39	6.522
278.76	6.854
279.13	7.801
279.50	7.560
279.87	7.513
280.23	4.930
280.60	8.475
280.97	6.414
281.34	5.093
281.71	6.768
282.08	5.980
282.45	5.401
282.82	7.535
283.19	7.108
283.56	6.721
283.92	8.408
284.29	7.741
284.66	7.553
285.03	4.647
285.40	8.037
285.77	6.656
286.14	7.023
286.51	6.849
286.87	6.477
287.24	6.777
287.61	6.577
287.98	6.042
288.35	6.953
288.72	6.805
289.08	6.881
289.45	7.396
289.82	6.024
290.19	7.471
290.56	7.042
290.93	5.991
291.29	7.025
291.66	6.198
292.03	5.292
292.40	7.891
292.77	6.739
293.13	7.442
293.50	6.176
293.87	6.443
294.24	7.467
294.60	7.965
294.97	5.235
295.34	8.195
295.71	6.557
296.08	7.235
296.44	7.966
296.81	7.430
297.18	7.721
297.55	7.075
297.91	7.236
298.28	6.161
298.65	7.848
299.02	6.612
299.38	6.407
299.75	7.243
300.12	5.671
300.48	6.221
300.85	6.187
301.22	7.159
301.59	6.507
301.95	7.684
302.32	8.333
302.69	6.791
303.05	8.052
303.42	6.763
303.79	7.292
304.15	7.361
304.52	6.765
304.89	6.283
305.25	7.557
305.62	5.747
305.99	7.010
306.35	6.552
306.72	8.066
307.09	6.904
307.45	6.418
307.82	7.669
308.19	7.669
308.55	8.293
308.92	7.108
309.29	8.333
309.65	7.602
310.02	7.327
310.38	7.776
310.75	7.282
311.12	9.396
311.48	8.211
311.85	8.357
312.22	8.065
312.58	8.357
312.95	7.839
313.31	9.214
313.68	10.073
314.05	9.575
314.41	10.018
314.78	9.173
315.14	10.163
315.51	11.634
315.87	10.891
316.24	10.137
316.61	11.812
316.97	9.955
317.34	11.376
317.70	11.528
318.07	11.640
318.43	11.990
318.80	13.545
319.16	12.790
319.53	11.311
319.89	12.182
320.26	12.900
320.62	11.791
320.99	13.666
321.35	13.586
321.72	14.884
322.08	13.616
322.45	14.815
322.81	15.975
323.18	13.894
323.54	14.914
323.91	16.103
324.27	15.232
324.64	17.212
325.00	16.335
325.37	17.035
325.73	17.190
326.10	18.086
326.46	18.078
326.83	18.655
327.19	17.874
327.56	19.684
327.92	18.017
328.29	18.226
328.65	17.755
329.01	20.389
329.38	19.377
329.74	20.890
330.11	20.890
330.47	21.146
330.84	22.653
331.20	21.667
331.56	22.530
331.93	24.603
332.29	23.220
332.66	23.422
333.02	22.948
333.38	22.483
333.75	22.559
334.11	24.020
334.48	23.102
334.84	25.404
335.20	22.250
335.57	24.115
335.93	23.636
336.29	23.544
336.66	23.717
337.02	22.742
337.38	23.724
337.75	25.207
338.11	24.474
338.47	24.566
338.84	22.843
339.20	23.252
339.56	24.217
339.93	24.713
340.29	23.994
340.65	23.520
341.02	23.304
341.38	24.980
341.74	24.778
342.11	24.296
342.47	22.637
342.83	23.671
343.20	23.630
343.56	24.138
343.92	22.978
344.28	23.672
344.65	24.651
345.01	23.401
345.37	24.184
345.73	23.071
346.10	23.635
346.46	23.497
346.82	23.745
347.19	23.988
347.55	23.748
347.91	23.328
348.27	23.065
348.63	23.153
349.00	22.521
349.36	22.900
349.72	22.098
350.08	23.848
350.45	22.890
350.81	22.775
351.17	22.256
351.53	23.199
351.89	23.842
352.26	21.343
352.62	22.836
352.98	23.435
353.34	21.882
353.70	23.267
354.07	22.727
354.43	22.703
354.79	21.466
355.15	22.443
355.51	22.880
355.87	21.915
356.24	23.194
356.60	22.395
356.96	21.868
357.32	21.636
357.68	22.255
358.04	22.455
358.40	22.015
358.77	22.953
359.13	22.526
359.49	21.710
359.85	22.770
360.21	20.732
360.57	21.752
360.93	22.426
361.29	22.456
361.66	21.579
362.02	23.312
362.38	22.839
362.74	21.788
363.10	22.627
363.46	21.884
363.82	22.088
364.18	22.942
364.54	22.476
364.90	22.676
365.26	22.621
365.62	23.867
365.98	21.511
366.35	22.752
366.71	22.925
367.07	21.854
367.43	22.784
367.79	23.822
368.15	23.478
368.51	22.936
368.87	22.600
369.23	22.533
369.59	22.883
369.95	22.786
370.31	23.768
370.67	22.765
371.03	22.576
371.39	22.901
371.75	23.315
372.11	21.748
372.47	23.561
372.83	23.233
373.19	24.016
373.55	23.509
373.91	21.404
374.27	23.803
374.63	23.004
374.99	23.806
375.35	23.896
375.71	23.484
376.07	23.564
376.42	23.678
376.78	24.177
377.14	22.832
377.50	23.466
377.86	24.384
378.22	23.533
378.58	24.019
378.94	23.768
379.30	23.199
379.66	23.574
380.02	24.755
380.38	24.251
380.74	23.944
381.09	24.274
381.45	25.000
381.81	24.180
382.17	24.941
382.53	24.035
382.89	24.492
383.25	24.736
383.61	23.785
383.97	23.969
384.32	25.538
384.68	23.840
385.04	25.564
385.40	25.162
385.76	24.971
386.12	24.417
386.48	24.647
386.83	25.447
387.19	24.276
387.55	25.528
387.91	25.114
388.27	25.577
388.62	25.315
388.98	24.986
389.34	25.280
389.70	25.567
390.06	24.867
390.42	25.422
390.77	25.828
391.13	24.120
391.49	25.725
391.85	25.030
392.20	25.860
392.56	25.517
392.92	25.845
393.28	25.871
393.64	24.358
393.99	25.683
394.35	25.292
394.71	25.928
395.07	25.269
395.42	25.414
395.78	24.802
396.14	25.193
396.50	25.178
396.85	25.760
397.21	24.675
397.57	25.265
397.92	24.914
398.28	24.661
398.64	24.371
399.00	24.136
399.35	24.921
399.71	24.402
400.07	24.031
400.42	24.098
400.78	24.363
401.14	24.530
401.49	24.559
401.85	24.884
402.21	25.261
402.57	25.176
402.92	23.641
403.28	23.419
403.63	24.463
403.99	23.634
404.35	23.081
404.70	24.136
405.06	23.152
405.42	23.478
405.77	24.100
406.13	23.339
406.49	23.874
406.84	24.321
407.20	23.477
407.55	23.864
407.91	22.816
408.27	24.146
408.62	23.618
408.98	23.564
409.34	22.815
409.69	23.424
410.05	24.033
410.40	23.144
410.76	23.331
411.11	23.144
411.47	23.956
411.83	23.280
412.18	23.373
412.54	22.940
412.89	23.108
413.25	22.968
413.60	22.803
413.96	23.019
414.31	22.606
414.67	23.137
415.03	22.523
415.38	23.644
415.74	23.091
416.09	22.887
416.45	22.354
416.80	23.745
417.16	23.691
417.51	22.852
417.87	23.544
418.22	22.994
418.58	23.854
418.93	23.632
419.29	23.798
419.64	23.049
420.00	23.383
420.35	23.582
420.71	24.411
421.06	23.634
421.42	23.968
421.77	23.263
422.12	23.362
422.48	23.502
422.83	24.261
423.19	24.191
423.54	24.060
423.90	23.909
424.25	24.267
424.61	23.823
424.96	24.382
425.31	24.098
425.67	25.067
426.02	25.235
426.38	24.799
426.73	24.833
427.09	26.528
427.44	24.959
427.79	25.373
428.15	25.171
428.50	24.775
428.85	25.201
429.21	26.543
429.56	24.926
429.92	25.307
430.27	25.687
430.62	25.403
430.98	25.135
431.33	25.611
431.68	25.000
432.04	25.749
432.39	26.406
432.74	26.427
433.10	26.663
433.45	26.756
433.80	26.878
434.16	27.066
434.51	26.516
434.86	26.819
435.22	27.311
435.57	26.769
435.92	26.934
436.28	26.792
436.63	27.526
436.98	26.999
437.34	27.396
437.69	27.573
438.04	27.869
438.39	28.374
438.75	27.117
439.10	27.378
439.45	26.551
439.81	27.345
440.16	27.936
440.51	28.149
440.86	27.904
441.22	28.081
441.57	28.354
441.92	28.128
442.27	29.444
442.63	27.919
442.98	28.709
443.33	28.722
443.68	29.534
444.03	29.915
444.39	29.542
444.74	29.658
445.09	29.650
445.44	29.505
445.79	29.837
446.15	29.702
446.50	28.786
446.85	30.058
447.20	29.449
447.55	30.073
447.91	30.105
448.26	30.285
448.61	29.756
448.96	30.848
449.31	30.753
449.66	29.956
450.02	30.274
450.37	30.900
450.72	30.194
451.07	30.068
451.42	30.040
451.77	30.739
452.12	30.756
452.47	31.551
452.83	31.137
453.18	31.057
453.53	30.787
453.88	30.536
454.23	30.678
454.58	31.631
454.93	31.796
455.28	31.186
455.63	31.438
455.98	31.229
456.34	31.095
456.69	31.335
457.04	31.383
457.39	32.373
457.74	32.047
458.09	30.862
458.44	32.328
458.79	31.305
459.14	31.883
459.49	32.258
459.84	32.004
460.19	31.483
460.54	32.595
460.89	32.875
461.24	31.839
461.59	31.876
461.94	31.831
462.29	33.371
462.64	32.106
462.99	32.894
463.34	32.966
463.69	31.946
464.04	34.130
464.39	32.343
464.74	33.067
465.09	32.526
465.44	32.296
465.79	33.263
466.14	31.892
466.49	32.947
466.84	33.278
467.19	32.775
467.54	33.314
467.89	32.126
468.24	32.853
468.59	32.426
468.94	31.643
469.29	32.933
469.64	33.884
469.99	32.951
470.34	32.797
470.68	33.493
471.03	33.661
471.38	33.355
471.73	32.770
472.08	33.629
472.43	33.654
472.78	34.068
473.13	33.312
473.48	33.414
473.83	33.662
474.17	34.408
474.52	33.975
474.87	34.164
475.22	34.366
475.57	33.593
475.92	33.897
476.27	33.600
476.61	33.853
476.96	33.889
477.31	33.366
477.66	34.470
478.01	34.215
478.36	34.397
478.70	33.842
479.05	34.509
479.40	34.650
479.75	34.438
480.10	33.918
480.45	34.230
480.79	34.195
481.14	34.099
481.49	34.439
481.84	33.986
482.19	34.022
482.53	34.237
482.88	34.958
483.23	35.127
483.58	34.716
483.92	33.998
484.27	34.589
484.62	34.488
484.97	33.981
485.31	34.671
485.66	32.973
486.01	32.410
486.36	32.206
486.70	31.920
487.05	32.666
487.40	33.388
487.75	34.300
488.09	34.207
488.44	33.631
488.79	35.582
489.13	34.902
489.48	34.718
489.83	35.332
490.17	34.589
490.52	34.195
490.87	35.237
491.22	35.832
491.56	35.154
491.91	35.805
492.26	35.006
492.60	34.849
492.95	35.410
493.30	35.141
493.64	35.304
493.99	35.482
494.34	35.017
494.68	35.075
495.03	35.507
495.37	36.218
495.72	36.689
496.07	35.583
496.41	34.964
496.76	34.862
497.11	35.456
497.45	35.520
497.80	35.495
498.14	35.283
498.49	35.708
498.84	36.426
499.18	36.347
499.53	36.054
499.87	36.264
500.22	35.218
500.56	35.762
500.91	35.927
501.26	36.273
501.60	36.014
501.95	36.214
502.29	36.244
502.64	36.073
502.98	35.160
503.33	35.292
503.67	35.063
504.02	35.464
504.36	36.506
504.71	36.197
505.06	35.607
505.40	36.197
505.75	36.430
506.09	37.339
506.44	37.326
506.78	37.339
507.13	36.653
507.47	37.186
507.82	36.695
508.16	36.711
508.51	36.474
508.85	36.656
509.19	35.765
509.54	37.416
509.88	36.328
510.23	37.542
510.57	37.699
510.92	36.865
511.26	36.989
511.61	35.297
511.95	36.701
512.30	36.780
512.64	37.531
512.98	36.918
513.33	37.601
513.67	37.838
514.02	38.273
514.36	37.391
514.70	38.125
515.05	38.217
515.39	37.375
515.74	38.812
516.08	38.457
516.42	37.572
516.77	37.592
517.11	37.494
517.46	37.116
517.80	37.787
518.14	38.030
518.49	37.690
518.83	37.520
519.17	37.749
519.52	37.264
519.86	37.434
520.20	37.380
520.55	37.897
520.89	38.570
521.23	38.079
521.58	38.475
521.92	38.527
522.26	37.973
522.61	38.252
522.95	38.697
523.29	38.506
523.64	38.117
523.98	39.875
524.32	38.223
524.66	38.589
525.01	37.373
525.35	38.196
525.69	38.109
526.04	37.428
526.38	38.563
526.72	38.293
527.06	38.065
527.41	39.067
527.75	38.242
528.09	38.902
528.43	38.247
528.78	38.035
529.12	37.385
529.46	37.774
529.80	38.558
530.15	37.391
530.49	37.960
530.83	38.017
531.17	37.575
531.51	38.628
531.86	37.981
532.20	38.598
532.54	38.001
532.88	38.364
533.22	38.067
533.57	38.777
533.91	37.654
534.25	36.800
534.59	37.644
534.93	36.729
535.27	38.028
535.62	38.545
535.96	38.757
536.30	37.015
536.64	39.520
536.98	38.130
537.32	37.901
537.66	39.738
538.01	37.160
538.35	38.429
538.69	37.139
539.03	37.155
539.37	37.633
539.71	38.198
540.05	38.070
540.39	37.836
540.73	37.341
541.07	37.400
541.42	36.858
541.76	36.773
542.10	37.334
542.44	36.784
542.78	38.504
543.12	37.783
543.46	37.118
543.80	38.010
544.14	38.121
544.48	38.239
544.82	38.659
545.16	37.150
545.50	37.448
545.84	37.171
546.18	37.840
546.52	37.516
546.86	37.673
547.20	39.059
547.54	37.640
547.88	37.432
548.22	36.608
548.56	37.449
548.90	37.373
549.24	37.143
549.58	38.486
549.92	37.819
550.26	37.605
550.60	37.907
550.94	38.098
551.28	38.086
551.62	39.218
551.96	36.505
552.30	37.986
552.64	37.710
552.98	37.617
553.32	39.100
553.66	38.071
554.00	38.840
554.34	38.932
554.68	37.637
555.02	38.371
555.36	39.579
555.69	37.284
556.03	37.011
556.37	38.298
556.71	37.857
557.05	38.147
557.39	38.023
557.73	38.177
558.07	38.543
558.41	39.468
558.75	38.134
559.08	39.388
559.42	37.997
559.76	38.331
560.10	38.647
560.44	37.995
560.78	38.813
561.12	37.685
561.45	37.530
561.79	37.668
562.13	39.556
562.47	37.115
562.81	38.354
563.15	38.384
563.48	37.663
563.82	37.001
564.16	38.340
564.50	37.843
564.84	37.050
565.17	37.471
565.51	36.306
565.85	36.817
566.19	36.751
566.52	37.332
566.86	37.465
567.20	36.324
567.54	36.644
567.88	37.717
568.21	36.759
568.55	36.019
568.89	36.950
569.23	35.615
569.56	34.623
569.90	34.498
570.24	34.874
570.57	34.926
570.91	34.201
571.25	34.191
571.59	34.066
571.92	33.102
572.26	33.669
572.60	33.797
572.93	33.259
573.27	34.026
573.61	33.642
573.95	33.333
574.28	33.030
574.62	32.947
574.96	32.444
575.29	32.937
575.63	32.663
575.97	33.892
576.30	33.062
576.64	32.880
576.98	33.144
577.31	33.158
577.65	32.872
577.98	32.869
578.32	32.359
578.66	32.567
578.99	32.378
579.33	33.059
579.67	33.341
580.00	32.951
580.34	33.333
580.67	33.032
581.01	32.929
581.35	32.535
581.68	33.079
582.02	32.443
582.35	32.884
582.69	33.014
583.02	32.648
583.36	33.005
583.70	33.015
584.03	33.237
584.37	33.597
584.70	33.203
585.04	33.039
585.37	33.495
585.71	32.816
586.04	32.827
586.38	33.194
586.72	33.643
587.05	33.308
587.39	33.283
587.72	33.780
588.06	33.366
588.39	33.981
588.73	33.519
589.06	33.719
589.40	33.805
589.73	34.351
590.07	35.146
590.40	34.719
590.73	35.631
591.07	35.257
591.40	34.642
591.74	34.658
592.07	35.039
592.41	34.740
592.74	34.576
593.08	34.268
593.41	33.946
593.75	33.477
594.08	33.172
594.41	34.263
594.75	34.175
595.08	33.950
595.42	34.188
595.75	33.904
596.09	34.361
596.42	34.181
596.75	34.581
597.09	35.152
597.42	35.320
597.75	34.692
598.09	34.405
598.42	35.143
598.76	34.620
599.09	33.998
599.42	33.121
599.76	33.575
600.09	33.934
600.42	33.867
600.76	33.620
601.09	34.152
601.42	33.574
601.76	34.276
602.09	34.167
602.42	34.169
602.76	33.875
603.09	34.361
603.42	34.393
603.76	33.369
604.09	34.457
604.42	34.239
604.76	33.486
605.09	34.503
605.42	34.250
605.75	33.885
606.09	33.893
606.42	34.112
606.75	33.171
607.09	33.180
607.42	33.064
607.75	34.271
608.08	34.570
608.42	33.454
608.75	34.453
609.08	34.720
609.41	34.627
609.75	35.179
610.08	35.004
610.41	33.475
610.74	33.403
611.07	34.813
611.41	34.843
611.74	34.873
612.07	35.344
612.40	34.125
612.73	35.403
613.07	34.719
613.40	35.322
613.73	34.377
614.06	35.083
614.39	34.159
614.72	34.207
615.06	34.023
615.39	34.461
615.72	34.739
616.05	34.774
616.38	35.166
616.71	34.848
617.05	35.250
617.38	35.152
617.71	35.205
618.04	33.513
618.37	35.355
618.70	35.916
619.03	35.245
619.36	35.573
619.69	36.323
620.03	35.593
620.36	35.460
620.69	35.040
621.02	36.417
621.35	37.663
621.68	37.383
622.01	36.868
622.34	35.635
622.67	36.426
623.00	35.493
623.33	36.961
623.66	36.187
623.99	35.616
624.32	35.932
624.65	35.264
624.99	37.191
625.32	36.839
625.65	35.536
625.98	34.780
626.31	36.782
626.64	36.190
626.97	35.784
627.30	37.130
627.63	36.084
627.96	37.312
628.29	36.732
628.62	36.608
628.95	38.913
629.28	37.213
629.61	37.121
629.94	36.485
630.26	35.932
630.59	36.442
630.92	37.056
631.25	39.445
631.58	38.512
631.91	38.144
632.24	38.905
632.57	38.899
632.90	37.111
633.23	38.163
633.56	38.163
633.89	37.913
634.22	38.877
634.55	38.309
634.88	38.312
635.20	39.505
635.53	39.209
635.86	37.378
636.19	39.979
636.52	38.608
636.85	36.466
637.18	37.526
637.51	37.204
637.83	37.984
638.16	39.862
638.49	38.263
638.82	37.768
639.15	38.488
639.48	40.416
639.81	37.875
640.13	39.812
640.46	36.606
640.79	37.745
641.12	39.379
641.45	38.394
641.77	40.051
642.10	40.814
642.43	39.495
642.76	38.347
643.09	37.534
643.41	39.356
643.74	38.759
644.07	38.483
644.40	37.765
644.73	38.607
645.05	38.620
645.38	40.000
645.71	41.056
646.04	40.459
646.36	41.168
646.69	39.877
647.02	41.896
647.35	41.069
647.67	39.291
648.00	40.764
648.33	41.742
648.66	39.230
648.98	37.959
649.31	37.077
649.64	40.106
649.96	36.340
650.29	37.691
650.62	39.180
650.94	37.087
651.27	37.874
651.60	40.351
651.92	36.930
652.25	38.350
652.58	37.414
652.90	36.919
653.23	38.169
653.56	37.090
653.88	38.904
654.21	39.296
654.54	36.561
654.86	38.102
655.19	34.379
655.52	31.285
655.84	26.241
656.17	32.166
656.49	45.378
656.82	51.158
657.15	40.078
657.47	30.133
657.80	22.511
658.13	18.124
658.45	24.223
658.78	30.045
659.10	30.281
659.43	30.730
659.75	31.617
660.08	32.885
660.41	35.567
660.73	36.716
661.06	36.711
661.38	38.596
661.71	39.655
662.03	37.213
662.36	37.030
662.68	40.150
663.01	39.115
663.33	38.563
663.66	41.209
663.98	39.615
664.31	39.962
664.63	39.306
664.96	42.105
665.28	35.572
665.61	41.259
665.93	36.250
666.26	42.115
666.58	38.192
666.91	40.187
667.23	40.000
667.56	42.604
667.88	39.600
668.21	38.086
668.53	39.575
668.86	39.096
669.18	37.271
669.50	39.364
669.83	37.400
670.15	39.567
670.48	40.278
670.80	35.946
671.13	37.807
671.45	38.976
671.77	38.230
672.10	35.167
672.42	35.113
672.75	38.095
673.07	34.925
673.39	33.590
673.72	38.758
674.04	38.448
674.37	35.599
674.69	36.684
675.01	37.524
675.34	36.069
675.66	35.206
675.98	38.993
676.31	37.695
676.63	38.403
676.95	37.931
677.28	36.492
677.60	38.976
677.92	39.923
678.25	34.369
678.57	38.612
678.89	35.324
679.22	35.192
679.54	36.581
679.86	32.881
680.18	33.997
680.51	33.648
680.83	35.679
681.15	35.000
681.48	35.233
681.80	36.960
682.12	35.839
682.44	32.387
682.77	36.170
683.09	35.985
683.41	38.178
683.73	35.863
684.06	34.133
684.38	33.274
684.70	36.086
685.02	34.940
685.34	33.111
685.67	34.227
685.99	33.436
686.31	32.413
686.63	33.649
686.96	35.016
687.28	32.899
687.60	33.502
687.92	32.476
688.24	34.725
688.56	32.586
688.89	35.572
689.21	36.595
689.53	33.922
689.85	33.925
690.17	32.778
690.49	36.454
690.82	35.644
691.14	35.830
691.46	35.755
691.78	33.886
692.10	31.927
692.42	34.286
692.74	34.301
693.06	30.556
693.39	32.638
693.71	34.398
694.03	33.643
694.35	34.286
694.67	33.676
694.99	34.255
695.31	34.437
695.63	35.065
695.95	34.161
696.27	34.505
696.59	35.177
696.91	34.009
697.23	37.802
697.56	33.605
697.88	31.061
698.20	33.710
698.52	36.553
698.84	35.135
699.16	34.082
699.48	34.310
699.80	34.681
700.12	34.061
700.44	35.484
700.76	35.629
701.08	36.804
701.40	34.974
701.72	35.075
702.04	37.166
702.36	32.984
702.68	31.785
703.00	34.719
703.32	34.483
703.64	30.318
703.96	33.890
704.28	32.924
704.60	37.722
704.91	38.776
705.23	36.986
705.55	34.262
705.87	38.182
706.19	39.877
706.51	35.843
706.83	37.176
707.15	34.921
707.47	31.542
707.79	33.624
708.11	30.932
708.43	29.677
708.74	31.473
709.06	30.858
709.38	34.742
709.70	37.469
710.02	33.592
710.34	33.777
710.66	34.916
710.98	32.787
711.29	30.769
711.61	33.616
711.93	33.333
712.25	31.622
712.57	37.758
712.89	37.647
713.20	34.320
713.52	33.526
713.84	35.655
714.16	35.789
714.48	31.701
714.80	39.740
715.11	29.134
715.43	30.504
715.75	31.579
716.07	32.873
716.39	36.885
716.70	33.434
717.02	36.066
717.34	38.676
717.66	35.235
717.97	29.795
718.29	30.241
718.61	33.224
718.93	33.657
719.24	29.814
719.56	37.423
719.88	32.733
720.20	33.871
720.51	34.161
720.83	32.188
721.15	33.224
721.46	34.247
721.78	32.000
722.10	29.773
722.42	35.906
722.73	32.581
723.05	36.842
723.37	35.764
723.68	34.767
724.00	35.018
724.32	33.099
724.63	35.664
724.95	35.816
725.27	33.798
725.58	30.389
725.90	35.862
726.22	32.288
726.53	35.714
726.85	33.333
727.16	34.139
727.48	32.416
727.80	33.444
728.11	30.742
728.43	37.037
728.74	32.776
729.06	36.424
729.38	31.818
729.69	37.919
730.01	29.762
730.32	30.303
730.64	30.818
730.96	27.329
731.27	30.726
731.59	31.868
731.90	31.429
732.22	28.646
732.53	28.453
732.85	32.857
733.16	27.859
733.48	31.707
733.80	30.641
734.11	30.484
734.43	32.432
734.74	31.899
735.06	27.387
735.37	28.378
735.69	28.108
736.00	30.508
736.32	30.189
736.63	31.667
736.95	28.161
737.26	30.303
737.58	27.879
737.89	31.765
738.21	28.746
738.52	29.836
738.83	33.447
739.15	29.078
739.46	29.252
739.78	29.141
740.09	28.653
740.41	33.528
740.72	29.000
741.04	33.333
741.35	29.825
741.66	31.373
741.98	34.016
742.29	33.891
742.61	32.456
742.92	30.000
743.23	31.047
743.55	33.333
743.86	37.200
744.18	27.686
744.49	32.911
744.80	34.568
745.12	33.755
745.43	31.301
745.74	31.897
746.06	37.288
746.37	30.380
746.68	37.398
747.00	34.583
747.31	30.043
747.62	33.846
747.94	32.794
748.25	30.522
748.56	31.020
748.88	32.906
749.19	31.897
749.50	30.736
749.82	28.112
750.13	34.164
750.44	29.667
750.75	29.231
751.07	30.154
751.38	32.177
751.69	28.435
752.01	31.715
752.32	31.046
752.63	27.891
752.94	30.450
753.26	28.625
753.57	28.148
753.88	31.461
754.19	28.296
754.51	26.688
754.82	28.617
755.13	33.443
755.44	25.597
755.75	30.921
756.07	28.358
756.38	30.503
756.69	32.530
757.00	25.208
757.31	27.322
757.63	24.041
757.94	23.239
758.25	25.959
758.56	25.272
758.87	24.318
759.18	24.533
759.50	28.612
759.81	28.852
760.12	27.224
760.43	28.385
760.74	27.833
761.05	26.250
761.36	24.819
761.67	27.919
761.99	27.838
762.30	27.134
762.61	27.393
762.92	30.597
763.23	28.464
763.54	28.777
763.85	27.835
764.16	32.660
764.47	27.113
764.78	26.518
765.10	28.446
765.41	28.462
765.72	25.397
766.03	26.836
766.34	25.392
766.65	27.526
766.96	27.888
767.27	32.258
767.58	29.353
767.89	34.615
768.20	31.455
768.51	27.315
768.82	28.112
769.13	27.273
769.44	21.154
769.75	28.881
770.06	23.462
770.37	35.433
770.68	20.851
770.99	26.316
771.30	31.111
771.61	26.236
771.92	27.778
772.23	36.437
772.54	24.537
772.85	35.023
773.16	31.905
773.47	31.746
773.78	26.486
774.09	30.682
774.39	35.000
774.70	32.240
775.01	29.268
775.32	30.588
775.63	36.196
775.94	31.210
776.25	34.839
776.56	33.333
776.87	33.333
777.18	36.552
777.48	32.867
777.79	33.108
778.10	29.412
778.41	32.639
778.72	33.793
779.03	36.420
779.34	35.152
779.65	27.461
779.95	31.111
780.26	27.273
780.57	31.613
780.88	36.957
781.19	29.677
781.50	35.882
781.80	33.871
782.11	36.508
782.42	21.212
782.73	30.539
783.04	25.698
783.34	28.485
783.65	26.797
783.96	22.981
784.27	27.976
784.57	37.086
784.88	34.286
785.19	33.071
785.50	29.921
785.81	29.323
786.11	28.462
786.42	24.460
786.73	28.777
787.04	31.579
787.34	29.508
787.65	33.600
787.96	32.090
788.26	33.566
788.57	38.462
788.88	23.026
789.19	36.601
789.49	30.822
789.80	37.589
790.11	33.858
790.41	34.375
790.72	33.051
791.03	31.068
791.33	27.826
791.64	42.982
791.95	25.000
792.25	34.286
792.56	39.286
792.87	36.458
793.17	30.357
793.48	22.917
793.79	33.735
794.09	30.275
794.40	36.697
794.70	28.571
795.01	22.727
795.32	27.397
795.62	31.690
795.93	26.515
796.23	31.148
796.54	38.393
796.85	38.298
797.15	39.130
797.46	26.027
797.76	30.000
798.07	35.870
798.37	24.742
798.68	24.675
798.99	37.931
799.29	35.955
799.60	31.915
799.90	43.373
800.21	32.308
800.51	37.313
800.82	42.647
801.12	12.329
801.43	25.000
801.73	37.288
802.04	37.879
802.34	11.667
802.65	37.288
802.95	32.836
803.26	33.898
803.56	31.507
803.87	44.286
804.17	43.836
804.48	40.351
804.78	36.111
805.09	15.517
805.39	48.649
805.70	39.437
806.00	40.244
806.30	44.578
806.61	30.137
806.91	34.615
807.22	32.222
807.52	29.885
807.83	52.778
808.13	36.145
808.43	29.213
808.74	35.000
809.04	27.941
809.35	37.333
809.65	35.714
809.95	32.877
810.26	26.316
810.56	43.103
810.86	38.235
811.17	42.105
811.47	24.590
811.77	31.111
812.08	40.678
812.38	48.333
812.69	55.172
812.99	30.189
813.29	23.077
813.59	44.000
813.90	35.088
814.20	47.273
814.50	36.620
814.81	32.051
815.11	37.705
815.41	23.881
815.72	39.655
816.02	50.000
816.32	71.111
816.62	34.091
816.93	26.667
817.23	48.148
817.53	21.277
817.84	45.238
818.14	61.765
818.44	42.857
818.74	53.333
819.04	48.718
819.35	34.286
819.65	57.692
819.95	37.736
820.25	57.778
820.56	38.095
820.86	50.000
821.16	28.205
821.46	30.233
821.76	12.000
822.07	35.714
822.37	34.783
822.67	21.277
822.97	10.811
823.27	47.500
823.57	59.184
823.88	60.000
824.18	57.500
824.48	56.667
824.78	8.000
825.08	48.485
825.38	57.778
825.69	46.809
825.99	77.778
826.29	22.857
826.59	64.103
826.89	41.860
827.19	34.000
827.49	44.118
827.79	33.333
828.09	32.432
828.39	33.333
828.70	36.585
829.00	58.140
829.30	46.429
829.60	64.706
829.90	39.130
830.20	57.143
830.50	44.828
830.80	38.889
831.10	84.615
831.40	58.824
831.70	71.429
832.00	64.516
832.30	64.706
832.60	41.667
832.90	76.923
833.20	89.474
833.50	65.000
833.80	52.632
834.10	66.667
834.40	72.222
834.70	78.125
835.00	34.286
835.30	52.941
835.60	43.333
835.90	32.000
836.20	36.364
836.50	56.000
836.80	24.242
837.10	22.222
837.40	51.852
837.70	6.250
838.00	78.571
838.30	17.391
838.60	68.966
838.90	28.571
839.19	-13.043
839.49	0.000
839.79	39.130
840.09	37.500
840.39	80.000
840.69	70.968
840.99	46.429
841.29	40.000
841.59	57.895
841.88	48.718
842.18	69.231
842.48	70.000
842.78	45.000
843.08	96.667
843.38	93.548
843.68	66.667
843.97	67.647
844.27	68.750
844.57	105.263
844.87	0.000
845.17	86.667
845.47	66.667
845.76	33.333
846.06	22.222
846.36	35.294
846.66	80.769
846.96	73.333
847.25	64.706
847.55	100.000
847.85	55.000
848.15	88.235
848.44	63.636
848.74	76.190
849.04	41.667
849.34	75.000
849.63	73.913
849.93	-200.000
850.23	80.000
850.53	76.923
850.82	172.727
851.12	68.182
851.42	145.455
851.71	176.923
852.01	55.000
852.31	130.769
852.61	52.632
852.90	125.000
853.20	44.444
853.50	66.667
853.79	42.857
854.09	45.455
854.39	-25.000
854.68	45.161
854.98	42.308
855.28	11.111
855.57	50.000
855.87	96.000
856.17	59.091
856.46	48.148
856.76	77.778
857.05	30.435
857.35	62.500
857.65	146.154
857.94	57.143
858.24	70.370
858.53	95.652
858.83	88.235
859.13	135.294
859.42	88.235
859.72	92.857
860.01	55.000
860.31	200.000
860.60	140.000
860.90	80.000
861.20	66.667
861.49	61.538
861.79	60.000
862.08	84.615
862.38	81.250
862.67	129.412
862.97	50.000
863.26	66.667
863.56	210.000
863.85	81.818
864.15	50.000
864.44	333.333
864.74	-7.143
865.03	68.750
865.33	40.000
865.62	64.516
865.92	95.455
866.21	47.826
866.51	64.286
866.80	260.000
867.10	91.667
867.39	33.333
867.69	-200.000
867.98	100.000
868.27	111.765
868.57	300.000
868.86	80.000
869.16	95.238
869.45	33.333
869.75	172.727
870.04	100.000
870.33	83.333
870.63	0.000
870.92	350.000
871.22	-75.000
871.51	54.545
871.80	-200.000
872.10	550.000
>>>>>End Processed Spectral Data<<<<<
