SpectraSuite Data File
++++++++++++++++++++++++++++++++++++
Date: Thu May 14 14:41:04 PDT 2015
User: schluterlab
Dark Spectrum Present: Yes
Reference Spectrum Present: Yes
Number of Sampled Component Spectra: 1
Spectrometers: USB2E3373
Integration Time (usec): 3000 (USB2E3373)
Spectra Averaged: 3 (USB2E3373)
Boxcar Smoothing: 0 (USB2E3373)
Correct for Electrical Dark: No (USB2E3373)
Strobe/Lamp Enabled: No (USB2E3373)
Correct for Detector Non-linearity: No (USB2E3373)
Correct for Stray Light: No (USB2E3373)
Number of Pixels in Processed Spectrum: 2048
>>>>>Begin Processed Spectral Data<<<<<
178.53	0.000
178.91	-100.000
179.29	-100.000
179.67	600.000
180.04	71.429
180.42	-20.000
180.80	-60.000
181.18	800.000
181.56	1400.000
181.94	-175.000
182.31	225.000
182.69	-333.333
183.07	500.000
183.45	-175.000
183.83	100.000
184.20	166.667
184.58	-400.000
184.96	125.000
185.34	66.667
185.72	160.000
186.09	66.667
186.47	-350.000
186.85	-20.000
187.23	33.333
187.61	1100.000
187.98	-200.000
188.36	-175.000
188.74	25.000
189.12	266.667
189.49	125.000
189.87	62.500
190.25	144.444
190.63	180.000
191.00	33.333
191.38	0.000
191.76	200.000
192.14	116.667
192.51	-250.000
192.89	166.667
193.27	0.000
193.65	157.143
194.02	600.000
194.40	85.714
194.78	-42.857
195.15	0.000
195.53	172.727
195.91	0.000
196.29	350.000
196.66	107.692
197.04	-400.000
197.42	0.000
197.79	850.000
198.17	50.000
198.55	85.714
198.92	33.333
199.30	175.000
199.68	181.818
200.05	42.857
200.43	150.000
200.81	-57.143
201.18	0.000
201.56	33.333
201.94	0.000
202.31	-200.000
202.69	200.000
203.07	-2100.000
203.44	133.333
203.82	125.000
204.19	75.000
204.57	166.667
204.95	187.500
205.32	300.000
205.70	-375.000
206.08	333.333
206.45	366.667
206.83	-80.000
207.20	133.333
207.58	40.000
207.96	116.667
208.33	266.667
208.71	-58.333
209.08	283.333
209.46	0.000
209.84	-83.333
210.21	-850.000
210.59	-300.000
210.96	-0.000
211.34	450.000
211.71	87.500
212.09	500.000
212.46	0.000
212.84	-0.000
213.22	20.000
213.59	275.000
213.97	80.000
214.34	333.333
214.72	-50.000
215.09	225.000
215.47	0.000
215.84	57.143
216.22	150.000
216.59	320.000
216.97	120.000
217.34	125.000
217.72	87.500
218.09	-75.000
218.47	125.000
218.84	0.000
219.22	-20.000
219.59	64.706
219.97	80.000
220.34	-100.000
220.72	177.778
221.09	115.385
221.47	366.667
221.84	150.000
222.22	71.429
222.59	0.000
222.97	187.500
223.34	140.000
223.72	400.000
224.09	100.000
224.46	175.000
224.84	280.000
225.21	171.429
225.59	50.000
225.96	50.000
226.34	53.846
226.71	150.000
227.08	450.000
227.46	80.000
227.83	125.000
228.21	15.789
228.58	-137.500
228.95	-150.000
229.33	66.667
229.70	100.000
230.08	136.842
230.45	-80.000
230.82	133.333
231.20	35.714
231.57	125.000
231.95	109.091
232.32	136.364
232.69	115.000
233.07	150.000
233.44	23.529
233.81	30.000
234.19	116.667
234.56	59.091
234.93	75.862
235.31	57.895
235.68	38.889
236.05	50.000
236.43	92.308
236.80	64.000
237.17	85.185
237.55	60.606
237.92	-130.000
238.29	3.226
238.67	18.182
239.04	52.778
239.41	42.857
239.79	26.087
240.16	38.889
240.53	52.174
240.91	27.451
241.28	21.311
241.65	37.313
242.02	36.486
242.40	26.154
242.77	18.667
243.14	12.195
243.51	22.368
243.89	23.077
244.26	25.743
244.63	27.451
245.00	27.103
245.38	21.930
245.75	16.814
246.12	20.635
246.49	12.403
246.87	18.571
247.24	19.868
247.61	26.974
247.98	21.477
248.36	25.926
248.73	19.632
249.10	23.497
249.47	22.886
249.84	19.895
250.22	17.098
250.59	22.778
250.96	19.545
251.33	21.429
251.70	18.803
252.08	21.250
252.45	25.410
252.82	21.074
253.19	20.703
253.56	17.110
253.94	16.154
254.31	21.970
254.68	22.378
255.05	20.847
255.42	19.048
255.79	17.799
256.16	19.205
256.54	14.901
256.91	19.016
257.28	13.770
257.65	17.197
258.02	14.454
258.39	16.809
258.76	19.572
259.14	16.954
259.51	15.562
259.88	15.014
260.25	16.667
260.62	15.342
260.99	19.126
261.36	18.767
261.73	18.568
262.10	15.659
262.47	16.890
262.85	20.707
263.22	15.584
263.59	14.737
263.96	19.693
264.33	17.391
264.70	18.519
265.07	18.377
265.44	19.274
265.81	18.056
266.18	18.367
266.55	18.080
266.92	17.084
267.29	17.943
267.66	16.186
268.03	16.812
268.40	17.119
268.77	14.806
269.14	16.079
269.51	18.640
269.88	15.984
270.25	15.493
270.62	16.878
270.99	18.788
271.36	15.446
271.73	17.092
272.10	19.639
272.47	17.635
272.84	15.261
273.21	17.234
273.58	17.944
273.95	16.346
274.32	14.829
274.69	16.054
275.06	15.018
275.43	16.266
275.80	15.697
276.17	15.370
276.54	15.299
276.91	15.921
277.28	15.552
277.65	16.338
278.02	16.544
278.39	13.768
278.76	13.884
279.13	15.426
279.50	16.495
279.87	16.637
280.23	13.908
280.60	16.949
280.97	15.296
281.34	15.110
281.71	18.782
282.08	15.615
282.45	15.221
282.82	16.484
283.19	13.893
283.56	13.770
283.92	15.766
284.29	18.009
284.66	16.749
285.03	13.301
285.40	15.456
285.77	15.170
286.14	16.031
286.51	14.916
286.87	15.640
287.24	15.512
287.61	14.649
287.98	15.106
288.35	14.793
288.72	14.645
289.08	15.520
289.45	13.905
289.82	14.759
290.19	14.655
290.56	14.789
290.93	14.551
291.29	14.050
291.66	13.912
292.03	12.483
292.40	14.830
292.77	11.860
293.13	13.532
293.50	11.958
293.87	13.557
294.24	13.200
294.60	13.527
294.97	12.215
295.34	13.188
295.71	12.736
296.08	11.757
296.44	13.235
296.81	12.302
297.18	12.453
297.55	11.557
297.91	12.218
298.28	11.730
298.65	12.842
299.02	11.924
299.38	11.670
299.75	11.916
300.12	10.880
300.48	11.175
300.85	10.574
301.22	12.416
301.59	11.301
301.95	12.203
302.32	12.889
302.69	12.158
303.05	12.731
303.42	13.193
303.79	10.312
304.15	11.462
304.52	11.205
304.89	12.251
305.25	11.491
305.62	13.271
305.99	11.237
306.35	11.593
306.72	10.962
307.09	11.574
307.45	11.594
307.82	11.302
308.19	10.898
308.55	11.475
308.92	12.561
309.29	12.548
309.65	11.306
310.02	11.485
310.38	10.728
310.75	13.010
311.12	12.560
311.48	11.632
311.85	12.251
312.22	11.480
312.58	11.549
312.95	10.994
313.31	12.737
313.68	11.081
314.05	12.466
314.41	12.295
314.78	11.444
315.14	12.886
315.51	13.204
315.87	12.961
316.24	13.059
316.61	12.256
316.97	11.131
317.34	12.610
317.70	12.838
318.07	12.787
318.43	12.585
318.80	13.629
319.16	12.704
319.53	11.997
319.89	12.533
320.26	13.612
320.62	12.855
320.99	13.943
321.35	12.939
321.72	14.791
322.08	12.804
322.45	13.640
322.81	14.170
323.18	13.805
323.54	13.793
323.91	14.146
324.27	14.200
324.64	13.518
325.00	13.930
325.37	13.104
325.73	14.298
326.10	14.599
326.46	14.902
326.83	14.652
327.19	13.780
327.56	14.466
327.92	13.375
328.29	14.274
328.65	13.819
329.01	14.467
329.38	14.490
329.74	14.726
330.11	15.497
330.47	14.153
330.84	14.901
331.20	15.000
331.56	14.385
331.93	15.649
332.29	14.492
332.66	13.621
333.02	14.740
333.38	13.339
333.75	14.562
334.11	14.178
334.48	14.439
334.84	14.359
335.20	14.190
335.57	14.924
335.93	14.793
336.29	14.476
336.66	13.457
337.02	15.050
337.38	14.626
337.75	13.388
338.11	13.877
338.47	15.136
338.84	14.298
339.20	13.058
339.56	15.074
339.93	14.039
340.29	13.527
340.65	14.517
341.02	14.605
341.38	15.683
341.74	14.447
342.11	14.562
342.47	12.947
342.83	14.332
343.20	14.309
343.56	14.916
343.92	14.011
344.28	14.922
344.65	15.116
345.01	14.899
345.37	14.930
345.73	14.030
346.10	14.899
346.46	13.766
346.82	15.206
347.19	15.966
347.55	15.402
347.91	13.522
348.27	14.643
348.63	14.699
349.00	14.914
349.36	13.903
349.72	14.360
350.08	14.042
350.45	14.144
350.81	14.630
351.17	13.985
351.53	15.011
351.89	14.503
352.26	14.179
352.62	13.731
352.98	13.664
353.34	13.816
353.70	14.484
354.07	14.605
354.43	14.427
354.79	14.211
355.15	14.643
355.51	14.401
355.87	14.286
356.24	15.665
356.60	14.339
356.96	14.752
357.32	15.019
357.68	15.007
358.04	14.072
358.40	14.328
358.77	14.766
359.13	13.811
359.49	13.829
359.85	14.576
360.21	14.419
360.57	15.075
360.93	14.528
361.29	14.947
361.66	14.337
362.02	15.588
362.38	14.617
362.74	15.573
363.10	15.062
363.46	14.820
363.82	13.778
364.18	15.060
364.54	14.938
364.90	15.652
365.26	14.828
365.62	15.533
365.98	14.908
366.35	14.966
366.71	15.374
367.07	14.817
367.43	14.708
367.79	15.395
368.15	15.585
368.51	15.562
368.87	15.611
369.23	15.200
369.59	15.847
369.95	16.498
370.31	15.057
370.67	15.062
371.03	15.512
371.39	15.715
371.75	15.199
372.11	15.921
372.47	15.301
372.83	16.492
373.19	15.277
373.55	16.192
373.91	14.792
374.27	15.977
374.63	16.712
374.99	15.650
375.35	15.974
375.71	16.000
376.07	16.462
376.42	15.806
376.78	16.532
377.14	15.970
377.50	16.572
377.86	16.749
378.22	16.168
378.58	16.052
378.94	16.197
379.30	16.169
379.66	17.225
380.02	16.849
380.38	17.569
380.74	16.620
381.09	16.899
381.45	17.102
381.81	17.272
382.17	17.696
382.53	17.193
382.89	17.099
383.25	17.233
383.61	17.882
383.97	17.373
384.32	17.285
384.68	17.343
385.04	18.219
385.40	17.973
385.76	18.464
386.12	18.253
386.48	17.471
386.83	18.057
387.19	17.729
387.55	18.134
387.91	18.950
388.27	18.591
388.62	18.729
388.98	18.331
389.34	19.151
389.70	18.826
390.06	19.420
390.42	19.036
390.77	19.687
391.13	19.073
391.49	20.109
391.85	19.091
392.20	19.810
392.56	19.965
392.92	20.393
393.28	19.348
393.64	19.330
393.99	20.802
394.35	20.327
394.71	20.599
395.07	19.701
395.42	19.931
395.78	21.511
396.14	20.559
396.50	20.131
396.85	19.261
397.21	20.769
397.57	20.259
397.92	20.619
398.28	20.532
398.64	19.851
399.00	20.209
399.35	20.838
399.71	20.109
400.07	19.652
400.42	21.420
400.78	20.486
401.14	21.799
401.49	21.148
401.85	20.698
402.21	21.437
402.57	21.714
402.92	21.099
403.28	20.785
403.63	20.227
403.99	21.496
404.35	21.148
404.70	21.756
405.06	21.848
405.42	21.546
405.77	22.028
406.13	21.772
406.49	21.791
406.84	22.216
407.20	21.800
407.55	21.684
407.91	20.930
408.27	21.673
408.62	22.397
408.98	21.997
409.34	21.642
409.69	22.002
410.05	22.392
410.40	23.144
410.76	22.266
411.11	23.670
411.47	21.929
411.83	22.222
412.18	23.253
412.54	22.170
412.89	23.225
413.25	22.799
413.60	22.458
413.96	23.485
414.31	22.833
414.67	23.137
415.03	22.400
415.38	23.014
415.74	22.358
416.09	23.566
416.45	22.542
416.80	22.644
417.16	22.861
417.51	22.914
417.87	22.931
418.22	23.772
418.58	22.986
418.93	23.225
419.29	23.181
419.64	22.809
420.00	23.442
420.35	23.807
420.71	24.411
421.06	23.577
421.42	23.108
421.77	23.479
422.12	23.784
422.48	23.451
422.83	23.932
423.19	23.767
423.54	24.336
423.90	23.633
424.25	24.587
424.61	23.249
424.96	23.723
425.31	24.098
425.67	23.940
426.02	24.460
426.38	24.627
426.73	25.000
427.09	25.548
427.44	24.249
427.79	24.157
428.15	23.858
428.50	24.663
428.85	24.627
429.21	25.266
429.56	24.383
429.92	24.423
430.27	24.096
430.62	24.573
430.98	24.004
431.33	24.194
431.68	24.521
432.04	25.394
432.39	25.388
432.74	24.315
433.10	25.690
433.45	24.749
433.80	24.839
434.16	24.845
434.51	25.180
434.86	25.624
435.22	25.877
435.57	27.300
435.92	25.821
436.28	25.939
436.63	25.887
436.98	25.013
437.34	25.930
437.69	26.197
438.04	26.071
438.39	26.996
438.75	26.065
439.10	26.956
439.45	26.216
439.81	26.271
440.16	25.040
440.51	26.812
440.86	25.514
441.22	25.991
441.57	26.415
441.92	25.800
442.27	26.768
442.63	25.981
442.98	26.094
443.33	26.144
443.68	26.710
444.03	26.858
444.39	27.231
444.74	26.646
445.09	26.204
445.44	27.134
445.79	27.107
446.15	27.235
446.50	26.822
446.85	26.654
447.20	26.789
447.55	27.301
447.91	26.545
448.26	27.061
448.61	27.205
448.96	28.004
449.31	27.359
449.66	26.580
450.02	27.057
450.37	27.118
450.72	27.449
451.07	27.335
451.42	26.690
451.77	26.959
452.12	27.596
452.47	26.381
452.83	28.041
453.18	27.087
453.53	27.398
453.88	27.002
454.23	27.853
454.58	27.568
454.93	28.034
455.28	28.778
455.63	27.402
455.98	27.486
456.34	28.033
456.69	28.513
457.04	28.251
457.39	28.049
457.74	28.468
458.09	27.952
458.44	28.341
458.79	28.365
459.14	28.317
459.49	28.410
459.84	29.276
460.19	27.540
460.54	29.131
460.89	29.381
461.24	28.046
461.59	29.054
461.94	28.180
462.29	28.555
462.64	29.330
462.99	28.311
463.34	29.461
463.69	29.132
464.04	29.628
464.39	29.428
464.74	29.076
465.09	28.950
465.44	28.594
465.79	28.556
466.14	28.348
466.49	28.474
466.84	28.926
467.19	29.306
467.54	28.848
467.89	30.057
468.24	29.584
468.59	29.299
468.94	28.730
469.29	28.854
469.64	29.816
469.99	30.593
470.34	29.022
470.68	30.417
471.03	30.714
471.38	30.281
471.73	31.014
472.08	30.393
472.43	30.102
472.78	30.479
473.13	30.594
473.48	30.997
473.83	31.399
474.17	29.308
474.52	30.667
474.87	31.174
475.22	31.606
475.57	29.439
475.92	30.363
476.27	30.245
476.61	29.595
476.96	29.406
477.31	30.099
477.66	31.217
478.01	30.249
478.36	30.209
478.70	30.197
479.05	30.930
479.40	30.257
479.75	31.268
480.10	30.223
480.45	31.222
480.79	30.839
481.14	30.239
481.49	30.304
481.84	31.245
482.19	30.366
482.53	31.001
482.88	31.015
483.23	30.769
483.58	30.611
483.92	30.408
484.27	30.652
484.62	29.497
484.97	30.988
485.31	29.532
485.66	28.544
486.01	27.682
486.36	28.027
486.70	29.576
487.05	30.507
487.40	30.323
487.75	30.433
488.09	30.431
488.44	30.271
488.79	31.400
489.13	31.173
489.48	31.262
489.83	31.107
490.17	30.782
490.52	30.501
490.87	30.838
491.22	31.542
491.56	31.698
491.91	30.659
492.26	31.718
492.60	31.395
492.95	30.935
493.30	31.735
493.64	31.450
493.99	31.272
494.34	32.143
494.68	31.478
495.03	33.216
495.37	32.046
495.72	31.338
496.07	31.683
496.41	32.304
496.76	31.693
497.11	32.484
497.45	31.981
497.80	31.853
498.14	32.336
498.49	32.399
498.84	32.358
499.18	32.704
499.53	33.049
499.87	33.099
500.22	31.612
500.56	32.973
500.91	32.632
501.26	33.636
501.60	32.479
501.95	32.957
502.29	33.436
502.64	33.100
502.98	32.399
503.33	32.268
503.67	32.316
504.02	32.531
504.36	34.316
504.71	32.660
505.06	32.788
505.40	32.907
505.75	33.197
506.09	33.886
506.44	33.380
506.78	34.128
507.13	33.748
507.47	33.775
507.82	33.996
508.16	33.700
508.51	33.380
508.85	34.152
509.19	34.297
509.54	33.814
509.88	34.240
510.23	34.386
510.57	35.283
510.92	35.752
511.26	34.103
511.61	34.476
511.95	35.139
512.30	34.810
512.64	34.583
512.98	34.417
513.33	35.030
513.67	35.543
514.02	34.900
514.36	35.141
514.70	35.885
515.05	35.923
515.39	35.223
515.74	36.479
516.08	35.975
516.42	36.473
516.77	36.383
517.11	35.224
517.46	36.320
517.80	37.627
518.14	37.541
518.49	37.256
518.83	35.444
519.17	35.595
519.52	35.849
519.86	36.431
520.20	36.209
520.55	37.185
520.89	35.980
521.23	37.186
521.58	37.627
521.92	36.487
522.26	36.254
522.61	36.748
522.95	37.197
523.29	37.299
523.64	36.043
523.98	37.935
524.32	37.937
524.66	37.336
525.01	37.995
525.35	37.794
525.69	37.355
526.04	36.739
526.38	37.644
526.72	37.774
527.06	39.472
527.41	38.017
527.75	38.242
528.09	38.076
528.43	38.544
528.78	37.283
529.12	36.124
529.46	37.662
529.80	38.330
530.15	37.507
530.49	37.782
530.83	38.371
531.17	38.949
531.51	37.365
531.86	38.702
532.20	39.207
532.54	37.702
532.88	38.242
533.22	38.892
533.57	37.911
533.91	38.159
534.25	37.931
534.59	38.563
534.93	37.351
535.27	38.197
535.62	38.886
535.96	38.524
536.30	39.777
536.64	38.979
536.98	39.668
537.32	39.074
537.66	39.863
538.01	38.610
538.35	37.698
538.69	37.981
539.03	37.891
539.37	37.809
539.71	37.958
540.05	38.669
540.39	37.958
540.73	38.798
541.07	38.994
541.42	38.098
541.76	37.960
542.10	37.817
542.44	38.246
542.78	38.382
543.12	39.094
543.46	38.706
543.80	38.070
544.14	38.360
544.48	39.243
544.82	38.779
545.16	38.760
545.50	39.365
545.84	38.518
546.18	39.568
546.52	37.898
546.86	39.119
547.20	38.868
547.54	38.951
547.88	38.577
548.22	38.772
548.56	39.263
548.90	38.627
549.24	39.818
549.58	37.729
549.92	38.967
550.26	40.388
550.60	38.736
550.94	40.103
551.28	39.142
551.62	40.701
551.96	38.641
552.30	40.599
552.64	38.083
552.98	38.677
553.32	39.678
553.66	39.164
554.00	38.903
554.34	39.511
554.68	38.154
555.02	40.670
555.36	41.091
555.69	38.565
556.03	38.903
556.37	38.798
556.71	39.822
557.05	37.827
557.39	39.151
557.73	40.819
558.07	39.735
558.41	39.934
558.75	40.162
559.08	39.944
559.42	40.123
559.76	40.366
560.10	38.647
560.44	40.567
560.78	39.938
561.12	38.239
561.45	39.173
561.79	39.377
562.13	39.125
562.47	38.594
562.81	38.481
563.15	39.520
563.48	39.528
563.82	39.238
564.16	39.733
564.50	39.392
564.84	38.761
565.17	37.941
565.51	39.298
565.85	39.252
566.19	38.076
566.52	37.858
566.86	37.748
567.20	37.466
567.54	38.396
567.88	38.583
568.21	37.698
568.55	37.938
568.89	37.948
569.23	37.220
569.56	36.968
569.90	36.529
570.24	36.223
570.57	35.375
570.91	35.273
571.25	35.435
571.59	35.263
571.92	35.155
572.26	34.648
572.60	34.808
572.93	35.013
573.27	35.853
573.61	35.071
573.95	34.450
574.28	34.525
574.62	34.698
574.96	34.120
575.29	33.752
575.63	34.927
575.97	34.754
576.30	34.838
576.64	34.717
576.98	34.260
577.31	34.341
577.65	34.358
577.98	34.206
578.32	33.756
578.66	33.980
578.99	34.548
579.33	35.171
579.67	34.633
580.00	34.749
580.34	34.860
580.67	34.532
581.01	34.184
581.35	33.742
581.68	33.807
582.02	34.153
582.35	34.545
582.69	34.263
583.02	34.349
583.36	34.750
583.70	35.469
584.03	35.013
584.37	35.670
584.70	34.743
585.04	34.015
585.37	33.959
585.71	34.175
586.04	34.875
586.38	34.680
586.72	34.996
587.05	34.612
587.39	35.079
587.72	34.593
588.06	34.695
588.39	35.001
588.73	35.185
589.06	35.835
589.40	36.109
589.73	35.315
590.07	36.538
590.40	35.970
590.73	36.656
591.07	36.597
591.40	36.703
591.74	37.440
592.07	36.663
592.41	36.278
592.74	35.286
593.08	35.732
593.41	35.404
593.75	34.856
594.08	35.444
594.41	36.186
594.75	35.603
595.08	36.036
595.42	36.299
595.75	35.486
596.09	36.733
596.42	36.689
596.75	36.395
597.09	37.010
597.42	36.035
597.75	35.594
598.09	36.627
598.42	37.394
598.76	35.652
599.09	35.529
599.42	35.300
599.76	35.655
600.09	35.669
600.42	35.602
600.76	35.304
601.09	35.745
601.42	35.633
601.76	36.069
602.09	36.383
602.42	35.805
602.76	35.941
603.09	35.940
603.42	36.091
603.76	35.800
604.09	36.835
604.42	36.294
604.76	36.530
605.09	35.860
605.42	36.164
605.75	36.231
606.09	36.320
606.42	35.680
606.75	36.507
607.09	36.367
607.42	35.761
607.75	37.436
608.08	35.478
608.42	36.114
608.75	37.313
609.08	36.885
609.41	37.406
609.75	37.589
610.08	37.775
610.41	36.873
610.74	35.924
611.07	36.989
611.41	37.085
611.74	37.598
612.07	36.746
612.40	37.167
612.73	36.626
613.07	36.968
613.40	37.151
613.73	36.880
614.06	37.978
614.39	36.638
614.72	37.458
615.06	36.718
615.39	36.008
615.72	37.062
616.05	37.494
616.38	38.749
616.71	38.088
617.05	36.901
617.38	37.774
617.71	37.311
618.04	38.964
618.37	38.361
618.70	38.631
619.03	39.188
619.36	38.964
619.69	37.668
620.03	38.355
620.36	39.018
620.69	38.742
621.02	38.976
621.35	41.872
621.68	40.202
622.01	39.359
622.34	39.819
622.67	39.038
623.00	38.664
623.33	39.217
623.66	39.040
623.99	39.039
624.32	38.467
624.65	37.580
624.99	40.052
625.32	40.235
625.65	40.189
625.98	39.051
626.31	40.680
626.64	39.487
626.97	39.760
627.30	40.623
627.63	39.160
627.96	41.817
628.29	40.623
628.62	40.806
628.95	41.280
629.28	41.971
629.61	41.498
629.94	40.418
630.26	40.085
630.59	42.573
630.92	40.173
631.25	41.324
631.58	43.409
631.91	43.955
632.24	43.516
632.57	41.271
632.90	41.525
633.23	43.571
633.56	42.245
633.89	42.355
634.22	44.699
634.55	43.006
634.88	41.667
635.20	43.165
635.53	44.633
635.86	42.795
636.19	43.902
636.52	43.249
636.85	42.390
637.18	40.541
637.51	41.935
637.83	44.518
638.16	43.664
638.49	41.784
638.82	45.998
639.15	42.497
639.48	42.841
639.81	42.841
640.13	44.759
640.46	42.545
640.79	43.995
641.12	44.596
641.45	44.291
641.77	47.368
642.10	44.094
642.43	47.606
642.76	44.038
643.09	43.288
643.41	43.557
643.74	46.759
644.07	46.759
644.40	45.969
644.73	46.154
645.05	46.109
645.38	46.906
645.71	44.575
646.04	46.772
646.36	45.839
646.69	44.632
647.02	48.777
647.35	47.481
647.67	49.758
648.00	47.452
648.33	44.144
648.66	45.506
648.98	42.313
649.31	45.467
649.64	45.020
649.96	44.430
650.29	44.367
650.62	44.272
650.94	46.096
651.27	44.311
651.60	45.029
651.92	43.921
652.25	45.441
652.58	41.953
652.90	43.750
653.23	44.789
653.56	45.506
653.88	47.191
654.21	44.507
654.54	43.208
654.86	45.467
655.19	40.527
655.52	38.388
655.84	30.874
656.17	38.052
656.49	53.527
656.82	60.312
657.15	48.294
657.47	36.994
657.80	27.583
658.13	21.924
658.45	28.926
658.78	35.241
659.10	34.567
659.43	34.620
659.75	35.387
660.08	35.686
660.41	37.717
660.73	39.795
661.06	45.081
661.38	43.860
661.71	47.586
662.03	45.503
662.36	47.048
662.68	46.529
663.01	46.903
663.33	48.771
663.66	48.718
663.98	49.038
664.31	50.094
664.63	45.857
664.96	46.642
665.28	47.005
665.61	47.028
665.93	45.000
666.26	45.699
666.58	44.649
666.91	49.159
667.23	49.524
667.56	48.323
667.88	48.400
668.21	43.555
668.53	45.753
668.86	47.151
669.18	47.454
669.50	49.304
669.83	46.600
670.15	44.882
670.48	49.603
670.80	46.272
671.13	46.125
671.45	47.835
671.77	48.399
672.10	43.667
672.42	44.013
672.75	44.854
673.07	41.194
673.39	42.835
673.72	45.470
674.04	45.862
674.37	46.869
674.69	49.030
675.01	46.667
675.34	47.328
675.66	43.446
675.98	45.709
676.31	45.898
676.63	47.338
676.95	47.701
677.28	47.782
677.60	44.685
677.92	46.065
678.25	45.521
678.57	45.907
678.89	45.392
679.22	42.857
679.54	43.761
679.86	43.051
680.18	41.625
680.51	43.239
680.83	43.699
681.15	43.276
681.48	45.941
681.80	44.560
682.12	43.706
682.44	41.402
682.77	43.794
683.09	46.023
683.41	45.930
683.73	45.351
684.06	44.280
684.38	43.292
684.70	45.781
685.02	46.816
685.34	42.762
685.67	41.956
685.99	42.178
686.31	40.843
686.63	42.022
686.96	43.375
687.28	43.974
687.60	44.781
687.92	42.605
688.24	44.741
688.56	41.552
688.89	46.279
689.21	46.380
689.53	41.765
689.85	41.420
690.17	44.815
690.49	43.426
690.82	45.545
691.14	44.737
691.46	43.403
691.78	43.831
692.10	43.303
692.42	42.321
692.74	43.739
693.06	42.407
693.39	44.592
693.71	42.481
694.03	42.379
694.35	42.667
694.67	44.764
694.99	43.830
695.31	43.267
695.63	45.671
695.95	44.306
696.27	40.879
696.59	47.788
696.91	42.568
697.23	46.374
697.56	43.177
697.88	41.667
698.20	42.185
698.52	45.833
698.84	45.530
699.16	45.918
699.48	45.188
699.80	44.043
700.12	42.140
700.44	45.622
700.76	44.893
701.08	45.521
701.40	44.560
701.72	45.522
702.04	46.524
702.36	43.455
702.68	44.499
703.00	44.010
703.32	43.842
703.64	47.433
703.96	45.823
704.28	44.472
704.60	45.570
704.91	45.663
705.23	47.671
705.55	44.290
705.87	46.364
706.19	48.773
706.51	43.976
706.83	45.245
707.15	44.444
707.47	43.925
707.79	40.175
708.11	42.585
708.43	40.645
708.74	40.402
709.06	42.227
709.38	46.009
709.70	42.680
710.02	41.602
710.34	46.809
710.66	44.413
710.98	45.902
711.29	45.604
711.61	48.023
711.93	50.142
712.25	44.595
712.57	48.968
712.89	47.647
713.20	44.379
713.52	45.087
713.84	44.290
714.16	43.158
714.48	45.876
714.80	42.338
715.11	45.407
715.43	45.093
715.75	41.579
716.07	43.646
716.39	44.536
716.70	43.373
717.02	47.213
717.34	43.554
717.66	43.624
717.97	42.466
718.29	43.299
718.61	44.408
718.93	46.278
719.24	45.963
719.56	43.558
719.88	46.246
720.20	44.194
720.51	48.137
720.83	44.688
721.15	44.079
721.46	45.548
721.78	45.000
722.10	43.042
722.42	43.289
722.73	43.871
723.05	45.263
723.37	43.403
723.68	48.387
724.00	47.653
724.32	45.423
724.63	42.308
724.95	47.163
725.27	40.070
725.58	44.170
725.90	47.931
726.22	42.320
726.53	44.481
726.85	44.340
727.16	43.202
727.48	46.483
727.80	49.007
728.11	42.756
728.43	46.465
728.74	44.482
729.06	42.715
729.38	42.857
729.69	44.966
730.01	38.988
730.32	41.515
730.64	45.597
730.96	42.236
731.27	43.855
731.59	40.934
731.90	39.481
732.22	38.021
732.53	40.055
732.85	40.857
733.16	40.762
733.48	42.073
733.80	39.833
734.11	43.305
734.43	43.243
734.74	45.063
735.06	38.442
735.37	41.081
735.69	42.162
736.00	39.831
736.32	40.431
736.63	40.278
736.95	38.506
737.26	44.848
737.58	39.394
737.89	43.824
738.21	40.979
738.52	39.016
738.83	48.123
739.15	45.390
739.46	43.197
739.78	44.785
740.09	37.822
740.41	42.566
740.72	42.667
741.04	43.366
741.35	41.053
741.66	44.706
741.98	47.541
742.29	45.607
742.61	48.246
742.92	42.692
743.23	45.126
743.55	43.411
743.86	44.400
744.18	42.562
744.49	43.882
744.80	40.741
745.12	44.304
745.43	45.935
745.74	48.707
746.06	45.339
746.37	46.414
746.68	46.341
747.00	42.500
747.31	42.918
747.62	45.000
747.94	46.154
748.25	42.570
748.56	44.082
748.88	47.009
749.19	49.569
749.50	41.558
749.82	46.185
750.13	44.484
750.44	41.333
750.75	40.923
751.07	40.615
751.38	44.795
751.69	41.214
752.01	38.835
752.32	43.791
752.63	42.517
752.94	35.986
753.26	42.751
753.57	42.222
753.88	39.700
754.19	43.730
754.51	45.659
754.82	45.338
755.13	42.951
755.44	38.908
755.75	41.776
756.07	37.612
756.38	40.252
756.69	45.482
757.00	35.457
757.31	38.251
757.63	37.084
757.94	34.977
758.25	37.246
758.56	38.344
758.87	35.227
759.18	40.800
759.50	41.076
759.81	37.255
760.12	38.544
760.43	35.937
760.74	40.887
761.05	38.250
761.36	37.108
761.67	35.787
761.99	38.649
762.30	38.415
762.61	40.264
762.92	41.791
763.23	45.693
763.54	41.367
763.85	41.924
764.16	45.791
764.47	36.268
764.78	38.339
765.10	39.883
765.41	40.000
765.72	35.714
766.03	39.266
766.34	40.752
766.65	36.934
766.96	43.426
767.27	42.396
767.58	42.289
767.89	50.481
768.20	48.357
768.51	42.130
768.82	40.161
769.13	37.500
769.44	34.615
769.75	41.516
770.06	40.769
770.37	42.520
770.68	35.745
770.99	35.628
771.30	43.333
771.61	41.825
771.92	40.000
772.23	40.486
772.54	38.889
772.85	45.622
773.16	43.333
773.47	38.624
773.78	42.703
774.09	44.886
774.39	42.500
774.70	44.809
775.01	50.610
775.32	35.294
775.63	46.012
775.94	45.223
776.25	47.742
776.56	44.872
776.87	48.299
777.18	44.138
777.48	46.853
777.79	37.162
778.10	41.912
778.41	45.833
778.72	46.897
779.03	42.593
779.34	45.455
779.65	41.451
779.95	42.222
780.26	40.909
780.57	48.387
780.88	48.551
781.19	43.226
781.50	42.353
781.80	42.473
782.11	42.857
782.42	34.848
782.73	46.707
783.04	41.899
783.34	43.636
783.65	35.948
783.96	40.373
784.27	36.905
784.57	41.722
784.88	51.429
785.19	50.394
785.50	48.031
785.81	38.346
786.11	50.769
786.42	38.129
786.73	41.007
787.04	45.113
787.34	42.623
787.65	38.400
787.96	38.806
788.26	54.545
788.57	48.252
788.88	45.395
789.19	48.366
789.49	37.671
789.80	45.390
790.11	48.031
790.41	44.531
790.72	53.390
791.03	34.951
791.33	47.826
791.64	49.123
791.95	37.500
792.25	44.762
792.56	41.071
792.87	46.875
793.17	40.179
793.48	40.625
793.79	45.783
794.09	35.780
794.40	34.862
794.70	38.776
795.01	38.312
795.32	40.411
795.62	42.254
795.93	40.909
796.23	50.000
796.54	44.643
796.85	34.043
797.15	47.826
797.46	53.425
797.76	46.250
798.07	53.261
798.37	35.052
798.68	51.948
798.99	42.529
799.29	35.955
799.60	48.936
799.90	42.169
800.21	40.000
800.51	37.313
800.82	39.706
801.12	35.616
801.43	39.706
801.73	52.542
802.04	39.394
802.34	65.000
802.65	55.932
802.95	59.701
803.26	54.237
803.56	38.356
803.87	40.000
804.17	52.055
804.48	40.351
804.78	44.444
805.09	36.207
805.39	51.351
805.70	21.127
806.00	56.098
806.30	43.373
806.61	56.164
806.91	42.308
807.22	52.222
807.52	44.828
807.83	65.278
808.13	53.012
808.43	56.180
808.74	32.500
809.04	44.118
809.35	46.667
809.65	42.857
809.95	47.945
810.26	43.860
810.56	55.172
810.86	47.059
811.17	66.667
811.47	47.541
811.77	62.222
812.08	37.288
812.38	58.333
812.69	68.966
812.99	43.396
813.29	38.462
813.59	60.000
813.90	59.649
814.20	52.727
814.50	56.338
814.81	48.718
815.11	47.541
815.41	31.343
815.72	58.621
816.02	42.857
816.32	66.667
816.62	52.273
816.93	40.000
817.23	37.037
817.53	63.830
817.84	90.476
818.14	82.353
818.44	55.102
818.74	48.889
819.04	38.462
819.35	74.286
819.65	69.231
819.95	64.151
820.25	60.000
820.56	54.762
820.86	46.875
821.16	41.026
821.46	39.535
821.76	40.000
822.07	50.000
822.37	36.957
822.67	53.191
822.97	59.459
823.27	82.500
823.57	36.735
823.88	64.444
824.18	55.000
824.48	70.000
824.78	64.000
825.08	48.485
825.38	55.556
825.69	34.043
825.99	69.444
826.29	28.571
826.59	61.538
826.89	44.186
827.19	46.000
827.49	58.824
827.79	43.750
828.09	24.324
828.39	33.333
828.70	31.707
829.00	46.512
829.30	46.429
829.60	76.471
829.90	56.522
830.20	54.286
830.50	51.724
830.80	83.333
831.10	84.615
831.40	47.059
831.70	104.762
832.00	112.903
832.30	23.529
832.60	37.500
832.90	38.462
833.20	36.842
833.50	45.000
833.80	68.421
834.10	0.000
834.40	63.889
834.70	100.000
835.00	25.714
835.30	97.059
835.60	63.333
835.90	52.000
836.20	27.273
836.50	112.000
836.80	60.606
837.10	77.778
837.40	77.778
837.70	75.000
838.00	67.857
838.30	60.870
838.60	79.310
838.90	92.857
839.19	21.739
839.49	41.667
839.79	91.304
840.09	37.500
840.39	95.000
840.69	70.968
840.99	21.429
841.29	73.333
841.59	68.421
841.88	64.103
842.18	50.000
842.48	80.000
842.78	110.000
843.08	56.667
843.38	77.419
843.68	88.889
843.97	70.588
844.27	112.500
844.57	21.053
844.87	70.000
845.17	66.667
845.47	104.762
845.76	100.000
846.06	88.889
846.36	94.118
846.66	61.538
846.96	93.333
847.25	111.765
847.55	73.913
847.85	90.000
848.15	94.118
848.44	72.727
848.74	61.905
849.04	62.500
849.34	93.750
849.63	91.304
849.93	-400.000
850.23	80.000
850.53	107.692
850.82	63.636
851.12	118.182
851.42	90.909
851.71	153.846
852.01	75.000
852.31	138.462
852.61	100.000
852.90	150.000
853.20	127.778
853.50	22.222
853.79	38.095
854.09	54.545
854.39	75.000
854.68	61.290
854.98	53.846
855.28	105.556
855.57	57.143
855.87	60.000
856.17	72.727
856.46	85.185
856.76	111.111
857.05	78.261
857.35	12.500
857.65	76.923
857.94	66.667
858.24	85.185
858.53	65.217
858.83	47.059
859.13	47.059
859.42	100.000
859.72	64.286
860.01	85.000
860.31	144.444
860.60	50.000
860.90	93.333
861.20	83.333
861.49	46.154
861.79	30.000
862.08	7.692
862.38	62.500
862.67	64.706
862.97	68.750
863.26	44.444
863.56	230.000
863.85	136.364
864.15	55.556
864.44	633.333
864.74	64.286
865.03	56.250
865.33	90.000
865.62	48.387
865.92	109.091
866.21	65.217
866.51	71.429
866.80	60.000
867.10	100.000
867.39	91.667
867.69	-1100.000
867.98	271.429
868.27	70.588
868.57	300.000
868.86	-60.000
869.16	28.571
869.45	83.333
869.75	172.727
870.04	171.429
870.33	141.667
870.63	28.571
870.92	350.000
871.22	25.000
871.51	-9.091
871.80	200.000
872.10	600.000
>>>>>End Processed Spectral Data<<<<<
