SpectraSuite Data File
++++++++++++++++++++++++++++++++++++
Date: Thu May 14 14:48:52 PDT 2015
User: schluterlab
Dark Spectrum Present: Yes
Reference Spectrum Present: Yes
Number of Sampled Component Spectra: 1
Spectrometers: USB2E3373
Integration Time (usec): 3000 (USB2E3373)
Spectra Averaged: 3 (USB2E3373)
Boxcar Smoothing: 0 (USB2E3373)
Correct for Electrical Dark: No (USB2E3373)
Strobe/Lamp Enabled: No (USB2E3373)
Correct for Detector Non-linearity: No (USB2E3373)
Correct for Stray Light: No (USB2E3373)
Number of Pixels in Processed Spectrum: 2048
>>>>>Begin Processed Spectral Data<<<<<
178.53	0.000
178.91	114.286
179.29	-2000.000
179.67	-600.000
180.04	114.286
180.42	30.000
180.80	100.000
181.18	-800.000
181.56	-500.000
181.94	125.000
182.31	-150.000
182.69	-33.333
183.07	-100.000
183.45	225.000
183.83	-83.333
184.20	-66.667
184.58	300.000
184.96	-125.000
185.34	-77.778
185.72	20.000
186.09	177.778
186.47	150.000
186.85	280.000
187.23	-155.556
187.61	-200.000
187.98	80.000
188.36	125.000
188.74	-75.000
189.12	-66.667
189.49	-12.500
189.87	-100.000
190.25	0.000
190.63	100.000
191.00	-144.444
191.38	0.000
191.76	-200.000
192.14	-50.000
192.51	550.000
192.89	100.000
193.27	0.000
193.65	-85.714
194.02	-500.000
194.40	-28.571
194.78	-71.429
195.15	0.000
195.53	-109.091
195.91	0.000
196.29	25.000
196.66	-15.385
197.04	-1200.000
197.42	-71.429
197.79	-400.000
198.17	-87.500
198.55	-71.429
198.92	0.000
199.30	-50.000
199.68	0.000
200.05	0.000
200.43	-250.000
200.81	57.143
201.18	0.000
201.56	66.667
201.94	0.000
202.31	400.000
202.69	-88.889
203.07	-0.000
203.44	88.889
203.82	-175.000
204.19	16.667
204.57	-83.333
204.95	75.000
205.32	-700.000
205.70	250.000
206.08	-183.333
206.45	-83.333
206.83	180.000
207.20	33.333
207.58	-120.000
207.96	-133.333
208.33	200.000
208.71	25.000
209.08	116.667
209.46	0.000
209.84	233.333
210.21	250.000
210.59	-50.000
210.96	333.333
211.34	-175.000
211.71	-75.000
212.09	-1200.000
212.46	0.000
212.84	450.000
213.22	-220.000
213.59	-50.000
213.97	-70.000
214.34	-366.667
214.72	150.000
215.09	-225.000
215.47	0.000
215.84	214.286
216.22	700.000
216.59	-60.000
216.97	-120.000
217.34	-200.000
217.72	12.500
218.09	-175.000
218.47	-75.000
218.84	0.000
219.22	60.000
219.59	11.765
219.97	0.000
220.34	200.000
220.72	-22.222
221.09	46.154
221.47	-166.667
221.84	40.000
222.22	-57.143
222.59	0.000
222.97	-50.000
223.34	-240.000
223.72	-200.000
224.09	-50.000
224.46	-200.000
224.84	-60.000
225.21	-214.286
225.59	-275.000
225.96	-100.000
226.34	7.692
226.71	100.000
227.08	-400.000
227.46	-33.333
227.83	0.000
228.21	21.053
228.58	62.500
228.95	600.000
229.33	108.333
229.70	-20.000
230.08	84.211
230.45	70.000
230.82	-33.333
231.20	-28.571
231.57	91.667
231.95	-27.273
232.32	27.273
232.69	45.000
233.07	0.000
233.44	-47.059
233.81	-50.000
234.19	22.222
234.56	4.545
234.93	3.448
235.31	10.526
235.68	38.889
236.05	-70.000
236.43	65.385
236.80	72.000
237.17	29.630
237.55	18.182
237.92	10.000
238.29	16.129
238.67	18.182
239.04	41.667
239.41	0.000
239.79	15.217
240.16	24.074
240.53	23.913
240.91	9.804
241.28	36.066
241.65	23.881
242.02	41.892
242.40	26.154
242.77	33.333
243.14	20.732
243.51	26.316
243.89	26.923
244.26	34.653
244.63	33.333
245.00	28.972
245.38	41.228
245.75	20.354
246.12	30.952
246.49	27.132
246.87	32.143
247.24	33.775
247.61	36.184
247.98	33.557
248.36	28.395
248.73	27.607
249.10	28.962
249.47	38.806
249.84	36.649
250.22	37.306
250.59	36.111
250.96	39.091
251.33	36.735
251.70	34.615
252.08	37.500
252.45	38.525
252.82	32.645
253.19	28.516
253.56	35.361
253.94	36.538
254.31	35.227
254.68	39.161
255.05	34.853
255.42	31.973
255.79	32.362
256.16	37.417
256.54	32.781
256.91	38.689
257.28	36.393
257.65	33.121
258.02	31.858
258.39	37.892
258.76	38.838
259.14	37.069
259.51	35.447
259.88	37.960
260.25	35.278
260.62	35.616
260.99	39.071
261.36	35.121
261.73	34.483
262.10	40.934
262.47	38.874
262.85	37.879
263.22	35.584
263.59	34.737
263.96	37.852
264.33	38.107
264.70	36.296
265.07	38.186
265.44	38.549
265.81	33.565
266.18	37.415
266.55	38.616
266.92	38.041
267.29	36.980
267.66	36.585
268.03	36.245
268.40	36.743
268.77	35.991
269.14	31.938
269.51	36.404
269.88	36.066
270.25	34.205
270.62	36.498
270.99	38.182
271.36	34.851
271.73	33.988
272.10	38.277
272.47	35.671
272.84	34.538
273.21	33.667
273.58	36.492
273.95	32.115
274.32	32.510
274.69	35.397
275.06	37.179
275.43	32.348
275.80	35.450
276.17	32.222
276.54	33.396
276.91	36.315
277.28	35.805
277.65	34.470
278.02	35.846
278.39	33.514
278.76	34.446
279.13	35.638
279.50	33.677
279.87	35.242
280.23	31.866
280.60	34.068
280.97	34.704
281.34	34.635
281.71	35.871
282.08	32.558
282.45	34.697
282.82	32.653
283.19	33.118
283.56	32.131
283.92	34.685
284.29	34.439
284.66	34.975
285.03	32.532
285.40	33.230
285.77	32.508
286.14	34.504
286.51	33.333
286.87	33.807
287.24	34.187
287.61	31.839
287.98	30.967
288.35	32.840
288.72	30.473
289.08	33.236
289.45	30.325
289.82	30.271
290.19	32.902
290.56	31.127
290.93	31.669
291.29	29.752
291.66	28.512
292.03	28.901
292.40	31.701
292.77	30.189
293.13	28.823
293.50	27.727
293.87	28.725
294.24	29.467
294.60	27.307
294.97	30.336
295.34	27.529
295.71	27.995
296.08	27.519
296.44	28.186
296.81	28.380
297.18	27.024
297.55	27.476
297.91	26.453
298.28	26.540
298.65	28.181
299.02	26.919
299.38	27.689
299.75	25.701
300.12	26.273
300.48	26.152
300.85	26.547
301.22	26.174
301.59	25.913
301.95	25.763
302.32	25.889
302.69	25.630
303.05	25.571
303.42	25.721
303.79	25.833
304.15	25.026
304.52	26.638
304.89	24.817
305.25	26.294
305.62	23.615
305.99	27.216
306.35	25.000
306.72	27.508
307.09	24.467
307.45	24.534
307.82	25.025
308.19	24.924
308.55	25.072
308.92	25.511
309.29	25.383
309.65	25.049
310.02	24.158
310.38	23.917
310.75	25.825
311.12	25.695
311.48	25.806
311.85	25.166
312.22	24.383
312.58	25.352
312.95	24.857
313.31	25.926
313.68	25.275
314.05	26.197
314.41	26.412
314.78	25.068
315.14	25.227
315.51	26.223
315.87	26.103
316.24	25.936
316.61	26.021
316.97	25.792
317.34	25.485
317.70	25.677
318.07	26.720
318.43	26.276
318.80	25.084
319.16	26.438
319.53	23.907
319.89	25.592
320.26	27.046
320.62	25.355
320.99	25.669
321.35	24.954
321.72	26.140
322.08	26.871
322.45	25.836
322.81	25.812
323.18	26.903
323.54	27.069
323.91	26.779
324.27	26.076
324.64	26.113
325.00	25.539
325.37	26.536
325.73	26.612
326.10	27.251
326.46	26.303
326.83	27.062
327.19	26.142
327.56	27.115
327.92	25.885
328.29	25.242
328.65	25.963
329.01	27.411
329.38	27.296
329.74	28.425
330.11	27.654
330.47	26.369
330.84	26.701
331.20	27.500
331.56	28.076
331.93	27.615
332.29	25.508
332.66	27.409
333.02	27.052
333.38	26.174
333.75	27.525
334.11	26.772
334.48	27.310
334.84	28.547
335.20	25.777
335.57	27.403
335.93	28.430
336.29	26.456
336.66	27.839
337.02	26.839
337.38	26.446
337.75	25.868
338.11	27.923
338.47	26.882
338.84	27.665
339.20	25.695
339.56	26.524
339.93	26.601
340.29	26.731
340.65	27.413
341.02	27.773
341.38	27.486
341.74	26.069
342.11	27.353
342.47	25.973
342.83	26.570
343.20	27.146
343.56	27.666
343.92	27.462
344.28	27.422
344.65	27.984
345.01	27.145
345.37	26.283
345.73	26.968
346.10	26.911
346.46	26.820
346.82	26.966
347.19	27.273
347.55	26.555
347.91	25.854
348.27	26.176
348.63	26.123
349.00	25.652
349.36	25.576
349.72	26.711
350.08	26.300
350.45	25.856
350.81	25.867
351.17	26.992
351.53	27.521
351.89	27.183
352.26	25.373
352.62	27.164
352.98	26.183
353.34	26.139
353.70	26.733
354.07	26.006
354.43	26.424
354.79	26.926
355.15	26.122
355.51	26.608
355.87	25.056
356.24	26.464
356.60	26.090
356.96	26.390
357.32	25.651
357.68	25.842
358.04	25.374
358.40	25.746
358.77	25.950
359.13	26.219
359.49	25.130
359.85	25.381
360.21	25.466
360.57	25.413
360.93	25.317
361.29	25.684
361.66	26.358
362.02	26.653
362.38	26.001
362.74	25.279
363.10	26.891
363.46	27.008
363.82	25.639
364.18	26.319
364.54	25.588
364.90	26.622
365.26	26.621
365.62	27.000
365.98	26.481
366.35	26.711
366.71	26.190
367.07	26.319
367.43	26.067
367.79	26.676
368.15	26.355
368.51	26.861
368.87	25.931
369.23	26.267
369.59	26.434
369.95	26.842
370.31	27.076
370.67	26.272
371.03	26.247
371.39	25.588
371.75	26.616
372.11	27.100
372.47	26.473
372.83	28.010
373.19	26.217
373.55	25.949
373.91	25.562
374.27	26.973
374.63	26.319
374.99	26.326
375.35	27.143
375.71	26.516
376.07	28.083
376.42	26.826
376.78	27.595
377.14	26.575
377.50	26.439
377.86	27.463
378.22	27.425
378.58	26.576
378.94	26.702
379.30	27.124
379.66	26.631
380.02	27.409
380.38	27.650
380.74	28.113
381.09	28.049
381.45	27.557
381.81	28.103
382.17	28.207
382.53	26.608
382.89	27.144
383.25	27.784
383.61	26.505
383.97	27.032
384.32	27.333
384.68	27.262
385.04	28.456
385.40	27.873
385.76	28.312
386.12	28.665
386.48	28.000
386.83	28.725
387.19	27.926
387.55	26.878
387.91	28.196
388.27	28.176
388.62	28.236
388.98	27.750
389.34	28.757
389.70	28.646
390.06	28.360
390.42	28.494
390.77	29.079
391.13	28.580
391.49	29.167
391.85	28.848
392.20	28.529
392.56	28.293
392.92	29.498
393.28	29.298
393.64	29.218
393.99	29.518
394.35	29.439
394.71	29.281
395.07	28.503
395.42	28.441
395.78	29.555
396.14	29.293
396.50	29.097
396.85	28.324
397.21	28.521
397.57	28.857
397.92	29.611
398.28	28.463
398.64	28.719
399.00	27.958
399.35	28.272
399.71	28.641
400.07	29.422
400.42	29.569
400.78	30.035
401.14	29.141
401.49	29.676
401.85	29.942
402.21	30.475
402.57	29.930
402.92	29.965
403.28	28.689
403.63	28.938
403.99	29.216
404.35	28.255
404.70	28.329
405.06	28.859
405.42	29.274
405.77	29.444
406.13	29.498
406.49	30.011
406.84	28.698
407.20	29.290
407.55	29.134
407.91	28.913
408.27	28.975
408.62	29.727
408.98	30.180
409.34	29.736
409.69	28.986
410.05	29.660
410.40	29.698
410.76	29.333
411.11	30.567
411.47	28.870
411.83	30.982
412.18	30.361
412.54	30.113
412.89	29.395
413.25	30.643
413.60	29.523
413.96	30.303
414.31	28.895
414.67	29.756
415.03	29.415
415.38	29.950
415.74	29.016
416.09	29.920
416.45	29.618
416.80	29.009
417.16	29.885
417.51	29.452
417.87	30.472
418.22	30.719
418.58	29.182
418.93	30.908
419.29	30.641
419.64	30.252
420.00	30.564
420.35	30.039
420.71	30.098
421.06	30.822
421.42	31.078
421.77	29.456
422.12	29.757
422.48	29.544
422.83	32.147
423.19	31.034
423.54	30.697
423.90	30.591
424.25	30.773
424.61	30.712
424.96	30.972
425.31	31.316
425.67	29.844
426.02	30.880
426.38	31.458
426.73	30.469
427.09	32.007
427.44	29.874
427.79	31.730
428.15	29.966
428.50	30.169
428.85	31.458
429.21	31.223
429.56	31.194
429.92	32.531
430.27	31.036
430.62	31.119
430.98	31.284
431.33	31.720
431.68	31.513
432.04	32.758
432.39	31.816
432.74	31.621
433.10	31.314
433.45	31.271
433.80	31.760
434.16	31.921
434.51	32.939
434.86	32.682
435.22	32.253
435.57	32.075
435.92	31.664
436.28	31.797
436.63	31.786
436.98	31.186
437.34	31.285
437.69	31.701
438.04	32.522
438.39	32.740
438.75	32.042
439.10	33.245
439.45	32.756
439.81	32.203
440.16	32.386
440.51	31.996
440.86	32.185
441.22	31.833
441.57	32.338
441.92	31.232
442.27	32.273
442.63	31.247
442.98	33.138
443.33	32.983
443.68	33.251
444.03	32.879
444.39	32.455
444.74	32.823
445.09	30.664
445.44	33.140
445.79	31.992
446.15	32.169
446.50	32.041
446.85	32.879
447.20	33.656
447.55	33.107
447.91	32.618
448.26	32.770
448.61	32.572
448.96	34.388
449.31	32.662
449.66	32.298
450.02	31.646
450.37	33.351
450.72	32.723
451.07	33.542
451.42	33.564
451.77	31.907
452.12	32.788
452.47	33.333
452.83	34.516
453.18	33.450
453.53	32.970
453.88	32.358
454.23	32.429
454.58	33.082
454.93	32.403
455.28	32.751
455.63	32.973
455.98	33.017
456.34	32.803
456.69	32.628
457.04	32.801
457.39	32.816
457.74	33.389
458.09	32.290
458.44	33.513
458.79	33.213
459.14	32.407
459.49	33.843
459.84	33.211
460.19	33.315
460.54	33.504
460.89	33.192
461.24	32.644
461.59	32.374
461.94	32.744
462.29	34.043
462.64	33.796
462.99	33.961
463.34	33.809
463.69	32.943
464.04	32.462
464.39	33.128
464.74	33.067
465.09	32.526
465.44	32.725
465.79	32.628
466.14	33.872
466.49	33.053
466.84	33.774
467.19	32.890
467.54	32.080
467.89	33.218
468.24	32.576
468.59	32.252
468.94	33.159
469.29	32.334
469.64	32.867
469.99	33.206
470.34	33.416
470.68	34.108
471.03	33.268
471.38	33.290
471.73	33.095
472.08	33.439
472.43	32.149
472.78	32.620
473.13	33.186
473.48	33.837
473.83	33.430
474.17	34.056
474.52	33.373
474.87	33.721
475.22	33.070
475.57	33.645
475.92	32.902
476.27	33.387
476.61	32.762
476.96	33.212
477.31	34.257
477.66	34.260
478.01	34.062
478.36	32.901
478.70	33.251
479.05	33.896
479.40	33.860
479.75	33.141
480.10	33.160
480.45	32.999
480.79	33.469
481.14	32.858
481.49	32.622
481.84	33.290
482.19	33.376
482.53	33.669
482.88	34.072
483.23	33.482
483.58	33.755
483.92	32.314
484.27	33.362
484.62	33.251
484.97	33.748
485.31	32.841
485.66	30.759
486.01	30.729
486.36	31.180
486.70	32.996
487.05	33.934
487.40	33.805
487.75	33.944
488.09	34.235
488.44	33.046
488.79	34.300
489.13	33.599
489.48	33.049
489.83	32.676
490.17	33.131
490.52	32.266
490.87	34.222
491.22	33.752
491.56	33.276
491.91	33.406
492.26	33.968
492.60	33.712
492.95	33.304
493.30	33.259
493.64	32.676
493.99	33.158
494.34	32.796
494.68	32.891
495.03	33.656
495.37	33.289
495.72	33.696
496.07	33.348
496.41	33.634
496.76	32.986
497.11	33.291
497.45	33.448
497.80	33.629
498.14	33.061
498.49	34.283
498.84	33.638
499.18	33.108
499.53	33.363
499.87	33.011
500.22	33.215
500.56	33.243
500.91	33.730
501.26	33.636
501.60	33.142
501.95	33.782
502.29	33.655
502.64	33.406
502.98	33.693
503.33	33.391
503.67	32.795
504.02	33.713
504.36	33.780
504.71	32.889
505.06	33.333
505.40	33.592
505.75	33.971
506.09	34.024
506.44	34.587
506.78	33.257
507.13	32.964
507.47	33.018
507.82	33.286
508.16	33.509
508.51	33.521
508.85	33.018
509.19	33.539
509.54	34.486
509.88	33.560
510.23	33.754
510.57	34.461
510.92	34.011
511.26	33.814
511.61	33.559
511.95	33.821
512.30	34.121
512.64	32.834
512.98	34.517
513.33	34.577
513.67	34.778
514.02	34.645
514.36	34.118
514.70	34.792
515.05	34.411
515.39	33.806
515.74	35.525
516.08	34.443
516.42	34.746
516.77	34.963
517.11	34.296
517.46	34.889
517.80	34.260
518.14	35.365
518.49	34.490
518.83	34.806
519.17	34.141
519.52	34.224
519.86	35.058
520.20	33.919
520.55	33.899
520.89	34.685
521.23	34.562
521.58	35.989
521.92	34.108
522.26	33.906
522.61	35.012
522.95	35.121
523.29	34.253
523.64	34.305
523.98	34.398
524.32	35.186
524.66	34.661
525.01	34.088
525.35	35.210
525.69	34.687
526.04	33.754
526.38	33.621
526.72	34.198
527.06	35.073
527.41	35.102
527.75	35.570
528.09	34.770
528.43	35.110
528.78	33.468
529.12	33.888
529.46	34.345
529.80	35.240
530.15	33.855
530.49	33.808
530.83	34.711
531.17	33.931
531.51	35.319
531.86	34.736
532.20	34.939
532.54	34.171
532.88	33.697
533.22	34.237
533.57	34.449
533.91	33.558
534.25	34.370
534.59	34.943
534.93	34.352
535.27	34.592
535.62	34.622
535.96	34.573
536.30	34.665
536.64	35.676
536.98	35.793
537.32	35.617
537.66	35.933
538.01	32.991
538.35	33.678
538.69	34.615
539.03	34.519
539.37	34.276
539.71	34.535
540.05	34.113
540.39	34.352
540.73	33.637
541.07	35.500
541.42	33.963
541.76	33.808
542.10	33.836
542.44	33.191
542.78	34.854
543.12	34.625
543.46	33.211
543.80	34.532
544.14	34.111
544.48	34.870
544.82	35.428
545.16	35.182
545.50	34.032
545.84	34.844
546.18	35.247
546.52	34.713
546.86	33.899
547.20	34.542
547.54	33.770
547.88	34.237
548.22	32.982
548.56	34.348
548.90	34.985
549.24	33.252
549.58	34.826
549.92	35.268
550.26	35.210
550.60	34.907
550.94	33.829
551.28	33.927
551.62	35.916
551.96	33.981
552.30	34.927
552.64	33.790
552.98	34.623
553.32	34.791
553.66	34.084
554.00	34.805
554.34	34.813
554.68	34.087
555.02	34.823
555.36	35.306
555.69	33.184
556.03	33.922
556.37	34.168
556.71	34.686
557.05	35.591
557.39	34.572
557.73	35.931
558.07	35.166
558.41	34.086
558.75	34.415
559.08	35.003
559.42	34.225
559.76	34.600
560.10	34.561
560.44	33.773
560.78	34.437
561.12	34.975
561.45	34.672
561.79	35.226
562.13	34.504
562.47	34.649
562.81	34.557
563.15	35.038
563.48	35.115
563.82	35.006
564.16	33.979
564.50	34.684
564.84	32.448
565.17	35.059
565.51	33.429
565.85	34.976
566.19	33.698
566.52	34.172
566.86	33.560
567.20	33.605
567.54	33.723
567.88	33.639
568.21	34.783
568.55	33.861
568.89	33.999
569.23	33.840
569.56	34.584
569.90	33.393
570.24	33.255
570.57	32.713
570.91	32.425
571.25	32.861
571.59	33.370
571.92	33.209
572.26	33.033
572.60	33.006
572.93	33.287
573.27	33.942
573.61	32.980
573.95	32.896
574.28	32.983
574.62	32.856
574.96	32.775
575.29	32.033
575.63	32.710
575.97	33.246
576.30	32.420
576.64	32.880
576.98	32.733
577.31	32.917
577.65	33.182
577.98	32.248
578.32	32.635
578.66	32.529
578.99	32.849
579.33	33.637
579.67	33.386
580.00	32.861
580.34	33.050
580.67	32.458
581.01	33.038
581.35	32.418
581.68	32.387
582.02	32.231
582.35	32.720
582.69	33.168
583.02	33.414
583.36	33.374
583.70	33.992
584.03	33.141
584.37	33.646
584.70	32.812
585.04	32.830
585.37	32.369
585.71	32.060
586.04	32.563
586.38	32.916
586.72	32.840
587.05	33.257
587.39	33.084
587.72	33.158
588.06	33.051
588.39	33.458
588.73	33.307
589.06	33.634
589.40	33.805
589.73	33.772
590.07	33.488
590.40	34.111
590.73	33.793
591.07	34.177
591.40	34.409
591.74	33.545
592.07	34.105
592.41	33.478
592.74	33.404
593.08	32.962
593.41	32.896
593.75	33.046
594.08	33.505
594.41	33.558
594.75	33.178
595.08	33.210
595.42	33.474
595.75	33.323
596.09	34.327
596.42	33.823
596.75	33.925
597.09	34.141
597.42	32.737
597.75	33.908
598.09	33.532
598.42	33.253
598.76	33.206
599.09	32.645
599.42	31.780
599.76	32.750
600.09	32.966
600.42	32.599
600.76	33.223
601.09	33.090
601.42	33.436
601.76	32.828
602.09	34.096
602.42	33.660
602.76	33.432
603.09	32.966
603.42	33.671
603.76	33.932
604.09	33.322
604.42	34.275
604.76	33.219
605.09	33.985
605.42	33.732
605.75	32.846
606.09	33.483
606.42	32.908
606.75	33.208
607.09	32.412
607.42	33.526
607.75	33.060
608.08	33.307
608.42	33.575
608.75	33.499
609.08	33.234
609.41	33.127
609.75	34.018
610.08	34.653
610.41	32.583
610.74	33.487
611.07	33.659
611.41	33.901
611.74	33.580
612.07	33.661
612.40	33.603
612.73	33.985
613.07	34.230
613.40	33.686
613.73	33.799
614.06	33.759
614.39	33.722
614.72	32.460
615.06	33.157
615.39	33.059
615.72	33.602
616.05	33.220
616.38	34.813
616.71	33.281
617.05	33.333
617.38	33.708
617.71	33.693
618.04	33.891
618.37	34.372
618.70	34.389
619.03	34.110
619.36	34.710
619.69	33.953
620.03	33.584
620.36	33.497
620.69	34.547
621.02	34.711
621.35	36.212
621.68	34.852
622.01	34.448
622.34	33.403
622.67	34.089
623.00	33.333
623.33	34.506
623.66	34.176
623.99	33.311
624.32	34.178
624.65	33.719
624.99	34.525
625.32	33.899
625.65	34.255
625.98	34.373
626.31	34.018
626.64	34.212
626.97	34.734
627.30	33.789
627.63	34.434
627.96	34.459
628.29	34.397
628.62	34.341
628.95	35.758
629.28	33.390
629.61	35.606
629.94	33.975
630.26	34.407
630.59	34.715
630.92	33.939
631.25	35.420
631.58	34.840
631.91	35.239
632.24	35.351
632.57	34.725
632.90	34.403
633.23	36.224
633.56	35.918
633.89	34.711
634.22	35.447
634.55	36.013
634.88	35.714
635.20	36.814
635.53	36.045
635.86	35.211
636.19	36.267
636.52	36.076
636.85	34.116
637.18	34.407
637.51	34.624
637.83	36.656
638.16	37.442
638.49	35.329
638.82	35.175
639.15	35.395
639.48	37.182
639.81	34.873
640.13	36.278
640.46	35.515
640.79	32.598
641.12	35.652
641.45	35.634
641.77	37.484
642.10	35.433
642.43	35.771
642.76	36.721
643.09	35.342
643.41	35.014
643.74	36.552
644.07	35.724
644.40	35.361
644.73	36.284
645.05	35.389
645.38	35.540
645.71	38.123
646.04	39.024
646.36	35.328
646.69	35.736
647.02	39.297
647.35	36.336
647.67	37.198
648.00	37.420
648.33	35.586
648.66	33.951
648.98	34.286
649.31	36.130
649.64	36.255
649.96	33.820
650.29	34.353
650.62	34.936
650.94	36.036
651.27	34.581
651.60	33.187
651.92	35.410
652.25	34.588
652.58	35.626
652.90	35.320
653.23	35.775
653.56	34.950
653.88	37.921
654.21	35.352
654.54	35.405
654.86	35.127
655.19	35.257
655.52	32.881
655.84	30.808
656.17	36.721
656.49	51.541
656.82	58.013
657.15	47.055
657.47	36.511
657.80	27.964
658.13	21.779
658.45	29.062
658.78	34.792
659.10	34.098
659.43	33.214
659.75	32.631
660.08	30.924
660.41	29.859
660.73	31.585
661.06	33.774
661.38	36.204
661.71	33.621
662.03	35.979
662.36	36.673
662.68	36.210
663.01	36.106
663.33	38.185
663.66	36.996
663.98	37.500
664.31	35.272
664.63	36.031
664.96	37.387
665.28	34.483
665.61	36.189
665.93	37.143
666.26	34.229
666.58	35.609
666.91	38.131
667.23	36.952
667.56	35.108
667.88	36.400
668.21	33.984
668.53	34.749
668.86	37.132
669.18	37.067
669.50	34.394
669.83	36.000
670.15	34.252
670.48	36.508
670.80	34.417
671.13	36.106
671.45	37.008
671.77	37.100
672.10	34.000
672.42	35.599
672.75	34.716
673.07	34.179
673.39	33.436
673.72	36.577
674.04	37.586
674.37	35.778
674.69	35.626
675.01	35.810
675.34	36.069
675.66	33.333
675.98	35.448
676.31	35.156
676.63	37.643
676.95	38.123
677.28	37.500
677.60	34.843
677.92	36.468
678.25	34.552
678.57	35.053
678.89	35.154
679.22	35.192
679.54	34.530
679.86	32.034
680.18	33.831
680.51	33.648
680.83	36.334
681.15	34.483
681.48	34.370
681.80	37.133
682.12	33.217
682.44	33.055
682.77	32.447
683.09	35.417
683.41	34.109
683.73	34.915
684.06	34.502
684.38	31.127
684.70	35.548
685.02	34.768
685.34	34.609
685.67	33.912
685.99	31.595
686.31	32.703
686.63	34.597
686.96	31.861
687.28	34.202
687.60	33.502
687.92	31.190
688.24	36.728
688.56	33.448
688.89	33.757
689.21	36.008
689.53	31.961
689.85	35.897
690.17	32.963
690.49	34.263
690.82	35.644
691.14	34.211
691.46	37.285
691.78	36.464
692.10	34.495
692.42	31.250
692.74	33.938
693.06	31.481
693.39	37.192
693.71	32.895
694.03	32.528
694.35	34.286
694.67	33.060
694.99	35.745
695.31	34.879
695.63	33.983
695.95	33.126
696.27	35.604
696.59	34.956
696.91	35.811
697.23	34.725
697.56	32.994
697.88	31.629
698.20	35.593
698.52	37.879
698.84	34.096
699.16	33.878
699.48	33.473
699.80	34.043
700.12	34.498
700.44	33.180
700.76	33.967
701.08	37.530
701.40	35.233
701.72	35.075
702.04	35.829
702.36	32.723
702.68	35.697
703.00	30.807
703.32	34.483
703.64	31.540
703.96	35.561
704.28	33.907
704.60	34.177
704.91	34.439
705.23	32.877
705.55	34.540
705.87	36.061
706.19	32.822
706.51	32.831
706.83	35.735
707.15	30.159
707.47	32.710
707.79	34.498
708.11	31.992
708.43	33.118
708.74	28.348
709.06	32.947
709.38	33.099
709.70	32.754
710.02	34.625
710.34	33.511
710.66	31.844
710.98	35.246
711.29	28.571
711.61	33.898
711.93	33.903
712.25	32.162
712.57	33.333
712.89	38.235
713.20	33.136
713.52	31.792
713.84	34.819
714.16	32.895
714.48	32.732
714.80	35.844
715.11	32.808
715.43	33.952
715.75	32.368
716.07	30.939
716.39	33.333
716.70	32.229
717.02	35.082
717.34	33.449
717.66	32.886
717.97	34.932
718.29	30.928
718.61	33.553
718.93	31.392
719.24	33.540
719.56	28.834
719.88	29.730
720.20	34.516
720.51	36.646
720.83	36.562
721.15	28.289
721.46	28.425
721.78	34.333
722.10	33.981
722.42	30.537
722.73	31.290
723.05	35.439
723.37	35.764
723.68	34.767
724.00	31.408
724.32	34.155
724.63	31.818
724.95	35.816
725.27	31.359
725.58	30.742
725.90	32.759
726.22	29.781
726.53	35.390
726.85	34.277
727.16	31.722
727.48	33.639
727.80	34.768
728.11	33.569
728.43	31.313
728.74	30.769
729.06	28.146
729.38	29.221
729.69	32.215
730.01	26.786
730.32	30.606
730.64	31.132
730.96	33.851
731.27	31.844
731.59	31.868
731.90	29.870
732.22	28.125
732.53	27.072
732.85	32.286
733.16	34.604
733.48	30.488
733.80	29.248
734.11	30.484
734.43	31.892
734.74	34.937
735.06	29.397
735.37	32.973
735.69	32.162
736.00	33.898
736.32	28.841
736.63	30.000
736.95	31.897
737.26	32.121
737.58	27.273
737.89	30.294
738.21	28.746
738.52	28.852
738.83	31.399
739.15	27.660
739.46	34.014
739.78	33.436
740.09	30.372
740.41	30.612
740.72	32.667
741.04	29.126
741.35	34.386
741.66	35.686
741.98	34.836
742.29	30.962
742.61	32.018
742.92	33.077
743.23	30.325
743.55	32.946
743.86	32.000
744.18	26.033
744.49	31.646
744.80	32.099
745.12	30.802
745.43	34.146
745.74	31.897
746.06	33.898
746.37	33.333
746.68	37.398
747.00	28.750
747.31	33.476
747.62	36.154
747.94	27.935
748.25	32.932
748.56	26.122
748.88	28.205
749.19	25.862
749.50	27.706
749.82	30.120
750.13	31.317
750.44	28.000
750.75	30.769
751.07	29.538
751.38	31.861
751.69	29.712
752.01	29.450
752.32	30.392
752.63	30.272
752.94	32.526
753.26	32.342
753.57	29.630
753.88	28.839
754.19	27.653
754.51	28.939
754.82	30.868
755.13	29.836
755.44	32.765
755.75	31.250
756.07	30.746
756.38	31.447
756.69	31.627
757.00	26.039
757.31	30.055
757.63	28.900
757.94	28.404
758.25	29.120
758.56	29.194
758.87	29.773
759.18	26.400
759.50	30.878
759.81	31.653
760.12	28.571
760.43	31.250
760.74	28.325
761.05	30.500
761.36	27.952
761.67	27.157
761.99	30.000
762.30	31.707
762.61	30.693
762.92	31.343
763.23	29.213
763.54	31.655
763.85	27.835
764.16	30.303
764.47	33.451
764.78	28.435
765.10	31.085
765.41	30.256
765.72	28.571
766.03	30.226
766.34	26.646
766.65	27.875
766.96	28.685
767.27	30.876
767.58	29.851
767.89	30.769
768.20	24.413
768.51	30.093
768.82	29.719
769.13	28.788
769.44	26.923
769.75	28.159
770.06	28.846
770.37	30.315
770.68	23.830
770.99	23.077
771.30	38.889
771.61	33.840
771.92	33.333
772.23	28.340
772.54	24.074
772.85	30.876
773.16	28.571
773.47	28.571
773.78	22.703
774.09	27.841
774.39	29.000
774.70	33.880
775.01	23.171
775.32	22.941
775.63	26.994
775.94	24.204
776.25	28.387
776.56	32.692
776.87	23.810
777.18	21.379
777.48	28.671
777.79	28.378
778.10	21.324
778.41	28.472
778.72	32.414
779.03	35.802
779.34	29.697
779.65	26.943
779.95	31.667
780.26	23.864
780.57	30.968
780.88	27.536
781.19	29.032
781.50	28.235
781.80	28.495
782.11	25.926
782.42	25.758
782.73	27.545
783.04	21.788
783.34	21.212
783.65	22.222
783.96	28.571
784.27	23.214
784.57	29.801
784.88	25.714
785.19	28.346
785.50	26.772
785.81	31.579
786.11	29.231
786.42	12.950
786.73	17.986
787.04	27.820
787.34	21.311
787.65	28.000
787.96	26.866
788.26	31.469
788.57	34.266
788.88	34.211
789.19	28.758
789.49	25.342
789.80	22.695
790.11	30.709
790.41	22.656
790.72	23.729
791.03	17.476
791.33	20.000
791.64	26.316
791.95	27.679
792.25	26.667
792.56	21.429
792.87	27.083
793.17	32.143
793.48	22.917
793.79	19.277
794.09	21.101
794.40	23.853
794.70	23.810
795.01	24.675
795.32	21.918
795.62	21.831
795.93	28.030
796.23	30.328
796.54	22.321
796.85	22.340
797.15	29.348
797.46	24.658
797.76	8.750
798.07	22.826
798.37	18.557
798.68	22.078
798.99	10.345
799.29	29.213
799.60	22.340
799.90	20.482
800.21	32.308
800.51	17.910
800.82	16.176
801.12	6.849
801.43	11.765
801.73	22.034
802.04	36.364
802.34	20.000
802.65	35.593
802.95	28.358
803.26	32.203
803.56	17.808
803.87	37.143
804.17	23.288
804.48	1.754
804.78	20.833
805.09	6.897
805.39	27.027
805.70	4.225
806.00	25.610
806.30	24.096
806.61	10.959
806.91	29.808
807.22	24.444
807.52	14.943
807.83	37.500
808.13	21.687
808.43	23.596
808.74	12.500
809.04	11.765
809.35	13.333
809.65	22.857
809.95	21.918
810.26	15.789
810.56	22.414
810.86	36.765
811.17	31.579
811.47	24.590
811.77	20.000
812.08	15.254
812.38	15.000
812.69	31.034
812.99	15.094
813.29	7.692
813.59	38.000
813.90	29.825
814.20	9.091
814.50	28.169
814.81	38.462
815.11	18.033
815.41	28.358
815.72	51.724
816.02	16.071
816.32	42.222
816.62	20.455
816.93	17.778
817.23	24.074
817.53	2.128
817.84	38.095
818.14	35.294
818.44	10.204
818.74	42.222
819.04	7.692
819.35	11.429
819.65	23.077
819.95	20.755
820.25	26.667
820.56	11.905
820.86	-12.500
821.16	2.564
821.46	9.302
821.76	10.000
822.07	10.714
822.37	17.391
822.67	40.426
822.97	8.108
823.27	37.500
823.57	20.408
823.88	31.111
824.18	35.000
824.48	13.333
824.78	12.000
825.08	3.030
825.38	8.889
825.69	10.638
825.99	27.778
826.29	-17.143
826.59	23.077
826.89	-2.326
827.19	24.000
827.49	8.824
827.79	22.917
828.09	27.027
828.39	-16.667
828.70	21.951
829.00	4.651
829.30	7.143
829.60	32.353
829.90	32.609
830.20	0.000
830.50	17.241
830.80	5.556
831.10	30.769
831.40	5.882
831.70	23.810
832.00	54.839
832.30	-29.412
832.60	-12.500
832.90	-7.692
833.20	-52.632
833.50	20.000
833.80	42.105
834.10	-28.571
834.40	30.556
834.70	34.375
835.00	14.286
835.30	32.353
835.60	-3.333
835.90	20.000
836.20	-9.091
836.50	12.000
836.80	21.212
837.10	7.407
837.40	33.333
837.70	-12.500
838.00	39.286
838.30	-8.696
838.60	27.586
838.90	7.143
839.19	-34.783
839.49	-100.000
839.79	52.174
840.09	-12.500
840.39	-10.000
840.69	16.129
840.99	17.857
841.29	-6.667
841.59	5.263
841.88	35.897
842.18	-3.846
842.48	10.000
842.78	-45.000
843.08	10.000
843.38	19.355
843.68	-16.667
843.97	17.647
844.27	-43.750
844.57	-21.053
844.87	-60.000
845.17	60.000
845.47	57.143
845.76	-9.524
846.06	22.222
846.36	-70.588
846.66	-11.538
846.96	13.333
847.25	17.647
847.55	39.130
847.85	0.000
848.15	-5.882
848.44	0.000
848.74	-14.286
849.04	-25.000
849.34	-18.750
849.63	-13.043
849.93	400.000
850.23	53.333
850.53	34.615
850.82	0.000
851.12	40.909
851.42	36.364
851.71	23.077
852.01	5.000
852.31	-7.692
852.61	15.789
852.90	-33.333
853.20	-27.778
853.50	-133.333
853.79	4.762
854.09	9.091
854.39	50.000
854.68	-9.677
854.98	-11.538
855.28	27.778
855.57	42.857
855.87	12.000
856.17	59.091
856.46	-7.407
856.76	11.111
857.05	30.435
857.35	4.167
857.65	-30.769
857.94	57.143
858.24	7.407
858.53	17.391
858.83	11.765
859.13	-5.882
859.42	17.647
859.72	35.714
860.01	5.000
860.31	0.000
860.60	-10.000
860.90	-20.000
861.20	38.889
861.49	-15.385
861.79	3.333
862.08	-30.769
862.38	31.250
862.67	52.941
862.97	37.500
863.26	-77.778
863.56	20.000
863.85	-27.273
864.15	11.111
864.44	-100.000
864.74	-50.000
865.03	-25.000
865.33	0.000
865.62	25.806
865.92	4.545
866.21	30.435
866.51	-7.143
866.80	-120.000
867.10	-33.333
867.39	-58.333
867.69	1500.000
867.98	-71.429
868.27	-5.882
868.57	-300.000
868.86	-80.000
869.16	-71.429
869.45	0.000
869.75	36.364
870.04	42.857
870.33	16.667
870.63	-228.571
870.92	125.000
871.22	-112.500
871.51	-54.545
871.80	-633.333
872.10	-450.000
>>>>>End Processed Spectral Data<<<<<
