SpectraSuite Data File
++++++++++++++++++++++++++++++++++++
Date: Thu May 14 14:54:39 PDT 2015
User: schluterlab
Dark Spectrum Present: Yes
Reference Spectrum Present: Yes
Number of Sampled Component Spectra: 1
Spectrometers: USB2E3373
Integration Time (usec): 3000 (USB2E3373)
Spectra Averaged: 3 (USB2E3373)
Boxcar Smoothing: 0 (USB2E3373)
Correct for Electrical Dark: No (USB2E3373)
Strobe/Lamp Enabled: No (USB2E3373)
Correct for Detector Non-linearity: No (USB2E3373)
Correct for Stray Light: No (USB2E3373)
Number of Pixels in Processed Spectrum: 2048
>>>>>Begin Processed Spectral Data<<<<<
178.53	0.000
178.91	271.429
179.29	-2200.000
179.67	-1400.000
180.04	214.286
180.42	100.000
180.80	420.000
181.18	-1900.000
181.56	-1000.000
181.94	175.000
182.31	-375.000
182.69	466.667
183.07	-700.000
183.45	425.000
183.83	-216.667
184.20	-600.000
184.58	1000.000
184.96	-350.000
185.34	-44.444
185.72	-200.000
186.09	188.889
186.47	800.000
186.85	500.000
187.23	-100.000
187.61	-1400.000
187.98	380.000
188.36	500.000
188.74	-375.000
189.12	-600.000
189.49	-62.500
189.87	-175.000
190.25	-144.444
190.63	-360.000
191.00	-211.111
191.38	0.000
191.76	-475.000
192.14	-216.667
192.51	250.000
192.89	-116.667
193.27	0.000
193.65	-71.429
194.02	-2300.000
194.40	-257.143
194.78	200.000
195.15	0.000
195.53	-145.455
195.91	0.000
196.29	-300.000
196.66	-107.692
197.04	-1900.000
197.42	-257.143
197.79	-950.000
198.17	-75.000
198.55	-242.857
198.92	-100.000
199.30	-225.000
199.68	-45.455
200.05	-71.429
200.43	-700.000
200.81	285.714
201.18	0.000
201.56	255.556
201.94	0.000
202.31	700.000
202.69	-122.222
203.07	1400.000
203.44	-133.333
203.82	-525.000
204.19	-75.000
204.57	-266.667
204.95	-62.500
205.32	-1800.000
205.70	275.000
206.08	-266.667
206.45	-433.333
206.83	580.000
207.20	-200.000
207.58	-420.000
207.96	-300.000
208.33	-100.000
208.71	75.000
209.08	-50.000
209.46	0.000
209.84	350.000
210.21	600.000
210.59	700.000
210.96	733.333
211.34	-350.000
211.71	-112.500
212.09	-1400.000
212.46	0.000
212.84	1200.000
213.22	-280.000
213.59	-125.000
213.97	-90.000
214.34	-233.333
214.72	166.667
215.09	-250.000
215.47	0.000
215.84	57.143
216.22	850.000
216.59	-240.000
216.97	-280.000
217.34	-375.000
217.72	-187.500
218.09	-425.000
218.47	-350.000
218.84	0.000
219.22	140.000
219.59	-41.176
219.97	-55.000
220.34	1200.000
220.72	-166.667
221.09	-115.385
221.47	-400.000
221.84	-100.000
222.22	-271.429
222.59	0.000
222.97	-125.000
223.34	-380.000
223.72	-1000.000
224.09	-500.000
224.46	-425.000
224.84	-140.000
225.21	-300.000
225.59	-425.000
225.96	-450.000
226.34	3.846
226.71	350.000
227.08	-600.000
227.46	-33.333
227.83	-250.000
228.21	-36.842
228.58	225.000
228.95	550.000
229.33	-125.000
229.70	-120.000
230.08	26.316
230.45	230.000
230.82	-466.667
231.20	-114.286
231.57	-91.667
231.95	-72.727
232.32	-118.182
232.69	-15.000
233.07	-325.000
233.44	-41.176
233.81	-80.000
234.19	-16.667
234.56	-4.545
234.93	-10.345
235.31	-36.842
235.68	-38.889
236.05	-95.000
236.43	3.846
236.80	0.000
237.17	-37.037
237.55	-30.303
237.92	-150.000
238.29	-54.839
238.67	-27.273
239.04	-16.667
239.41	-11.905
239.79	0.000
240.16	-9.259
240.53	-19.565
240.91	-25.490
241.28	-9.836
241.65	28.358
242.02	12.162
242.40	-9.231
242.77	-9.333
243.14	-9.756
243.51	-17.105
243.89	-6.410
244.26	5.941
244.63	5.882
245.00	0.000
245.38	6.140
245.75	-5.310
246.12	7.143
246.49	8.527
246.87	4.286
247.24	7.285
247.61	8.553
247.98	6.040
248.36	6.790
248.73	3.067
249.10	5.464
249.47	13.433
249.84	12.565
250.22	9.845
250.59	8.889
250.96	11.364
251.33	8.163
251.70	10.256
252.08	7.083
252.45	9.016
252.82	8.678
253.19	6.250
253.56	7.224
253.94	10.000
254.31	13.636
254.68	15.385
255.05	16.287
255.42	9.184
255.79	6.472
256.16	11.258
256.54	9.272
256.91	8.852
257.28	8.852
257.65	7.006
258.02	9.145
258.39	10.826
258.76	12.232
259.14	10.057
259.51	10.951
259.88	10.482
260.25	9.444
260.62	10.685
260.99	12.022
261.36	10.992
261.73	10.875
262.10	8.791
262.47	10.456
262.85	13.384
263.22	9.870
263.59	7.895
263.96	12.532
264.33	12.276
264.70	13.333
265.07	13.126
265.44	13.832
265.81	9.722
266.18	11.111
266.55	12.500
266.92	9.567
267.29	11.816
267.66	11.086
268.03	12.445
268.40	13.570
268.77	10.706
269.14	10.793
269.51	12.500
269.88	10.246
270.25	11.268
270.62	10.549
270.99	12.727
271.36	12.673
271.73	9.627
272.10	12.826
272.47	11.022
272.84	10.040
273.21	11.623
273.58	11.290
273.95	7.692
274.32	11.977
274.69	11.025
275.06	10.989
275.43	9.612
275.80	13.580
276.17	10.370
276.54	10.261
276.91	10.912
277.28	10.488
277.65	11.490
278.02	9.007
278.39	11.594
278.76	9.139
279.13	10.993
279.50	12.027
279.87	11.449
280.23	8.451
280.60	12.881
280.97	11.184
281.34	9.508
281.71	11.675
282.08	10.465
282.45	9.820
282.82	11.460
283.19	9.047
283.56	9.180
283.92	12.012
284.29	10.900
284.66	12.644
285.03	9.455
285.40	10.974
285.77	11.300
286.14	10.687
286.51	10.502
286.87	9.479
287.24	12.349
287.61	9.716
287.98	8.761
288.35	11.391
288.72	10.651
289.08	11.274
289.45	9.024
289.82	10.392
290.19	11.782
290.56	10.986
290.93	9.986
291.29	11.433
291.66	9.780
292.03	9.634
292.40	9.796
292.77	10.243
293.13	8.931
293.50	8.936
293.87	8.725
294.24	11.333
294.60	10.367
294.97	7.785
295.34	10.883
295.71	7.818
296.08	8.786
296.44	9.191
296.81	7.674
297.18	8.344
297.55	8.373
297.91	8.660
298.28	8.412
298.65	9.394
299.02	8.146
299.38	8.238
299.75	9.112
300.12	7.755
300.48	7.373
300.85	9.224
301.22	8.501
301.59	8.333
301.95	8.814
302.32	10.222
302.69	8.872
303.05	8.487
303.42	9.424
303.79	8.750
304.15	8.728
304.52	8.140
304.89	9.110
305.25	9.006
305.62	9.300
305.99	9.278
306.35	8.165
306.72	9.204
307.09	9.442
307.45	10.145
307.82	8.174
308.19	9.485
308.55	9.450
308.92	9.737
309.29	9.387
309.65	9.454
310.02	9.901
310.38	8.760
310.75	9.709
311.12	10.930
311.48	9.580
311.85	9.402
312.22	9.677
312.58	10.892
312.95	9.465
313.31	10.930
313.68	10.623
314.05	10.569
314.41	11.566
314.78	10.354
315.14	10.708
315.51	12.465
315.87	11.161
316.24	11.233
316.61	12.966
316.97	10.498
317.34	11.287
317.70	12.140
318.07	12.257
318.43	12.245
318.80	13.963
319.16	11.674
319.53	11.397
319.89	11.569
320.26	12.811
320.62	11.879
320.99	12.835
321.35	12.200
321.72	14.698
322.08	13.436
322.45	12.827
322.81	13.538
323.18	12.389
323.54	13.362
323.91	14.324
324.27	15.232
324.64	14.358
325.00	13.516
325.37	15.070
325.73	14.876
326.10	15.085
326.46	14.658
326.83	15.853
327.19	13.543
327.56	15.731
327.92	14.634
328.29	14.597
328.65	15.243
329.01	14.890
329.38	16.344
329.74	16.096
330.11	16.267
330.47	15.838
330.84	16.279
331.20	16.917
331.56	16.378
331.93	17.573
332.29	17.034
332.66	16.279
333.02	15.913
333.38	15.604
333.75	15.825
334.11	16.597
334.48	16.667
334.84	17.247
335.20	16.121
335.57	17.622
335.93	17.934
336.29	16.722
336.66	17.241
337.02	17.057
337.38	18.282
337.75	16.612
338.11	17.578
338.47	18.197
338.84	16.836
339.20	16.681
339.56	17.381
339.93	17.980
340.29	17.552
340.65	18.329
341.02	17.558
341.38	18.432
341.74	17.918
342.11	17.940
342.47	17.554
342.83	18.035
343.20	18.316
343.56	18.284
343.92	18.815
344.28	17.578
344.65	18.915
345.01	18.955
345.37	18.040
345.73	17.381
346.10	19.111
346.46	18.354
346.82	18.427
347.19	18.411
347.55	18.968
347.91	19.019
348.27	18.437
348.63	18.964
349.00	18.568
349.36	19.257
349.72	18.378
350.08	19.168
350.45	18.707
350.81	19.834
351.17	17.970
351.53	18.954
351.89	20.349
352.26	18.582
352.62	20.373
352.98	18.397
353.34	18.820
353.70	19.260
354.07	18.927
354.43	19.210
354.79	18.848
355.15	20.015
355.51	21.272
355.87	20.194
356.24	20.684
356.60	18.847
356.96	19.867
357.32	19.703
357.68	19.693
358.04	19.686
358.40	20.075
358.77	20.249
359.13	19.276
359.49	19.703
359.85	19.869
360.21	19.656
360.57	20.388
360.93	20.592
361.29	20.351
361.66	20.565
362.02	21.642
362.38	21.223
362.74	20.531
363.10	21.458
363.46	21.191
363.82	21.236
364.18	21.323
364.54	21.231
364.90	22.007
365.26	20.552
365.62	21.200
365.98	22.192
366.35	19.799
366.71	22.177
367.07	22.057
367.43	21.536
367.79	21.168
368.15	21.405
368.51	22.395
368.87	21.489
369.23	21.733
369.59	22.541
369.95	22.312
370.31	22.687
370.67	22.558
371.03	22.368
371.39	22.163
371.75	22.146
372.11	23.713
372.47	24.238
372.83	23.429
373.19	22.748
373.55	22.764
373.91	23.108
374.27	22.962
374.63	23.545
374.99	22.215
375.35	23.701
375.71	24.774
376.07	23.951
376.42	24.370
376.78	24.052
377.14	24.329
377.50	25.364
377.86	24.446
378.22	24.850
378.58	24.673
378.94	24.413
379.30	24.956
379.66	24.985
380.02	25.851
380.38	25.461
380.74	25.634
381.09	25.958
381.45	25.909
381.81	26.639
382.17	25.891
382.53	26.140
382.89	25.734
383.25	26.436
383.61	25.694
383.97	26.502
384.32	27.273
384.68	25.754
385.04	27.530
385.40	26.871
385.76	28.488
386.12	27.648
386.48	27.765
386.83	27.950
387.19	27.462
387.55	27.582
387.91	27.911
388.27	27.425
388.62	27.950
388.98	27.355
389.34	28.049
389.70	28.879
390.06	28.597
390.42	28.193
390.77	29.500
391.13	28.580
391.49	29.650
391.85	28.788
392.20	29.478
392.56	29.711
392.92	30.153
393.28	29.685
393.64	29.665
393.99	30.622
394.35	29.731
394.71	30.479
395.07	30.060
395.42	29.697
395.78	30.043
396.14	30.481
396.50	30.879
396.85	30.352
397.21	29.527
397.57	30.565
397.92	30.470
398.28	30.310
398.64	29.291
399.00	30.052
399.35	30.681
399.71	31.033
400.07	30.769
400.42	30.675
400.78	31.250
401.14	31.076
401.49	31.381
401.85	30.930
402.21	31.750
402.57	31.631
402.92	31.678
403.28	30.972
403.63	30.907
403.99	31.176
404.35	31.381
404.70	31.161
405.06	30.543
405.42	30.972
405.77	32.606
406.13	31.713
406.49	31.757
406.84	31.856
407.20	32.197
407.55	32.405
407.91	31.238
408.27	31.213
408.62	32.344
408.98	32.095
409.34	31.026
409.69	33.066
410.05	31.946
410.40	33.527
410.76	31.296
411.11	33.080
411.47	33.170
411.83	33.216
412.18	32.289
412.54	33.017
412.89	32.945
413.25	33.183
413.60	33.257
413.96	32.751
414.31	32.351
414.67	33.035
415.03	33.415
415.38	34.678
415.74	32.682
416.09	33.189
416.45	33.312
416.80	32.619
417.16	32.822
417.51	33.998
417.87	33.292
418.22	34.251
418.58	34.387
418.93	34.924
419.29	35.142
419.64	33.733
420.00	34.184
420.35	33.745
420.71	34.635
421.06	33.755
421.42	34.805
421.77	33.656
422.12	35.254
422.48	35.330
422.83	35.323
423.19	35.279
423.54	36.173
423.90	36.113
424.25	36.160
424.61	35.075
424.96	35.969
425.31	35.775
425.67	36.500
426.02	36.967
426.38	36.223
426.73	36.328
427.09	36.909
427.44	36.155
427.79	36.318
428.15	36.701
428.50	36.292
428.85	37.600
429.21	36.596
429.56	37.068
429.92	37.346
430.27	36.964
430.62	37.763
430.98	38.269
431.33	36.950
431.68	36.877
432.04	38.751
432.39	38.725
432.74	38.014
433.10	38.670
433.45	38.239
433.80	38.036
434.16	38.378
434.51	38.386
434.86	38.654
435.22	40.276
435.57	40.094
435.92	38.397
436.28	39.932
436.63	40.033
436.98	39.238
437.34	39.628
437.69	40.066
438.04	39.926
438.39	39.632
438.75	40.011
439.10	40.222
439.45	39.463
439.81	39.435
440.16	40.912
440.51	41.249
440.86	39.633
441.22	39.603
441.57	41.038
441.92	40.204
442.27	40.606
442.63	41.232
442.98	41.142
443.33	41.294
443.68	42.121
444.03	42.004
444.39	42.025
444.74	42.471
445.09	41.257
445.44	41.675
445.79	41.906
446.15	42.292
446.50	42.636
446.85	41.877
447.20	41.248
447.55	42.573
447.91	40.681
448.26	42.230
448.61	41.498
448.96	43.455
449.31	41.145
449.66	41.013
450.02	42.036
450.37	42.621
450.72	42.250
451.07	43.394
451.42	42.403
451.77	42.412
452.12	43.341
452.47	41.830
452.83	43.074
453.18	42.382
453.53	41.758
453.88	43.291
454.23	42.881
454.58	42.600
454.93	42.536
455.28	43.588
455.63	42.410
455.98	42.961
456.34	43.581
456.69	43.210
457.04	44.385
457.39	42.960
457.74	42.673
458.09	42.449
458.44	43.373
458.79	43.115
459.14	43.314
459.49	43.463
459.84	43.757
460.19	41.921
460.54	43.555
460.89	44.097
461.24	43.161
461.59	44.051
461.94	43.297
462.29	44.457
462.64	43.090
462.99	44.193
463.34	43.933
463.69	43.904
464.04	43.969
464.39	43.778
464.74	42.987
465.09	44.464
465.44	43.938
465.79	44.157
466.14	42.783
466.49	43.737
466.84	44.408
467.19	44.335
467.54	43.361
467.89	43.736
468.24	44.488
468.59	42.733
468.94	43.357
469.29	43.971
469.64	43.675
469.99	45.570
470.34	44.616
470.68	44.908
471.03	45.645
471.38	44.016
471.73	45.514
472.08	44.353
472.43	44.311
472.78	44.899
473.13	45.512
473.48	45.257
473.83	44.341
474.17	43.787
474.52	46.001
474.87	44.241
475.22	46.592
475.57	44.652
475.92	45.047
476.27	44.569
476.61	45.639
476.96	45.099
477.31	46.931
477.66	46.642
478.01	46.009
478.36	44.068
478.70	45.074
479.05	45.961
479.40	45.755
479.75	46.158
480.10	45.334
480.45	45.169
480.79	45.805
481.14	45.312
481.49	45.388
481.84	45.387
482.19	45.290
482.53	45.999
482.88	46.035
483.23	46.020
483.58	44.847
483.92	44.770
484.27	45.301
484.62	44.843
484.97	44.984
485.31	43.963
485.66	41.534
486.01	40.979
486.36	43.319
486.70	45.055
487.05	47.068
487.40	45.925
487.75	45.700
488.09	45.027
488.44	44.760
488.79	44.351
489.13	44.967
489.48	44.932
489.83	42.736
490.17	44.188
490.52	44.704
490.87	45.389
491.22	45.494
491.56	45.350
491.91	44.919
492.26	45.435
492.60	45.343
492.95	45.985
493.30	45.944
493.64	45.423
493.99	45.614
494.34	45.906
494.68	45.567
495.03	45.330
495.37	46.205
495.72	45.850
496.07	46.450
496.41	45.603
496.76	46.289
497.11	46.242
497.45	46.612
497.80	46.246
498.14	46.122
498.49	45.634
498.84	46.252
499.18	46.019
499.53	46.592
499.87	45.802
500.22	45.948
500.56	46.064
500.91	47.597
501.26	47.000
501.60	45.603
501.95	46.201
502.29	47.082
502.64	46.699
502.98	45.686
503.33	45.745
503.67	46.010
504.02	46.235
504.36	46.336
504.71	46.716
505.06	46.294
505.40	46.344
505.75	46.812
506.09	46.271
506.44	47.029
506.78	47.385
507.13	47.810
507.47	46.850
507.82	47.017
508.16	46.989
508.51	46.367
508.85	46.953
509.19	46.471
509.54	48.175
509.88	47.353
510.23	47.742
510.57	48.478
510.92	47.218
511.26	46.705
511.61	46.692
511.95	46.559
512.30	47.317
512.64	46.777
512.98	47.424
513.33	46.976
513.67	47.476
514.02	48.748
514.36	49.054
514.70	48.281
515.05	48.592
515.39	48.294
515.74	49.205
516.08	47.808
516.42	48.770
516.77	48.370
517.11	47.860
517.46	49.364
517.80	49.011
518.14	50.109
518.49	50.000
518.83	47.738
519.17	47.711
519.52	48.061
519.86	49.419
520.20	48.935
520.55	48.631
520.89	49.606
521.23	49.693
521.58	48.757
521.92	48.782
522.26	47.938
522.61	50.579
522.95	48.443
523.29	49.195
523.64	49.159
523.98	50.143
524.32	51.232
524.66	49.744
525.01	48.641
525.35	50.316
525.69	48.202
526.04	48.909
526.38	49.080
526.72	48.847
527.06	49.267
527.41	49.329
527.75	49.050
528.09	50.000
528.43	49.556
528.78	49.249
529.12	49.885
529.46	48.173
529.80	50.343
530.15	49.739
530.49	48.992
530.83	49.233
531.17	49.940
531.51	50.060
531.86	50.300
532.20	50.427
532.54	48.713
532.88	49.394
533.22	48.674
533.57	49.452
533.91	49.270
534.25	48.728
534.59	48.793
534.93	49.349
535.27	49.915
535.62	50.085
535.96	50.145
536.30	48.884
536.64	49.610
536.98	49.815
537.32	49.938
537.66	50.156
538.01	47.976
538.35	48.660
538.69	48.498
539.03	49.234
539.37	48.999
539.71	50.330
540.05	49.281
540.39	48.472
540.73	47.723
541.07	48.620
541.42	48.080
541.76	48.992
542.10	48.311
542.44	48.051
542.78	49.331
543.12	48.033
543.46	47.314
543.80	47.842
544.14	47.756
544.48	48.936
544.82	49.671
545.16	49.553
545.50	48.951
545.84	48.806
546.18	49.938
546.52	48.408
546.86	47.925
547.20	49.427
547.54	48.315
547.88	47.378
548.22	48.538
548.56	48.625
548.90	49.433
549.24	48.085
549.58	48.707
549.92	49.235
550.26	49.450
550.60	48.117
550.94	49.677
551.28	48.977
551.62	48.046
551.96	47.832
552.30	49.203
552.64	48.724
552.98	49.033
553.32	50.418
553.66	49.518
554.00	49.622
554.34	48.970
554.68	49.645
555.02	49.540
555.36	50.559
555.69	48.687
556.03	48.739
556.37	49.437
556.71	48.763
557.05	48.946
557.39	49.502
557.73	49.339
558.07	50.265
558.41	49.967
558.75	49.358
559.08	50.104
559.42	50.412
559.76	49.525
560.10	48.828
560.44	49.142
560.78	49.000
561.12	48.645
561.45	48.479
561.79	49.695
562.13	50.524
562.47	48.335
562.81	50.316
563.15	48.737
563.48	48.229
563.82	48.005
564.16	47.608
564.50	48.510
564.84	47.611
565.17	49.118
565.51	48.619
565.85	48.990
566.19	48.790
566.52	49.152
566.86	48.896
567.20	47.091
567.54	47.955
567.88	48.522
568.21	47.974
568.55	48.681
568.89	47.254
569.23	46.853
569.56	45.955
569.90	45.973
570.24	46.037
570.57	46.151
570.91	45.652
571.25	45.328
571.59	46.034
571.92	45.256
572.26	45.738
572.60	45.263
572.93	45.004
573.27	45.097
573.61	45.447
573.95	45.059
574.28	44.826
574.62	44.861
574.96	43.405
575.29	44.305
575.63	44.283
575.97	44.575
576.30	43.992
576.64	44.262
576.98	43.736
577.31	44.700
577.65	44.428
577.98	44.164
578.32	43.629
578.66	44.044
578.99	44.768
579.33	45.420
579.67	44.878
580.00	43.785
580.34	44.524
580.67	44.748
581.01	44.007
581.35	43.600
581.68	43.833
582.02	43.648
582.35	44.952
582.69	44.937
583.02	45.094
583.36	45.307
583.70	45.331
584.03	44.492
584.37	45.026
584.70	44.743
585.04	44.246
585.37	43.747
585.71	44.121
586.04	43.901
586.38	44.986
586.72	45.375
587.05	45.101
587.39	44.951
587.72	45.455
588.06	44.560
588.39	45.307
588.73	45.238
589.06	44.695
589.40	46.097
589.73	45.823
590.07	45.590
590.40	46.078
590.73	45.705
591.07	47.096
591.40	44.868
591.74	46.065
592.07	46.691
592.41	45.426
592.74	44.870
593.08	46.242
593.41	45.261
593.75	45.776
594.08	45.501
594.41	46.250
594.75	45.766
595.08	46.332
595.42	46.006
595.75	45.334
596.09	46.459
596.42	46.005
596.75	47.125
597.09	46.303
597.42	45.729
597.75	45.433
598.09	46.706
598.42	47.125
598.76	45.204
599.09	45.283
599.42	45.323
599.76	45.196
600.09	45.712
600.42	45.846
600.76	45.641
601.09	45.835
601.42	46.069
601.76	45.414
602.09	46.605
602.42	46.020
602.76	46.236
603.09	46.035
603.42	46.279
603.76	45.455
604.09	46.238
604.42	45.651
604.76	45.167
605.09	46.909
605.42	46.332
605.75	45.577
606.09	46.025
606.42	45.713
606.75	45.990
607.09	44.777
607.42	45.010
607.75	45.955
608.08	45.620
608.42	45.707
608.75	46.352
609.08	45.798
609.41	45.390
609.75	46.875
610.08	46.790
610.41	46.347
610.74	45.378
611.07	47.114
611.41	46.996
611.74	46.697
612.07	46.798
612.40	46.768
612.73	47.237
613.07	46.993
613.40	47.401
613.73	46.365
614.06	46.909
614.39	46.599
614.72	46.240
615.06	45.958
615.39	45.433
615.72	47.014
616.05	46.333
616.38	48.385
616.71	47.335
617.05	46.805
617.38	47.994
617.71	48.650
618.04	47.167
618.37	47.268
618.70	48.925
619.03	48.746
619.36	47.842
619.69	49.071
620.03	47.207
620.36	48.344
620.69	47.625
621.02	47.572
621.35	50.145
621.68	50.398
622.01	48.683
622.34	48.884
622.67	48.729
623.00	48.313
623.33	49.768
623.66	48.898
623.99	48.716
624.32	50.097
624.65	48.520
624.99	49.155
625.32	49.379
625.65	50.236
625.98	49.017
626.31	49.610
626.64	49.011
626.97	48.462
627.30	48.671
627.63	48.537
627.96	48.799
628.29	49.883
628.62	49.958
628.95	50.482
629.28	49.108
629.61	50.505
629.94	49.540
630.26	48.390
630.59	50.950
630.92	49.264
631.25	50.537
631.58	50.847
631.91	50.609
632.24	50.720
632.57	49.810
632.90	53.059
633.23	51.939
633.56	48.776
633.89	51.550
634.22	52.287
634.55	51.670
634.88	51.732
635.20	52.099
635.53	52.429
635.86	49.404
636.19	51.113
636.52	51.582
636.85	51.379
637.18	49.480
637.51	50.430
637.83	52.602
638.16	50.461
638.49	52.700
638.82	51.522
639.15	50.974
639.48	52.656
639.81	51.270
640.13	51.237
640.46	50.788
640.79	50.980
641.12	52.795
641.45	51.819
641.77	54.814
642.10	53.806
642.43	52.660
642.76	53.930
643.09	54.110
643.41	52.101
643.74	53.655
644.07	54.759
644.40	53.324
644.73	51.959
645.05	54.332
645.38	53.094
645.71	55.132
646.04	53.802
646.36	52.263
646.69	52.454
647.02	54.281
647.35	54.504
647.67	53.301
648.00	54.299
648.33	52.553
648.66	53.923
648.98	50.612
649.31	51.015
649.64	52.722
649.96	52.918
650.29	50.348
650.62	50.495
650.94	53.453
651.27	49.850
651.60	51.462
651.92	52.280
652.25	48.915
652.58	50.344
652.90	51.890
653.23	54.366
653.56	53.067
653.88	52.949
654.21	51.127
654.54	53.035
654.86	52.266
655.19	49.937
655.52	50.279
655.84	45.679
656.17	51.514
656.49	71.318
656.82	77.747
657.15	61.339
657.47	47.570
657.80	35.233
658.13	27.767
658.45	36.164
658.78	43.661
659.10	42.412
659.43	42.190
659.75	41.224
660.08	40.000
660.41	41.853
660.73	45.610
661.06	50.367
661.38	51.356
661.71	52.241
662.03	52.557
662.36	54.562
662.68	52.720
663.01	52.743
663.33	53.497
663.66	55.495
663.98	51.346
664.31	55.535
664.63	52.216
664.96	53.176
665.28	49.546
665.61	51.923
665.93	52.857
666.26	54.659
666.58	52.214
666.91	55.140
667.23	54.667
667.56	51.677
667.88	54.400
668.21	53.906
668.53	54.054
668.86	52.259
669.18	52.342
669.50	52.883
669.83	54.400
670.15	53.150
670.48	56.151
670.80	51.052
671.13	52.741
671.45	53.937
671.77	53.672
672.10	51.833
672.42	50.324
672.75	51.306
673.07	49.104
673.39	52.388
673.72	53.020
674.04	53.276
674.37	52.236
674.69	53.616
675.01	54.095
675.34	50.763
675.66	50.749
675.98	54.104
676.31	55.078
676.63	52.281
676.95	56.130
677.28	53.629
677.60	49.213
677.92	51.631
678.25	51.188
678.57	52.313
678.89	50.512
679.22	50.697
679.54	50.427
679.86	49.831
680.18	49.751
680.51	48.742
680.83	48.118
681.15	51.724
681.48	48.877
681.80	50.777
682.12	51.224
682.44	48.915
682.77	51.596
683.09	52.083
683.41	51.550
683.73	48.577
684.06	50.923
684.38	49.016
684.70	51.706
685.02	51.463
685.34	49.584
685.67	47.950
685.99	48.313
686.31	47.820
686.63	52.449
686.96	49.211
687.28	49.186
687.60	49.832
687.92	47.428
688.24	49.249
688.56	46.724
688.89	50.454
689.21	54.012
689.53	49.804
689.85	50.493
690.17	48.889
690.49	50.398
690.82	49.505
691.14	50.202
691.46	51.052
691.78	50.829
692.10	49.908
692.42	46.429
692.74	51.543
693.06	46.111
693.39	50.664
693.71	46.053
694.03	47.955
694.35	49.714
694.67	50.308
694.99	49.149
695.31	49.669
695.63	51.082
695.95	49.896
696.27	50.549
696.59	50.885
696.91	50.676
697.23	52.088
697.56	50.102
697.88	49.811
698.20	48.776
698.52	51.894
698.84	51.143
699.16	53.061
699.48	49.372
699.80	48.298
700.12	48.908
700.44	49.539
700.76	49.644
701.08	53.027
701.40	51.554
701.72	50.249
702.04	52.139
702.36	51.832
702.68	48.411
703.00	51.834
703.32	44.335
703.64	51.589
703.96	49.403
704.28	45.946
704.60	52.405
704.91	48.980
705.23	49.589
705.55	48.468
705.87	55.152
706.19	52.147
706.51	49.096
706.83	52.450
707.15	48.413
707.47	47.897
707.79	47.162
708.11	47.881
708.43	47.097
708.74	46.205
709.06	48.492
709.38	50.939
709.70	49.628
710.02	47.287
710.34	46.809
710.66	48.324
710.98	49.180
711.29	48.352
711.61	50.282
711.93	48.718
712.25	47.838
712.57	54.277
712.89	52.059
713.20	50.592
713.52	51.156
713.84	47.354
714.16	50.526
714.48	45.619
714.80	49.870
715.11	40.945
715.43	49.072
715.75	48.684
716.07	46.409
716.39	50.273
716.70	43.976
717.02	53.770
717.34	53.310
717.66	51.007
717.97	42.123
718.29	50.172
718.61	46.053
718.93	51.456
719.24	46.894
719.56	46.319
719.88	46.547
720.20	49.032
720.51	44.410
720.83	45.938
721.15	49.013
721.46	48.288
721.78	52.000
722.10	51.133
722.42	46.980
722.73	45.806
723.05	44.561
723.37	48.264
723.68	46.237
724.00	45.126
724.32	46.479
724.63	46.154
724.95	50.709
725.27	45.296
725.58	46.996
725.90	51.724
726.22	44.201
726.53	46.753
726.85	47.799
727.16	48.640
727.48	50.153
727.80	48.675
728.11	44.523
728.43	46.465
728.74	52.174
729.06	47.351
729.38	46.429
729.69	45.302
730.01	45.238
730.32	44.242
730.64	43.082
730.96	45.031
731.27	46.648
731.59	49.725
731.90	44.935
732.22	45.573
732.53	41.436
732.85	41.714
733.16	43.402
733.48	45.122
733.80	44.290
734.11	45.014
734.43	45.946
734.74	48.861
735.06	42.211
735.37	42.973
735.69	43.243
736.00	46.610
736.32	40.701
736.63	43.889
736.95	42.816
737.26	46.061
737.58	43.333
737.89	47.647
738.21	40.979
738.52	43.279
738.83	46.416
739.15	40.426
739.46	45.578
739.78	50.307
740.09	42.980
740.41	46.064
740.72	46.667
741.04	43.689
741.35	44.211
741.66	43.137
741.98	45.082
742.29	43.096
742.61	53.070
742.92	45.000
743.23	46.570
743.55	48.450
743.86	46.400
744.18	42.975
744.49	44.304
744.80	42.798
745.12	47.679
745.43	50.813
745.74	48.276
746.06	49.576
746.37	45.148
746.68	48.780
747.00	47.083
747.31	47.639
747.62	46.538
747.94	46.559
748.25	46.185
748.56	46.939
748.88	43.162
749.19	46.552
749.50	43.290
749.82	47.791
750.13	48.043
750.44	44.333
750.75	40.615
751.07	43.385
751.38	44.795
751.69	43.131
752.01	42.071
752.32	45.425
752.63	41.497
752.94	43.599
753.26	42.379
753.57	48.889
753.88	42.697
754.19	41.479
754.51	41.479
754.82	41.479
755.13	43.607
755.44	41.980
755.75	43.750
756.07	48.657
756.38	42.453
756.69	45.482
757.00	39.889
757.31	40.984
757.63	44.501
757.94	40.141
758.25	39.278
758.56	42.266
758.87	37.727
759.18	40.533
759.50	43.059
759.81	43.697
760.12	41.779
760.43	40.885
760.74	45.074
761.05	38.750
761.36	37.831
761.67	40.609
761.99	38.919
762.30	42.378
762.61	38.614
762.92	42.910
763.23	41.948
763.54	41.007
763.85	40.893
764.16	41.751
764.47	42.958
764.78	42.492
765.10	42.522
765.41	43.333
765.72	36.508
766.03	41.243
766.34	38.871
766.65	39.721
766.96	43.825
767.27	40.092
767.58	36.816
767.89	44.231
768.20	40.845
768.51	44.907
768.82	42.169
769.13	39.015
769.44	37.308
769.75	41.516
770.06	39.231
770.37	45.669
770.68	41.277
770.99	34.413
771.30	44.815
771.61	39.924
771.92	39.630
772.23	40.891
772.54	40.278
772.85	45.161
773.16	37.143
773.47	35.450
773.78	33.514
774.09	38.068
774.39	38.500
774.70	44.262
775.01	42.073
775.32	35.882
775.63	36.196
775.94	33.121
776.25	49.032
776.56	40.385
776.87	46.259
777.18	35.172
777.48	41.958
777.79	31.757
778.10	36.765
778.41	38.194
778.72	46.207
779.03	38.889
779.34	38.182
779.65	33.161
779.95	38.333
780.26	31.818
780.57	32.903
780.88	44.203
781.19	43.871
781.50	45.294
781.80	40.323
782.11	36.508
782.42	33.333
782.73	32.335
783.04	32.961
783.34	34.545
783.65	31.373
783.96	39.130
784.27	30.952
784.57	35.099
784.88	33.571
785.19	34.646
785.50	39.370
785.81	36.090
786.11	41.538
786.42	30.216
786.73	35.252
787.04	45.865
787.34	38.525
787.65	39.200
787.96	32.090
788.26	37.762
788.57	41.958
788.88	43.421
789.19	35.948
789.49	30.822
789.80	36.879
790.11	40.157
790.41	29.688
790.72	27.966
791.03	30.097
791.33	36.522
791.64	38.596
791.95	31.250
792.25	36.190
792.56	36.607
792.87	33.333
793.17	32.143
793.48	28.125
793.79	25.301
794.09	24.771
794.40	39.450
794.70	37.415
795.01	27.922
795.32	22.603
795.62	33.099
795.93	31.818
796.23	25.410
796.54	33.036
796.85	28.723
797.15	17.391
797.46	16.438
797.76	22.500
798.07	32.609
798.37	19.588
798.68	27.273
798.99	26.437
799.29	26.966
799.60	35.106
799.90	28.916
800.21	40.000
800.51	25.373
800.82	27.941
801.12	9.589
801.43	19.118
801.73	25.424
802.04	30.303
802.34	28.333
802.65	35.593
802.95	32.836
803.26	6.780
803.56	12.329
803.87	40.000
804.17	30.137
804.48	8.772
804.78	23.611
805.09	24.138
805.39	29.730
805.70	7.042
806.00	26.829
806.30	30.120
806.61	38.356
806.91	26.923
807.22	27.778
807.52	29.885
807.83	33.333
808.13	31.325
808.43	20.225
808.74	22.500
809.04	13.235
809.35	30.667
809.65	17.143
809.95	34.247
810.26	29.825
810.56	17.241
810.86	20.588
811.17	19.298
811.47	11.475
811.77	13.333
812.08	18.644
812.38	35.000
812.69	24.138
812.99	15.094
813.29	17.949
813.59	24.000
813.90	43.860
814.20	12.727
814.50	40.845
814.81	29.487
815.11	26.230
815.41	14.925
815.72	18.966
816.02	21.429
816.32	11.111
816.62	15.909
816.93	11.111
817.23	29.630
817.53	25.532
817.84	54.762
818.14	8.824
818.44	10.204
818.74	17.778
819.04	-10.256
819.35	-20.000
819.65	-30.769
819.95	9.434
820.25	17.778
820.56	26.190
820.86	-21.875
821.16	2.564
821.46	6.977
821.76	14.000
822.07	14.286
822.37	8.696
822.67	29.787
822.97	2.703
823.27	17.500
823.57	18.367
823.88	17.778
824.18	5.000
824.48	-3.333
824.78	28.000
825.08	0.000
825.38	28.889
825.69	19.149
825.99	22.222
826.29	-25.714
826.59	25.641
826.89	2.326
827.19	0.000
827.49	26.471
827.79	27.083
828.09	-27.027
828.39	-3.333
828.70	-2.439
829.00	-6.977
829.30	-21.429
829.60	-5.882
829.90	2.174
830.20	-8.571
830.50	10.345
830.80	-16.667
831.10	15.385
831.40	5.882
831.70	0.000
832.00	41.935
832.30	-76.471
832.60	-41.667
832.90	-7.692
833.20	-42.105
833.50	-25.000
833.80	-31.579
834.10	-33.333
834.40	8.333
834.70	21.875
835.00	-34.286
835.30	38.235
835.60	3.333
835.90	-52.000
836.20	-77.273
836.50	-24.000
836.80	-9.091
837.10	-25.926
837.40	18.519
837.70	-25.000
838.00	17.857
838.30	8.696
838.60	-3.448
838.90	-21.429
839.19	-86.957
839.49	-166.667
839.79	-4.348
840.09	-56.250
840.39	-35.000
840.69	-16.129
840.99	-14.286
841.29	-73.333
841.59	-31.579
841.88	25.641
842.18	-23.077
842.48	-150.000
842.78	-5.000
843.08	10.000
843.38	-9.677
843.68	-66.667
843.97	-5.882
844.27	-18.750
844.57	-21.053
844.87	-70.000
845.17	-53.333
845.47	-38.095
845.76	-38.095
846.06	-188.889
846.36	-82.353
846.66	-26.923
846.96	-86.667
847.25	-76.471
847.55	4.348
847.85	-30.000
848.15	-5.882
848.44	-45.455
848.74	-28.571
849.04	-50.000
849.34	-43.750
849.63	-30.435
849.93	900.000
850.23	-46.667
850.53	-3.846
850.82	-154.545
851.12	-9.091
851.42	-90.909
851.71	23.077
852.01	-40.000
852.31	-38.462
852.61	-57.895
852.90	-83.333
853.20	-22.222
853.50	-155.556
853.79	-38.095
854.09	-4.545
854.39	-116.667
854.68	16.129
854.98	-65.385
855.28	-16.667
855.57	-28.571
855.87	-20.000
856.17	-27.273
856.46	0.000
856.76	-88.889
857.05	-26.087
857.35	-29.167
857.65	-61.538
857.94	4.762
858.24	0.000
858.53	4.348
858.83	41.176
859.13	0.000
859.42	-23.529
859.72	-50.000
860.01	-20.000
860.31	-177.778
860.60	-120.000
860.90	-40.000
861.20	-88.889
861.49	-30.769
861.79	6.667
862.08	-23.077
862.38	0.000
862.67	-17.647
862.97	-43.750
863.26	-200.000
863.56	-120.000
863.85	-118.182
864.15	-16.667
864.44	-600.000
864.74	-107.143
865.03	-56.250
865.33	-110.000
865.62	-35.484
865.92	0.000
866.21	13.043
866.51	-57.143
866.80	-360.000
867.10	-116.667
867.39	-66.667
867.69	1600.000
867.98	-157.143
868.27	-35.294
868.57	-1900.000
868.86	-180.000
869.16	-14.286
869.45	-29.167
869.75	-90.909
870.04	-200.000
870.33	-66.667
870.63	-385.714
870.92	-200.000
871.22	-237.500
871.51	-90.909
871.80	-633.333
872.10	-750.000
>>>>>End Processed Spectral Data<<<<<
