SpectraSuite Data File
++++++++++++++++++++++++++++++++++++
Date: Thu May 14 14:45:15 PDT 2015
User: schluterlab
Dark Spectrum Present: Yes
Reference Spectrum Present: Yes
Number of Sampled Component Spectra: 1
Spectrometers: USB2E3373
Integration Time (usec): 3000 (USB2E3373)
Spectra Averaged: 3 (USB2E3373)
Boxcar Smoothing: 0 (USB2E3373)
Correct for Electrical Dark: No (USB2E3373)
Strobe/Lamp Enabled: No (USB2E3373)
Correct for Detector Non-linearity: No (USB2E3373)
Correct for Stray Light: No (USB2E3373)
Number of Pixels in Processed Spectrum: 2048
>>>>>Begin Processed Spectral Data<<<<<
178.53	0.000
178.91	28.571
179.29	-1000.000
179.67	-500.000
180.04	71.429
180.42	-20.000
180.80	40.000
181.18	-300.000
181.56	500.000
181.94	75.000
182.31	175.000
182.69	-66.667
183.07	150.000
183.45	100.000
183.83	0.000
184.20	33.333
184.58	-400.000
184.96	-100.000
185.34	-22.222
185.72	100.000
186.09	100.000
186.47	650.000
186.85	200.000
187.23	-100.000
187.61	-1400.000
187.98	180.000
188.36	275.000
188.74	-50.000
189.12	233.333
189.49	43.750
189.87	-12.500
190.25	-11.111
190.63	40.000
191.00	22.222
191.38	0.000
191.76	-175.000
192.14	0.000
192.51	250.000
192.89	116.667
193.27	0.000
193.65	71.429
194.02	-800.000
194.40	42.857
194.78	-71.429
195.15	0.000
195.53	100.000
195.91	0.000
196.29	75.000
196.66	0.000
197.04	100.000
197.42	-85.714
197.79	0.000
198.17	-12.500
198.55	28.571
198.92	66.667
199.30	-187.500
199.68	-18.182
200.05	-7.143
200.43	-50.000
200.81	57.143
201.18	0.000
201.56	100.000
201.94	0.000
202.31	233.333
202.69	0.000
203.07	-700.000
203.44	44.444
203.82	-225.000
204.19	-25.000
204.57	-50.000
204.95	-37.500
205.32	-600.000
205.70	-0.000
206.08	150.000
206.45	133.333
206.83	300.000
207.20	33.333
207.58	-100.000
207.96	-133.333
208.33	83.333
208.71	91.667
209.08	-16.667
209.46	0.000
209.84	-0.000
210.21	-150.000
210.59	-50.000
210.96	333.333
211.34	200.000
211.71	-25.000
212.09	400.000
212.46	0.000
212.84	500.000
213.22	-140.000
213.59	-50.000
213.97	10.000
214.34	0.000
214.72	66.667
215.09	-25.000
215.47	0.000
215.84	85.714
216.22	400.000
216.59	0.000
216.97	-160.000
217.34	150.000
217.72	87.500
218.09	-100.000
218.47	-175.000
218.84	0.000
219.22	-100.000
219.59	35.294
219.97	5.000
220.34	450.000
220.72	55.556
221.09	38.462
221.47	-100.000
221.84	10.000
222.22	-57.143
222.59	0.000
222.97	-12.500
223.34	-240.000
223.72	-1100.000
224.09	-75.000
224.46	-125.000
224.84	120.000
225.21	0.000
225.59	-200.000
225.96	-50.000
226.34	23.077
226.71	66.667
227.08	0.000
227.46	40.000
227.83	75.000
228.21	57.895
228.58	125.000
228.95	-50.000
229.33	33.333
229.70	40.000
230.08	68.421
230.45	20.000
230.82	100.000
231.20	-14.286
231.57	125.000
231.95	81.818
232.32	72.727
232.69	35.000
233.07	75.000
233.44	-5.882
233.81	20.000
234.19	83.333
234.56	31.818
234.93	37.931
235.31	47.368
235.68	50.000
236.05	15.000
236.43	30.769
236.80	44.000
237.17	33.333
237.55	39.394
237.92	-20.000
238.29	16.129
238.67	29.545
239.04	25.000
239.41	35.714
239.79	65.217
240.16	40.741
240.53	28.261
240.91	9.804
241.28	22.951
241.65	50.746
242.02	43.243
242.40	33.846
242.77	36.000
243.14	30.488
243.51	27.632
243.89	26.923
244.26	36.634
244.63	47.059
245.00	29.907
245.38	36.842
245.75	31.858
246.12	38.889
246.49	34.884
246.87	40.000
247.24	38.411
247.61	42.105
247.98	35.570
248.36	38.889
248.73	38.650
249.10	37.705
249.47	39.801
249.84	39.791
250.22	37.824
250.59	38.889
250.96	40.909
251.33	37.245
251.70	35.043
252.08	37.500
252.45	36.475
252.82	30.992
253.19	35.156
253.56	38.783
253.94	35.385
254.31	40.152
254.68	41.958
255.05	39.739
255.42	38.776
255.79	36.246
256.16	39.404
256.54	36.755
256.91	36.393
257.28	35.738
257.65	37.580
258.02	36.873
258.39	37.322
258.76	42.813
259.14	37.931
259.51	36.888
259.88	35.411
260.25	38.611
260.62	38.356
260.99	39.891
261.36	36.997
261.73	38.727
262.10	37.363
262.47	38.070
262.85	38.889
263.22	36.623
263.59	34.737
263.96	37.852
264.33	37.852
264.70	41.235
265.07	42.005
265.44	39.456
265.81	36.343
266.18	37.642
266.55	36.607
266.92	36.902
267.29	37.199
267.66	39.024
268.03	38.210
268.40	35.908
268.77	37.585
269.14	37.445
269.51	37.281
269.88	38.730
270.25	38.028
270.62	40.928
270.99	36.566
271.36	38.020
271.73	35.756
272.10	36.273
272.47	37.876
272.84	39.558
273.21	37.074
273.58	38.306
273.95	35.769
274.32	34.981
274.69	37.331
275.06	38.828
275.43	33.457
275.80	33.333
276.17	33.889
276.54	36.754
276.91	34.526
277.28	36.347
277.65	35.907
278.02	35.110
278.39	36.957
278.76	33.743
279.13	35.638
279.50	34.880
279.87	35.599
280.23	31.690
280.60	34.915
280.97	34.704
281.34	34.635
281.71	35.533
282.08	35.880
282.45	35.843
282.82	35.636
283.19	32.633
283.56	35.738
283.92	35.135
284.29	34.755
284.66	35.632
285.03	31.571
285.40	34.467
285.77	33.127
286.14	36.794
286.51	34.703
286.87	34.755
287.24	32.982
287.61	33.483
287.98	33.837
288.35	32.544
288.72	32.101
289.08	33.968
289.45	31.953
289.82	31.325
290.19	34.626
290.56	32.394
290.93	33.666
291.29	33.196
291.66	32.369
292.03	30.529
292.40	33.061
292.77	31.132
293.13	28.958
293.50	31.012
293.87	31.007
294.24	30.933
294.60	30.721
294.97	28.591
295.34	30.218
295.71	29.004
296.08	28.682
296.44	30.147
296.81	30.329
297.18	28.020
297.55	27.594
297.91	28.588
298.28	26.422
298.65	27.111
299.02	28.099
299.38	27.803
299.75	27.804
300.12	26.968
300.48	26.728
300.85	27.222
301.22	26.846
301.59	26.826
301.95	27.910
302.32	27.556
302.69	25.958
303.05	27.639
303.42	26.164
303.79	27.708
304.15	25.657
304.52	27.590
304.89	27.330
305.25	26.087
305.62	26.019
305.99	26.907
306.35	27.016
306.72	27.611
307.09	26.802
307.45	25.776
307.82	26.640
308.19	26.539
308.55	26.905
308.92	27.459
309.29	26.341
309.65	26.511
310.02	26.634
310.38	25.886
310.75	26.408
311.12	27.804
311.48	26.100
311.85	25.831
312.22	26.945
312.58	25.822
312.95	27.916
313.31	27.100
313.68	27.289
314.05	27.281
314.41	27.049
314.78	27.611
315.14	26.134
315.51	28.070
315.87	26.463
316.24	28.037
316.61	27.798
316.97	27.330
317.34	26.720
317.70	27.424
318.07	27.778
318.43	27.551
318.80	27.341
319.16	26.352
319.53	26.821
319.89	27.432
320.26	26.957
320.62	26.241
320.99	27.331
321.35	27.264
321.72	28.093
322.08	27.592
322.45	29.630
322.81	29.332
323.18	27.876
323.54	29.914
323.91	30.783
324.27	28.313
324.64	30.227
325.00	28.192
325.37	28.911
325.73	28.264
326.10	29.846
326.46	30.130
326.83	28.903
327.19	28.189
327.56	29.644
327.92	28.403
328.29	29.032
328.65	29.983
329.01	30.203
329.38	29.992
329.74	29.366
330.11	29.709
330.47	30.497
330.84	30.663
331.20	28.417
331.56	30.243
331.93	31.213
332.29	30.339
332.66	29.402
333.02	29.062
333.38	29.866
333.75	29.882
334.11	29.024
334.48	30.941
334.84	30.416
335.20	29.891
335.57	30.523
335.93	30.992
336.29	28.369
336.66	30.782
337.02	29.682
337.38	30.697
337.75	30.579
338.11	29.605
338.47	29.694
338.84	30.880
339.20	29.739
339.56	29.736
339.93	29.146
340.29	28.663
340.65	29.521
341.02	30.646
341.38	29.588
341.74	29.217
342.11	30.571
342.47	29.468
342.83	30.515
343.20	30.662
343.56	29.912
343.92	28.823
344.28	30.937
344.65	30.543
345.01	30.499
345.37	31.026
345.73	30.631
346.10	29.797
346.46	29.589
346.82	30.487
347.19	31.016
347.55	29.970
347.91	30.461
348.27	29.211
348.63	30.008
349.00	29.157
349.36	29.591
349.72	30.134
350.08	30.015
350.45	30.190
350.81	30.845
351.17	28.496
351.53	30.402
351.89	30.068
352.26	29.776
352.62	30.224
352.98	29.847
353.34	28.454
353.70	30.740
354.07	29.434
354.43	30.068
354.79	30.441
355.15	29.728
355.51	29.313
355.87	30.516
356.24	30.342
356.60	29.933
356.96	30.245
357.32	29.591
357.68	29.283
358.04	30.464
358.40	29.851
358.77	29.898
359.13	29.247
359.49	30.112
359.85	29.949
360.21	29.627
360.57	28.643
360.93	29.478
361.29	29.965
361.66	29.761
362.02	30.132
362.38	29.937
362.74	29.888
363.10	29.849
363.46	30.679
363.82	29.901
364.18	30.401
364.54	30.705
364.90	30.569
365.26	29.586
365.62	30.667
365.98	30.293
366.35	30.470
366.71	29.728
367.07	30.244
367.43	30.532
367.79	30.192
368.15	29.967
368.51	29.905
368.87	29.980
369.23	30.200
369.59	30.260
369.95	30.967
370.31	30.587
370.67	30.743
371.03	31.510
371.39	29.617
371.75	29.917
372.11	31.233
372.47	30.467
372.83	30.497
373.19	31.021
373.55	30.827
373.91	29.584
374.27	30.272
374.63	30.717
374.99	30.106
375.35	31.039
375.71	30.129
376.07	29.890
376.42	30.605
376.78	31.510
377.14	30.692
377.50	30.677
377.86	30.542
378.22	31.437
378.58	31.034
378.94	31.103
379.30	31.459
379.66	31.687
380.02	31.737
380.38	31.624
380.74	31.099
381.09	31.185
381.45	32.330
381.81	31.323
382.17	31.651
382.53	31.228
382.89	30.869
383.25	32.649
383.61	30.961
383.97	31.684
384.32	32.476
384.68	31.032
385.04	31.752
385.40	31.762
385.76	32.943
386.12	31.538
386.48	32.941
386.83	32.181
387.19	31.576
387.55	31.338
387.91	32.249
388.27	31.640
388.62	31.787
388.98	32.205
389.34	32.999
389.70	32.365
390.06	32.919
390.42	32.590
390.77	32.932
391.13	31.749
391.49	31.824
391.85	32.121
392.20	32.503
392.56	31.778
392.92	32.334
393.28	32.725
393.64	31.844
393.99	33.178
394.35	33.353
394.71	33.054
395.07	31.976
395.42	32.210
395.78	34.126
396.14	33.690
396.50	32.304
396.85	32.797
397.21	32.959
397.57	31.449
397.92	33.333
398.28	32.211
398.64	31.465
399.00	31.466
399.35	31.675
399.71	31.739
400.07	33.520
400.42	32.887
400.78	32.986
401.14	33.182
401.49	33.371
401.85	33.488
402.21	33.662
402.57	33.862
402.92	32.624
403.28	32.845
403.63	32.458
403.99	33.076
404.35	32.177
404.70	32.295
405.06	31.630
405.42	33.080
405.77	32.497
406.13	33.225
406.49	33.446
406.84	32.022
407.20	32.868
407.55	32.829
407.91	32.055
408.27	32.980
408.62	33.392
408.98	32.211
409.34	31.730
409.69	32.509
410.05	32.649
410.40	33.237
410.76	33.651
411.11	32.905
411.47	32.740
411.83	33.804
412.18	33.313
412.54	33.432
412.89	33.353
413.25	33.070
413.60	32.797
413.96	32.517
414.31	33.258
414.67	32.916
415.03	32.554
415.38	32.409
415.74	33.415
416.09	32.696
416.45	32.498
416.80	32.375
417.16	34.227
417.51	33.935
417.87	32.986
418.22	34.311
418.58	34.077
418.93	33.295
419.29	33.724
419.64	33.193
420.00	32.641
420.35	33.352
420.71	34.061
421.06	32.777
421.42	33.888
421.77	32.849
422.12	32.664
422.48	33.282
422.83	34.447
423.19	34.111
423.54	34.237
423.90	34.346
424.25	33.813
424.61	33.238
424.96	33.828
425.31	33.174
425.67	34.568
426.02	33.481
426.38	33.812
426.73	33.761
427.09	35.063
427.44	34.244
427.79	34.715
428.15	33.276
428.50	34.607
428.85	33.754
429.21	35.691
429.56	34.304
429.92	33.317
430.27	33.687
430.62	33.903
430.98	33.940
431.33	33.138
431.68	34.148
432.04	34.637
432.39	35.083
432.74	35.788
433.10	35.046
433.45	34.504
433.80	35.032
434.16	34.091
434.51	35.046
434.86	35.505
435.22	34.750
435.57	36.851
435.92	35.225
436.28	36.007
436.63	35.718
436.98	34.622
437.34	34.893
437.69	34.452
438.04	35.907
438.39	35.095
438.75	35.418
439.10	35.835
439.45	35.495
439.81	35.480
440.16	36.032
440.51	37.012
440.86	34.797
441.22	36.120
441.57	36.688
441.92	36.324
442.27	35.556
442.63	35.320
442.98	36.286
443.33	36.297
443.68	36.521
444.03	37.488
444.39	36.523
444.74	36.345
445.09	35.327
445.44	36.828
445.79	36.446
446.15	37.461
446.50	36.434
446.85	35.895
447.20	37.379
447.55	36.768
447.91	36.178
448.26	37.421
448.61	36.344
448.96	37.554
449.31	36.532
449.66	36.928
450.02	36.920
450.37	37.294
450.72	37.029
451.07	37.073
451.42	36.568
451.77	37.465
452.12	38.093
452.47	36.898
452.83	36.824
453.18	36.778
453.53	36.933
453.88	36.334
454.23	37.740
454.58	37.028
454.93	36.833
455.28	38.110
455.63	38.374
455.98	37.039
456.34	37.750
456.69	36.273
457.04	36.998
457.39	38.082
457.74	38.423
458.09	37.836
458.44	37.769
458.79	37.700
459.14	36.654
459.49	38.653
459.84	37.723
460.19	36.813
460.54	38.160
460.89	38.221
461.24	37.759
461.59	37.797
461.94	37.707
462.29	38.802
462.64	38.564
462.99	38.355
463.34	39.066
463.69	38.042
464.04	37.521
464.39	38.509
464.74	38.312
465.09	38.062
465.44	38.251
465.79	38.445
466.14	37.989
466.49	37.842
466.84	37.741
467.19	39.191
467.54	37.897
467.89	38.103
468.24	38.615
468.59	37.985
468.94	38.695
469.29	38.212
469.64	39.161
469.99	38.815
470.34	39.356
470.68	39.986
471.03	39.817
471.38	40.680
471.73	38.882
472.08	39.721
472.43	38.651
472.78	39.232
473.13	38.180
473.48	39.335
473.83	38.712
474.17	38.042
474.52	39.206
474.87	39.480
475.22	38.648
475.57	38.733
475.92	39.721
476.27	39.031
476.61	38.785
476.96	39.103
477.31	39.802
477.66	40.189
478.01	39.298
478.36	38.485
478.70	39.212
479.05	38.855
479.40	39.832
479.75	39.481
480.10	39.270
480.45	39.881
480.79	39.365
481.14	38.235
481.49	38.710
481.84	39.817
482.19	39.570
482.53	40.665
482.88	39.123
483.23	39.351
483.58	39.170
483.92	39.140
484.27	39.627
484.62	38.366
484.97	38.569
485.31	37.980
485.66	35.836
486.01	34.922
486.36	35.543
486.70	37.813
487.05	39.580
487.40	40.121
487.75	40.560
488.09	41.420
488.44	40.660
488.79	41.518
489.13	40.369
489.48	39.961
489.83	39.477
490.17	39.571
490.52	39.778
490.87	39.213
491.22	39.688
491.56	39.206
491.91	40.340
492.26	39.507
492.60	39.222
492.95	39.886
493.30	40.565
493.64	40.035
493.99	38.860
494.34	40.070
494.68	39.829
495.03	40.308
495.37	40.790
495.72	40.000
496.07	40.053
496.41	39.254
496.76	40.325
497.11	39.618
497.45	39.620
497.80	40.560
498.14	40.045
498.49	40.349
498.84	40.265
499.18	39.271
499.53	40.090
499.87	40.791
500.22	39.849
500.56	39.946
500.91	40.870
501.26	40.727
501.60	39.196
501.95	39.861
502.29	40.369
502.64	40.315
502.98	39.689
503.33	39.784
503.67	39.294
504.02	39.580
504.36	40.304
504.71	40.055
505.06	39.882
505.40	39.945
505.75	39.390
506.09	40.976
506.44	41.643
506.78	40.550
507.13	41.217
507.47	41.307
507.82	39.915
508.16	41.061
508.51	39.991
508.85	40.812
509.19	41.639
509.54	40.922
509.88	40.894
510.23	41.865
510.57	40.938
510.92	41.606
511.26	40.404
511.61	40.705
511.95	41.093
512.30	42.245
512.64	40.480
512.98	42.171
513.33	42.137
513.67	41.407
514.02	41.339
514.36	41.586
514.70	41.458
515.05	41.867
515.39	42.100
515.74	42.577
516.08	40.676
516.42	42.072
516.77	41.956
517.11	41.155
517.46	42.948
517.80	42.010
518.14	42.601
518.49	42.408
518.83	41.724
519.17	40.926
519.52	42.296
519.86	42.555
520.20	42.492
520.55	41.785
520.89	41.723
521.23	42.323
521.58	42.655
521.92	42.210
522.26	41.753
522.61	44.039
522.95	43.137
523.29	41.954
523.64	41.704
523.98	43.354
524.32	44.241
524.66	42.402
525.01	42.525
525.35	41.987
525.69	43.619
526.04	42.480
526.38	41.954
526.72	42.330
527.06	43.050
527.41	42.682
527.75	43.765
528.09	43.034
528.43	42.570
528.78	42.139
529.12	41.743
529.46	42.102
529.80	42.906
530.15	42.203
530.49	42.705
530.83	41.854
531.17	42.772
531.51	42.900
531.86	43.630
532.20	42.073
532.54	42.490
532.88	43.212
533.22	42.546
533.57	42.354
533.91	42.761
534.25	42.453
534.59	43.678
534.93	41.992
535.27	41.690
535.62	43.036
535.96	43.231
536.30	42.009
536.64	43.423
536.98	43.112
537.32	42.778
537.66	43.980
538.01	42.598
538.35	41.291
538.69	42.368
539.03	43.286
539.37	42.226
539.71	41.742
540.05	41.787
540.39	42.237
540.73	42.077
541.07	42.612
541.42	42.115
541.76	42.349
542.10	43.607
542.44	42.266
542.78	41.606
543.12	41.836
543.46	41.941
543.80	41.607
544.14	41.173
544.48	42.376
544.82	42.609
545.16	42.218
545.50	41.762
545.84	42.254
546.18	43.086
546.52	42.229
546.86	42.830
547.20	41.921
547.54	39.950
547.88	41.953
548.22	41.637
548.56	41.428
548.90	41.134
549.24	42.553
549.58	42.650
549.92	42.283
550.26	42.718
550.60	42.055
550.94	44.114
551.28	41.188
551.62	42.385
551.96	42.071
552.30	43.149
552.64	42.190
552.98	42.483
553.32	42.186
553.66	42.251
554.00	41.677
554.34	42.278
554.68	41.252
555.02	42.641
555.36	42.472
555.69	41.576
556.03	41.362
556.37	43.304
556.71	42.232
557.05	41.853
557.39	42.402
557.73	42.338
558.07	43.179
558.41	42.724
558.75	42.664
559.08	44.189
559.42	42.455
559.76	42.537
560.10	41.996
560.44	42.084
560.78	42.562
561.12	42.057
561.45	42.214
561.79	41.941
562.13	42.329
562.47	40.382
562.81	42.848
563.15	41.982
563.48	42.635
563.82	42.382
564.16	42.035
564.50	42.849
564.84	42.124
565.17	41.824
565.51	41.484
565.85	42.340
566.19	42.339
566.52	41.779
566.86	41.879
567.20	40.837
567.54	41.636
567.88	41.590
568.21	41.206
568.55	40.480
568.89	40.717
569.23	39.628
569.56	39.781
569.90	39.843
570.24	39.460
570.57	39.384
570.91	39.192
571.25	38.646
571.59	38.213
571.92	38.619
572.26	38.565
572.60	39.558
572.93	39.215
573.27	39.674
573.61	38.460
573.95	38.456
574.28	38.145
574.62	37.881
574.96	37.693
575.29	37.321
575.63	38.346
575.97	38.228
576.30	38.663
576.64	37.986
576.98	37.950
577.31	38.217
577.65	38.031
577.98	37.368
578.32	37.249
578.66	37.655
578.99	38.173
579.33	39.262
579.67	38.871
580.00	38.548
580.34	38.067
580.67	38.438
581.01	38.057
581.35	37.288
581.68	37.178
582.02	36.661
582.35	37.800
582.69	37.667
583.02	39.077
583.36	39.495
583.70	39.536
584.03	39.501
584.37	39.719
584.70	38.875
585.04	37.828
585.37	37.693
585.71	37.174
586.04	37.472
586.38	38.022
586.72	38.757
587.05	38.450
587.39	38.843
587.72	38.445
588.06	38.564
588.39	39.507
588.73	39.021
589.06	39.560
589.40	39.551
589.73	39.589
590.07	39.755
590.40	39.757
590.73	40.403
591.07	40.022
591.40	39.463
591.74	39.587
592.07	40.195
592.41	38.644
592.74	38.552
593.08	38.503
593.41	37.941
593.75	37.960
594.08	38.685
594.41	39.231
594.75	38.924
595.08	38.964
595.42	38.799
595.75	39.393
596.09	40.495
596.42	39.950
596.75	40.448
597.09	40.283
597.42	39.928
597.75	39.867
598.09	40.635
598.42	39.807
598.76	38.594
599.09	38.341
599.42	38.250
599.76	37.867
600.09	38.438
600.42	38.372
600.76	38.342
601.09	38.898
601.42	39.101
601.76	39.414
602.09	39.850
602.42	39.149
602.76	39.151
603.09	39.354
603.42	39.379
603.76	39.218
604.09	39.319
604.42	39.486
604.76	39.384
605.09	40.407
605.42	39.793
605.75	38.692
606.09	39.231
606.42	38.599
606.75	39.393
607.09	38.671
607.42	38.921
607.75	39.742
608.08	39.424
608.42	38.734
608.75	39.594
609.08	39.856
609.41	40.626
609.75	40.223
610.08	40.501
610.41	38.445
610.74	39.958
611.07	40.764
611.41	40.224
611.74	39.815
612.07	39.504
612.40	39.734
612.73	40.391
613.07	40.049
613.40	40.664
613.73	39.865
614.06	39.941
614.39	39.942
614.72	39.787
615.06	39.750
615.39	39.729
615.72	39.384
616.05	39.242
616.38	40.767
616.71	39.864
617.05	40.522
617.38	41.413
617.71	40.713
618.04	40.367
618.37	41.202
618.70	40.498
619.03	40.920
619.36	41.060
619.69	41.127
620.03	41.306
620.36	40.429
620.69	39.914
621.02	42.520
621.35	43.614
621.68	42.733
622.01	40.783
622.34	41.004
622.67	39.931
623.00	40.351
623.33	41.340
623.66	41.958
623.99	40.158
624.32	41.520
624.65	39.897
624.99	40.962
625.32	41.737
625.65	41.470
625.98	42.034
626.31	41.389
626.64	42.637
626.97	41.860
627.30	41.686
627.63	42.011
627.96	42.868
628.29	42.335
628.62	42.821
628.95	43.032
629.28	41.971
629.61	43.519
629.94	40.753
630.26	42.119
630.59	41.019
630.92	41.558
631.25	42.934
631.58	44.068
631.91	42.174
632.24	44.380
632.57	42.979
632.90	44.835
633.23	44.592
633.56	44.286
633.89	42.045
634.22	44.179
634.55	43.946
634.88	43.182
635.20	44.241
635.53	44.633
635.86	43.229
636.19	42.948
636.52	43.249
636.85	41.573
637.18	42.308
637.51	44.946
637.83	43.854
638.16	43.433
638.49	44.601
638.82	44.307
639.15	42.955
639.48	43.764
639.81	43.533
640.13	42.756
640.46	42.909
640.79	42.770
641.12	44.845
641.45	43.162
641.77	47.112
642.10	43.701
642.43	46.277
642.76	45.799
643.09	44.247
643.41	45.798
643.74	44.828
644.07	46.069
644.40	44.130
644.73	43.977
645.05	47.137
645.38	44.317
645.71	45.455
646.04	45.050
646.36	44.380
646.69	45.859
647.02	48.930
647.35	45.191
647.67	47.504
648.00	46.019
648.33	45.345
648.66	43.509
648.98	41.633
649.31	42.760
649.64	45.551
649.96	42.308
650.29	43.115
650.62	44.837
650.94	46.847
651.27	43.413
651.60	43.275
651.92	45.289
652.25	43.849
652.58	42.916
652.90	43.750
653.23	44.507
653.56	44.223
653.88	45.927
654.21	45.634
654.54	45.231
654.86	44.901
655.19	40.151
655.52	38.547
655.84	31.236
656.17	37.289
656.49	53.892
656.82	62.654
657.15	52.173
657.47	41.447
657.80	31.679
658.13	25.782
658.45	34.515
658.78	43.602
659.10	43.255
659.43	43.896
659.75	43.575
660.08	42.073
660.41	43.507
660.73	43.786
661.06	44.347
661.38	45.136
661.71	45.345
662.03	44.444
662.36	45.975
662.68	47.092
663.01	45.487
663.33	48.204
663.66	47.436
663.98	45.000
664.31	44.465
664.63	44.509
664.96	43.376
665.28	43.013
665.61	45.629
665.93	43.393
666.26	45.161
666.58	43.542
666.91	45.794
667.23	48.190
667.56	45.365
667.88	46.400
668.21	42.188
668.53	43.822
668.86	46.562
669.18	45.418
669.50	43.539
669.83	42.600
670.15	46.457
670.48	46.825
670.80	44.168
671.13	42.911
671.45	46.850
671.77	46.328
672.10	41.167
672.42	40.939
672.75	41.167
673.07	40.448
673.39	39.908
673.72	46.477
674.04	43.966
674.37	44.007
674.69	45.679
675.01	44.000
675.34	45.611
675.66	44.569
675.98	47.388
676.31	44.727
676.63	43.156
676.95	44.444
677.28	43.548
677.60	43.701
677.92	45.106
678.25	43.510
678.57	42.705
678.89	44.198
679.22	39.199
679.54	41.709
679.86	40.847
680.18	42.454
680.51	44.182
680.83	41.408
681.15	40.862
681.48	42.832
681.80	43.523
682.12	43.357
682.44	42.070
682.77	44.149
683.09	42.424
683.41	42.829
683.73	42.125
684.06	44.465
684.38	42.397
684.70	44.883
685.02	41.824
685.34	40.100
685.67	39.117
685.99	38.037
686.31	39.099
686.63	40.758
686.96	40.536
687.28	40.065
687.60	38.384
687.92	41.801
688.24	41.736
688.56	39.310
688.89	41.742
689.21	45.010
689.53	41.569
689.85	41.815
690.17	41.667
690.49	40.837
690.82	41.584
691.14	38.866
691.46	42.830
691.78	43.646
692.10	40.550
692.42	38.929
692.74	41.016
693.06	39.630
693.39	40.607
693.71	42.293
694.03	42.193
694.35	40.762
694.67	40.041
694.99	41.064
695.31	45.033
695.63	44.156
695.95	39.545
696.27	41.099
696.59	44.248
696.91	44.595
697.23	44.396
697.56	37.678
697.88	37.500
698.20	41.431
698.52	40.530
698.84	43.243
699.16	43.061
699.48	40.795
699.80	37.872
700.12	39.083
700.44	41.705
700.76	44.893
701.08	42.615
701.40	40.674
701.72	42.537
702.04	47.326
702.36	39.529
702.68	38.631
703.00	37.653
703.32	39.163
703.64	41.076
703.96	40.573
704.28	40.541
704.60	42.785
704.91	40.306
705.23	41.096
705.55	41.226
705.87	46.667
706.19	46.012
706.51	43.373
706.83	41.210
707.15	37.302
707.47	37.383
707.79	37.118
708.11	36.864
708.43	36.129
708.74	37.277
709.06	41.067
709.38	41.315
709.70	40.199
710.02	42.119
710.34	40.957
710.66	42.737
710.98	42.077
711.29	39.560
711.61	41.243
711.93	41.311
712.25	38.649
712.57	42.183
712.89	42.941
713.20	38.757
713.52	42.486
713.84	38.997
714.16	41.053
714.48	38.402
714.80	42.338
715.11	40.157
715.43	36.340
715.75	38.947
716.07	39.503
716.39	41.803
716.70	42.771
717.02	42.295
717.34	36.237
717.66	39.933
717.97	41.781
718.29	40.206
718.61	37.171
718.93	41.748
719.24	40.994
719.56	41.104
719.88	36.637
720.20	40.645
720.51	39.441
720.83	39.688
721.15	38.816
721.46	33.904
721.78	39.667
722.10	35.922
722.42	36.242
722.73	39.677
723.05	38.246
723.37	43.750
723.68	41.219
724.00	39.711
724.32	35.915
724.63	42.657
724.95	41.489
725.27	38.676
725.58	34.276
725.90	37.931
726.22	33.856
726.53	41.234
726.85	40.252
727.16	37.160
727.48	38.532
727.80	36.755
728.11	39.929
728.43	40.404
728.74	41.472
729.06	43.709
729.38	35.714
729.69	39.262
730.01	34.226
730.32	33.333
730.64	37.736
730.96	38.199
731.27	37.151
731.59	37.088
731.90	34.545
732.22	36.719
732.53	32.597
732.85	37.143
733.16	37.537
733.48	33.537
733.80	35.097
734.11	36.467
734.43	35.946
734.74	39.747
735.06	33.668
735.37	38.919
735.69	35.946
736.00	36.441
736.32	36.388
736.63	32.222
736.95	35.920
737.26	36.667
737.58	33.030
737.89	38.235
738.21	34.557
738.52	39.016
738.83	38.908
739.15	36.879
739.46	38.435
739.78	37.423
740.09	35.817
740.41	36.443
740.72	35.333
741.04	34.304
741.35	40.351
741.66	40.392
741.98	36.885
742.29	33.891
742.61	40.789
742.92	34.615
743.23	37.184
743.55	37.209
743.86	38.000
744.18	33.471
744.49	34.599
744.80	38.272
745.12	45.992
745.43	39.837
745.74	33.621
746.06	38.136
746.37	42.194
746.68	39.024
747.00	35.833
747.31	41.202
747.62	41.538
747.94	39.676
748.25	34.538
748.56	33.469
748.88	39.744
749.19	40.086
749.50	39.394
749.82	40.161
750.13	38.434
750.44	34.667
750.75	33.231
751.07	36.923
751.38	33.123
751.69	35.463
752.01	36.570
752.32	36.275
752.63	34.694
752.94	31.488
753.26	32.342
753.57	37.778
753.88	34.457
754.19	38.264
754.51	33.119
754.82	32.797
755.13	31.148
755.44	35.495
755.75	33.882
756.07	38.209
756.38	34.591
756.69	34.639
757.00	31.025
757.31	31.421
757.63	33.760
757.94	33.333
758.25	33.409
758.56	32.898
758.87	34.545
759.18	30.400
759.50	32.011
759.81	34.454
760.12	38.814
760.43	34.375
760.74	34.483
761.05	31.000
761.36	31.084
761.67	32.487
761.99	38.108
762.30	32.622
762.61	32.013
762.92	35.821
763.23	39.326
763.54	36.691
763.85	35.052
764.16	35.690
764.47	33.099
764.78	34.185
765.10	37.537
765.41	31.795
765.72	30.159
766.03	35.311
766.34	33.856
766.65	32.753
766.96	31.076
767.27	42.396
767.58	35.821
767.89	38.942
768.20	34.272
768.51	37.037
768.82	36.546
769.13	31.061
769.44	27.308
769.75	33.213
770.06	35.000
770.37	39.370
770.68	29.787
770.99	28.745
771.30	34.815
771.61	34.601
771.92	31.852
772.23	35.628
772.54	27.315
772.85	34.101
773.16	29.048
773.47	35.979
773.78	30.270
774.09	34.091
774.39	37.000
774.70	36.066
775.01	34.756
775.32	35.882
775.63	33.742
775.94	26.752
776.25	29.677
776.56	44.231
776.87	40.136
777.18	34.483
777.48	30.769
777.79	29.730
778.10	34.559
778.41	39.583
778.72	24.828
779.03	32.716
779.34	34.545
779.65	32.642
779.95	36.111
780.26	26.136
780.57	32.903
780.88	35.507
781.19	34.194
781.50	37.647
781.80	32.796
782.11	34.392
782.42	29.293
782.73	28.144
783.04	34.078
783.34	28.485
783.65	27.451
783.96	35.404
784.27	29.762
784.57	29.139
784.88	41.429
785.19	34.646
785.50	33.858
785.81	28.571
786.11	37.692
786.42	27.338
786.73	31.655
787.04	39.098
787.34	29.508
787.65	31.200
787.96	34.328
788.26	47.552
788.57	34.965
788.88	27.632
789.19	33.987
789.49	38.356
789.80	37.589
790.11	32.283
790.41	36.719
790.72	33.051
791.03	26.214
791.33	33.913
791.64	35.088
791.95	24.107
792.25	32.381
792.56	33.929
792.87	34.375
793.17	37.500
793.48	33.333
793.79	36.145
794.09	22.936
794.40	36.697
794.70	31.973
795.01	31.818
795.32	21.233
795.62	24.648
795.93	25.758
796.23	30.328
796.54	25.893
796.85	34.043
797.15	32.609
797.46	35.616
797.76	36.250
798.07	30.435
798.37	17.526
798.68	29.870
798.99	29.885
799.29	22.472
799.60	32.979
799.90	42.169
800.21	23.077
800.51	23.881
800.82	30.882
801.12	31.507
801.43	22.059
801.73	49.153
802.04	37.879
802.34	25.000
802.65	33.898
802.95	35.821
803.26	32.203
803.56	38.356
803.87	28.571
804.17	30.137
804.48	15.789
804.78	23.611
805.09	39.655
805.39	35.135
805.70	12.676
806.00	32.927
806.30	24.096
806.61	31.507
806.91	31.731
807.22	24.444
807.52	22.989
807.83	34.722
808.13	40.964
808.43	33.708
808.74	25.000
809.04	22.059
809.35	29.333
809.65	24.286
809.95	41.096
810.26	15.789
810.56	25.862
810.86	38.235
811.17	15.789
811.47	27.869
811.77	11.111
812.08	37.288
812.38	30.000
812.69	36.207
812.99	18.868
813.29	12.821
813.59	42.000
813.90	31.579
814.20	32.727
814.50	35.211
814.81	41.026
815.11	36.066
815.41	26.866
815.72	22.414
816.02	30.357
816.32	48.889
816.62	36.364
816.93	20.000
817.23	25.926
817.53	29.787
817.84	40.476
818.14	5.882
818.44	46.939
818.74	44.444
819.04	2.564
819.35	20.000
819.65	30.769
819.95	33.962
820.25	37.778
820.56	42.857
820.86	50.000
821.16	28.205
821.46	20.930
821.76	-2.000
822.07	19.643
822.37	34.783
822.67	25.532
822.97	5.405
823.27	32.500
823.57	42.857
823.88	37.778
824.18	35.000
824.48	23.333
824.78	56.000
825.08	39.394
825.38	51.111
825.69	44.681
825.99	50.000
826.29	20.000
826.59	28.205
826.89	32.558
827.19	16.000
827.49	47.059
827.79	22.917
828.09	24.324
828.39	30.000
828.70	0.000
829.00	9.302
829.30	21.429
829.60	61.765
829.90	32.609
830.20	45.714
830.50	44.828
830.80	61.111
831.10	26.923
831.40	29.412
831.70	38.095
832.00	109.677
832.30	-5.882
832.60	-20.833
832.90	38.462
833.20	-26.316
833.50	50.000
833.80	5.263
834.10	-28.571
834.40	22.222
834.70	40.625
835.00	20.000
835.30	32.353
835.60	13.333
835.90	16.000
836.20	-22.727
836.50	72.000
836.80	-9.091
837.10	-7.407
837.40	33.333
837.70	-25.000
838.00	42.857
838.30	21.739
838.60	34.483
838.90	28.571
839.19	-60.870
839.49	-16.667
839.79	47.826
840.09	-50.000
840.39	10.000
840.69	77.419
840.99	21.429
841.29	0.000
841.59	0.000
841.88	38.462
842.18	19.231
842.48	80.000
842.78	15.000
843.08	36.667
843.38	22.581
843.68	-27.778
843.97	20.588
844.27	-6.250
844.57	36.842
844.87	-50.000
845.17	-6.667
845.47	80.952
845.76	42.857
846.06	0.000
846.36	11.765
846.66	3.846
846.96	0.000
847.25	23.529
847.55	30.435
847.85	45.000
848.15	58.824
848.44	0.000
848.74	9.524
849.04	-20.833
849.34	37.500
849.63	47.826
849.93	300.000
850.23	20.000
850.53	38.462
850.82	45.455
851.12	72.727
851.42	-36.364
851.71	61.538
852.01	-15.000
852.31	92.308
852.61	0.000
852.90	83.333
853.20	0.000
853.50	-133.333
853.79	-14.286
854.09	-27.273
854.39	-41.667
854.68	41.935
854.98	0.000
855.28	27.778
855.57	3.571
855.87	-12.000
856.17	18.182
856.46	33.333
856.76	5.556
857.05	8.696
857.35	20.833
857.65	-7.692
857.94	0.000
858.24	14.815
858.53	34.783
858.83	29.412
859.13	47.059
859.42	52.941
859.72	71.429
860.01	10.000
860.31	-44.444
860.60	30.000
860.90	13.333
861.20	44.444
861.49	46.154
861.79	30.000
862.08	-7.692
862.38	46.875
862.67	35.294
862.97	62.500
863.26	66.667
863.56	60.000
863.85	-27.273
864.15	22.222
864.44	300.000
864.74	21.429
865.03	12.500
865.33	-70.000
865.62	22.581
865.92	27.273
866.21	-8.696
866.51	7.143
866.80	-80.000
867.10	41.667
867.39	25.000
867.69	-0.000
867.98	71.429
868.27	70.588
868.57	-500.000
868.86	-60.000
869.16	14.286
869.45	8.333
869.75	36.364
870.04	71.429
870.33	41.667
870.63	-85.714
870.92	100.000
871.22	-87.500
871.51	-90.909
871.80	-66.667
872.10	100.000
>>>>>End Processed Spectral Data<<<<<
