SpectraSuite Data File
++++++++++++++++++++++++++++++++++++
Date: Thu May 14 14:57:32 PDT 2015
User: schluterlab
Dark Spectrum Present: Yes
Reference Spectrum Present: Yes
Number of Sampled Component Spectra: 1
Spectrometers: USB2E3373
Integration Time (usec): 3000 (USB2E3373)
Spectra Averaged: 3 (USB2E3373)
Boxcar Smoothing: 0 (USB2E3373)
Correct for Electrical Dark: No (USB2E3373)
Strobe/Lamp Enabled: No (USB2E3373)
Correct for Detector Non-linearity: No (USB2E3373)
Correct for Stray Light: No (USB2E3373)
Number of Pixels in Processed Spectrum: 2048
>>>>>Begin Processed Spectral Data<<<<<
178.53	0.000
178.91	300.000
179.29	-3100.000
179.67	-1900.000
180.04	242.857
180.42	190.000
180.80	620.000
181.18	-2700.000
181.56	-1200.000
181.94	550.000
182.31	-325.000
182.69	500.000
183.07	-1000.000
183.45	750.000
183.83	-316.667
184.20	-766.667
184.58	1100.000
184.96	-525.000
185.34	-255.556
185.72	-260.000
186.09	333.333
186.47	1150.000
186.85	560.000
187.23	-344.444
187.61	-3400.000
187.98	460.000
188.36	575.000
188.74	-225.000
189.12	-800.000
189.49	-75.000
189.87	-237.500
190.25	-111.111
190.63	-260.000
191.00	-233.333
191.38	0.000
191.76	-625.000
192.14	-300.000
192.51	1250.000
192.89	-383.333
193.27	0.000
193.65	-257.143
194.02	-2200.000
194.40	-300.000
194.78	314.286
195.15	0.000
195.53	-190.909
195.91	0.000
196.29	-525.000
196.66	-92.308
197.04	-1800.000
197.42	-200.000
197.79	-950.000
198.17	-287.500
198.55	-357.143
198.92	-200.000
199.30	-200.000
199.68	-81.818
200.05	-135.714
200.43	-750.000
200.81	371.429
201.18	0.000
201.56	288.889
201.94	0.000
202.31	766.667
202.69	-222.222
203.07	1300.000
203.44	-122.222
203.82	-500.000
204.19	-75.000
204.57	-383.333
204.95	-187.500
205.32	-2200.000
205.70	475.000
206.08	-200.000
206.45	-250.000
206.83	480.000
207.20	-216.667
207.58	-480.000
207.96	-383.333
208.33	-183.333
208.71	183.333
209.08	-100.000
209.46	0.000
209.84	566.667
210.21	950.000
210.59	1400.000
210.96	933.333
211.34	-400.000
211.71	-162.500
212.09	-1900.000
212.46	0.000
212.84	1300.000
213.22	-420.000
213.59	-475.000
213.97	-210.000
214.34	-833.333
214.72	333.333
215.09	-525.000
215.47	0.000
215.84	200.000
216.22	1200.000
216.59	-360.000
216.97	-440.000
217.34	-325.000
217.72	-212.500
218.09	-350.000
218.47	-475.000
218.84	0.000
219.22	340.000
219.59	-94.118
219.97	-35.000
220.34	1300.000
220.72	-211.111
221.09	-76.923
221.47	-533.333
221.84	-140.000
222.22	-271.429
222.59	0.000
222.97	-262.500
223.34	-520.000
223.72	-2600.000
224.09	-375.000
224.46	-575.000
224.84	-260.000
225.21	-114.286
225.59	-500.000
225.96	-450.000
226.34	-88.462
226.71	400.000
227.08	-1200.000
227.46	-86.667
227.83	-475.000
228.21	-68.421
228.58	325.000
228.95	1350.000
229.33	-41.667
229.70	-150.000
230.08	5.263
230.45	170.000
230.82	-566.667
231.20	-135.714
231.57	-133.333
231.95	-172.727
232.32	-145.455
232.69	-95.000
233.07	-575.000
233.44	-94.118
233.81	-180.000
234.19	-33.333
234.56	-95.455
234.93	3.448
235.31	-15.789
235.68	-38.889
236.05	-100.000
236.43	-11.538
236.80	-20.000
237.17	-55.556
237.55	-30.303
237.92	-130.000
238.29	-45.161
238.67	-27.273
239.04	-5.556
239.41	-9.524
239.79	-15.217
240.16	1.852
240.53	-4.348
240.91	-25.490
241.28	-3.279
241.65	10.448
242.02	13.514
242.40	-1.538
242.77	6.667
243.14	7.317
243.51	2.632
243.89	1.282
244.26	11.881
244.63	2.941
245.00	23.364
245.38	10.526
245.75	7.965
246.12	26.190
246.49	13.178
246.87	17.143
247.24	14.570
247.61	16.447
247.98	20.805
248.36	16.667
248.73	11.043
249.10	19.672
249.47	20.398
249.84	23.037
250.22	13.990
250.59	21.667
250.96	17.273
251.33	16.327
251.70	21.795
252.08	15.833
252.45	17.623
252.82	16.942
253.19	18.750
253.56	21.293
253.94	15.769
254.31	21.591
254.68	20.629
255.05	26.384
255.42	19.388
255.79	16.181
256.16	16.887
256.54	18.212
256.91	22.623
257.28	19.672
257.65	16.242
258.02	19.469
258.39	19.373
258.76	21.713
259.14	22.414
259.51	21.037
259.88	23.796
260.25	21.111
260.62	23.836
260.99	22.951
261.36	22.520
261.73	20.690
262.10	19.780
262.47	23.861
262.85	25.253
263.22	20.779
263.59	20.526
263.96	27.110
264.33	21.483
264.70	20.988
265.07	22.434
265.44	25.397
265.81	24.537
266.18	23.583
266.55	25.223
266.92	23.690
267.29	24.070
267.66	21.729
268.03	22.926
268.40	23.173
268.77	21.640
269.14	24.009
269.51	21.491
269.88	23.770
270.25	22.133
270.62	22.574
270.99	24.242
271.36	23.168
271.73	23.969
272.10	23.046
272.47	21.844
272.84	21.486
273.21	22.244
273.58	23.992
273.95	22.500
274.32	20.342
274.69	21.277
275.06	22.161
275.43	22.366
275.80	25.750
276.17	22.037
276.54	20.709
276.91	21.288
277.28	21.881
277.65	23.878
278.02	24.449
278.39	23.551
278.76	20.738
279.13	21.631
279.50	23.024
279.87	21.646
280.23	19.190
280.60	22.373
280.97	21.382
281.34	21.222
281.71	23.689
282.08	20.432
282.45	22.259
282.82	21.193
283.19	22.456
283.56	21.148
283.92	24.324
284.29	21.959
284.66	22.167
285.03	19.231
285.40	21.020
285.77	21.362
286.14	23.511
286.51	21.309
286.87	20.537
287.24	21.687
287.61	21.674
287.98	20.997
288.35	22.485
288.72	22.041
289.08	21.523
289.45	20.858
289.82	19.127
290.19	21.695
290.56	21.268
290.93	19.544
291.29	20.661
291.66	19.146
292.03	18.725
292.40	21.361
292.77	19.137
293.13	20.704
293.50	19.054
293.87	19.329
294.24	21.200
294.60	19.090
294.97	19.329
295.34	20.999
295.71	19.042
296.08	17.054
296.44	18.382
296.81	18.758
297.18	17.808
297.55	18.396
297.91	17.438
298.28	16.706
298.65	16.766
299.02	16.883
299.38	18.879
299.75	17.173
300.12	15.625
300.48	16.590
300.85	17.998
301.22	18.121
301.59	16.096
301.95	16.949
302.32	17.889
302.69	16.648
303.05	16.431
303.42	17.295
303.79	16.458
304.15	16.614
304.52	16.490
304.89	16.859
305.25	17.598
305.62	17.450
305.99	18.041
306.35	17.843
306.72	16.339
307.09	16.041
307.45	18.012
307.82	16.953
308.19	17.053
308.55	17.068
308.92	16.553
309.29	15.517
309.65	16.569
310.02	16.436
310.38	17.028
310.75	16.990
311.12	17.354
311.48	17.302
311.85	17.474
312.22	17.268
312.58	16.901
312.95	17.017
313.31	16.983
313.68	16.758
314.05	17.886
314.41	18.761
314.78	17.984
315.14	18.421
315.51	17.267
315.87	18.632
316.24	18.082
316.61	17.673
316.97	17.828
317.34	16.138
317.70	18.079
318.07	18.519
318.43	19.218
318.80	19.231
319.16	17.854
319.53	18.166
319.89	18.142
320.26	18.505
320.62	17.730
320.99	18.006
321.35	18.669
321.72	18.884
322.08	18.936
322.45	20.687
322.81	22.383
323.18	21.150
323.54	21.897
323.91	21.975
324.27	21.429
324.64	21.830
325.00	21.725
325.37	22.441
325.73	21.405
326.10	22.060
326.46	21.824
326.83	22.418
327.19	23.071
327.56	23.162
327.92	22.817
328.29	22.419
328.65	22.027
329.01	22.673
329.38	24.347
329.74	23.373
330.11	23.716
330.47	23.673
330.84	22.911
331.20	23.667
331.56	23.310
331.93	24.854
332.29	24.576
332.66	24.585
333.02	23.283
333.38	23.490
333.75	24.832
334.11	24.437
334.48	25.578
334.84	24.469
335.20	24.181
335.57	26.138
335.93	25.455
336.29	23.627
336.66	25.063
337.02	25.251
337.38	25.085
337.75	25.207
338.11	24.643
338.47	24.400
338.84	25.127
339.20	24.684
339.56	24.712
339.93	24.877
340.29	24.960
340.65	25.466
341.02	26.337
341.38	25.222
341.74	25.101
342.11	24.537
342.47	23.670
342.83	26.570
343.20	26.083
343.56	25.341
343.92	26.261
344.28	26.328
344.65	27.364
345.01	25.351
345.37	25.661
345.73	24.396
346.10	25.273
346.46	25.079
346.82	25.468
347.19	24.675
347.55	26.783
347.91	26.003
348.27	25.038
348.63	26.733
349.00	25.652
349.36	26.245
349.72	24.702
350.08	26.003
350.45	25.171
350.81	25.867
351.17	25.865
351.53	26.005
351.89	25.588
352.26	25.896
352.62	25.597
352.98	26.336
353.34	25.243
353.70	26.888
354.07	25.410
354.43	25.285
354.79	24.832
355.15	25.681
355.51	27.412
355.87	25.879
356.24	27.376
356.60	25.795
356.96	26.761
357.32	26.394
357.68	26.501
358.04	25.823
358.40	26.567
358.77	26.096
359.13	27.179
359.49	25.204
359.85	26.178
360.21	26.829
360.57	26.202
360.93	26.375
361.29	27.368
361.66	26.503
362.02	27.349
362.38	26.845
362.74	26.746
363.10	28.061
363.46	27.493
363.82	25.923
364.18	28.220
364.54	26.487
364.90	28.161
365.26	26.966
365.62	27.333
365.98	26.344
366.35	27.584
366.71	27.687
367.07	27.808
367.43	28.037
367.79	27.671
368.15	27.625
368.51	28.417
368.87	27.956
369.23	27.867
369.59	28.689
369.95	28.059
370.31	28.224
370.67	28.680
371.03	27.562
371.39	27.334
371.75	28.886
372.11	27.913
372.47	28.097
372.83	28.272
373.19	28.152
373.55	28.659
373.91	27.403
374.27	29.043
374.63	29.229
374.99	28.448
375.35	29.026
375.71	28.065
376.07	29.180
376.42	29.849
376.78	30.329
377.14	29.070
377.50	29.222
377.86	30.850
378.22	29.940
378.58	29.905
378.94	29.812
379.30	29.760
379.66	29.630
380.02	30.467
380.38	30.357
380.74	30.423
381.09	30.372
381.45	31.136
381.81	31.909
382.17	31.116
382.53	30.936
382.89	30.474
383.25	32.239
383.61	30.498
383.97	31.213
384.32	32.656
384.68	31.206
385.04	31.810
385.40	32.764
385.76	32.825
386.12	31.897
386.48	31.882
386.83	32.837
387.19	32.677
387.55	32.394
387.91	32.306
388.27	32.506
388.62	31.558
388.98	32.262
389.34	32.999
389.70	33.004
390.06	33.156
390.42	33.133
390.77	32.450
391.13	32.805
391.49	32.911
391.85	34.061
392.20	32.503
392.56	33.491
392.92	32.661
393.28	33.554
393.64	33.966
393.99	34.922
394.35	34.813
394.71	34.311
395.07	34.192
395.42	33.409
395.78	35.161
396.14	34.403
396.50	33.670
396.85	33.751
397.21	34.201
397.57	33.863
397.92	34.822
398.28	34.492
398.64	33.696
399.00	32.984
399.35	34.450
399.71	34.674
400.07	34.924
400.42	34.226
400.78	34.549
401.14	33.808
401.49	34.963
401.85	34.593
402.21	36.443
402.57	35.329
402.92	35.225
403.28	33.958
403.63	35.442
403.99	34.501
404.35	34.110
404.70	33.881
405.06	34.728
405.42	35.012
405.77	35.224
406.13	34.144
406.49	34.516
406.84	34.848
407.20	34.992
407.55	33.858
407.91	35.701
408.27	34.688
408.62	34.962
408.98	35.055
409.34	34.135
409.69	35.414
410.05	36.342
410.40	35.905
410.76	36.287
411.11	36.353
411.47	35.934
411.83	35.215
412.18	36.747
412.54	36.929
412.89	35.506
413.25	35.045
413.60	34.865
413.96	36.597
414.31	34.561
414.67	35.599
415.03	35.754
415.38	36.129
415.74	36.286
416.09	36.212
416.45	35.755
416.80	35.435
417.16	35.888
417.51	36.800
417.87	36.849
418.22	35.868
418.58	36.679
418.93	37.020
419.29	37.115
419.64	36.315
420.00	36.439
420.35	37.339
420.71	36.531
421.06	36.458
421.42	36.640
421.77	36.349
422.12	36.258
422.48	36.354
422.83	37.623
423.19	37.241
423.54	38.108
423.90	38.266
424.25	38.507
424.61	37.600
424.96	37.452
425.31	38.270
425.67	37.896
426.02	38.185
426.38	38.519
426.73	38.449
427.09	40.311
427.44	36.920
427.79	38.806
428.15	38.128
428.50	38.427
428.85	38.806
429.21	39.415
429.56	38.598
429.92	37.936
430.27	38.072
430.62	38.447
430.98	38.908
431.33	38.514
431.68	38.937
432.04	39.259
432.39	40.279
432.74	39.612
433.10	41.103
433.45	38.183
433.80	38.788
434.16	39.411
434.51	40.647
434.86	41.422
435.22	40.808
435.57	40.979
435.92	40.067
436.28	40.216
436.63	41.726
436.98	40.419
437.34	40.699
437.69	41.442
438.04	41.512
438.39	40.781
438.75	40.232
439.10	41.755
439.45	40.973
439.81	41.412
440.16	41.287
440.51	42.363
440.86	41.023
441.22	40.568
441.57	42.505
441.92	41.513
442.27	42.475
442.63	41.083
442.98	41.195
443.33	42.820
443.68	41.031
444.03	43.321
444.39	42.025
444.74	41.348
445.09	41.510
445.44	42.518
445.79	42.816
446.15	43.011
446.50	41.964
446.85	42.558
447.20	42.553
447.55	42.364
447.91	43.455
448.26	43.235
448.61	42.295
448.96	43.670
449.31	41.994
449.66	42.919
450.02	42.880
450.37	43.047
450.72	42.626
451.07	43.337
451.42	42.923
451.77	42.190
452.12	44.074
452.47	42.959
452.83	44.032
453.18	42.907
453.53	43.423
453.88	42.518
454.23	42.994
454.58	43.819
454.93	42.900
455.28	45.515
455.63	42.922
455.98	42.849
456.34	42.815
456.69	43.327
457.04	43.262
457.39	43.958
457.74	43.568
458.09	42.889
458.44	44.235
458.79	42.960
459.14	42.685
459.49	44.482
459.84	44.439
460.19	42.587
460.54	44.747
460.89	44.627
461.24	43.391
461.59	44.162
461.94	42.670
462.29	44.401
462.64	43.573
462.99	44.131
463.34	44.127
463.69	44.314
464.04	44.858
464.39	44.114
464.74	42.645
465.09	45.790
465.44	44.099
465.79	43.839
466.14	44.033
466.49	44.842
466.84	44.353
467.19	45.202
467.54	43.831
467.89	45.000
468.24	45.485
468.59	43.949
468.94	44.930
469.29	45.231
469.64	45.264
469.99	43.977
470.34	45.050
470.68	44.429
471.03	44.925
471.38	45.651
471.73	44.603
472.08	45.241
472.43	44.913
472.78	45.403
473.13	46.081
473.48	45.257
473.83	45.328
474.17	44.607
474.52	46.603
474.87	44.574
475.22	44.901
475.57	45.691
475.92	44.550
476.27	45.527
476.61	45.119
476.96	44.943
477.31	44.851
477.66	46.275
478.01	44.840
478.36	44.018
478.70	45.911
479.05	46.524
479.40	46.298
479.75	45.677
480.10	46.045
480.45	44.576
480.79	45.170
481.14	45.864
481.49	44.389
481.84	45.561
482.19	45.935
482.53	46.436
482.88	46.611
483.23	46.020
483.58	46.419
483.92	45.035
484.27	45.301
484.62	45.586
484.97	45.995
485.31	45.195
485.66	41.480
486.01	41.219
486.36	42.951
486.70	45.488
487.05	48.673
487.40	47.829
487.75	47.812
488.09	47.704
488.44	46.825
488.79	46.509
489.13	46.271
489.48	45.553
489.83	45.835
490.17	45.687
490.52	45.238
490.87	46.024
491.22	45.754
491.56	46.118
491.91	46.315
492.26	46.517
492.60	45.518
492.95	46.468
493.30	46.840
493.64	46.912
493.99	45.833
494.34	45.775
494.68	45.482
495.03	46.828
495.37	46.072
495.72	46.667
496.07	46.100
496.41	46.203
496.76	45.746
497.11	47.091
497.45	46.612
497.80	46.868
498.14	46.576
498.49	47.381
498.84	46.115
499.18	46.784
499.53	47.265
499.87	46.549
500.22	45.592
500.56	46.109
500.91	46.316
501.26	47.318
501.60	46.266
501.95	46.635
502.29	46.950
502.64	46.742
502.98	45.815
503.33	46.263
503.67	46.140
504.02	46.979
504.36	47.408
504.71	47.726
505.06	46.430
505.40	47.349
505.75	47.313
506.09	46.777
506.44	48.329
506.78	48.119
507.13	47.349
507.47	48.318
507.82	46.354
508.16	47.897
508.51	46.601
508.85	47.615
509.19	47.513
509.54	48.607
509.88	47.742
510.23	48.616
510.57	48.429
510.92	47.218
511.26	46.946
511.61	46.644
511.95	47.633
512.30	48.006
512.64	48.326
512.98	48.824
513.33	48.135
513.67	49.108
514.02	47.011
514.36	49.003
514.70	48.854
515.05	48.697
515.39	48.609
515.74	49.682
516.08	47.861
516.42	48.770
516.77	49.579
517.11	47.189
517.46	47.773
517.80	49.653
518.14	49.293
518.49	49.187
518.83	48.536
519.17	48.034
519.52	48.008
519.86	49.261
520.20	48.616
520.55	48.467
520.89	49.437
521.23	48.409
521.58	49.492
521.92	48.612
522.26	47.881
522.61	49.537
522.95	49.077
523.29	48.736
523.64	49.439
523.98	49.458
524.32	50.946
524.66	49.516
525.01	48.584
525.35	48.708
525.69	49.710
526.04	47.532
526.38	48.966
526.72	49.423
527.06	49.971
527.41	49.971
527.75	50.297
528.09	48.996
528.43	48.905
528.78	48.613
529.12	48.853
529.46	48.848
529.80	49.142
530.15	50.899
530.49	49.348
530.83	49.292
531.17	50.119
531.51	48.736
531.86	50.060
532.20	49.329
532.54	48.594
532.88	49.697
533.22	49.087
533.57	49.163
533.91	47.868
534.25	48.954
534.59	50.115
534.93	48.048
535.27	49.239
535.62	49.176
535.96	49.739
536.30	50.000
536.64	50.991
536.98	50.308
537.32	50.000
537.66	49.782
538.01	48.580
538.35	48.477
538.69	48.798
539.03	49.234
539.37	48.587
539.71	49.309
540.05	49.580
540.39	49.328
540.73	48.573
541.07	50.399
541.42	48.198
541.76	49.051
542.10	48.492
542.44	48.660
542.78	48.905
543.12	48.629
543.46	49.634
543.80	48.741
544.14	47.876
544.48	49.645
544.82	49.491
545.16	49.016
545.50	49.970
545.84	49.173
546.18	50.432
546.52	49.682
546.86	48.113
547.20	49.491
547.54	48.252
547.88	48.704
548.22	48.363
548.56	48.215
548.90	48.776
549.24	49.666
549.58	50.095
549.92	50.128
550.26	50.550
550.60	49.138
550.94	50.000
551.28	48.647
551.62	50.067
551.96	48.155
552.30	49.012
552.64	48.849
552.98	49.906
553.32	50.547
553.66	49.582
554.00	49.622
554.34	49.936
554.68	48.806
555.02	50.197
555.36	51.216
555.69	48.687
556.03	49.369
556.37	49.061
556.71	48.890
557.05	49.776
557.39	49.370
557.73	49.868
558.07	49.868
558.41	50.299
558.75	50.642
559.08	50.661
559.42	50.137
559.76	49.525
560.10	50.301
560.44	48.219
560.78	49.000
561.12	50.369
561.45	49.696
561.79	49.878
562.13	50.893
562.47	49.815
562.81	49.620
563.15	49.495
563.48	49.782
563.82	49.819
564.16	50.091
564.50	49.106
564.84	49.263
565.17	49.765
565.51	48.619
565.85	49.287
566.19	48.733
566.52	48.976
566.86	49.462
567.20	48.233
567.54	50.133
567.88	48.828
568.21	48.518
568.55	48.345
568.89	48.479
569.23	48.035
569.56	48.378
569.90	47.149
570.24	47.656
570.57	46.729
570.91	46.785
571.25	47.006
571.59	47.175
571.92	47.015
572.26	46.638
572.60	47.666
572.93	47.676
573.27	47.429
573.61	46.347
573.95	46.273
574.28	45.667
574.62	46.385
574.96	46.162
575.29	46.354
575.63	47.193
575.97	47.018
576.30	46.731
576.64	46.600
576.98	45.968
577.31	46.364
577.65	46.182
577.98	45.407
578.32	45.670
578.66	46.099
578.99	46.815
579.33	47.843
579.67	47.756
580.00	47.247
580.34	46.771
580.67	46.403
581.01	46.820
581.35	46.308
581.68	44.809
582.02	45.489
582.35	46.942
582.69	47.485
583.02	48.402
583.36	48.285
583.70	49.330
584.03	48.044
584.37	48.161
584.70	47.164
585.04	45.989
585.37	46.067
585.71	46.559
586.04	46.984
586.38	46.913
586.72	47.105
587.05	47.992
587.39	48.068
587.72	47.943
588.06	48.066
588.39	48.245
588.73	48.466
589.06	48.138
589.40	48.525
589.73	49.422
590.07	49.503
590.40	49.256
590.73	48.109
591.07	49.665
591.40	49.067
591.74	48.887
592.07	49.127
592.41	48.738
592.74	47.426
593.08	47.197
593.41	48.148
593.75	47.902
594.08	49.258
594.41	49.423
594.75	48.954
595.08	48.957
595.42	49.123
595.75	47.594
596.09	49.373
596.42	50.269
596.75	49.865
597.09	49.899
597.42	49.265
597.75	48.608
598.09	48.690
598.42	49.055
598.76	48.032
599.09	46.956
599.42	47.603
599.76	48.201
600.09	49.383
600.42	47.948
600.76	48.778
601.09	47.992
601.42	48.129
601.76	48.828
602.09	49.392
602.42	48.855
602.76	48.893
603.09	48.642
603.42	48.663
603.76	49.436
604.09	49.965
604.42	49.468
604.76	49.239
605.09	49.701
605.42	49.083
605.75	49.654
606.09	49.645
606.42	47.720
606.75	48.688
607.09	48.233
607.42	49.480
607.75	49.277
608.08	48.461
608.42	48.448
608.75	49.502
609.08	48.769
609.41	50.331
609.75	49.911
610.08	49.868
610.41	48.895
610.74	48.824
611.07	49.867
611.41	49.417
611.74	50.762
612.07	50.351
612.40	49.715
612.73	50.954
613.07	50.024
613.40	50.096
613.73	50.072
614.06	50.245
614.39	49.806
614.72	49.393
615.06	49.326
615.39	49.009
615.72	49.763
616.05	49.684
616.38	50.303
616.71	50.993
617.05	51.118
617.38	50.669
617.71	50.864
618.04	51.646
618.37	50.820
618.70	51.980
619.03	52.330
619.36	52.096
619.69	51.762
620.03	51.601
620.36	50.982
620.69	50.401
621.02	52.756
621.35	54.790
621.68	52.350
622.01	52.527
622.34	51.743
622.67	52.577
623.00	50.877
623.33	52.090
623.66	51.232
623.99	51.547
624.32	50.942
624.65	51.802
624.99	52.991
625.32	52.907
625.65	51.517
625.98	51.525
626.31	52.516
626.64	52.674
626.97	53.188
627.30	52.316
627.63	53.188
627.96	53.378
628.29	54.163
628.62	54.492
628.95	55.565
629.28	52.931
629.61	52.862
629.94	53.222
630.26	54.153
630.59	53.195
630.92	53.680
631.25	54.025
631.58	55.273
631.91	53.983
632.24	55.620
632.57	55.313
632.90	54.865
633.23	53.980
633.56	53.571
633.89	54.132
634.22	56.445
634.55	55.115
634.88	54.978
635.20	56.405
635.53	57.401
635.86	54.171
636.19	55.249
636.52	54.852
636.85	53.933
637.18	53.846
637.51	53.656
637.83	55.482
638.16	55.991
638.49	56.103
638.82	56.595
639.15	54.754
639.48	56.236
639.81	55.081
640.13	55.006
640.46	54.061
640.79	53.922
641.12	55.528
641.45	56.211
641.77	58.280
642.10	55.643
642.43	55.319
642.76	56.775
643.09	56.438
643.41	56.022
643.74	54.759
644.07	57.103
644.40	56.719
644.73	58.636
645.05	58.003
645.38	56.259
645.71	57.625
646.04	55.093
646.36	55.036
646.69	57.822
647.02	57.798
647.35	59.389
647.67	58.454
648.00	57.962
648.33	56.006
648.66	54.779
648.98	54.286
649.31	54.939
649.64	56.308
649.96	55.172
650.29	54.937
650.62	54.455
650.94	56.456
651.27	54.491
651.60	55.409
651.92	56.839
652.25	55.572
652.58	55.983
652.90	54.651
653.23	54.930
653.56	55.207
653.88	56.320
654.21	57.042
654.54	58.092
654.86	55.949
655.19	51.443
655.52	52.275
655.84	46.254
656.17	52.362
656.49	73.338
656.82	83.024
657.15	68.537
657.47	54.533
657.80	41.824
658.13	33.034
658.45	44.179
658.78	53.311
659.10	51.358
659.43	50.000
659.75	50.020
660.08	46.331
660.41	48.470
660.73	51.197
661.06	54.185
661.38	55.981
661.71	54.828
662.03	55.732
662.36	57.066
662.68	55.722
663.01	57.345
663.33	59.357
663.66	56.227
663.98	57.500
664.31	56.848
664.63	58.189
664.96	54.628
665.28	54.446
665.61	57.867
665.93	53.750
666.26	57.168
666.58	55.535
666.91	55.888
667.23	56.571
667.56	56.016
667.88	58.200
668.21	56.055
668.53	54.826
668.86	54.813
669.18	58.452
669.50	56.064
669.83	56.200
670.15	57.087
670.48	59.722
670.80	56.788
671.13	55.388
671.45	57.874
671.77	57.250
672.10	52.500
672.42	52.427
672.75	54.839
673.07	54.179
673.39	54.545
673.72	57.886
674.04	57.069
674.37	58.497
674.69	57.319
675.01	60.571
675.34	57.634
675.66	54.682
675.98	57.276
676.31	57.812
676.63	59.506
676.95	56.705
677.28	58.871
677.60	51.969
677.92	55.470
678.25	57.038
678.57	57.473
678.89	55.802
679.22	54.181
679.54	53.333
679.86	52.034
680.18	54.726
680.51	56.132
680.83	52.373
681.15	51.724
681.48	58.549
681.80	57.513
682.12	54.196
682.44	54.090
682.77	55.496
683.09	55.492
683.41	55.620
683.73	56.167
684.06	52.583
684.38	52.773
684.70	58.887
685.02	57.315
685.34	51.581
685.67	55.205
685.99	53.374
686.31	50.145
686.63	53.555
686.96	52.839
687.28	54.072
687.60	53.535
687.92	52.894
688.24	55.259
688.56	52.586
688.89	54.628
689.21	56.164
689.53	53.725
689.85	53.452
690.17	52.407
690.49	54.183
690.82	53.069
691.14	54.858
691.46	53.920
691.78	53.959
692.10	50.826
692.42	51.607
692.74	52.450
693.06	55.185
693.39	54.080
693.71	51.316
694.03	53.903
694.35	51.238
694.67	53.799
694.99	52.766
695.31	55.188
695.63	53.030
695.95	51.139
696.27	52.747
696.59	54.425
696.91	58.333
697.23	56.923
697.56	54.379
697.88	52.841
698.20	53.861
698.52	54.356
698.84	53.846
699.16	53.469
699.48	53.975
699.80	52.979
700.12	50.655
700.44	53.226
700.76	55.582
701.08	56.416
701.40	56.995
701.72	55.224
702.04	53.743
702.36	52.094
702.68	51.100
703.00	53.301
703.32	57.143
703.64	52.078
703.96	51.790
704.28	52.580
704.60	54.177
704.91	53.061
705.23	53.425
705.55	55.432
705.87	58.182
706.19	58.589
706.51	49.398
706.83	50.720
707.15	51.852
707.47	51.636
707.79	48.908
708.11	49.364
708.43	51.828
708.74	51.116
709.06	53.132
709.38	53.756
709.70	53.598
710.02	53.488
710.34	53.457
710.66	49.441
710.98	51.366
711.29	51.374
711.61	59.040
711.93	50.712
712.25	49.189
712.57	53.982
712.89	52.941
713.20	49.704
713.52	52.890
713.84	49.025
714.16	54.211
714.48	47.938
714.80	51.948
715.11	49.606
715.43	52.255
715.75	51.053
716.07	52.210
716.39	53.279
716.70	54.518
717.02	51.803
717.34	51.916
717.66	51.342
717.97	45.890
718.29	49.485
718.61	50.329
718.93	50.162
719.24	50.311
719.56	50.920
719.88	54.955
720.20	50.323
720.51	52.795
720.83	48.750
721.15	46.053
721.46	44.521
721.78	53.000
722.10	48.544
722.42	48.322
722.73	47.097
723.05	57.193
723.37	52.431
723.68	51.254
724.00	49.819
724.32	45.775
724.63	52.797
724.95	54.965
725.27	48.432
725.58	44.876
725.90	50.345
726.22	46.708
726.53	46.104
726.85	51.572
727.16	48.036
727.48	49.541
727.80	50.000
728.11	50.883
728.43	46.465
728.74	49.833
729.06	48.013
729.38	50.000
729.69	49.329
730.01	45.833
730.32	45.152
730.64	48.742
730.96	49.689
731.27	49.162
731.59	48.352
731.90	49.091
732.22	41.927
732.53	53.039
732.85	50.857
733.16	47.801
733.48	45.732
733.80	45.961
734.11	48.148
734.43	48.108
734.74	49.367
735.06	44.724
735.37	50.811
735.69	44.054
736.00	45.763
736.32	47.709
736.63	45.278
736.95	45.402
737.26	49.394
737.58	46.970
737.89	47.353
738.21	45.566
738.52	47.213
738.83	50.171
739.15	48.227
739.46	51.361
739.78	46.319
740.09	46.132
740.41	45.481
740.72	51.333
741.04	49.838
741.35	46.667
741.66	46.667
741.98	55.328
742.29	46.444
742.61	48.246
742.92	50.000
743.23	44.404
743.55	48.450
743.86	50.400
744.18	41.736
744.49	42.616
744.80	47.325
745.12	49.789
745.43	47.561
745.74	52.586
746.06	51.271
746.37	49.789
746.68	48.780
747.00	50.417
747.31	49.356
747.62	47.692
747.94	48.583
748.25	47.791
748.56	48.571
748.88	46.581
749.19	50.000
749.50	52.814
749.82	52.209
750.13	47.331
750.44	43.333
750.75	48.000
751.07	47.077
751.38	46.372
751.69	46.326
752.01	47.249
752.32	48.039
752.63	50.340
752.94	50.173
753.26	49.071
753.57	44.074
753.88	43.820
754.19	49.518
754.51	43.087
754.82	45.016
755.13	47.541
755.44	47.782
755.75	46.382
756.07	42.985
756.38	47.484
756.69	45.181
757.00	41.828
757.31	46.175
757.63	42.199
757.94	43.427
758.25	43.115
758.56	42.048
758.87	42.727
759.18	40.800
759.50	45.326
759.81	44.818
760.12	45.553
760.43	47.917
760.74	42.365
761.05	41.000
761.36	41.687
761.67	41.624
761.99	42.703
762.30	46.341
762.61	41.914
762.92	47.388
763.23	41.199
763.54	43.525
763.85	42.955
764.16	43.098
764.47	41.901
764.78	45.687
765.10	42.522
765.41	45.385
765.72	39.418
766.03	38.136
766.34	39.812
766.65	42.857
766.96	43.825
767.27	50.230
767.58	46.269
767.89	47.115
768.20	45.540
768.51	39.815
768.82	44.177
769.13	43.561
769.44	41.538
769.75	44.404
770.06	45.769
770.37	42.520
770.68	42.979
770.99	36.437
771.30	48.519
771.61	44.487
771.92	41.481
772.23	42.510
772.54	41.204
772.85	50.230
773.16	47.619
773.47	41.799
773.78	44.324
774.09	43.750
774.39	43.000
774.70	44.262
775.01	40.854
775.32	31.765
775.63	31.902
775.94	32.484
776.25	41.935
776.56	45.513
776.87	40.816
777.18	46.207
777.48	40.559
777.79	43.243
778.10	38.971
778.41	39.583
778.72	40.690
779.03	39.506
779.34	41.212
779.65	37.306
779.95	39.444
780.26	38.068
780.57	42.581
780.88	45.652
781.19	40.000
781.50	41.176
781.80	37.097
782.11	44.444
782.42	26.768
782.73	35.329
783.04	39.106
783.34	37.576
783.65	34.641
783.96	42.236
784.27	36.905
784.57	34.437
784.88	36.429
785.19	35.433
785.50	36.220
785.81	36.842
786.11	40.000
786.42	33.813
786.73	30.935
787.04	36.842
787.34	40.164
787.65	36.000
787.96	41.045
788.26	34.266
788.57	44.056
788.88	35.526
789.19	45.098
789.49	37.671
789.80	29.787
790.11	37.008
790.41	33.594
790.72	32.203
791.03	24.272
791.33	33.913
791.64	35.088
791.95	28.571
792.25	39.048
792.56	32.143
792.87	28.125
793.17	33.036
793.48	23.958
793.79	33.735
794.09	34.862
794.40	37.615
794.70	32.653
795.01	24.675
795.32	30.137
795.62	30.282
795.93	25.758
796.23	31.148
796.54	30.357
796.85	30.851
797.15	18.478
797.46	17.808
797.76	33.750
798.07	30.435
798.37	17.526
798.68	11.688
798.99	36.782
799.29	26.966
799.60	27.660
799.90	25.301
800.21	23.077
800.51	19.403
800.82	25.000
801.12	23.288
801.43	13.235
801.73	16.949
802.04	37.879
802.34	5.000
802.65	22.034
802.95	22.388
803.26	23.729
803.56	16.438
803.87	28.571
804.17	34.247
804.48	-8.772
804.78	15.278
805.09	3.448
805.39	20.270
805.70	8.451
806.00	25.610
806.30	24.096
806.61	30.137
806.91	23.077
807.22	27.778
807.52	10.345
807.83	33.333
808.13	28.916
808.43	26.966
808.74	28.750
809.04	14.706
809.35	25.333
809.65	25.714
809.95	27.397
810.26	0.000
810.56	15.517
810.86	20.588
811.17	15.789
811.47	8.197
811.77	2.222
812.08	8.475
812.38	28.333
812.69	8.621
812.99	5.660
813.29	10.256
813.59	10.000
813.90	22.807
814.20	25.455
814.50	23.944
814.81	12.821
815.11	22.951
815.41	14.925
815.72	41.379
816.02	10.714
816.32	24.444
816.62	25.000
816.93	11.111
817.23	20.370
817.53	2.128
817.84	0.000
818.14	11.765
818.44	2.041
818.74	22.222
819.04	-2.564
819.35	-28.571
819.65	11.538
819.95	11.321
820.25	35.556
820.56	-19.048
820.86	-56.250
821.16	7.692
821.46	-2.326
821.76	-6.000
822.07	5.357
822.37	-21.739
822.67	-12.766
822.97	-10.811
823.27	0.000
823.57	2.041
823.88	4.444
824.18	7.500
824.48	-36.667
824.78	-4.000
825.08	-18.182
825.38	11.111
825.69	8.511
825.99	16.667
826.29	-42.857
826.59	-15.385
826.89	-6.977
827.19	-2.000
827.49	-2.941
827.79	6.250
828.09	-21.622
828.39	-30.000
828.70	0.000
829.00	-41.860
829.30	-39.286
829.60	-17.647
829.90	-8.696
830.20	-2.857
830.50	-13.793
830.80	-33.333
831.10	-23.077
831.40	-23.529
831.70	0.000
832.00	6.452
832.30	-105.882
832.60	-54.167
832.90	-176.923
833.20	-36.842
833.50	-50.000
833.80	-42.105
834.10	-100.000
834.40	-11.111
834.70	12.500
835.00	-28.571
835.30	2.941
835.60	-36.667
835.90	-36.000
836.20	-68.182
836.50	-20.000
836.80	-48.485
837.10	-40.741
837.40	-18.519
837.70	-56.250
838.00	-28.571
838.30	-43.478
838.60	-6.897
838.90	-85.714
839.19	-95.652
839.49	-150.000
839.79	-30.435
840.09	-106.250
840.39	-40.000
840.69	-12.903
840.99	-64.286
841.29	-73.333
841.59	-57.895
841.88	-2.564
842.18	-69.231
842.48	-90.000
842.78	0.000
843.08	-10.000
843.38	-19.355
843.68	-116.667
843.97	-17.647
844.27	-106.250
844.57	-63.158
844.87	-90.000
845.17	-86.667
845.47	-28.571
845.76	-66.667
846.06	-44.444
846.36	-82.353
846.66	-23.077
846.96	-93.333
847.25	-76.471
847.55	-8.696
847.85	-55.000
848.15	-100.000
848.44	-90.909
848.74	0.000
849.04	-91.667
849.34	-112.500
849.63	-21.739
849.93	900.000
850.23	-33.333
850.53	-23.077
850.82	-181.818
851.12	-13.636
851.42	-163.636
851.71	-84.615
852.01	-60.000
852.31	-69.231
852.61	-100.000
852.90	-33.333
853.20	-16.667
853.50	-188.889
853.79	-71.429
854.09	-81.818
854.39	-175.000
854.68	-3.226
854.98	-57.692
855.28	-72.222
855.57	-32.143
855.87	-12.000
856.17	-72.727
856.46	-33.333
856.76	-50.000
857.05	-13.043
857.35	-75.000
857.65	-69.231
857.94	-52.381
858.24	-14.815
858.53	-30.435
858.83	-23.529
859.13	-23.529
859.42	-64.706
859.72	-92.857
860.01	-55.000
860.31	-211.111
860.60	-90.000
860.90	-46.667
861.20	-38.889
861.49	-53.846
861.79	-13.333
862.08	-130.769
862.38	-9.375
862.67	-17.647
862.97	-18.750
863.26	-233.333
863.56	-120.000
863.85	-181.818
864.15	-72.222
864.44	-333.333
864.74	-78.571
865.03	-93.750
865.33	-230.000
865.62	-38.710
865.92	-9.091
866.21	-52.174
866.51	-64.286
866.80	-420.000
867.10	-141.667
867.39	-150.000
867.69	1300.000
867.98	-114.286
868.27	-82.353
868.57	-2600.000
868.86	-230.000
869.16	-95.238
869.45	-62.500
869.75	-18.182
870.04	-200.000
870.33	-125.000
870.63	-228.571
870.92	-350.000
871.22	-400.000
871.51	-209.091
871.80	-1033.333
872.10	-950.000
>>>>>End Processed Spectral Data<<<<<
