SpectraSuite Data File
++++++++++++++++++++++++++++++++++++
Date: Thu May 14 14:53:41 PDT 2015
User: schluterlab
Dark Spectrum Present: Yes
Reference Spectrum Present: Yes
Number of Sampled Component Spectra: 1
Spectrometers: USB2E3373
Integration Time (usec): 3000 (USB2E3373)
Spectra Averaged: 3 (USB2E3373)
Boxcar Smoothing: 0 (USB2E3373)
Correct for Electrical Dark: No (USB2E3373)
Strobe/Lamp Enabled: No (USB2E3373)
Correct for Detector Non-linearity: No (USB2E3373)
Correct for Stray Light: No (USB2E3373)
Number of Pixels in Processed Spectrum: 2048
>>>>>Begin Processed Spectral Data<<<<<
178.53	0.000
178.91	242.857
179.29	-2300.000
179.67	-1000.000
180.04	178.571
180.42	140.000
180.80	200.000
181.18	-200.000
181.56	-600.000
181.94	300.000
182.31	-175.000
182.69	266.667
183.07	-750.000
183.45	550.000
183.83	-200.000
184.20	-233.333
184.58	1000.000
184.96	-375.000
185.34	-11.111
185.72	-200.000
186.09	255.556
186.47	950.000
186.85	440.000
187.23	-166.667
187.61	-2400.000
187.98	240.000
188.36	150.000
188.74	-350.000
189.12	-33.333
189.49	-25.000
189.87	-187.500
190.25	55.556
190.63	-200.000
191.00	-122.222
191.38	0.000
191.76	-475.000
192.14	-350.000
192.51	300.000
192.89	-83.333
193.27	0.000
193.65	-42.857
194.02	-1500.000
194.40	-142.857
194.78	271.429
195.15	0.000
195.53	-154.545
195.91	0.000
196.29	-175.000
196.66	-107.692
197.04	-1800.000
197.42	-214.286
197.79	-350.000
198.17	-112.500
198.55	-228.571
198.92	-55.556
199.30	-275.000
199.68	-90.909
200.05	-35.714
200.43	-400.000
200.81	271.429
201.18	0.000
201.56	244.444
201.94	0.000
202.31	566.667
202.69	-255.556
203.07	800.000
203.44	-88.889
203.82	-500.000
204.19	-41.667
204.57	-400.000
204.95	-225.000
205.32	-1300.000
205.70	275.000
206.08	-100.000
206.45	-133.333
206.83	400.000
207.20	-33.333
207.58	-260.000
207.96	-200.000
208.33	-66.667
208.71	133.333
209.08	-183.333
209.46	0.000
209.84	366.667
210.21	700.000
210.59	550.000
210.96	600.000
211.34	100.000
211.71	-162.500
212.09	-800.000
212.46	0.000
212.84	950.000
213.22	-320.000
213.59	-275.000
213.97	-160.000
214.34	-500.000
214.72	333.333
215.09	-175.000
215.47	0.000
215.84	200.000
216.22	1250.000
216.59	-200.000
216.97	-460.000
217.34	-325.000
217.72	-162.500
218.09	-550.000
218.47	-150.000
218.84	0.000
219.22	240.000
219.59	-82.353
219.97	-65.000
220.34	500.000
220.72	-177.778
221.09	-46.154
221.47	-333.333
221.84	-120.000
222.22	-257.143
222.59	0.000
222.97	-50.000
223.34	-140.000
223.72	-1400.000
224.09	-475.000
224.46	-450.000
224.84	60.000
225.21	-228.571
225.59	-375.000
225.96	-200.000
226.34	-11.538
226.71	350.000
227.08	-850.000
227.46	-93.333
227.83	-450.000
228.21	-10.526
228.58	225.000
228.95	450.000
229.33	-33.333
229.70	-110.000
230.08	26.316
230.45	150.000
230.82	-133.333
231.20	-64.286
231.57	16.667
231.95	-90.909
232.32	-127.273
232.69	-25.000
233.07	-400.000
233.44	-82.353
233.81	-80.000
234.19	-16.667
234.56	-18.182
234.93	-10.345
235.31	-68.421
235.68	-111.111
236.05	-75.000
236.43	0.000
236.80	24.000
237.17	-18.519
237.55	-12.121
237.92	-180.000
238.29	-25.806
238.67	-29.545
239.04	-38.889
239.41	-40.476
239.79	-13.043
240.16	-22.222
240.53	-32.609
240.91	-27.451
241.28	-11.475
241.65	8.955
242.02	0.000
242.40	-26.154
242.77	-4.000
243.14	-18.293
243.51	-27.632
243.89	-15.385
244.26	-1.980
244.63	-0.980
245.00	-2.804
245.38	-4.386
245.75	-18.584
246.12	3.175
246.49	-2.326
246.87	3.571
247.24	0.662
247.61	1.316
247.98	0.671
248.36	3.086
248.73	-3.067
249.10	-1.639
249.47	8.458
249.84	7.853
250.22	2.073
250.59	2.222
250.96	6.818
251.33	0.000
251.70	8.974
252.08	3.333
252.45	7.377
252.82	1.240
253.19	0.391
253.56	7.605
253.94	-3.077
254.31	4.167
254.68	7.692
255.05	5.863
255.42	4.422
255.79	2.913
256.16	4.636
256.54	3.642
256.91	7.213
257.28	3.934
257.65	3.185
258.02	4.425
258.39	4.274
258.76	4.893
259.14	8.908
259.51	5.187
259.88	2.550
260.25	6.111
260.62	3.836
260.99	6.284
261.36	6.971
261.73	3.979
262.10	6.319
262.47	7.239
262.85	7.071
263.22	1.039
263.59	1.053
263.96	7.928
264.33	2.558
264.70	8.395
265.07	8.353
265.44	8.617
265.81	6.250
266.18	7.256
266.55	6.696
266.92	3.417
267.29	7.877
267.66	5.543
268.03	4.367
268.40	7.307
268.77	5.923
269.14	5.286
269.51	7.675
269.88	7.172
270.25	6.237
270.62	7.595
270.99	6.667
271.36	7.723
271.73	5.108
272.10	6.012
272.47	4.008
272.84	5.823
273.21	6.814
273.58	5.444
273.95	5.385
274.32	6.274
274.69	5.416
275.06	6.410
275.43	4.991
275.80	7.937
276.17	4.259
276.54	6.716
276.91	5.188
277.28	5.425
277.65	7.720
278.02	5.699
278.39	4.891
278.76	7.206
279.13	6.206
279.50	5.842
279.87	5.009
280.23	4.401
280.60	6.102
280.97	7.895
281.34	4.754
281.71	8.291
282.08	6.478
282.45	6.383
282.82	6.750
283.19	4.847
283.56	4.590
283.92	8.408
284.29	9.005
284.66	7.882
285.03	3.846
285.40	5.719
285.77	7.430
286.14	7.176
286.51	7.002
286.87	6.635
287.24	6.476
287.61	7.175
287.98	5.589
288.35	5.473
288.72	6.213
289.08	6.442
289.45	7.544
289.82	5.120
290.19	5.603
290.56	7.183
290.93	6.847
291.29	6.336
291.66	5.510
292.03	5.970
292.40	8.027
292.77	7.412
293.13	6.089
293.50	5.125
293.87	6.174
294.24	7.200
294.60	5.310
294.97	5.369
295.34	6.402
295.71	7.945
296.08	6.460
296.44	4.779
296.81	6.334
297.18	5.978
297.55	5.425
297.91	5.813
298.28	5.095
298.65	6.064
299.02	6.021
299.38	5.950
299.75	4.907
300.12	4.977
300.48	6.106
300.85	5.624
301.22	5.145
301.59	5.023
301.95	5.311
302.32	6.000
302.69	6.134
303.05	6.964
303.42	5.654
303.79	5.312
304.15	6.309
304.52	5.497
304.89	6.073
305.25	5.797
305.62	6.374
305.99	7.113
306.35	6.250
306.72	6.412
307.09	4.975
307.45	6.729
307.82	4.642
308.19	5.045
308.55	6.557
308.92	4.869
309.29	7.184
309.65	6.530
310.02	7.525
310.38	6.693
310.75	6.990
311.12	7.383
311.48	6.354
311.85	6.458
312.22	5.503
312.58	6.291
312.95	6.119
313.31	8.220
313.68	7.143
314.05	8.130
314.41	8.470
314.78	7.902
315.14	8.984
315.51	9.234
315.87	8.551
316.24	8.676
316.61	8.970
316.97	9.502
317.34	8.818
317.70	9.694
318.07	10.053
318.43	9.524
318.80	11.288
319.16	9.871
319.53	8.483
319.89	8.764
320.26	10.676
320.62	9.131
320.99	10.249
321.35	9.057
321.72	11.721
322.08	10.099
322.45	11.201
322.81	10.560
323.18	10.619
323.54	10.345
323.91	11.388
324.27	11.102
324.64	11.671
325.00	10.945
325.37	11.384
325.73	12.975
326.10	11.841
326.46	12.622
326.83	11.849
327.19	11.654
327.56	12.332
327.92	12.038
328.29	12.500
328.65	12.479
329.01	13.452
329.38	13.564
329.74	13.784
330.11	12.243
330.47	12.721
330.84	12.317
331.20	13.083
331.56	13.432
331.93	14.310
332.29	13.136
332.66	12.957
333.02	13.735
333.38	13.255
333.75	12.710
334.11	13.678
334.48	12.706
334.84	13.849
335.20	12.007
335.57	12.901
335.93	14.380
336.29	12.230
336.66	13.373
337.02	14.465
337.38	13.946
337.75	13.554
338.11	14.130
338.47	13.896
338.84	13.113
339.20	12.468
339.56	13.262
339.93	13.054
340.29	13.768
340.65	13.625
341.02	13.647
341.38	14.228
341.74	12.833
342.11	12.953
342.47	12.232
342.83	13.446
343.20	13.164
343.56	13.472
343.92	13.131
344.28	13.125
344.65	13.721
345.01	13.729
345.37	12.753
345.73	13.640
346.10	13.261
346.46	11.867
346.82	13.933
347.19	13.063
347.55	13.126
347.91	13.373
348.27	13.581
348.63	13.633
349.00	13.199
349.36	12.937
349.72	13.914
350.08	13.893
350.45	12.700
350.81	12.519
351.17	13.008
351.53	13.495
351.89	14.351
352.26	13.209
352.62	13.582
352.98	14.351
353.34	12.248
353.70	13.251
354.07	13.189
354.43	13.136
354.79	13.164
355.15	12.951
355.51	13.450
355.87	14.286
356.24	13.004
356.60	12.934
356.96	13.195
357.32	13.011
357.68	12.445
358.04	13.323
358.40	13.134
358.77	13.304
359.13	13.294
359.49	12.416
359.85	12.763
360.21	13.917
360.57	13.137
360.93	13.329
361.29	13.754
361.66	13.106
362.02	14.405
362.38	13.282
362.74	14.246
363.10	13.618
363.46	13.850
363.82	13.068
364.18	13.019
364.54	12.656
364.90	14.114
365.26	13.241
365.62	14.733
365.98	13.615
366.35	13.557
366.71	13.946
367.07	13.396
367.43	14.380
367.79	13.935
368.15	14.181
368.51	13.938
368.87	14.108
369.23	13.733
369.59	14.003
369.95	14.131
370.31	14.315
370.67	13.411
371.03	13.989
371.39	12.357
371.75	14.512
372.11	13.550
372.47	13.947
372.83	14.660
373.19	14.410
373.55	14.160
373.91	13.770
374.27	14.618
374.63	13.599
374.99	13.926
375.35	14.221
375.71	13.806
376.07	14.784
376.42	14.861
376.78	14.854
377.14	15.221
377.50	14.231
377.86	15.209
378.22	14.910
378.58	15.101
378.94	14.789
379.30	15.173
379.66	15.461
380.02	14.887
380.38	15.150
380.74	15.155
381.09	14.808
381.45	15.398
381.81	15.340
382.17	15.796
382.53	15.146
382.89	16.196
383.25	15.944
383.61	15.683
383.97	14.959
384.32	16.567
384.68	16.241
385.04	15.963
385.40	16.559
385.76	16.823
386.12	15.919
386.48	15.412
386.83	16.508
387.19	15.643
387.55	16.256
387.91	17.123
388.27	16.455
388.62	17.182
388.98	16.751
389.34	17.384
389.70	16.734
390.06	16.755
390.42	16.867
390.77	17.700
391.13	17.488
391.49	17.029
391.85	16.909
392.20	16.963
392.56	17.956
392.92	17.230
393.28	18.463
393.64	17.318
393.99	17.490
394.35	17.932
394.71	17.365
395.07	16.707
395.42	17.247
395.78	18.038
396.14	18.598
396.50	17.874
396.85	18.664
397.21	17.751
397.57	17.491
397.92	18.099
398.28	17.110
398.64	17.506
399.00	17.853
399.35	18.010
399.71	17.500
400.07	17.799
400.42	18.568
400.78	17.998
401.14	17.871
401.49	18.363
401.85	18.547
402.21	18.134
402.57	18.955
402.92	18.440
403.28	17.564
403.63	18.258
403.99	18.112
404.35	18.022
404.70	18.244
405.06	18.207
405.42	18.326
405.77	18.593
406.13	18.909
406.49	18.863
406.84	19.003
407.20	19.564
407.55	17.868
407.91	19.170
408.27	18.610
408.62	19.372
408.98	19.327
409.34	18.299
409.69	18.850
410.05	19.930
410.40	19.432
410.76	18.901
411.11	19.053
411.47	19.042
411.83	18.930
412.18	19.277
412.54	19.621
412.89	19.383
413.25	18.792
413.60	19.012
413.96	19.289
414.31	19.207
414.67	19.439
415.03	19.138
415.38	19.105
415.74	18.998
416.09	19.432
416.45	18.472
416.80	18.727
417.16	19.221
417.51	20.050
417.87	20.049
418.22	19.042
418.58	20.136
418.93	20.256
419.29	19.420
419.64	19.508
420.00	19.288
420.35	19.933
420.71	19.529
421.06	19.666
421.42	19.725
421.77	19.117
422.12	19.292
422.48	19.457
422.83	20.865
423.19	18.939
423.54	19.856
423.90	19.216
424.25	20.107
424.61	19.001
424.96	19.824
425.31	19.904
425.67	19.216
426.02	19.092
426.38	19.747
426.73	19.587
427.09	20.415
427.44	19.716
427.79	19.790
428.15	19.121
428.50	19.438
428.85	20.608
429.21	20.000
429.56	20.138
429.92	20.197
430.27	19.855
430.62	19.883
430.98	20.069
431.33	19.648
431.68	19.301
432.04	20.264
432.39	19.282
432.74	19.863
433.10	20.011
433.45	19.509
433.80	19.742
434.16	20.816
434.51	19.630
434.86	20.413
435.22	20.457
435.57	20.755
435.92	20.200
436.28	20.080
436.63	20.044
436.98	19.914
437.34	20.237
437.69	19.703
438.04	20.201
438.39	19.931
438.75	20.144
439.10	20.930
439.45	20.235
439.81	20.169
440.16	19.946
440.51	21.126
440.86	19.789
441.22	20.204
441.57	20.755
441.92	20.369
442.27	20.758
442.63	20.417
442.98	20.651
443.33	20.200
443.68	21.358
444.03	21.402
444.39	20.620
444.74	21.184
445.09	20.274
445.44	20.759
445.79	20.785
446.15	20.761
446.50	20.568
446.85	20.720
447.20	20.406
447.55	20.502
447.91	20.052
448.26	20.613
448.61	20.298
448.96	21.781
449.31	19.883
449.66	19.717
450.02	21.150
450.37	20.458
450.72	20.560
451.07	20.330
451.42	20.624
451.77	20.345
452.12	20.485
452.47	19.905
452.83	21.171
453.18	20.607
453.53	20.046
453.88	20.817
454.23	20.791
454.58	20.023
454.93	20.692
455.28	20.289
455.63	20.807
455.98	20.223
456.34	20.141
456.69	20.165
457.04	20.626
457.39	20.011
457.74	20.414
458.09	20.319
458.44	20.205
458.79	20.268
459.14	20.556
459.49	20.374
459.84	20.672
460.19	21.155
460.54	21.238
460.89	21.175
461.24	20.230
461.59	21.527
461.94	20.308
462.29	20.437
462.64	20.338
462.99	20.151
463.34	20.182
463.69	20.281
464.04	21.067
464.39	20.516
464.74	20.182
465.09	20.934
465.44	21.030
465.79	21.259
466.14	20.167
466.49	20.263
466.84	21.598
467.19	21.098
467.54	20.329
467.89	20.230
468.24	20.055
468.59	19.629
468.94	19.755
469.29	20.156
469.64	20.280
469.99	21.542
470.34	20.545
470.68	19.959
471.03	21.284
471.38	20.275
471.73	20.156
472.08	21.129
472.43	20.891
472.78	21.159
473.13	20.354
473.48	21.027
473.83	20.720
474.17	20.809
474.52	21.106
474.87	20.875
475.22	20.620
475.57	20.249
475.92	21.304
476.27	20.554
476.61	20.145
476.96	20.594
477.31	20.495
477.66	21.511
478.01	19.980
478.36	20.489
478.70	20.690
479.05	20.654
479.40	21.224
479.75	20.557
480.10	20.654
480.45	20.875
480.79	20.635
481.14	20.772
481.49	20.491
481.84	21.323
482.19	21.032
482.53	21.294
482.88	20.824
483.23	20.631
483.58	21.790
483.92	19.415
484.27	20.322
484.62	20.256
484.97	20.645
485.31	20.697
485.66	19.552
486.01	19.834
486.36	20.741
486.70	21.757
487.05	22.464
487.40	21.105
487.75	21.120
488.09	20.879
488.44	20.684
488.79	20.540
489.13	20.058
489.48	19.107
489.83	20.241
490.17	20.089
490.52	20.567
490.87	20.347
491.22	20.191
491.56	20.350
491.91	20.454
492.26	21.203
492.60	20.813
492.95	20.579
493.30	20.663
493.64	20.324
493.99	20.877
494.34	20.383
494.68	20.171
495.03	20.485
495.37	20.018
495.72	20.000
496.07	19.982
496.41	19.991
496.76	21.059
497.11	20.637
497.45	20.371
497.80	20.791
498.14	20.952
498.49	20.772
498.84	20.750
499.18	19.973
499.53	20.359
499.87	19.648
500.22	20.436
500.56	20.918
500.91	20.046
501.26	20.636
501.60	20.239
501.95	20.365
502.29	21.281
502.64	20.726
502.98	20.621
503.33	20.173
503.67	20.323
504.02	20.184
504.36	21.180
504.71	20.763
505.06	20.100
505.40	20.704
505.75	20.993
506.09	21.087
506.44	21.356
506.78	21.422
507.13	21.070
507.47	21.412
507.82	20.028
508.16	20.698
508.51	20.910
508.85	20.784
509.19	21.459
509.54	21.614
509.88	21.175
510.23	21.272
510.57	21.363
510.92	21.287
511.26	20.635
511.61	20.763
511.95	20.644
512.30	21.812
512.64	20.790
512.98	21.211
513.33	21.976
513.67	21.673
514.02	21.564
514.36	21.074
514.70	21.302
515.05	20.907
515.39	22.100
515.74	22.004
516.08	21.659
516.42	22.344
516.77	21.188
517.11	21.558
517.46	22.110
517.80	22.448
518.14	23.123
518.49	21.692
518.83	21.501
519.17	21.648
519.52	22.222
519.86	21.014
520.20	21.778
520.55	20.811
520.89	22.072
521.23	21.496
521.58	21.638
521.92	21.643
522.26	22.337
522.61	22.801
522.95	22.261
523.29	21.954
523.64	22.309
523.98	23.274
524.32	22.751
524.66	21.514
525.01	22.480
525.35	21.654
525.69	22.216
526.04	21.584
526.38	22.471
526.72	21.684
527.06	22.463
527.41	21.749
527.75	22.565
528.09	22.963
528.43	22.025
528.78	21.965
529.12	21.904
529.46	21.979
529.80	22.654
530.15	22.377
530.49	20.878
530.83	21.606
531.17	21.027
531.51	22.323
531.86	22.776
532.20	22.317
532.54	22.322
532.88	21.939
533.22	21.803
533.57	22.677
533.91	22.278
534.25	22.499
534.59	22.126
534.93	23.090
535.27	21.746
535.62	22.740
535.96	22.777
536.30	22.973
536.64	22.823
536.98	23.247
537.32	22.346
537.66	22.583
538.01	22.417
538.35	22.351
538.69	21.575
539.03	22.931
539.37	22.556
539.71	22.823
540.05	22.422
540.39	21.333
540.73	22.222
541.07	22.379
541.42	21.500
541.76	21.945
542.10	21.954
542.44	21.924
542.78	22.628
543.12	23.004
543.46	21.795
543.80	22.842
544.14	21.963
544.48	22.695
544.82	22.501
545.16	22.361
545.50	22.948
545.84	21.739
546.18	22.469
546.52	21.720
546.86	22.579
547.20	22.455
547.54	22.285
547.88	21.941
548.22	21.871
548.56	21.884
548.90	22.030
549.24	22.188
549.58	22.082
549.92	22.066
550.26	22.395
550.60	21.889
550.94	21.604
551.28	21.914
551.62	22.372
551.96	21.424
552.30	23.327
552.64	22.464
552.98	22.396
553.32	22.315
553.66	22.444
554.00	22.194
554.34	21.750
554.68	21.562
555.02	21.156
555.36	22.617
555.69	21.268
556.03	22.257
556.37	22.215
556.71	21.497
557.05	21.597
557.39	21.699
557.73	21.929
558.07	21.457
558.41	21.927
558.75	21.569
559.08	21.573
559.42	21.262
559.76	22.931
560.10	22.371
560.44	21.306
560.78	22.188
561.12	22.167
561.45	22.567
561.79	22.222
562.13	22.304
562.47	21.825
562.81	22.722
563.15	22.096
563.48	22.001
563.82	22.551
564.16	21.502
564.50	21.931
564.84	21.770
565.17	21.353
565.51	22.555
565.85	20.843
566.19	21.371
566.52	21.475
566.86	22.298
567.20	20.990
567.54	21.986
567.88	22.171
568.21	22.628
568.55	22.158
568.89	22.787
569.23	22.856
569.56	22.118
569.90	22.630
570.24	22.226
570.57	22.162
570.91	22.811
571.25	22.071
571.59	22.238
571.92	22.281
572.26	22.419
572.60	22.195
572.93	22.043
573.27	22.225
573.61	22.340
573.95	22.190
574.28	21.934
574.62	21.987
574.96	21.637
575.29	21.965
575.63	22.292
575.97	22.299
576.30	21.638
576.64	22.000
576.98	22.437
577.31	22.076
577.65	22.390
577.98	21.630
578.32	21.622
578.66	22.201
578.99	21.933
579.33	22.010
579.67	22.008
580.00	21.645
580.34	22.077
580.67	21.006
581.01	21.549
581.35	21.547
581.68	22.059
582.02	22.264
582.35	22.493
582.69	22.562
583.02	22.332
583.36	22.654
583.70	22.040
584.03	21.910
584.37	21.698
584.70	21.516
585.04	21.693
585.37	21.675
585.71	21.769
586.04	21.929
586.38	22.006
586.72	21.559
587.05	22.205
587.39	21.915
587.72	22.105
588.06	21.809
588.39	21.459
588.73	21.481
589.06	21.783
589.40	22.342
589.73	21.819
590.07	21.718
590.40	22.008
590.73	21.739
591.07	22.264
591.40	20.801
591.74	21.304
592.07	21.153
592.41	21.491
592.74	21.015
593.08	22.038
593.41	22.047
593.75	21.667
594.08	22.296
594.41	21.314
594.75	21.488
595.08	21.501
595.42	21.981
595.75	22.215
596.09	22.162
596.42	21.605
596.75	22.076
597.09	21.980
597.42	21.931
597.75	21.599
598.09	21.349
598.42	21.673
598.76	21.131
599.09	21.467
599.42	21.455
599.76	21.789
600.09	22.256
600.42	21.788
600.76	21.136
601.09	21.208
601.42	21.421
601.76	21.621
602.09	21.801
602.42	21.229
602.76	21.255
603.09	21.806
603.42	21.532
603.76	21.776
604.09	21.895
604.42	22.385
604.76	21.309
605.09	21.580
605.42	21.531
605.75	21.923
606.09	20.530
606.42	21.561
606.75	20.465
607.09	21.275
607.42	21.272
607.75	20.985
608.08	21.113
608.42	21.241
608.75	21.434
609.08	21.138
609.41	21.262
609.75	21.875
610.08	21.196
610.41	21.368
610.74	21.176
611.07	21.492
611.41	21.794
611.74	21.663
612.07	21.646
612.40	20.770
612.73	21.711
613.07	21.027
613.40	21.463
613.73	20.703
614.06	21.590
614.39	21.234
614.72	21.446
615.06	21.174
615.39	20.783
615.72	20.664
616.05	21.418
616.38	22.149
616.71	21.369
617.05	20.554
617.38	21.081
617.71	21.652
618.04	21.155
618.37	22.295
618.70	22.002
619.03	20.490
619.36	21.270
619.69	21.845
620.03	20.653
620.36	21.288
620.69	20.605
621.02	20.801
621.35	21.771
621.68	22.198
622.01	20.783
622.34	21.548
622.67	21.512
623.00	20.715
623.33	20.770
623.66	20.947
623.99	21.132
624.32	21.897
624.65	21.107
624.99	22.042
625.32	21.359
625.65	21.713
625.98	21.356
626.31	21.758
626.64	22.344
626.97	21.155
627.30	20.197
627.63	21.980
627.96	21.622
628.29	21.323
628.62	20.571
628.95	21.034
629.28	20.306
629.61	21.465
629.94	20.669
630.26	20.339
630.59	20.639
630.92	20.433
631.25	22.987
631.58	20.245
631.91	19.963
632.24	21.710
632.57	21.537
632.90	20.361
633.23	21.837
633.56	20.510
633.89	20.041
634.22	20.998
634.55	21.608
634.88	19.481
635.20	21.959
635.53	20.791
635.86	21.885
636.19	21.739
636.52	21.730
636.85	20.020
637.18	21.102
637.51	20.430
637.83	21.373
638.16	21.198
638.49	21.362
638.82	20.406
639.15	18.671
639.48	20.554
639.81	19.977
640.13	22.850
640.46	18.909
640.79	19.975
641.12	20.745
641.45	20.075
641.77	22.593
642.10	21.785
642.43	21.809
642.76	20.054
643.09	20.000
643.41	21.569
643.74	20.414
644.07	21.931
644.40	19.519
644.73	20.610
645.05	19.824
645.38	20.288
645.71	21.701
646.04	22.525
646.36	19.416
646.69	19.632
647.02	22.936
647.35	21.985
647.67	20.934
648.00	20.701
648.33	21.772
648.66	20.399
648.98	19.728
649.31	21.380
649.64	19.389
649.96	21.618
650.29	18.220
650.62	21.358
650.94	20.270
651.27	18.263
651.60	18.275
651.92	18.693
652.25	19.682
652.58	21.733
652.90	20.203
653.23	21.127
653.56	20.685
653.88	23.455
654.21	19.014
654.54	19.942
654.86	18.555
655.19	19.573
655.52	23.065
655.84	22.494
656.17	26.813
656.49	37.450
656.82	40.485
657.15	31.260
657.47	23.238
657.80	16.853
658.13	13.035
658.45	16.808
658.78	20.043
659.10	18.689
659.43	18.103
659.75	17.146
660.08	16.134
660.41	16.543
660.73	16.534
661.06	17.621
661.38	18.341
661.71	19.138
662.03	17.637
662.36	22.182
662.68	19.887
663.01	20.177
663.33	20.983
663.66	20.879
663.98	22.308
664.31	22.139
664.63	19.653
664.96	21.597
665.28	21.234
665.61	19.930
665.93	18.571
666.26	21.147
666.58	19.742
666.91	21.121
667.23	22.667
667.56	18.343
667.88	19.400
668.21	17.969
668.53	17.954
668.86	19.450
669.18	16.497
669.50	19.881
669.83	16.800
670.15	20.079
670.48	20.238
670.80	19.120
671.13	18.147
671.45	20.079
671.77	20.339
672.10	17.333
672.42	19.579
672.75	18.433
673.07	18.806
673.39	19.569
673.72	20.134
674.04	20.517
674.37	17.889
674.69	19.224
675.01	16.762
675.34	16.985
675.66	17.041
675.98	20.336
676.31	19.922
676.63	20.913
676.95	21.264
677.28	19.153
677.60	16.732
677.92	19.194
678.25	20.293
678.57	19.039
678.89	20.137
679.22	20.209
679.54	18.462
679.86	19.831
680.18	18.740
680.51	18.711
680.83	21.440
681.15	20.345
681.48	21.071
681.80	20.035
682.12	20.804
682.44	19.533
682.77	19.681
683.09	20.455
683.41	17.829
683.73	17.647
684.06	17.897
684.38	18.962
684.70	19.928
685.02	21.515
685.34	19.301
685.67	19.401
685.99	18.712
686.31	18.459
686.63	18.957
686.96	18.139
687.28	18.078
687.60	15.152
687.92	18.489
688.24	20.868
688.56	18.966
688.89	19.782
689.21	19.765
689.53	16.667
689.85	18.935
690.17	18.333
690.49	21.116
690.82	18.416
691.14	17.814
691.46	20.459
691.78	18.600
692.10	18.349
692.42	19.107
692.74	19.056
693.06	16.111
693.39	18.596
693.71	19.737
694.03	20.446
694.35	18.667
694.67	18.070
694.99	19.362
695.31	18.322
695.63	17.532
695.95	20.704
696.27	17.802
696.59	19.912
696.91	14.865
697.23	21.538
697.56	17.108
697.88	18.182
698.20	19.586
698.52	21.023
698.84	18.919
699.16	18.776
699.48	17.782
699.80	18.723
700.12	17.686
700.44	17.742
700.76	17.102
701.08	19.370
701.40	19.689
701.72	16.418
702.04	18.984
702.36	15.183
702.68	17.604
703.00	18.093
703.32	20.690
703.64	18.826
703.96	20.525
704.28	16.462
704.60	19.241
704.91	18.878
705.23	19.726
705.55	16.435
705.87	20.000
706.19	18.712
706.51	17.169
706.83	14.986
707.15	17.196
707.47	17.757
707.79	18.777
708.11	13.136
708.43	17.849
708.74	15.625
709.06	17.401
709.38	19.014
709.70	19.355
710.02	17.054
710.34	19.947
710.66	16.480
710.98	18.033
711.29	16.484
711.61	18.079
711.93	19.943
712.25	19.189
712.57	16.224
712.89	17.059
713.20	14.793
713.52	19.942
713.84	18.942
714.16	20.789
714.48	15.722
714.80	21.558
715.11	14.698
715.43	16.446
715.75	16.579
716.07	15.746
716.39	18.579
716.70	17.169
717.02	17.049
717.34	14.634
717.66	17.785
717.97	13.699
718.29	18.557
718.61	17.105
718.93	17.799
719.24	19.876
719.56	18.098
719.88	18.018
720.20	19.032
720.51	16.770
720.83	18.125
721.15	13.816
721.46	12.329
721.78	20.333
722.10	11.650
722.42	15.436
722.73	16.452
723.05	16.140
723.37	15.625
723.68	16.487
724.00	21.300
724.32	11.268
724.63	17.832
724.95	17.021
725.27	15.679
725.58	13.428
725.90	19.310
726.22	17.555
726.53	21.104
726.85	17.925
727.16	15.408
727.48	18.960
727.80	17.550
728.11	14.134
728.43	17.845
728.74	16.388
729.06	15.232
729.38	16.234
729.69	17.114
730.01	18.155
730.32	16.970
730.64	18.553
730.96	16.460
731.27	18.715
731.59	17.582
731.90	15.844
732.22	17.448
732.53	12.983
732.85	19.429
733.16	19.941
733.48	15.854
733.80	15.877
734.11	15.670
734.43	18.919
734.74	21.266
735.06	15.327
735.37	20.811
735.69	13.784
736.00	15.537
736.32	15.633
736.63	16.667
736.95	15.805
737.26	17.273
737.58	16.364
737.89	16.471
738.21	13.456
738.52	14.754
738.83	17.747
739.15	13.475
739.46	18.367
739.78	17.791
740.09	17.192
740.41	16.327
740.72	15.333
741.04	15.534
741.35	15.088
741.66	15.294
741.98	14.754
742.29	14.226
742.61	18.421
742.92	14.615
743.23	17.329
743.55	18.605
743.86	16.000
744.18	10.331
744.49	11.814
744.80	16.461
745.12	16.034
745.43	16.667
745.74	12.069
746.06	13.559
746.37	19.831
746.68	21.545
747.00	15.833
747.31	12.876
747.62	21.538
747.94	14.170
748.25	13.655
748.56	8.980
748.88	11.111
749.19	16.379
749.50	15.584
749.82	20.080
750.13	19.929
750.44	14.333
750.75	18.462
751.07	16.308
751.38	16.088
751.69	17.891
752.01	14.887
752.32	15.033
752.63	20.068
752.94	16.263
753.26	12.268
753.57	13.704
753.88	14.607
754.19	18.650
754.51	17.042
754.82	15.434
755.13	18.689
755.44	15.700
755.75	15.132
756.07	16.119
756.38	15.094
756.69	18.072
757.00	10.526
757.31	16.667
757.63	12.020
757.94	16.667
758.25	18.962
758.56	16.776
758.87	18.182
759.18	14.933
759.50	16.997
759.81	18.207
760.12	16.712
760.43	15.885
760.74	16.995
761.05	16.750
761.36	16.867
761.67	13.959
761.99	15.676
762.30	17.378
762.61	15.182
762.92	14.925
763.23	16.479
763.54	15.108
763.85	13.746
764.16	11.448
764.47	16.901
764.78	17.891
765.10	17.009
765.41	18.205
765.72	14.021
766.03	16.102
766.34	14.107
766.65	14.983
766.96	11.155
767.27	14.286
767.58	11.940
767.89	19.712
768.20	13.146
768.51	15.741
768.82	15.663
769.13	14.773
769.44	12.308
769.75	18.773
770.06	15.769
770.37	17.323
770.68	12.340
770.99	10.526
771.30	20.370
771.61	15.209
771.92	12.593
772.23	16.194
772.54	12.963
772.85	18.433
773.16	15.714
773.47	12.698
773.78	10.811
774.09	12.500
774.39	12.500
774.70	13.115
775.01	7.317
775.32	17.647
775.63	11.656
775.94	11.465
776.25	12.258
776.56	14.744
776.87	14.286
777.18	8.276
777.48	14.685
777.79	14.189
778.10	6.618
778.41	6.944
778.72	9.655
779.03	16.667
779.34	10.909
779.65	13.990
779.95	14.444
780.26	10.227
780.57	10.968
780.88	13.043
781.19	18.065
781.50	15.294
781.80	14.516
782.11	19.048
782.42	3.535
782.73	3.593
783.04	15.084
783.34	7.879
783.65	9.804
783.96	10.559
784.27	14.286
784.57	8.609
784.88	18.571
785.19	13.386
785.50	6.299
785.81	9.774
786.11	13.077
786.42	2.878
786.73	5.036
787.04	10.526
787.34	13.934
787.65	17.600
787.96	14.179
788.26	18.881
788.57	20.280
788.88	13.816
789.19	11.111
789.49	6.849
789.80	12.057
790.11	17.323
790.41	7.031
790.72	8.475
791.03	0.971
791.33	6.087
791.64	12.281
791.95	13.393
792.25	3.810
792.56	2.679
792.87	2.083
793.17	11.607
793.48	8.333
793.79	4.819
794.09	-0.917
794.40	10.092
794.70	8.844
795.01	12.987
795.32	11.644
795.62	9.155
795.93	11.364
796.23	13.115
796.54	3.571
796.85	0.000
797.15	6.522
797.46	-13.699
797.76	7.500
798.07	7.609
798.37	1.031
798.68	-2.597
798.99	13.793
799.29	3.371
799.60	20.213
799.90	10.843
800.21	-10.769
800.51	1.493
800.82	-4.412
801.12	-8.219
801.43	-5.882
801.73	-13.559
802.04	-12.121
802.34	-1.667
802.65	1.695
802.95	10.448
803.26	1.695
803.56	4.110
803.87	4.286
804.17	4.110
804.48	-14.035
804.78	2.778
805.09	-15.517
805.39	0.000
805.70	-11.268
806.00	-2.439
806.30	4.819
806.61	-2.740
806.91	2.885
807.22	2.222
807.52	-6.897
807.83	-11.111
808.13	4.819
808.43	6.742
808.74	0.000
809.04	-8.824
809.35	9.333
809.65	2.857
809.95	2.740
810.26	-15.789
810.56	-15.517
810.86	1.471
811.17	-7.018
811.47	-11.475
811.77	-8.889
812.08	3.390
812.38	6.667
812.69	5.172
812.99	-1.887
813.29	-43.590
813.59	12.000
813.90	-1.754
814.20	-12.727
814.50	-5.634
814.81	6.410
815.11	-8.197
815.41	-10.448
815.72	-1.724
816.02	7.143
816.32	11.111
816.62	-2.273
816.93	0.000
817.23	1.852
817.53	12.766
817.84	-2.381
818.14	-29.412
818.44	8.163
818.74	-2.222
819.04	-41.026
819.35	-25.714
819.65	-69.231
819.95	-11.321
820.25	-8.889
820.56	-28.571
820.86	-28.125
821.16	-28.205
821.46	-20.930
821.76	-42.000
822.07	-7.143
822.37	-21.739
822.67	-4.255
822.97	-43.243
823.27	-7.500
823.57	6.122
823.88	-22.222
824.18	7.500
824.48	-36.667
824.78	-64.000
825.08	-3.030
825.38	15.556
825.69	12.766
825.99	-5.556
826.29	-42.857
826.59	-23.077
826.89	-34.884
827.19	-6.000
827.49	-29.412
827.79	0.000
828.09	-27.027
828.39	-46.667
828.70	-14.634
829.00	-25.581
829.30	-50.000
829.60	-8.824
829.90	-19.565
830.20	-22.857
830.50	-55.172
830.80	-16.667
831.10	-42.308
831.40	-17.647
831.70	4.762
832.00	-22.581
832.30	-135.294
832.60	-62.500
832.90	-123.077
833.20	-57.895
833.50	-55.000
833.80	-26.316
834.10	-119.048
834.40	11.111
834.70	-9.375
835.00	-65.714
835.30	-20.588
835.60	-23.333
835.90	-44.000
836.20	-95.455
836.50	-28.000
836.80	-36.364
837.10	-22.222
837.40	-22.222
837.70	-106.250
838.00	-14.286
838.30	-34.783
838.60	-37.931
838.90	-35.714
839.19	-56.522
839.49	-133.333
839.79	-47.826
840.09	-125.000
840.39	-25.000
840.69	-19.355
840.99	-50.000
841.29	-73.333
841.59	-84.211
841.88	-7.692
842.18	-65.385
842.48	-200.000
842.78	-55.000
843.08	6.667
843.38	-19.355
843.68	-88.889
843.97	-8.824
844.27	-100.000
844.57	-57.895
844.87	-170.000
845.17	-126.667
845.47	0.000
845.76	-42.857
846.06	-133.333
846.36	-64.706
846.66	-34.615
846.96	-113.333
847.25	-94.118
847.55	17.391
847.85	-20.000
848.15	-47.059
848.44	-127.273
848.74	-61.905
849.04	-58.333
849.34	-118.750
849.63	-34.783
849.93	950.000
850.23	-106.667
850.53	-11.538
850.82	-100.000
851.12	-68.182
851.42	-163.636
851.71	30.769
852.01	-80.000
852.31	-130.769
852.61	-94.737
852.90	-100.000
853.20	-27.778
853.50	-177.778
853.79	-66.667
854.09	-45.455
854.39	-108.333
854.68	-41.935
854.98	-23.077
855.28	-16.667
855.57	-64.286
855.87	-68.000
856.17	-59.091
856.46	-14.815
856.76	-83.333
857.05	-69.565
857.35	-45.833
857.65	-130.769
857.94	-19.048
858.24	-22.222
858.53	-43.478
858.83	-23.529
859.13	-105.882
859.42	-52.941
859.72	-114.286
860.01	-105.000
860.31	-166.667
860.60	-90.000
860.90	-120.000
861.20	-88.889
861.49	-84.615
861.79	-10.000
862.08	-169.231
862.38	9.375
862.67	-82.353
862.97	-25.000
863.26	-155.556
863.56	-100.000
863.85	-63.636
864.15	-27.778
864.44	-733.333
864.74	-100.000
865.03	-118.750
865.33	-220.000
865.62	-48.387
865.92	22.727
866.21	-13.043
866.51	-71.429
866.80	-320.000
867.10	-50.000
867.39	-116.667
867.69	2600.000
867.98	-171.429
868.27	-41.176
868.57	-2200.000
868.86	-210.000
869.16	-61.905
869.45	-16.667
869.75	-18.182
870.04	-200.000
870.33	-66.667
870.63	-328.571
870.92	-250.000
871.22	-212.500
871.51	-236.364
871.80	-833.333
872.10	-1150.000
>>>>>End Processed Spectral Data<<<<<
