SpectraSuite Data File
++++++++++++++++++++++++++++++++++++
Date: Thu May 14 14:38:32 PDT 2015
User: schluterlab
Dark Spectrum Present: Yes
Reference Spectrum Present: Yes
Number of Sampled Component Spectra: 1
Spectrometers: USB2E3373
Integration Time (usec): 3000 (USB2E3373)
Spectra Averaged: 3 (USB2E3373)
Boxcar Smoothing: 0 (USB2E3373)
Correct for Electrical Dark: No (USB2E3373)
Strobe/Lamp Enabled: No (USB2E3373)
Correct for Detector Non-linearity: No (USB2E3373)
Correct for Stray Light: No (USB2E3373)
Number of Pixels in Processed Spectrum: 2048
>>>>>Begin Processed Spectral Data<<<<<
178.53	0.000
178.91	-200.000
179.29	200.000
179.67	1000.000
180.04	78.571
180.42	-140.000
180.80	-240.000
181.18	1600.000
181.56	1900.000
181.94	-425.000
182.31	425.000
182.69	-500.000
183.07	1100.000
183.45	-175.000
183.83	250.000
184.20	400.000
184.58	-500.000
184.96	400.000
185.34	100.000
185.72	360.000
186.09	-166.667
186.47	-800.000
186.85	-100.000
187.23	77.778
187.61	1700.000
187.98	-260.000
188.36	-300.000
188.74	350.000
189.12	600.000
189.49	143.750
189.87	175.000
190.25	222.222
190.63	420.000
191.00	55.556
191.38	0.000
191.76	225.000
192.14	250.000
192.51	-450.000
192.89	316.667
193.27	0.000
193.65	71.429
194.02	700.000
194.40	185.714
194.78	-171.429
195.15	0.000
195.53	127.273
195.91	0.000
196.29	250.000
196.66	100.000
197.04	200.000
197.42	142.857
197.79	750.000
198.17	112.500
198.55	114.286
198.92	277.778
199.30	150.000
199.68	127.273
200.05	150.000
200.43	700.000
200.81	-85.714
201.18	0.000
201.56	-33.333
201.94	0.000
202.31	-233.333
202.69	166.667
203.07	-1200.000
203.44	200.000
203.82	350.000
204.19	125.000
204.57	416.667
204.95	87.500
205.32	1400.000
205.70	-450.000
206.08	266.667
206.45	250.000
206.83	-60.000
207.20	333.333
207.58	280.000
207.96	300.000
208.33	316.667
208.71	-100.000
209.08	566.667
209.46	0.000
209.84	-66.667
210.21	-650.000
210.59	-550.000
210.96	-433.333
211.34	425.000
211.71	200.000
212.09	900.000
212.46	0.000
212.84	-300.000
213.22	360.000
213.59	425.000
213.97	250.000
214.34	433.333
214.72	-200.000
215.09	475.000
215.47	0.000
215.84	-314.286
216.22	-600.000
216.59	100.000
216.97	260.000
217.34	425.000
217.72	300.000
218.09	125.000
218.47	500.000
218.84	0.000
219.22	-400.000
219.59	94.118
219.97	70.000
220.34	-900.000
220.72	166.667
221.09	123.077
221.47	433.333
221.84	130.000
222.22	200.000
222.59	0.000
222.97	200.000
223.34	380.000
223.72	500.000
224.09	325.000
224.46	225.000
224.84	480.000
225.21	200.000
225.59	450.000
225.96	225.000
226.34	69.231
226.71	-16.667
227.08	400.000
227.46	146.667
227.83	350.000
228.21	105.263
228.58	-50.000
228.95	-700.000
229.33	175.000
229.70	190.000
230.08	126.316
230.45	50.000
230.82	400.000
231.20	114.286
231.57	158.333
231.95	100.000
232.32	200.000
232.69	130.000
233.07	350.000
233.44	70.588
233.81	100.000
234.19	83.333
234.56	104.545
234.93	103.448
235.31	136.842
235.68	88.889
236.05	30.000
236.43	100.000
236.80	108.000
237.17	59.259
237.55	63.636
237.92	100.000
238.29	25.806
238.67	47.727
239.04	38.889
239.41	64.286
239.79	19.565
240.16	40.741
240.53	45.652
240.91	29.412
241.28	36.066
241.65	49.254
242.02	40.541
242.40	15.385
242.77	34.667
243.14	12.195
243.51	6.579
243.89	8.974
244.26	36.634
244.63	22.549
245.00	23.364
245.38	21.053
245.75	1.770
246.12	21.429
246.49	16.279
246.87	17.143
247.24	18.543
247.61	21.053
247.98	14.765
248.36	17.901
248.73	12.270
249.10	15.847
249.47	21.891
249.84	20.942
250.22	15.544
250.59	18.333
250.96	17.273
251.33	11.224
251.70	19.231
252.08	18.333
252.45	16.803
252.82	16.116
253.19	10.938
253.56	14.068
253.94	12.692
254.31	13.258
254.68	14.685
255.05	12.704
255.42	12.925
255.79	8.414
256.16	11.921
256.54	7.616
256.91	13.443
257.28	12.459
257.65	8.917
258.02	10.619
258.39	11.681
258.76	13.150
259.14	11.782
259.51	9.222
259.88	8.499
260.25	14.167
260.62	10.959
260.99	15.301
261.36	11.796
261.73	11.406
262.10	12.088
262.47	10.724
262.85	14.646
263.22	9.610
263.59	9.474
263.96	9.974
264.33	8.440
264.70	12.099
265.07	12.411
265.44	14.286
265.81	9.722
266.18	13.605
266.55	11.161
266.92	7.745
267.29	9.847
267.66	9.978
268.03	10.262
268.40	12.109
268.77	8.884
269.14	6.167
269.51	8.333
269.88	11.475
270.25	9.859
270.62	12.869
270.99	12.929
271.36	14.455
271.73	10.216
272.10	10.220
272.47	8.818
272.84	10.241
273.21	11.824
273.58	11.089
273.95	10.192
274.32	8.935
274.69	10.251
275.06	12.088
275.43	9.612
275.80	11.111
276.17	11.481
276.54	10.075
276.91	7.871
277.28	10.307
277.65	9.695
278.02	11.765
278.39	10.688
278.76	9.842
279.13	9.397
279.50	11.856
279.87	11.091
280.23	8.979
280.60	9.153
280.97	11.349
281.34	8.998
281.71	12.860
282.08	10.797
282.45	9.329
282.82	8.634
283.19	8.724
283.56	7.049
283.92	12.012
284.29	12.638
284.66	10.016
285.03	7.532
285.40	10.201
285.77	9.443
286.14	9.771
286.51	9.285
286.87	9.005
287.24	8.735
287.61	9.268
287.98	9.517
288.35	9.172
288.72	9.172
289.08	10.688
289.45	10.355
289.82	9.036
290.19	10.201
290.56	10.986
290.93	8.274
291.29	10.193
291.66	8.264
292.03	8.955
292.40	10.068
292.77	8.625
293.13	10.149
293.50	7.096
293.87	8.188
294.24	11.467
294.60	8.344
294.97	5.772
295.34	10.883
295.71	9.206
296.08	7.623
296.44	8.578
296.81	7.917
297.18	7.721
297.55	8.373
297.91	7.592
298.28	7.583
298.65	8.799
299.02	8.146
299.38	9.039
299.75	7.593
300.12	9.028
300.48	8.295
300.85	8.324
301.22	8.725
301.59	7.648
301.95	8.588
302.32	9.556
302.69	9.639
303.05	9.249
303.42	8.426
303.79	8.333
304.15	9.464
304.52	8.668
304.89	8.482
305.25	9.006
305.62	8.464
305.99	7.732
306.35	8.266
306.72	8.170
307.09	8.629
307.45	8.696
307.82	8.375
308.19	8.174
308.55	9.547
308.92	8.277
309.29	9.195
309.65	8.285
310.02	9.505
310.38	8.661
310.75	10.000
311.12	10.067
311.48	8.602
311.85	8.547
312.22	9.393
312.58	8.451
312.95	8.987
313.31	9.214
313.68	10.256
314.05	11.563
314.41	10.656
314.78	10.627
315.14	10.436
315.51	10.526
315.87	11.611
316.24	11.872
316.61	11.989
316.97	11.041
317.34	11.817
317.70	12.926
318.07	11.993
318.43	12.160
318.80	12.876
319.16	12.876
319.53	12.254
319.89	12.358
320.26	12.989
320.62	13.475
320.99	13.573
321.35	12.384
321.72	15.070
322.08	14.157
322.45	14.363
322.81	14.711
323.18	13.717
323.54	14.310
323.91	15.480
324.27	14.888
324.64	15.029
325.00	14.594
325.37	16.216
325.73	16.116
326.10	16.221
326.46	15.391
326.83	17.294
327.19	15.827
327.56	17.075
327.92	17.152
328.29	16.694
328.65	17.002
329.01	17.005
329.38	18.450
329.74	19.007
330.11	18.493
330.47	18.534
330.84	19.294
331.20	18.583
331.56	18.718
331.93	19.247
332.29	20.085
332.66	19.934
333.02	19.849
333.38	20.302
333.75	19.024
334.11	20.350
334.48	19.884
334.84	20.731
335.20	20.067
335.57	21.669
335.93	21.570
336.29	20.466
336.66	19.680
337.02	19.732
337.38	21.088
337.75	20.413
338.11	21.026
338.47	20.678
338.84	20.051
339.20	20.135
339.56	21.005
339.93	20.033
340.29	20.451
340.65	20.032
341.02	20.910
341.38	20.695
341.74	20.339
342.11	20.515
342.47	18.745
342.83	21.176
343.20	20.442
343.56	21.251
343.92	20.977
344.28	21.797
344.65	20.698
345.01	20.047
345.37	21.540
345.73	21.122
346.10	20.905
346.46	20.965
346.82	20.524
347.19	20.703
347.55	21.927
347.91	20.728
348.27	20.334
348.63	21.325
349.00	19.538
349.36	20.074
349.72	20.610
350.08	21.322
350.45	20.837
350.81	20.437
351.17	20.827
351.53	20.622
351.89	20.197
352.26	20.373
352.62	20.970
352.98	20.687
353.34	20.986
353.70	20.647
354.07	21.162
354.43	20.121
354.79	20.494
355.15	20.383
355.51	21.564
355.87	20.419
356.24	21.293
356.60	20.547
356.96	21.127
357.32	20.967
357.68	20.717
358.04	20.958
358.40	20.597
358.77	21.564
359.13	21.566
359.49	20.000
359.85	21.392
360.21	21.162
360.57	20.962
360.93	20.522
361.29	22.175
361.66	20.854
362.02	21.364
362.38	21.293
362.74	21.020
363.10	22.146
363.46	21.676
363.82	21.307
364.18	21.534
364.54	21.646
364.90	21.538
365.26	21.586
365.62	22.400
365.98	21.375
366.35	23.087
366.71	22.857
367.07	21.989
367.43	22.587
367.79	22.561
368.15	22.809
368.51	22.869
368.87	22.926
369.23	21.933
369.59	23.019
369.95	22.650
370.31	23.093
370.67	22.902
371.03	23.061
371.39	23.036
371.75	22.077
372.11	23.645
372.47	23.155
372.83	23.233
373.19	23.816
373.55	23.442
373.91	23.313
374.27	23.609
374.63	23.207
374.99	24.469
375.35	23.961
375.71	23.097
376.07	22.853
376.42	24.622
376.78	23.741
377.14	24.329
377.50	24.605
377.86	25.616
378.22	24.611
378.58	24.911
378.94	25.646
379.30	25.015
379.66	24.985
380.02	25.851
380.38	26.325
380.74	25.521
381.09	25.900
381.45	25.057
381.81	26.698
382.17	26.128
382.53	26.491
382.89	25.847
383.25	26.436
383.61	25.984
383.97	27.150
384.32	26.256
384.68	26.566
385.04	26.605
385.40	27.755
385.76	27.667
386.12	26.631
386.48	27.059
386.83	28.248
387.19	27.057
387.55	27.523
387.91	27.283
388.27	28.176
388.62	28.007
388.98	27.919
389.34	28.639
389.70	29.053
390.06	28.893
390.42	28.675
390.77	28.838
391.13	29.284
391.49	29.891
391.85	27.939
392.20	28.826
392.56	29.356
392.92	29.335
393.28	29.464
393.64	29.888
393.99	29.866
394.35	30.666
394.71	30.359
395.07	29.222
395.42	29.983
395.78	29.799
396.14	30.125
396.50	31.116
396.85	30.829
397.21	29.467
397.57	30.801
397.92	30.756
398.28	29.332
398.64	30.149
399.00	30.052
399.35	30.314
399.71	29.783
400.07	31.162
400.42	30.675
400.78	29.688
401.14	30.905
401.49	30.301
401.85	30.407
402.21	29.954
402.57	30.986
402.92	30.437
403.28	30.445
403.63	31.026
403.99	30.819
404.35	30.358
404.70	30.085
405.06	29.891
405.42	30.562
405.77	31.080
406.13	29.822
406.49	31.250
406.84	29.474
407.20	30.184
407.55	30.709
407.91	31.113
408.27	30.389
408.62	30.425
408.98	30.992
409.34	29.853
409.69	31.150
410.05	30.657
410.40	31.381
410.76	29.445
411.11	31.327
411.47	30.344
411.83	31.158
412.18	31.145
412.54	30.646
412.89	31.490
413.25	30.643
413.60	30.213
413.96	30.012
414.31	30.482
414.67	30.650
415.03	30.031
415.38	30.958
415.74	30.422
416.09	31.462
416.45	29.869
416.80	29.927
417.16	30.907
417.51	30.822
417.87	30.963
418.22	31.138
418.58	30.483
418.93	30.966
419.29	31.196
419.64	30.732
420.00	31.098
420.35	30.657
420.71	31.189
421.06	31.570
421.42	30.963
421.77	29.725
422.12	31.025
422.48	30.824
422.83	31.380
423.19	31.512
423.54	31.527
423.90	30.922
424.25	31.360
424.61	30.712
424.96	30.917
425.31	31.529
425.67	31.025
426.02	31.212
426.38	31.401
426.73	31.864
427.09	32.065
427.44	31.567
427.79	32.062
428.15	31.336
428.50	31.067
428.85	31.458
429.21	32.181
429.56	32.922
429.92	31.794
430.27	31.711
430.62	31.021
430.98	31.972
431.33	31.134
431.68	31.370
432.04	31.488
432.39	31.441
432.74	33.048
433.10	32.288
433.45	31.773
433.80	32.082
434.16	32.903
434.51	32.631
434.86	33.008
435.22	32.944
435.57	33.314
435.92	32.332
436.28	33.504
436.63	33.424
436.98	32.099
437.34	32.582
437.69	32.471
438.04	31.042
438.39	32.338
438.75	31.821
439.10	32.981
439.45	32.812
439.81	32.373
440.16	32.440
440.51	32.107
440.86	33.018
441.22	32.047
441.57	33.491
441.92	33.172
442.27	32.374
442.63	32.787
442.98	33.671
443.33	33.035
443.68	33.746
444.03	33.631
444.39	34.350
444.74	33.640
445.09	32.894
445.44	33.720
445.79	33.285
446.15	34.121
446.50	33.540
446.85	33.755
447.20	33.317
447.55	33.159
447.91	33.613
448.26	32.981
448.61	33.741
448.96	34.871
449.31	33.245
449.66	34.041
450.02	33.755
450.37	33.351
450.72	34.338
451.07	33.998
451.42	33.218
451.77	33.685
452.12	34.199
452.47	33.155
452.83	34.854
453.18	33.800
453.53	33.429
453.88	33.628
454.23	34.802
454.58	34.243
454.93	33.131
455.28	34.256
455.63	33.940
455.98	33.687
456.34	33.628
456.69	34.333
457.04	34.397
457.39	34.978
457.74	35.626
458.09	34.377
458.44	33.998
458.79	33.883
459.14	33.613
459.49	34.635
459.84	34.732
460.19	34.203
460.54	34.526
460.89	33.774
461.24	34.368
461.59	36.027
461.94	34.284
462.29	34.490
462.64	33.917
462.99	35.217
463.34	36.275
463.69	33.353
464.04	34.408
464.39	34.417
464.74	33.637
465.09	34.833
465.44	35.354
465.79	34.373
466.14	33.351
466.49	34.526
466.84	34.601
467.19	35.029
467.54	34.313
467.89	34.368
468.24	34.072
468.59	34.395
468.94	33.800
469.29	33.773
469.64	34.139
469.99	34.799
470.34	34.777
470.68	34.518
471.03	34.512
471.38	35.186
471.73	35.111
472.08	34.772
472.43	34.859
472.78	35.579
473.13	34.576
473.48	35.347
473.83	35.577
474.17	35.170
474.52	34.877
474.87	34.884
475.22	34.817
475.57	34.735
475.92	33.449
476.27	34.558
476.61	34.839
476.96	34.828
477.31	35.000
477.66	35.257
478.01	35.384
478.36	33.898
478.70	35.172
479.05	35.276
479.40	34.798
479.75	35.303
480.10	34.628
480.45	35.278
480.79	34.739
481.14	34.513
481.49	34.802
481.84	35.161
482.19	35.140
482.53	33.931
482.88	35.312
483.23	35.394
483.58	35.328
483.92	34.840
484.27	35.267
484.62	35.314
484.97	34.798
485.31	34.108
485.66	33.675
486.01	32.539
486.36	33.231
486.70	34.457
487.05	33.855
487.40	34.014
487.75	34.504
488.09	34.179
488.44	34.309
488.79	34.840
489.13	34.540
489.48	35.184
489.83	34.286
490.17	34.913
490.52	34.195
490.87	34.941
491.22	35.312
491.56	34.727
491.91	35.630
492.26	35.526
492.60	35.243
492.95	34.664
493.30	35.500
493.64	34.866
493.99	34.825
494.34	34.756
494.68	34.347
495.03	35.903
495.37	35.331
495.72	35.329
496.07	36.196
496.41	35.607
496.76	35.279
497.11	34.777
497.45	35.520
497.80	34.296
498.14	35.102
498.49	35.754
498.84	35.923
499.18	34.998
499.53	35.650
499.87	36.044
500.22	34.684
500.56	35.628
500.91	36.476
501.26	35.727
501.60	35.484
501.95	35.736
502.29	35.410
502.64	35.811
502.98	34.987
503.33	35.292
503.67	34.060
504.02	35.902
504.36	36.506
504.71	36.472
505.06	34.925
505.40	35.192
505.75	35.291
506.09	35.866
506.44	36.258
506.78	36.514
507.13	35.915
507.47	35.481
507.82	35.748
508.16	36.663
508.51	36.568
508.85	36.939
509.19	36.286
509.54	36.311
509.88	35.260
510.23	36.571
510.57	37.458
510.92	36.768
511.26	35.979
511.61	35.587
511.95	36.164
512.30	36.632
512.64	35.282
512.98	36.318
513.33	37.097
513.67	37.124
514.02	36.893
514.36	37.340
514.70	37.760
515.05	36.913
515.39	36.850
515.74	37.328
516.08	36.714
516.42	38.305
516.77	38.170
517.11	36.565
517.46	37.169
517.80	37.680
518.14	37.922
518.49	37.419
518.83	36.935
519.17	36.564
519.52	36.740
519.86	36.800
520.20	37.646
520.55	37.021
520.89	37.444
521.23	36.683
521.58	37.571
521.92	37.847
522.26	36.712
522.61	37.963
522.95	38.062
523.29	37.816
523.64	36.603
523.98	38.962
524.32	37.994
524.66	39.556
525.01	37.712
525.35	37.909
525.69	37.935
526.04	38.462
526.38	38.276
526.72	37.832
527.06	38.182
527.41	38.076
527.75	38.005
528.09	37.780
528.43	37.241
528.78	37.457
529.12	38.647
529.46	37.774
529.80	37.414
530.15	38.377
530.49	37.129
530.83	39.079
531.17	37.754
531.51	39.350
531.86	39.543
532.20	38.049
532.54	37.941
532.88	39.758
533.22	37.360
533.57	38.430
533.91	37.542
534.25	37.705
534.59	39.023
534.93	38.031
535.27	38.197
535.62	38.886
535.96	38.350
536.30	38.895
536.64	39.339
536.98	38.930
537.32	38.210
537.66	39.239
538.01	38.550
538.35	38.124
538.69	38.401
539.03	38.872
539.37	37.279
539.71	38.078
540.05	38.309
540.39	37.836
540.73	38.312
541.07	39.546
541.42	38.275
541.76	37.189
542.10	38.842
542.44	38.672
542.78	38.869
543.12	38.498
543.46	38.706
543.80	36.571
544.14	38.061
544.48	38.593
544.82	39.019
545.16	38.819
545.50	37.987
545.84	38.212
546.18	39.444
546.52	38.153
546.86	38.176
547.20	39.313
547.54	37.703
547.88	38.276
548.22	38.480
548.56	38.209
548.90	38.687
549.24	38.784
549.58	38.991
549.92	38.903
550.26	38.835
550.60	39.056
550.94	39.521
551.28	39.208
551.62	38.881
551.96	37.864
552.30	38.560
552.64	38.892
552.98	39.364
553.32	39.678
553.66	38.521
554.00	39.344
554.34	39.511
554.68	37.702
555.02	39.816
555.36	39.579
555.69	37.796
556.03	39.281
556.37	39.612
556.71	38.364
557.05	38.786
557.39	39.350
557.73	39.168
558.07	39.404
558.41	40.000
558.75	40.162
559.08	40.431
559.42	39.232
559.76	40.163
560.10	39.317
560.44	39.578
560.78	39.750
561.12	39.101
561.45	39.477
561.79	39.683
562.13	39.433
562.47	37.916
562.81	39.367
563.15	39.141
563.48	40.087
563.82	39.541
564.16	39.310
564.50	39.571
564.84	38.230
565.17	39.824
565.51	38.205
565.85	40.024
566.19	37.788
566.52	38.736
566.86	38.766
567.20	37.466
567.54	39.618
567.88	39.348
568.21	38.785
568.55	39.712
568.89	38.402
569.23	38.530
569.56	37.945
569.90	37.277
570.24	37.302
570.57	36.434
570.91	36.558
571.25	36.274
571.59	36.710
571.92	36.807
572.26	35.971
572.60	36.309
572.93	36.237
573.27	36.302
573.61	36.263
573.95	35.737
574.28	35.529
574.62	36.107
574.96	35.399
575.29	35.140
575.63	35.897
575.97	36.287
576.30	35.505
576.64	36.053
576.98	36.515
577.31	35.677
577.65	36.112
577.98	35.486
578.32	35.595
578.66	35.658
578.99	36.248
579.33	36.083
579.67	35.471
580.00	35.963
580.34	35.973
580.67	35.989
581.01	35.331
581.35	35.885
581.68	35.634
582.02	35.749
582.35	36.189
582.69	36.333
583.02	35.769
583.36	35.593
583.70	36.355
584.03	36.021
584.37	36.263
584.70	35.990
585.04	36.364
585.37	35.683
585.71	36.462
586.04	36.041
586.38	36.188
586.72	35.999
587.05	36.608
587.39	36.225
587.72	37.081
588.06	36.702
588.39	36.694
588.73	36.402
589.06	36.710
589.40	37.185
589.73	37.082
590.07	37.235
590.40	37.153
590.73	37.186
591.07	37.863
591.40	37.014
591.74	38.355
592.07	37.840
592.41	37.461
592.74	37.345
593.08	37.325
593.41	37.795
593.75	36.954
594.08	37.958
594.41	37.692
594.75	36.865
595.08	37.416
595.42	37.273
595.75	37.423
596.09	37.580
596.42	37.979
596.75	37.707
597.09	37.899
597.42	37.863
597.75	37.632
598.09	37.817
598.42	38.319
598.76	37.677
599.09	38.092
599.42	37.311
599.76	37.042
600.09	37.905
600.42	37.137
600.76	37.120
601.09	37.438
601.42	37.727
601.76	37.448
602.09	37.706
602.42	36.968
602.76	36.716
603.09	37.849
603.42	38.837
603.76	37.562
604.09	37.651
604.42	37.908
604.76	37.861
605.09	38.492
605.42	37.600
605.75	38.154
606.09	37.589
606.42	37.578
606.75	37.256
607.09	37.596
607.42	37.187
607.75	38.374
608.08	37.490
608.42	37.888
608.75	38.226
609.08	37.818
609.41	37.980
609.75	38.259
610.08	38.654
610.41	38.445
610.74	37.101
611.07	39.121
611.41	38.924
611.74	38.938
612.07	38.663
612.40	38.546
612.73	39.609
613.07	38.484
613.40	38.980
613.73	38.421
614.06	38.862
614.39	38.921
614.72	38.234
615.06	38.210
615.39	38.666
615.72	39.005
616.05	38.368
616.38	38.698
616.71	39.603
617.05	38.978
617.38	38.791
617.71	39.687
618.04	39.557
618.37	40.383
618.70	40.271
619.03	39.785
619.36	40.074
619.69	40.359
620.03	39.925
620.36	39.448
620.69	40.284
621.02	40.551
621.35	42.671
621.68	41.721
622.01	41.068
622.34	41.074
622.67	40.962
623.00	38.664
623.33	40.743
623.66	39.494
623.99	39.500
624.32	41.066
624.65	39.768
624.99	39.792
625.32	40.366
625.65	40.661
625.98	40.203
626.31	41.814
626.64	41.758
626.97	41.935
627.30	40.926
627.63	40.360
627.96	41.967
628.29	41.012
628.62	41.814
628.95	42.068
629.28	43.076
629.61	42.424
629.94	42.008
630.26	42.288
630.59	41.019
630.92	40.952
631.25	42.308
631.58	42.750
631.91	44.611
632.24	42.843
632.57	43.548
632.90	42.929
633.23	42.041
633.56	43.367
633.89	42.872
634.22	43.763
634.55	43.006
634.88	45.130
635.20	45.210
635.53	45.537
635.86	43.012
636.19	45.599
636.52	43.671
636.85	42.492
637.18	42.931
637.51	44.731
637.83	44.740
638.16	45.161
638.49	43.662
638.82	42.728
639.15	44.559
639.48	44.688
639.81	42.032
640.13	45.347
640.46	42.545
640.79	44.975
641.12	44.348
641.45	44.166
641.77	45.571
642.10	45.407
642.43	45.612
642.76	47.290
643.09	44.247
643.41	44.678
643.74	44.828
644.07	47.310
644.40	45.120
644.73	45.864
645.05	43.759
645.38	46.619
645.71	47.067
646.04	45.194
646.36	45.255
646.69	47.086
647.02	46.789
647.35	45.954
647.67	46.377
648.00	47.134
648.33	45.646
648.66	44.793
648.98	43.946
649.31	47.091
649.64	45.153
649.96	43.103
650.29	44.506
650.62	43.564
650.94	45.946
651.27	44.910
651.60	43.275
651.92	43.617
652.25	45.441
652.58	43.604
652.90	43.895
653.23	45.070
653.56	44.223
653.88	44.944
654.21	44.789
654.54	45.087
654.86	44.334
655.19	42.033
655.52	38.388
655.84	34.522
656.17	42.319
656.49	59.664
656.82	66.556
657.15	51.952
657.47	39.055
657.80	28.872
658.13	22.602
658.45	29.553
658.78	35.945
659.10	35.246
659.43	35.757
659.75	36.198
660.08	37.647
660.41	38.792
660.73	39.453
661.06	43.612
661.38	44.817
661.71	45.690
662.03	43.210
662.36	46.512
662.68	47.842
663.01	44.779
663.33	45.747
663.66	49.267
663.98	46.154
664.31	48.218
664.63	45.279
664.96	50.817
665.28	47.187
665.61	46.154
665.93	44.821
666.26	47.312
666.58	45.756
666.91	49.907
667.23	46.286
667.56	46.154
667.88	45.200
668.21	41.797
668.53	48.263
668.86	49.509
669.18	48.065
669.50	47.316
669.83	46.000
670.15	46.654
670.48	49.802
670.80	45.698
671.13	46.125
671.45	47.835
671.77	45.574
672.10	43.000
672.42	46.440
672.75	43.011
673.07	43.881
673.39	41.448
673.72	43.960
674.04	47.069
674.37	45.081
674.69	46.032
675.01	45.714
675.34	47.328
675.66	44.757
675.98	45.522
676.31	46.875
676.63	46.388
676.95	47.126
677.28	49.597
677.60	43.504
677.92	46.257
678.25	45.338
678.57	43.594
678.89	45.392
679.22	44.077
679.54	42.222
679.86	42.712
680.18	44.610
680.51	44.025
680.83	43.535
681.15	43.276
681.48	43.869
681.80	46.459
682.12	44.580
682.44	43.406
682.77	43.440
683.09	46.780
683.41	44.574
683.73	44.782
684.06	44.465
684.38	42.576
684.70	46.858
685.02	43.546
685.34	42.762
685.67	43.060
685.99	44.018
686.31	41.134
686.63	41.232
686.96	42.429
687.28	42.834
687.60	43.939
687.92	40.675
688.24	44.240
688.56	42.586
688.89	43.376
689.21	45.793
689.53	44.118
689.85	45.957
690.17	42.963
690.49	45.418
690.82	43.960
691.14	43.927
691.46	46.272
691.78	43.462
692.10	44.037
692.42	42.321
692.74	41.742
693.06	40.741
693.39	44.972
693.71	42.669
694.03	43.680
694.35	45.333
694.67	44.764
694.99	44.043
695.31	44.592
695.63	43.506
695.95	44.928
696.27	44.176
696.59	45.575
696.91	45.495
697.23	46.813
697.56	43.992
697.88	42.614
698.20	42.185
698.52	45.833
698.84	45.114
699.16	44.286
699.48	44.979
699.80	42.553
700.12	42.795
700.44	44.470
700.76	47.031
701.08	46.005
701.40	45.855
701.72	48.259
702.04	47.059
702.36	40.576
702.68	45.232
703.00	45.721
703.32	45.567
703.64	45.966
703.96	47.733
704.28	44.963
704.60	46.582
704.91	46.173
705.23	45.479
705.55	47.075
705.87	48.788
706.19	48.773
706.51	44.880
706.83	46.398
707.15	39.683
707.47	43.692
707.79	43.668
708.11	40.890
708.43	43.011
708.74	43.304
709.06	43.155
709.38	43.662
709.70	44.417
710.02	44.961
710.34	47.074
710.66	44.134
710.98	44.809
711.29	41.484
711.61	41.525
711.93	43.020
712.25	45.676
712.57	48.083
712.89	45.588
713.20	44.379
713.52	45.376
713.84	42.897
714.16	45.526
714.48	43.557
714.80	45.974
715.11	45.144
715.43	44.032
715.75	44.737
716.07	43.094
716.39	43.989
716.70	43.675
717.02	48.525
717.34	44.599
717.66	50.000
717.97	41.438
718.29	42.955
718.61	45.724
718.93	45.307
719.24	49.689
719.56	42.025
719.88	50.450
720.20	48.710
720.51	41.615
720.83	47.188
721.15	47.697
721.46	42.466
721.78	43.333
722.10	42.071
722.42	45.302
722.73	41.935
723.05	49.474
723.37	47.222
723.68	46.595
724.00	46.931
724.32	44.718
724.63	48.601
724.95	51.773
725.27	45.645
725.58	45.583
725.90	48.621
726.22	44.828
726.53	44.481
726.85	44.969
727.16	42.296
727.48	47.706
727.80	45.033
728.11	44.170
728.43	46.465
728.74	45.151
729.06	44.702
729.38	43.506
729.69	40.604
730.01	42.560
730.32	41.818
730.64	42.767
730.96	41.615
731.27	44.134
731.59	45.330
731.90	39.221
732.22	39.844
732.53	42.818
732.85	40.571
733.16	42.522
733.48	42.378
733.80	41.504
734.11	39.316
734.43	39.459
734.74	43.038
735.06	39.447
735.37	43.243
735.69	38.108
736.00	44.633
736.32	39.084
736.63	40.833
736.95	43.678
737.26	46.364
737.58	43.939
737.89	41.765
738.21	40.367
738.52	41.311
738.83	49.147
739.15	43.617
739.46	45.238
739.78	41.718
740.09	41.834
740.41	42.274
740.72	44.000
741.04	40.453
741.35	42.105
741.66	44.314
741.98	47.541
742.29	42.259
742.61	47.368
742.92	44.615
743.23	40.072
743.55	45.349
743.86	46.800
744.18	40.083
744.49	43.882
744.80	46.502
745.12	45.992
745.43	48.374
745.74	48.707
746.06	44.492
746.37	48.945
746.68	46.748
747.00	44.583
747.31	48.069
747.62	52.308
747.94	40.891
748.25	43.775
748.56	48.571
748.88	44.872
749.19	48.707
749.50	46.320
749.82	49.799
750.13	41.993
750.44	43.000
750.75	41.538
751.07	39.385
751.38	43.849
751.69	41.534
752.01	39.806
752.32	43.464
752.63	43.537
752.94	41.176
753.26	41.636
753.57	44.074
753.88	41.573
754.19	46.302
754.51	44.051
754.82	46.624
755.13	47.869
755.44	40.956
755.75	46.382
756.07	43.582
756.38	40.566
756.69	45.181
757.00	38.781
757.31	40.984
757.63	39.898
757.94	38.263
758.25	39.052
758.56	38.344
758.87	38.636
759.18	40.800
759.50	42.210
759.81	39.216
760.12	40.701
760.43	40.365
760.74	40.148
761.05	38.500
761.36	35.904
761.67	38.579
761.99	35.135
762.30	40.549
762.61	37.954
762.92	44.776
763.23	40.449
763.54	44.964
763.85	40.893
764.16	42.424
764.47	42.606
764.78	40.256
765.10	41.056
765.41	40.513
765.72	37.831
766.03	42.373
766.34	34.796
766.65	38.328
766.96	41.833
767.27	43.779
767.58	48.756
767.89	45.673
768.20	41.315
768.51	40.741
768.82	38.554
769.13	39.773
769.44	41.154
769.75	38.989
770.06	43.077
770.37	44.882
770.68	39.149
770.99	39.676
771.30	43.333
771.61	40.304
771.92	36.667
772.23	41.296
772.54	41.667
772.85	46.544
773.16	42.381
773.47	42.857
773.78	43.784
774.09	40.909
774.39	52.500
774.70	48.634
775.01	42.683
775.32	35.294
775.63	46.626
775.94	36.306
776.25	47.097
776.56	47.436
776.87	51.701
777.18	50.345
777.48	41.958
777.79	53.378
778.10	39.706
778.41	45.833
778.72	49.655
779.03	48.765
779.34	40.000
779.65	40.933
779.95	46.667
780.26	42.045
780.57	43.226
780.88	57.246
781.19	49.032
781.50	46.471
781.80	45.161
782.11	41.270
782.42	36.364
782.73	43.713
783.04	44.693
783.34	41.212
783.65	42.484
783.96	40.994
784.27	41.071
784.57	45.695
784.88	47.857
785.19	47.244
785.50	51.969
785.81	44.361
786.11	44.615
786.42	48.201
786.73	42.446
787.04	50.376
787.34	48.361
787.65	42.400
787.96	44.776
788.26	51.748
788.57	53.147
788.88	41.447
789.19	48.366
789.49	43.151
789.80	48.936
790.11	49.606
790.41	40.625
790.72	44.068
791.03	41.748
791.33	45.217
791.64	50.000
791.95	45.536
792.25	60.000
792.56	55.357
792.87	46.875
793.17	47.321
793.48	53.125
793.79	38.554
794.09	50.459
794.40	34.862
794.70	48.980
795.01	40.909
795.32	43.151
795.62	42.958
795.93	41.667
796.23	44.262
796.54	40.179
796.85	43.617
797.15	52.174
797.46	56.164
797.76	42.500
798.07	54.348
798.37	48.454
798.68	63.636
798.99	45.977
799.29	44.944
799.60	58.511
799.90	57.831
800.21	52.308
800.51	58.209
800.82	51.471
801.12	39.726
801.43	41.176
801.73	71.186
802.04	39.394
802.34	61.667
802.65	79.661
802.95	67.164
803.26	67.797
803.56	56.164
803.87	52.857
804.17	60.274
804.48	49.123
804.78	55.556
805.09	34.483
805.39	54.054
805.70	47.887
806.00	46.341
806.30	40.964
806.61	46.575
806.91	56.731
807.22	51.111
807.52	47.126
807.83	52.778
808.13	53.012
808.43	58.427
808.74	50.000
809.04	36.765
809.35	48.000
809.65	55.714
809.95	49.315
810.26	43.860
810.56	67.241
810.86	60.294
811.17	57.895
811.47	52.459
811.77	60.000
812.08	47.458
812.38	43.333
812.69	70.690
812.99	39.623
813.29	53.846
813.59	68.000
813.90	35.088
814.20	38.182
814.50	50.704
814.81	53.846
815.11	50.820
815.41	58.209
815.72	63.793
816.02	83.929
816.32	100.000
816.62	59.091
816.93	60.000
817.23	66.667
817.53	57.447
817.84	66.667
818.14	70.588
818.44	51.020
818.74	62.222
819.04	71.795
819.35	74.286
819.65	80.769
819.95	52.830
820.25	62.222
820.56	83.333
820.86	71.875
821.16	76.923
821.46	41.860
821.76	30.000
822.07	50.000
822.37	39.130
822.67	46.809
822.97	43.243
823.27	67.500
823.57	69.388
823.88	100.000
824.18	52.500
824.48	60.000
824.78	104.000
825.08	78.788
825.38	82.222
825.69	70.213
825.99	86.111
826.29	51.429
826.59	76.923
826.89	46.512
827.19	58.000
827.49	73.529
827.79	85.417
828.09	37.838
828.39	60.000
828.70	53.659
829.00	48.837
829.30	103.571
829.60	79.412
829.90	63.043
830.20	62.857
830.50	65.517
830.80	116.667
831.10	69.231
831.40	58.824
831.70	100.000
832.00	106.452
832.30	70.588
832.60	87.500
832.90	130.769
833.20	94.737
833.50	95.000
833.80	94.737
834.10	61.905
834.40	58.333
834.70	100.000
835.00	57.143
835.30	91.176
835.60	76.667
835.90	76.000
836.20	77.273
836.50	112.000
836.80	12.121
837.10	44.444
837.40	103.704
837.70	62.500
838.00	82.143
838.30	52.174
838.60	72.414
838.90	178.571
839.19	39.130
839.49	83.333
839.79	91.304
840.09	81.250
840.39	125.000
840.69	100.000
840.99	39.286
841.29	213.333
841.59	78.947
841.88	53.846
842.18	92.308
842.48	210.000
842.78	70.000
843.08	66.667
843.38	67.742
843.68	33.333
843.97	73.529
844.27	125.000
844.57	115.789
844.87	80.000
845.17	133.333
845.47	119.048
845.76	66.667
846.06	133.333
846.36	23.529
846.66	100.000
846.96	60.000
847.25	88.235
847.55	113.043
847.85	85.000
848.15	141.176
848.44	118.182
848.74	76.190
849.04	108.333
849.34	112.500
849.63	113.043
849.93	-500.000
850.23	140.000
850.53	142.308
850.82	190.909
851.12	140.909
851.42	218.182
851.71	230.769
852.01	85.000
852.31	100.000
852.61	110.526
852.90	200.000
853.20	144.444
853.50	100.000
853.79	90.476
854.09	72.727
854.39	50.000
854.68	83.871
854.98	76.923
855.28	77.778
855.57	67.857
855.87	96.000
856.17	95.455
856.46	59.259
856.76	66.667
857.05	78.261
857.35	75.000
857.65	115.385
857.94	166.667
858.24	81.481
858.53	82.609
858.83	117.647
859.13	129.412
859.42	111.765
859.72	164.286
860.01	100.000
860.31	33.333
860.60	260.000
860.90	166.667
861.20	105.556
861.49	146.154
861.79	76.667
862.08	146.154
862.38	78.125
862.67	76.471
862.97	118.750
863.26	77.778
863.56	220.000
863.85	154.545
864.15	111.111
864.44	500.000
864.74	121.429
865.03	100.000
865.33	0.000
865.62	22.581
865.92	113.636
866.21	73.913
866.51	178.571
866.80	0.000
867.10	91.667
867.39	175.000
867.69	-1400.000
867.98	228.571
868.27	111.765
868.57	300.000
868.86	80.000
869.16	23.810
869.45	104.167
869.75	272.727
870.04	57.143
870.33	200.000
870.63	128.571
870.92	450.000
871.22	150.000
871.51	145.455
871.80	-66.667
872.10	300.000
>>>>>End Processed Spectral Data<<<<<
