SpectraSuite Data File
++++++++++++++++++++++++++++++++++++
Date: Thu May 14 14:42:01 PDT 2015
User: schluterlab
Dark Spectrum Present: Yes
Reference Spectrum Present: Yes
Number of Sampled Component Spectra: 1
Spectrometers: USB2E3373
Integration Time (usec): 3000 (USB2E3373)
Spectra Averaged: 3 (USB2E3373)
Boxcar Smoothing: 0 (USB2E3373)
Correct for Electrical Dark: No (USB2E3373)
Strobe/Lamp Enabled: No (USB2E3373)
Correct for Detector Non-linearity: No (USB2E3373)
Correct for Stray Light: No (USB2E3373)
Number of Pixels in Processed Spectrum: 2048
>>>>>Begin Processed Spectral Data<<<<<
178.53	0.000
178.91	-100.000
179.29	-400.000
179.67	800.000
180.04	28.571
180.42	-90.000
180.80	120.000
181.18	800.000
181.56	1200.000
181.94	-175.000
182.31	125.000
182.69	-166.667
183.07	350.000
183.45	25.000
183.83	116.667
184.20	200.000
184.58	-1400.000
184.96	50.000
185.34	0.000
185.72	200.000
186.09	-33.333
186.47	-200.000
186.85	20.000
187.23	-33.333
187.61	400.000
187.98	20.000
188.36	-75.000
188.74	200.000
189.12	333.333
189.49	56.250
189.87	-37.500
190.25	33.333
190.63	280.000
191.00	11.111
191.38	0.000
191.76	225.000
192.14	116.667
192.51	200.000
192.89	283.333
193.27	0.000
193.65	100.000
194.02	-300.000
194.40	57.143
194.78	-14.286
195.15	0.000
195.53	145.455
195.91	0.000
196.29	100.000
196.66	123.077
197.04	-300.000
197.42	28.571
197.79	-150.000
198.17	62.500
198.55	85.714
198.92	22.222
199.30	12.500
199.68	0.000
200.05	57.143
200.43	350.000
200.81	114.286
201.18	0.000
201.56	66.667
201.94	0.000
202.31	-33.333
202.69	66.667
203.07	-1200.000
203.44	77.778
203.82	150.000
204.19	41.667
204.57	16.667
204.95	37.500
205.32	400.000
205.70	-300.000
206.08	150.000
206.45	200.000
206.83	-20.000
207.20	166.667
207.58	80.000
207.96	0.000
208.33	233.333
208.71	-8.333
209.08	200.000
209.46	0.000
209.84	50.000
210.21	-150.000
210.59	-100.000
210.96	266.667
211.34	175.000
211.71	112.500
212.09	-200.000
212.46	0.000
212.84	300.000
213.22	120.000
213.59	225.000
213.97	30.000
214.34	400.000
214.72	-16.667
215.09	250.000
215.47	0.000
215.84	-85.714
216.22	-50.000
216.59	280.000
216.97	40.000
217.34	150.000
217.72	87.500
218.09	225.000
218.47	125.000
218.84	0.000
219.22	-0.000
219.59	88.235
219.97	60.000
220.34	100.000
220.72	100.000
221.09	146.154
221.47	600.000
221.84	20.000
222.22	-85.714
222.59	0.000
222.97	187.500
223.34	-220.000
223.72	400.000
224.09	25.000
224.46	75.000
224.84	-20.000
225.21	85.714
225.59	-100.000
225.96	-25.000
226.34	38.462
226.71	-116.667
227.08	200.000
227.46	6.667
227.83	200.000
228.21	115.789
228.58	25.000
228.95	350.000
229.33	58.333
229.70	100.000
230.08	136.842
230.45	10.000
230.82	166.667
231.20	78.571
231.57	50.000
231.95	109.091
232.32	36.364
232.69	90.000
233.07	275.000
233.44	17.647
233.81	10.000
234.19	27.778
234.56	50.000
234.93	44.828
235.31	31.579
235.68	66.667
236.05	40.000
236.43	88.462
236.80	120.000
237.17	44.444
237.55	57.576
237.92	160.000
238.29	48.387
238.67	38.636
239.04	75.000
239.41	38.095
239.79	56.522
240.16	57.407
240.53	65.217
240.91	45.098
241.28	47.541
241.65	76.119
242.02	60.811
242.40	44.615
242.77	44.000
243.14	42.683
243.51	48.684
243.89	57.692
244.26	50.495
244.63	49.020
245.00	61.682
245.38	53.509
245.75	46.018
246.12	42.063
246.49	48.062
246.87	56.429
247.24	56.954
247.61	52.632
247.98	48.993
248.36	44.444
248.73	51.534
249.10	51.913
249.47	54.726
249.84	53.927
250.22	47.668
250.59	57.778
250.96	50.000
251.33	53.571
251.70	50.855
252.08	49.583
252.45	52.869
252.82	51.240
253.19	51.172
253.56	52.852
253.94	50.769
254.31	50.000
254.68	54.545
255.05	52.117
255.42	50.340
255.79	48.867
256.16	48.675
256.54	50.331
256.91	50.820
257.28	50.164
257.65	50.637
258.02	51.327
258.39	46.439
258.76	57.187
259.14	56.034
259.51	50.720
259.88	49.008
260.25	53.611
260.62	49.863
260.99	49.727
261.36	51.475
261.73	51.194
262.10	55.769
262.47	53.083
262.85	52.020
263.22	52.468
263.59	50.526
263.96	50.639
264.33	50.384
264.70	50.370
265.07	53.222
265.44	52.381
265.81	49.769
266.18	51.247
266.55	52.232
266.92	49.886
267.29	49.453
267.66	51.220
268.03	52.402
268.40	50.939
268.77	51.708
269.14	52.423
269.51	53.947
269.88	51.025
270.25	49.698
270.62	50.844
270.99	51.313
271.36	48.119
271.73	48.134
272.10	49.098
272.47	50.501
272.84	50.402
273.21	49.900
273.58	51.815
273.95	47.308
274.32	46.768
274.69	50.677
275.06	48.535
275.43	46.580
275.80	49.206
276.17	47.963
276.54	45.896
276.91	46.869
277.28	49.186
277.65	47.397
278.02	48.897
278.39	50.543
278.76	49.912
279.13	48.936
279.50	47.766
279.87	47.585
280.23	44.894
280.60	45.593
280.97	49.671
281.34	49.406
281.71	49.915
282.08	46.512
282.45	47.136
282.82	45.840
283.19	46.688
283.56	45.902
283.92	47.147
284.29	47.867
284.66	47.783
285.03	43.590
285.40	45.595
285.77	46.440
286.14	46.718
286.51	44.292
286.87	44.866
287.24	46.084
287.61	45.291
287.98	43.656
288.35	44.231
288.72	42.751
289.08	44.363
289.45	41.272
289.82	43.524
290.19	43.247
290.56	43.380
290.93	42.511
291.29	42.975
291.66	41.185
292.03	39.891
292.40	42.449
292.77	39.623
293.13	39.783
293.50	41.130
293.87	39.463
294.24	41.467
294.60	39.697
294.97	37.718
295.34	39.181
295.71	37.705
296.08	37.339
296.44	38.603
296.81	38.368
297.18	38.232
297.55	36.439
297.91	36.773
298.28	34.242
298.65	36.861
299.02	35.301
299.38	36.270
299.75	35.631
300.12	36.111
300.48	36.060
300.85	35.433
301.22	35.347
301.59	34.132
301.95	35.706
302.32	36.222
302.69	33.844
303.05	34.494
303.42	35.477
303.79	33.854
304.15	34.069
304.52	33.192
304.89	33.717
305.25	33.023
305.62	33.647
305.99	33.299
306.35	33.972
306.72	35.574
307.09	33.706
307.45	35.093
307.82	33.703
308.19	31.988
308.55	33.462
308.92	33.398
309.29	31.992
309.65	31.871
310.02	32.475
310.38	32.185
310.75	33.204
311.12	33.653
311.48	32.551
311.85	32.669
312.22	31.879
312.58	30.798
312.95	30.784
313.31	31.527
313.68	31.685
314.05	32.520
314.41	34.244
314.78	32.698
315.14	32.668
315.51	32.779
315.87	32.403
316.24	31.872
316.61	32.238
316.97	30.498
317.34	32.187
317.70	31.878
318.07	32.011
318.43	32.653
318.80	31.187
319.16	29.785
319.53	30.677
319.89	29.886
320.26	31.317
320.62	29.433
320.99	30.933
321.35	31.423
321.72	32.093
322.08	30.929
322.45	31.978
322.81	31.859
323.18	31.327
323.54	31.897
323.91	32.117
324.27	31.842
324.64	32.074
325.00	30.348
325.37	29.730
325.73	30.826
326.10	30.738
326.46	31.678
326.83	30.985
327.19	30.551
327.56	30.593
327.92	30.134
328.29	30.000
328.65	29.983
329.01	31.810
329.38	30.581
329.74	31.079
330.11	31.250
330.47	30.244
330.84	30.491
331.20	31.500
331.56	31.369
331.93	30.879
332.29	30.593
332.66	30.565
333.02	29.983
333.38	29.950
333.75	29.966
334.11	30.442
334.48	30.363
334.84	30.841
335.20	30.143
335.57	31.029
335.93	31.074
336.29	29.867
336.66	29.689
337.02	29.264
337.38	30.782
337.75	29.008
338.11	30.614
338.47	31.514
338.84	29.780
339.20	28.981
339.56	29.901
339.93	28.818
340.29	29.791
340.65	29.684
341.02	30.168
341.38	29.345
341.74	28.894
342.11	29.767
342.47	28.197
342.83	30.274
343.20	30.172
343.56	29.030
343.92	29.303
344.28	29.531
344.65	29.690
345.01	30.421
345.37	29.005
345.73	28.059
346.10	29.719
346.46	28.481
346.82	28.839
347.19	29.412
347.55	29.363
347.91	28.232
348.27	28.680
348.63	29.703
349.00	27.666
349.36	28.996
349.72	28.943
350.08	28.455
350.45	28.289
350.81	29.713
351.17	28.571
351.53	29.037
351.89	28.929
352.26	28.209
352.62	28.507
352.98	28.855
353.34	26.587
353.70	28.428
354.07	28.689
354.43	28.094
354.79	27.375
355.15	27.962
355.51	27.632
355.87	27.749
356.24	28.061
356.60	28.086
356.96	28.391
357.32	26.766
357.68	27.892
358.04	28.518
358.40	28.209
358.77	27.339
359.13	27.400
359.49	26.840
359.85	27.266
360.21	27.475
360.57	27.136
360.93	27.715
361.29	27.439
361.66	26.503
362.02	28.392
362.38	27.266
362.74	27.374
363.10	27.648
363.46	27.008
363.82	27.415
364.18	27.023
364.54	28.008
364.90	27.759
365.26	27.172
365.62	27.867
365.98	27.297
366.35	27.450
366.71	27.959
367.07	27.402
367.43	26.527
367.79	28.401
368.15	27.492
368.51	27.064
368.87	27.302
369.23	26.867
369.59	27.049
369.95	27.586
370.31	26.536
370.67	26.272
371.03	26.593
371.39	26.595
371.75	26.616
372.11	26.897
372.47	25.728
372.83	26.963
373.19	25.484
373.55	26.626
373.91	26.653
374.27	25.679
374.63	27.673
374.99	25.928
375.35	27.338
375.71	27.226
376.07	26.210
376.42	25.756
376.78	27.160
377.14	26.326
377.50	27.008
377.86	26.786
378.22	26.467
378.58	27.765
378.94	25.998
379.30	26.362
379.66	26.161
380.02	26.313
380.38	27.131
380.74	26.761
381.09	26.829
381.45	25.909
381.81	27.693
382.17	26.485
382.53	26.491
382.89	25.395
383.25	26.964
383.61	24.942
383.97	26.031
384.32	26.077
384.68	25.406
385.04	26.200
385.40	26.812
385.76	27.491
386.12	26.032
386.48	26.824
386.83	27.235
387.19	26.593
387.55	25.352
387.91	26.142
388.27	26.155
388.62	26.060
388.98	25.663
389.34	25.633
389.70	26.554
390.06	26.288
390.42	26.205
390.77	26.249
391.13	25.763
391.49	27.234
391.85	26.242
392.20	26.512
392.56	26.462
392.92	25.900
393.28	26.479
393.64	25.754
393.99	25.799
394.35	25.993
394.71	26.467
395.07	25.988
395.42	26.328
395.78	26.935
396.14	26.263
396.50	26.247
396.85	25.283
397.21	25.325
397.57	26.561
397.92	26.289
398.28	25.204
398.64	25.343
399.00	25.079
399.35	25.864
399.71	26.793
400.07	26.165
400.42	25.960
400.78	25.405
401.14	25.213
401.49	26.663
401.85	25.814
402.21	25.261
402.57	25.176
402.92	25.236
403.28	25.937
403.63	25.477
403.99	25.891
404.35	24.957
404.70	24.873
405.06	25.054
405.42	25.000
405.77	26.609
406.13	24.419
406.49	25.845
406.84	25.485
407.20	25.433
407.55	25.197
407.91	25.456
408.27	25.383
408.62	26.178
408.98	24.898
409.34	25.279
409.69	26.576
410.05	25.205
410.40	25.812
410.76	25.014
411.11	25.132
411.47	25.123
411.83	26.102
412.18	25.301
412.54	25.311
412.89	25.262
413.25	25.508
413.60	26.020
413.96	25.058
414.31	24.873
414.67	25.462
415.03	25.354
415.38	25.032
415.74	24.740
416.09	25.170
416.45	25.297
416.80	24.602
417.16	25.287
417.51	24.969
417.87	24.525
418.22	24.611
418.58	24.721
418.93	25.437
419.29	25.092
419.64	24.430
420.00	24.392
420.35	24.986
420.71	24.067
421.06	24.267
421.42	25.172
421.77	24.125
422.12	24.947
422.48	25.294
422.83	25.575
423.19	24.350
423.54	24.502
423.90	24.406
424.25	25.333
424.61	24.512
424.96	24.767
425.31	24.947
425.67	24.745
426.02	25.069
426.38	24.799
426.73	24.554
427.09	24.856
427.44	23.812
427.79	25.428
428.15	23.630
428.50	23.596
428.85	23.823
429.21	24.787
429.56	24.038
429.92	23.833
430.27	24.386
430.62	24.963
430.98	24.496
431.33	24.487
431.68	24.186
432.04	24.937
432.39	24.264
432.74	24.030
433.10	24.392
433.45	23.411
433.80	23.873
434.16	23.244
434.51	24.666
434.86	24.756
435.22	24.814
435.57	25.177
435.92	24.151
436.28	23.606
436.63	23.867
436.98	23.296
437.34	24.803
437.69	24.656
438.04	23.797
438.39	24.354
438.75	23.962
439.10	24.577
439.45	23.756
439.81	23.503
440.16	23.378
440.51	24.415
440.86	23.180
441.22	23.580
441.57	23.952
441.92	24.151
442.27	24.697
442.63	23.895
442.98	24.280
443.33	24.093
443.68	24.281
444.03	24.553
444.39	23.948
444.74	24.349
445.09	24.633
445.44	23.288
445.79	24.377
446.15	23.895
446.50	23.979
446.85	24.173
447.20	23.549
447.55	23.849
447.91	23.927
448.26	24.101
448.61	24.017
448.96	24.678
449.31	23.542
449.66	23.094
450.02	23.840
450.37	24.454
450.72	23.520
451.07	24.317
451.42	23.512
451.77	23.513
452.12	23.646
452.47	23.232
452.83	23.761
453.18	23.993
453.53	23.148
453.88	23.468
454.23	23.390
454.58	23.389
454.93	22.937
455.28	24.082
455.63	23.024
455.98	23.017
456.34	23.498
456.69	23.163
457.04	24.113
457.39	23.060
457.74	24.553
458.09	23.064
458.44	23.114
458.79	23.259
459.14	23.755
459.49	23.713
459.84	23.977
460.19	22.710
460.54	23.737
460.89	23.822
461.24	22.701
461.59	23.575
461.94	22.704
462.29	23.852
462.64	22.752
462.99	23.352
463.34	23.686
463.69	23.095
464.04	22.902
464.39	23.487
464.74	23.546
465.09	23.183
465.44	23.391
465.79	23.321
466.14	23.033
466.49	23.789
466.84	23.526
467.19	23.468
467.54	22.855
467.89	22.874
468.24	22.050
468.59	22.467
468.94	21.795
469.29	21.536
469.64	21.424
469.99	23.582
470.34	22.277
470.68	22.420
471.03	22.331
471.38	22.302
471.73	22.172
472.08	21.827
472.43	22.035
472.78	22.544
473.13	21.429
473.48	22.840
473.83	22.519
474.17	22.685
474.52	23.211
474.87	22.536
475.22	22.930
475.57	22.326
475.92	23.245
476.27	22.364
476.61	22.430
476.96	22.419
477.31	22.376
477.66	22.823
478.01	22.267
478.36	21.884
478.70	22.217
479.05	22.751
479.40	22.409
479.75	21.902
480.10	22.406
480.45	22.470
480.79	22.313
481.14	22.610
481.49	21.945
481.84	22.237
482.19	22.796
482.53	22.737
482.88	22.862
483.23	22.143
483.58	22.358
483.92	21.809
484.27	21.211
484.62	21.576
484.97	22.356
485.31	21.823
485.66	22.171
486.01	23.084
486.36	23.833
486.70	24.775
487.05	25.020
487.40	24.774
487.75	24.122
488.09	23.500
488.44	22.349
488.79	23.035
489.13	22.339
489.48	21.553
489.83	21.891
490.17	21.021
490.52	21.264
490.87	21.362
491.22	21.534
491.56	21.032
491.91	20.933
492.26	22.068
492.60	21.119
492.95	20.799
493.30	21.560
493.64	20.981
493.99	21.447
494.34	21.037
494.68	20.642
495.03	21.498
495.37	21.749
495.72	21.542
496.07	20.815
496.41	21.236
496.76	21.643
497.11	22.420
497.45	21.623
497.80	21.013
498.14	21.406
498.49	21.094
498.84	21.115
499.18	21.278
499.53	21.614
499.87	21.626
500.22	20.659
500.56	20.783
500.91	21.053
501.26	21.636
501.60	20.504
501.95	21.407
502.29	21.413
502.64	21.076
502.98	21.182
503.33	20.734
503.67	21.108
504.02	21.454
504.36	20.777
504.71	21.222
505.06	20.691
505.40	21.115
505.75	20.947
506.09	21.317
506.44	20.474
506.78	21.835
507.13	20.839
507.47	20.938
507.82	20.265
508.16	19.885
508.51	19.831
508.85	20.737
509.19	20.654
509.54	21.134
509.88	19.961
510.23	21.030
510.57	20.928
510.92	20.271
511.26	20.539
511.61	19.652
511.95	20.595
512.30	21.369
512.64	19.890
512.98	20.460
513.33	20.968
513.67	20.092
514.02	19.775
514.36	20.665
514.70	20.469
515.05	19.604
515.39	20.000
515.74	20.361
516.08	20.127
516.42	20.094
516.77	19.558
517.11	19.804
517.46	19.512
517.80	20.631
518.14	20.620
518.49	19.902
518.83	20.117
519.17	19.925
519.52	20.178
519.86	19.535
520.20	20.128
520.55	19.770
520.89	19.651
521.23	19.263
521.58	19.831
521.92	19.830
522.26	18.557
522.61	20.197
522.95	19.781
523.29	19.310
523.64	18.946
523.98	19.395
524.32	20.401
524.66	19.977
525.01	19.139
525.35	19.127
525.69	18.852
526.04	18.829
526.38	20.057
526.72	19.435
527.06	18.944
527.41	18.834
527.75	19.656
528.09	19.658
528.43	19.242
528.78	18.902
529.12	19.381
529.46	19.168
529.80	18.822
530.15	19.884
530.49	19.039
530.83	19.717
531.17	18.877
531.51	19.555
531.86	19.531
532.20	20.122
532.54	19.390
532.88	19.939
533.22	19.505
533.57	19.677
533.91	20.202
534.25	19.785
534.59	20.172
534.93	19.242
535.27	20.732
535.62	19.898
535.96	21.150
536.30	19.918
536.64	20.240
536.98	19.926
537.32	19.444
537.66	19.588
538.01	19.577
538.35	19.123
538.69	18.930
539.03	19.988
539.37	19.611
539.71	19.580
540.05	19.424
540.39	20.232
540.73	19.490
541.07	19.620
541.42	18.665
541.76	19.514
542.10	19.843
542.44	19.793
542.78	19.891
543.12	19.726
543.46	19.475
543.80	18.885
544.14	20.048
544.48	20.095
544.82	20.227
545.16	20.095
545.50	19.593
545.84	19.412
546.18	20.679
546.52	19.554
546.86	19.623
547.20	20.483
547.54	19.288
547.88	19.470
548.22	19.474
548.56	19.310
548.90	19.701
549.24	20.304
549.58	19.937
549.92	19.005
550.26	20.129
550.60	19.528
550.94	19.858
551.28	20.066
551.62	19.205
551.96	18.576
552.30	19.822
552.64	20.348
552.98	19.775
553.32	19.614
553.66	19.421
554.00	19.798
554.34	19.691
554.68	18.786
555.02	18.397
555.36	19.527
555.69	19.347
556.03	19.672
556.37	19.712
556.71	19.531
557.05	19.936
557.39	19.642
557.73	19.683
558.07	18.477
558.41	20.199
558.75	19.473
559.08	18.998
559.42	18.930
559.76	19.267
560.10	19.089
560.44	18.602
560.78	20.438
561.12	19.458
561.45	19.221
561.79	20.391
562.13	19.532
562.47	19.236
562.81	19.367
563.15	19.508
563.48	20.137
563.82	20.254
564.16	19.443
564.50	20.381
564.84	19.941
565.17	20.118
565.51	20.023
565.85	20.606
566.19	19.816
566.52	20.070
566.86	19.921
567.20	19.956
567.54	20.287
567.88	21.050
568.21	21.789
568.55	21.679
568.89	22.015
569.23	21.504
569.56	21.884
569.90	22.701
570.24	22.327
570.57	22.803
570.91	22.811
571.25	23.575
571.59	23.351
571.92	22.948
572.26	23.240
572.60	22.987
572.93	22.766
573.27	22.563
573.61	22.949
573.95	23.185
574.28	23.452
574.62	23.147
574.96	23.269
575.29	23.662
575.63	23.701
575.97	23.210
576.30	23.489
576.64	22.811
576.98	23.781
577.31	23.478
577.65	23.917
577.98	24.078
578.32	23.515
578.66	23.860
578.99	23.756
579.33	23.499
579.67	23.504
580.00	23.511
580.34	23.473
580.67	23.124
581.01	23.540
581.35	23.281
581.68	23.673
582.02	23.990
582.35	24.581
582.69	24.615
583.02	24.481
583.36	24.584
583.70	23.767
584.03	23.326
584.37	23.747
584.70	23.178
585.04	23.204
585.37	23.354
585.71	23.689
586.04	23.514
586.38	23.816
586.72	23.114
587.05	23.305
587.39	23.261
587.72	23.684
588.06	23.694
588.39	23.575
588.73	22.857
589.06	23.589
589.40	23.602
589.73	23.008
590.07	22.115
590.40	22.955
590.73	22.694
591.07	22.413
591.40	22.395
591.74	21.701
592.07	22.899
592.41	22.397
592.74	21.654
593.08	22.962
593.41	23.243
593.75	23.448
594.08	23.750
594.41	23.429
594.75	22.418
595.08	22.712
595.42	23.377
595.75	22.990
596.09	23.145
596.42	22.788
596.75	22.578
597.09	23.192
597.42	22.130
597.75	21.599
598.09	22.302
598.42	22.316
598.76	22.583
599.09	22.428
599.42	22.259
599.76	22.978
600.09	23.490
600.42	22.689
600.76	23.250
601.09	23.332
601.42	23.035
601.76	22.379
602.09	22.516
602.42	21.592
602.76	23.026
603.09	22.394
603.42	22.905
603.76	22.763
604.09	23.456
604.42	22.239
604.76	22.108
605.09	22.218
605.42	22.169
605.75	22.654
606.09	22.359
606.42	22.328
606.75	22.001
607.09	22.043
607.42	22.967
607.75	22.782
608.08	22.336
608.42	21.967
608.75	22.471
609.08	21.392
609.41	22.408
609.75	22.009
610.08	22.515
610.41	21.240
610.74	22.353
611.07	22.025
611.41	21.839
611.74	22.448
612.07	21.879
612.40	21.768
612.73	22.152
613.07	21.614
613.40	21.655
613.73	21.570
614.06	22.130
614.39	21.380
614.72	21.446
615.06	21.511
615.39	21.846
615.72	21.374
616.05	22.244
616.38	21.241
616.71	21.317
617.05	20.980
617.38	22.311
617.71	21.166
618.04	21.587
618.37	21.694
618.70	21.776
619.03	20.729
619.36	21.332
619.69	21.140
620.03	20.088
620.36	20.798
620.69	21.345
621.02	19.751
621.35	20.827
621.68	19.812
622.01	20.071
622.34	19.247
622.67	19.656
623.00	18.893
623.33	20.836
623.66	20.039
623.99	19.355
624.32	20.663
624.65	20.656
624.99	20.806
625.32	21.424
625.65	19.622
625.98	19.661
626.31	20.624
626.64	20.513
626.97	19.280
627.30	19.742
627.63	19.580
627.96	19.820
628.29	20.156
628.62	18.304
628.95	19.018
629.28	18.607
629.61	19.192
629.94	18.326
630.26	19.492
630.59	17.271
630.92	18.615
631.25	19.320
631.58	19.115
631.91	18.650
632.24	19.212
632.57	19.260
632.90	18.054
633.23	18.367
633.56	17.551
633.89	17.459
634.22	18.399
634.55	19.415
634.88	18.290
635.20	18.192
635.53	19.096
635.86	18.418
636.19	17.391
636.52	18.354
636.85	17.263
637.18	17.360
637.51	18.172
637.83	18.715
638.16	17.972
638.49	16.667
638.82	18.264
639.15	16.495
639.48	20.208
639.81	18.476
640.13	18.610
640.46	16.606
640.79	16.054
641.12	18.509
641.45	17.691
641.77	16.431
642.10	17.192
642.43	19.016
642.76	17.073
643.09	15.205
643.41	15.826
643.74	16.000
644.07	16.414
644.40	15.559
644.73	16.546
645.05	17.034
645.38	15.827
645.71	15.543
646.04	17.791
646.36	16.350
646.69	15.798
647.02	17.125
647.35	18.168
647.67	16.103
648.00	15.446
648.33	18.018
648.66	16.262
648.98	17.551
649.31	16.779
649.64	18.194
649.96	19.098
650.29	17.803
650.62	16.549
650.94	16.817
651.27	17.216
651.60	17.398
651.92	17.325
652.25	18.234
652.58	17.882
652.90	15.407
653.23	18.732
653.56	16.690
653.88	18.961
654.21	17.606
654.54	16.763
654.86	17.989
655.19	14.931
655.52	20.192
655.84	22.872
656.17	29.536
656.49	42.755
656.82	47.917
657.15	37.625
657.47	28.072
657.80	20.865
658.13	16.156
658.45	20.747
658.78	24.145
659.10	23.349
659.43	22.561
659.75	21.321
660.08	19.776
660.41	17.452
660.73	17.104
661.06	15.272
661.38	15.311
661.71	16.207
662.03	16.226
662.36	16.279
662.68	16.510
663.01	15.929
663.33	17.202
663.66	17.216
663.98	16.154
664.31	15.197
664.63	13.102
664.96	16.878
665.28	14.156
665.61	18.182
665.93	14.643
666.26	15.233
666.58	14.760
666.91	16.262
667.23	15.238
667.56	14.596
667.88	15.000
668.21	14.453
668.53	13.900
668.86	16.306
669.18	14.664
669.50	15.308
669.83	17.000
670.15	13.583
670.48	14.881
670.80	17.591
671.13	15.123
671.45	14.173
671.77	18.456
672.10	17.500
672.42	17.314
672.75	18.587
673.07	17.463
673.39	16.641
673.72	18.960
674.04	16.897
674.37	19.320
674.69	17.460
675.01	15.238
675.34	16.221
675.66	18.165
675.98	16.791
676.31	16.016
676.63	18.631
676.95	17.625
677.28	13.911
677.60	12.992
677.92	18.234
678.25	17.185
678.57	18.327
678.89	16.553
679.22	17.596
679.54	17.778
679.86	15.085
680.18	17.081
680.51	19.811
680.83	16.694
681.15	18.621
681.48	18.480
681.80	16.580
682.12	16.608
682.44	18.698
682.77	17.199
683.09	17.803
683.41	17.636
683.73	18.596
684.06	15.867
684.38	15.742
684.70	20.108
685.02	20.998
685.34	16.805
685.67	17.350
685.99	20.245
686.31	18.169
686.63	19.589
686.96	18.612
687.28	18.078
687.60	17.003
687.92	16.881
688.24	17.696
688.56	18.103
688.89	16.697
689.21	18.982
689.53	18.235
689.85	16.963
690.17	16.296
690.49	17.331
690.82	15.842
691.14	13.765
691.46	19.503
691.78	18.232
692.10	16.514
692.42	16.964
692.74	19.782
693.06	16.296
693.39	18.975
693.71	16.917
694.03	17.100
694.35	19.048
694.67	18.891
694.99	16.383
695.31	18.102
695.63	18.398
695.95	18.634
696.27	18.462
696.59	18.584
696.91	16.892
697.23	18.462
697.56	14.664
697.88	17.235
698.20	20.151
698.52	19.318
698.84	19.127
699.16	19.184
699.48	19.874
699.80	16.383
700.12	18.777
700.44	15.899
700.76	17.102
701.08	18.160
701.40	16.839
701.72	17.413
702.04	16.310
702.36	15.707
702.68	15.159
703.00	15.892
703.32	16.256
703.64	19.804
703.96	18.854
704.28	17.690
704.60	17.215
704.91	17.347
705.23	17.260
705.55	16.156
705.87	15.758
706.19	19.939
706.51	14.759
706.83	14.409
707.15	14.021
707.47	17.290
707.79	18.777
708.11	16.314
708.43	18.065
708.74	15.848
709.06	18.097
709.38	18.779
709.70	18.610
710.02	15.245
710.34	18.883
710.66	17.039
710.98	19.399
711.29	18.407
711.61	20.339
711.93	19.943
712.25	21.081
712.57	19.174
712.89	18.529
713.20	16.272
713.52	19.653
713.84	17.827
714.16	20.000
714.48	18.041
714.80	19.481
715.11	17.323
715.43	18.833
715.75	18.684
716.07	16.851
716.39	20.492
716.70	17.470
717.02	16.721
717.34	15.679
717.66	21.812
717.97	11.301
718.29	16.495
718.61	16.776
718.93	17.152
719.24	18.323
719.56	13.190
719.88	18.318
720.20	17.419
720.51	17.391
720.83	18.438
721.15	14.145
721.46	16.781
721.78	19.000
722.10	16.505
722.42	16.107
722.73	13.871
723.05	18.947
723.37	18.056
723.68	21.147
724.00	16.606
724.32	18.662
724.63	17.133
724.95	21.986
725.27	16.376
725.58	14.134
725.90	20.000
726.22	20.690
726.53	19.481
726.85	18.553
727.16	17.221
727.48	20.183
727.80	19.536
728.11	17.314
728.43	17.508
728.74	16.388
729.06	14.901
729.38	16.883
729.69	15.436
730.01	17.857
730.32	19.091
730.64	16.981
730.96	17.391
731.27	20.670
731.59	19.505
731.90	18.701
732.22	20.052
732.53	16.851
732.85	17.714
733.16	16.716
733.48	19.207
733.80	19.777
734.11	19.088
734.43	21.622
734.74	21.266
735.06	17.337
735.37	23.243
735.69	18.649
736.00	22.034
736.32	19.407
736.63	19.167
736.95	18.103
737.26	21.515
737.58	21.818
737.89	21.765
738.21	16.514
738.52	17.049
738.83	16.724
739.15	17.730
739.46	17.687
739.78	20.552
740.09	18.052
740.41	24.198
740.72	19.333
741.04	20.712
741.35	23.860
741.66	23.529
741.98	19.262
742.29	20.084
742.61	20.175
742.92	17.308
743.23	19.856
743.55	17.829
743.86	18.000
744.18	18.595
744.49	21.097
744.80	20.576
745.12	21.097
745.43	21.545
745.74	14.655
746.06	20.339
746.37	23.207
746.68	19.106
747.00	14.583
747.31	20.601
747.62	20.385
747.94	19.838
748.25	15.261
748.56	17.143
748.88	13.248
749.19	19.397
749.50	15.152
749.82	22.088
750.13	21.708
750.44	19.000
750.75	20.000
751.07	22.462
751.38	23.975
751.69	21.406
752.01	18.123
752.32	19.608
752.63	17.007
752.94	17.647
753.26	14.126
753.57	22.222
753.88	18.727
754.19	20.900
754.51	20.900
754.82	21.543
755.13	23.279
755.44	21.843
755.75	19.079
756.07	21.194
756.38	21.069
756.69	20.783
757.00	18.006
757.31	18.852
757.63	19.437
757.94	19.014
758.25	21.670
758.56	21.133
758.87	21.591
759.18	19.467
759.50	21.530
759.81	21.008
760.12	18.059
760.43	18.750
760.74	21.921
761.05	21.000
761.36	20.482
761.67	23.096
761.99	22.703
762.30	22.256
762.61	16.172
762.92	21.269
763.23	20.599
763.54	21.583
763.85	20.275
764.16	22.896
764.47	22.535
764.78	21.406
765.10	21.408
765.41	21.282
765.72	21.164
766.03	22.316
766.34	21.003
766.65	21.603
766.96	21.116
767.27	21.659
767.58	16.915
767.89	24.038
768.20	23.005
768.51	15.741
768.82	23.695
769.13	21.212
769.44	16.923
769.75	23.466
770.06	21.923
770.37	21.654
770.68	18.298
770.99	17.814
771.30	25.926
771.61	24.715
771.92	23.704
772.23	26.721
772.54	17.593
772.85	29.032
773.16	26.667
773.47	17.460
773.78	18.378
774.09	21.023
774.39	20.500
774.70	23.497
775.01	20.732
775.32	19.412
775.63	15.951
775.94	17.834
776.25	22.581
776.56	17.949
776.87	23.810
777.18	23.448
777.48	25.175
777.79	23.649
778.10	18.382
778.41	26.389
778.72	26.897
779.03	22.222
779.34	18.788
779.65	20.207
779.95	30.000
780.26	21.023
780.57	22.581
780.88	28.986
781.19	25.806
781.50	18.235
781.80	26.882
782.11	20.635
782.42	15.152
782.73	19.760
783.04	21.229
783.34	15.152
783.65	18.301
783.96	25.466
784.27	23.214
784.57	17.219
784.88	28.571
785.19	20.472
785.50	17.323
785.81	26.316
786.11	20.769
786.42	18.705
786.73	19.424
787.04	29.323
787.34	21.311
787.65	26.400
787.96	16.418
788.26	27.972
788.57	26.573
788.88	21.711
789.19	27.451
789.49	26.712
789.80	26.950
790.11	26.772
790.41	17.969
790.72	18.644
791.03	18.447
791.33	26.087
791.64	21.053
791.95	17.857
792.25	21.905
792.56	26.786
792.87	22.917
793.17	18.750
793.48	17.708
793.79	15.663
794.09	20.183
794.40	14.679
794.70	22.449
795.01	25.974
795.32	25.342
795.62	22.535
795.93	27.273
796.23	31.148
796.54	23.214
796.85	23.404
797.15	9.783
797.46	21.918
797.76	35.000
798.07	32.609
798.37	15.464
798.68	16.883
798.99	28.736
799.29	25.843
799.60	31.915
799.90	30.120
800.21	7.692
800.51	16.418
800.82	10.294
801.12	16.438
801.43	4.412
801.73	23.729
802.04	28.788
802.34	13.333
802.65	20.339
802.95	34.328
803.26	28.814
803.56	26.027
803.87	32.857
804.17	28.767
804.48	-5.263
804.78	27.778
805.09	27.586
805.39	20.270
805.70	15.493
806.00	18.293
806.30	20.482
806.61	27.397
806.91	24.038
807.22	22.222
807.52	19.540
807.83	25.000
808.13	28.916
808.43	26.966
808.74	21.250
809.04	5.882
809.35	14.667
809.65	31.429
809.95	19.178
810.26	17.544
810.56	18.966
810.86	27.941
811.17	38.596
811.47	24.590
811.77	17.778
812.08	35.593
812.38	35.000
812.69	34.483
812.99	16.981
813.29	10.256
813.59	40.000
813.90	21.053
814.20	14.545
814.50	33.803
814.81	32.051
815.11	31.148
815.41	34.328
815.72	36.207
816.02	30.357
816.32	37.778
816.62	13.636
816.93	22.222
817.23	40.741
817.53	23.404
817.84	45.238
818.14	35.294
818.44	42.857
818.74	31.111
819.04	0.000
819.35	8.571
819.65	38.462
819.95	32.075
820.25	26.667
820.56	23.810
820.86	31.250
821.16	28.205
821.46	0.000
821.76	0.000
822.07	37.500
822.37	15.217
822.67	19.149
822.97	5.405
823.27	32.500
823.57	32.653
823.88	28.889
824.18	42.500
824.48	50.000
824.78	20.000
825.08	39.394
825.38	48.889
825.69	27.660
825.99	52.778
826.29	45.714
826.59	38.462
826.89	20.930
827.19	22.000
827.49	50.000
827.79	31.250
828.09	13.514
828.39	3.333
828.70	26.829
829.00	20.930
829.30	0.000
829.60	29.412
829.90	26.087
830.20	14.286
830.50	37.931
830.80	11.111
831.10	-7.692
831.40	35.294
831.70	19.048
832.00	45.161
832.30	-47.059
832.60	62.500
832.90	-30.769
833.20	42.105
833.50	-15.000
833.80	26.316
834.10	-9.524
834.40	25.000
834.70	40.625
835.00	-2.857
835.30	52.941
835.60	53.333
835.90	44.000
836.20	31.818
836.50	4.000
836.80	9.091
837.10	44.444
837.40	40.741
837.70	25.000
838.00	42.857
838.30	26.087
838.60	48.276
838.90	35.714
839.19	0.000
839.49	-33.333
839.79	4.348
840.09	37.500
840.39	95.000
840.69	54.839
840.99	-3.571
841.29	-40.000
841.59	0.000
841.88	30.769
842.18	34.615
842.48	40.000
842.78	-20.000
843.08	36.667
843.38	32.258
843.68	5.556
843.97	47.059
844.27	37.500
844.57	0.000
844.87	70.000
845.17	-33.333
845.47	76.190
845.76	9.524
846.06	44.444
846.36	-17.647
846.66	23.077
846.96	26.667
847.25	17.647
847.55	78.261
847.85	60.000
848.15	70.588
848.44	63.636
848.74	42.857
849.04	45.833
849.34	18.750
849.63	56.522
849.93	400.000
850.23	80.000
850.53	50.000
850.82	54.545
851.12	63.636
851.42	54.545
851.71	46.154
852.01	30.000
852.31	107.692
852.61	42.105
852.90	141.667
853.20	38.889
853.50	-111.111
853.79	-9.524
854.09	-27.273
854.39	75.000
854.68	48.387
854.98	53.846
855.28	100.000
855.57	0.000
855.87	12.000
856.17	4.545
856.46	40.741
856.76	5.556
857.05	73.913
857.35	8.333
857.65	38.462
857.94	42.857
858.24	51.852
858.53	34.783
858.83	70.588
859.13	58.824
859.42	70.588
859.72	57.143
860.01	45.000
860.31	-11.111
860.60	80.000
860.90	33.333
861.20	72.222
861.49	38.462
861.79	30.000
862.08	61.538
862.38	31.250
862.67	52.941
862.97	-37.500
863.26	44.444
863.56	-30.000
863.85	-45.455
864.15	50.000
864.44	400.000
864.74	21.429
865.03	18.750
865.33	40.000
865.62	41.935
865.92	40.909
866.21	39.130
866.51	28.571
866.80	20.000
867.10	50.000
867.39	-8.333
867.69	200.000
867.98	200.000
868.27	117.647
868.57	-1300.000
868.86	-40.000
869.16	28.571
869.45	50.000
869.75	90.909
870.04	71.429
870.33	66.667
870.63	-85.714
870.92	150.000
871.22	12.500
871.51	36.364
871.80	66.667
872.10	650.000
>>>>>End Processed Spectral Data<<<<<
