SpectraSuite Data File
++++++++++++++++++++++++++++++++++++
Date: Thu May 14 15:05:22 PDT 2015
User: schluterlab
Dark Spectrum Present: Yes
Reference Spectrum Present: Yes
Number of Sampled Component Spectra: 1
Spectrometers: USB2E3373
Integration Time (usec): 3000 (USB2E3373)
Spectra Averaged: 3 (USB2E3373)
Boxcar Smoothing: 0 (USB2E3373)
Correct for Electrical Dark: No (USB2E3373)
Strobe/Lamp Enabled: No (USB2E3373)
Correct for Detector Non-linearity: No (USB2E3373)
Correct for Stray Light: No (USB2E3373)
Number of Pixels in Processed Spectrum: 2048
>>>>>Begin Processed Spectral Data<<<<<
178.53	0.000
178.91	471.429
179.29	-4500.000
179.67	-2500.000
180.04	271.429
180.42	200.000
180.80	600.000
181.18	-2400.000
181.56	-1400.000
181.94	625.000
182.31	-625.000
182.69	766.667
183.07	-1400.000
183.45	850.000
183.83	-400.000
184.20	-666.667
184.58	2800.000
184.96	-875.000
185.34	-288.889
185.72	-480.000
186.09	333.333
186.47	1850.000
186.85	660.000
187.23	-333.333
187.61	-3900.000
187.98	520.000
188.36	600.000
188.74	-350.000
189.12	-566.667
189.49	-81.250
189.87	-325.000
190.25	-311.111
190.63	-260.000
191.00	-311.111
191.38	0.000
191.76	-850.000
192.14	-400.000
192.51	1800.000
192.89	-333.333
193.27	0.000
193.65	-300.000
194.02	-2800.000
194.40	-357.143
194.78	342.857
195.15	0.000
195.53	-163.636
195.91	0.000
196.29	-400.000
196.66	-123.077
197.04	-3000.000
197.42	-471.429
197.79	-1350.000
198.17	-200.000
198.55	-300.000
198.92	-277.778
199.30	-300.000
199.68	-200.000
200.05	-142.857
200.43	-1100.000
200.81	371.429
201.18	0.000
201.56	366.667
201.94	0.000
202.31	800.000
202.69	-333.333
203.07	2400.000
203.44	-244.444
203.82	-575.000
204.19	-216.667
204.57	-483.333
204.95	-400.000
205.32	-2400.000
205.70	575.000
206.08	-533.333
206.45	-383.333
206.83	720.000
207.20	-516.667
207.58	-840.000
207.96	-533.333
208.33	-333.333
208.71	150.000
209.08	-250.000
209.46	0.000
209.84	666.667
210.21	1400.000
210.59	1300.000
210.96	1166.667
211.34	-400.000
211.71	-300.000
212.09	-3000.000
212.46	0.000
212.84	1850.000
213.22	-540.000
213.59	-700.000
213.97	-240.000
214.34	-866.667
214.72	550.000
215.09	-775.000
215.47	0.000
215.84	385.714
216.22	1150.000
216.59	-420.000
216.97	-480.000
217.34	-675.000
217.72	-237.500
218.09	-725.000
218.47	-925.000
218.84	0.000
219.22	520.000
219.59	-164.706
219.97	-95.000
220.34	1150.000
220.72	-344.444
221.09	-123.077
221.47	-966.667
221.84	-250.000
222.22	-328.571
222.59	0.000
222.97	-237.500
223.34	-740.000
223.72	-2700.000
224.09	-650.000
224.46	-675.000
224.84	-440.000
225.21	-400.000
225.59	-675.000
225.96	-725.000
226.34	-84.615
226.71	550.000
227.08	-1550.000
227.46	-120.000
227.83	-850.000
228.21	-110.526
228.58	400.000
228.95	1350.000
229.33	-183.333
229.70	-240.000
230.08	0.000
230.45	190.000
230.82	-566.667
231.20	-200.000
231.57	-208.333
231.95	-200.000
232.32	-227.273
232.69	-75.000
233.07	-650.000
233.44	-176.471
233.81	-300.000
234.19	-116.667
234.56	-95.455
234.93	-48.276
235.31	-136.842
235.68	-122.222
236.05	-155.000
236.43	-69.231
236.80	-56.000
237.17	-85.185
237.55	-72.727
237.92	-320.000
238.29	-74.194
238.67	-52.273
239.04	-33.333
239.41	-42.857
239.79	-43.478
240.16	-37.037
240.53	-50.000
240.91	-70.588
241.28	-47.541
241.65	-28.358
242.02	-29.730
242.40	-36.923
242.77	-25.333
243.14	-34.146
243.51	-46.053
243.89	-42.308
244.26	-23.762
244.63	-17.647
245.00	-13.084
245.38	-26.316
245.75	-30.088
246.12	-26.190
246.49	-21.705
246.87	-12.143
247.24	-8.609
247.61	-13.158
247.98	-18.121
248.36	-14.815
248.73	-18.405
249.10	-10.929
249.47	-1.990
249.84	-0.524
250.22	-11.399
250.59	-8.333
250.96	-4.091
251.33	-14.286
251.70	-5.983
252.08	-4.167
252.45	-6.967
252.82	-4.959
253.19	-8.203
253.56	-8.365
253.94	-8.077
254.31	-2.652
254.68	-2.797
255.05	-2.932
255.42	-4.422
255.79	-8.091
256.16	-4.305
256.54	-5.960
256.91	-3.934
257.28	-6.230
257.65	-8.280
258.02	-7.670
258.39	-5.983
258.76	-4.281
259.14	-3.448
259.51	-2.305
259.88	-3.399
260.25	-3.611
260.62	-3.014
260.99	-1.913
261.36	-1.877
261.73	-6.897
262.10	-5.495
262.47	-6.702
262.85	-0.253
263.22	-4.935
263.59	-6.316
263.96	-1.279
264.33	-5.115
264.70	-1.235
265.07	-0.955
265.44	-1.134
265.81	-2.315
266.18	-2.041
266.55	-3.348
266.92	-5.467
267.29	-1.094
267.66	-1.109
268.03	-1.747
268.40	-1.879
268.77	-3.417
269.14	-3.304
269.51	-3.289
269.88	-1.434
270.25	-1.207
270.62	-1.477
270.99	-0.404
271.36	-0.594
271.73	-0.786
272.10	0.000
272.47	-1.804
272.84	-1.406
273.21	-2.405
273.58	-3.427
273.95	-1.731
274.32	-2.852
274.69	-2.901
275.06	-2.198
275.43	-1.848
275.80	-1.411
276.17	-2.778
276.54	-1.679
276.91	-2.683
277.28	-2.170
277.65	-1.616
278.02	-0.919
278.39	-1.630
278.76	-0.351
279.13	-0.709
279.50	0.172
279.87	-0.894
280.23	-2.641
280.60	0.000
280.97	-0.822
281.34	-1.868
281.71	-0.508
282.08	-1.827
282.45	-2.782
282.82	-0.157
283.19	-1.939
283.56	0.492
283.92	1.051
284.29	-0.474
284.66	-1.642
285.03	-1.282
285.40	0.773
285.77	-1.703
286.14	-0.763
286.51	0.000
286.87	-1.580
287.24	0.301
287.61	-1.943
287.98	-0.302
288.35	0.592
288.72	0.740
289.08	0.586
289.45	0.000
289.82	-1.054
290.19	-0.575
290.56	0.141
290.93	-1.712
291.29	0.138
291.66	-0.689
292.03	-0.407
292.40	1.361
292.77	-0.135
293.13	0.271
293.50	-1.577
293.87	-0.805
294.24	0.667
294.60	0.379
294.97	-1.477
295.34	0.896
295.71	-0.631
296.08	-1.034
296.44	-1.225
296.81	1.096
297.18	-0.872
297.55	-0.354
297.91	-1.305
298.28	-1.303
298.65	0.951
299.02	-0.236
299.38	0.915
299.75	-0.818
300.12	-0.926
300.48	-0.115
300.85	-0.112
301.22	1.790
301.59	0.342
301.95	-0.565
302.32	0.889
302.69	-0.219
303.05	1.088
303.42	1.663
303.79	-0.833
304.15	1.157
304.52	-1.057
304.89	-0.733
305.25	0.518
305.62	0.522
305.99	1.134
306.35	-0.202
306.72	0.207
307.09	0.102
307.45	-1.346
307.82	0.101
308.19	0.404
308.55	0.289
308.92	0.487
309.29	1.341
309.65	0.097
310.02	-0.792
310.38	1.378
310.75	0.680
311.12	1.342
311.48	-0.098
311.85	0.000
312.22	0.664
312.58	1.315
312.95	0.000
313.31	0.994
313.68	1.190
314.05	2.258
314.41	1.548
314.78	0.182
315.14	1.089
315.51	0.831
315.87	1.350
316.24	1.644
316.61	0.888
316.97	0.905
317.34	1.764
317.70	1.485
318.07	1.499
318.43	2.126
318.80	3.094
319.16	2.146
319.53	0.686
319.89	0.438
320.26	2.135
320.62	1.773
320.99	3.047
321.35	2.033
321.72	1.767
322.08	0.541
322.45	1.265
322.81	1.986
323.18	0.708
323.54	2.069
323.91	2.224
324.27	2.926
324.64	2.015
325.00	2.819
325.37	2.703
325.73	2.810
326.10	3.082
326.46	2.687
326.83	2.802
327.19	3.701
327.56	2.530
327.92	2.675
328.29	1.935
328.65	3.183
329.01	3.215
329.38	3.117
329.74	4.195
330.11	3.425
330.47	3.201
330.84	3.101
331.20	3.500
331.56	2.946
331.93	4.184
332.29	3.729
332.66	2.492
333.02	3.769
333.38	3.523
333.75	3.620
334.11	4.003
334.48	4.208
334.84	3.993
335.20	3.191
335.57	4.806
335.93	3.636
336.29	4.243
336.66	3.364
337.02	4.181
337.38	4.167
337.75	3.306
338.11	3.869
338.47	4.632
338.84	3.384
339.20	2.780
339.56	4.036
339.93	3.284
340.29	5.072
340.65	3.487
341.02	5.267
341.38	4.285
341.74	3.471
342.11	4.425
342.47	3.892
342.83	4.992
343.20	3.107
343.56	4.010
343.92	4.163
344.28	4.531
344.65	4.884
345.01	4.758
345.37	4.977
345.73	3.274
346.10	4.914
346.46	3.402
346.82	5.393
347.19	4.813
347.55	4.628
347.91	4.383
348.27	4.097
348.63	5.255
349.00	5.145
349.36	4.758
349.72	4.167
350.08	4.829
350.45	4.106
350.81	4.525
351.17	5.113
351.53	5.004
351.89	5.543
352.26	4.552
352.62	4.701
352.98	5.115
353.34	4.332
353.70	5.008
354.07	4.471
354.43	4.708
354.79	4.562
355.15	5.224
355.51	5.775
355.87	5.011
356.24	5.095
356.60	4.656
356.96	5.263
357.32	4.535
357.68	3.953
358.04	5.165
358.40	5.299
358.77	5.044
359.13	4.801
359.49	4.089
359.85	4.786
360.21	5.022
360.57	5.456
360.93	4.654
361.29	5.684
361.66	5.358
362.02	5.985
362.38	4.849
362.74	4.609
363.10	5.915
363.46	5.055
363.82	4.972
364.18	5.841
364.54	5.947
364.90	5.819
365.26	4.966
365.62	6.467
365.98	5.242
366.35	4.899
366.71	6.259
367.07	5.954
367.43	6.369
367.79	6.768
368.15	6.756
368.51	5.413
368.87	6.401
369.23	5.933
369.59	5.806
369.95	5.747
370.31	6.144
370.67	6.052
371.03	6.440
371.39	5.776
371.75	6.327
372.11	5.827
372.47	6.567
372.83	6.675
373.19	6.271
373.55	6.233
373.91	6.339
374.27	6.986
374.63	6.834
374.99	6.167
375.35	6.948
375.71	6.968
376.07	6.585
376.42	6.927
376.78	6.774
377.14	6.925
377.50	7.464
377.86	7.759
378.22	7.665
378.58	6.897
378.94	7.864
379.30	8.143
379.66	7.172
380.02	7.155
380.38	8.065
380.74	7.775
381.09	7.201
381.45	7.330
381.81	7.611
382.17	7.957
382.53	7.368
382.89	8.409
383.25	7.913
383.61	7.697
383.97	7.774
384.32	7.596
384.68	7.483
385.04	8.386
385.40	7.661
385.76	8.675
386.12	7.481
386.48	8.294
386.83	8.760
387.19	8.343
387.55	7.805
387.91	8.390
388.27	8.083
388.62	8.133
388.98	8.573
389.34	8.662
389.70	8.483
390.06	8.467
390.42	8.012
390.77	8.970
391.13	8.157
391.49	8.635
391.85	8.061
392.20	8.007
392.56	8.801
392.92	8.997
393.28	8.734
393.64	8.492
393.99	9.820
394.35	8.762
394.71	8.623
395.07	8.683
395.42	8.281
395.78	9.994
396.14	8.913
396.50	8.551
396.85	8.885
397.21	7.988
397.57	8.716
397.92	9.049
398.28	8.148
398.64	8.696
399.00	8.168
399.35	9.267
399.71	8.098
400.07	8.759
400.42	8.847
400.78	8.275
401.14	8.367
401.49	8.414
401.85	8.605
402.21	8.806
402.57	8.392
402.92	8.570
403.28	8.314
403.63	8.055
403.99	8.314
404.35	8.243
404.70	8.499
405.06	8.804
405.42	7.904
405.77	9.215
406.13	8.752
406.49	9.009
406.84	8.809
407.20	8.217
407.55	8.116
407.91	9.302
408.27	7.774
408.62	8.726
408.98	8.590
409.34	8.035
409.69	8.529
410.05	8.851
410.40	9.281
410.76	8.245
411.11	8.591
411.47	8.170
411.83	8.172
412.18	8.735
412.54	8.714
412.89	8.382
413.25	8.747
413.60	9.190
413.96	8.858
414.31	8.555
414.67	8.348
415.03	9.108
415.38	8.008
415.74	8.797
416.09	8.452
416.45	8.078
416.80	7.405
417.16	8.621
417.51	8.531
417.87	9.013
418.22	8.802
418.58	8.364
418.93	9.546
419.29	8.446
419.64	8.764
420.00	8.546
420.35	9.321
420.71	8.731
421.06	8.626
421.42	9.289
421.77	8.670
422.12	9.038
422.48	9.165
422.83	9.639
423.19	9.496
423.54	8.960
423.90	9.387
424.25	9.333
424.61	8.611
424.96	9.006
425.31	9.448
425.67	9.071
426.02	8.744
426.38	9.816
426.73	9.263
427.09	9.573
427.44	9.121
427.79	9.563
428.15	8.847
428.50	9.775
428.85	9.587
429.21	10.106
429.56	9.279
429.92	9.681
430.27	9.783
430.62	9.477
430.98	9.641
431.33	9.824
431.68	9.291
432.04	9.396
432.39	10.123
432.74	10.103
433.10	9.843
433.45	9.253
433.80	10.300
434.16	10.072
434.51	9.815
434.86	10.261
435.22	10.149
435.57	10.200
435.92	10.184
436.28	10.182
436.63	9.667
436.98	9.930
437.34	9.470
437.69	10.237
438.04	10.048
438.39	10.109
438.75	10.238
439.10	11.416
439.45	11.291
439.81	11.017
440.16	10.295
440.51	10.256
440.86	10.450
441.22	10.236
441.57	10.168
441.92	10.766
442.27	10.556
442.63	11.078
442.98	11.153
443.33	10.784
443.68	11.348
444.03	11.148
444.39	11.419
444.74	10.924
445.09	10.644
445.44	10.643
445.79	10.967
446.15	11.100
446.50	11.370
446.85	10.992
447.20	11.750
447.55	10.879
447.91	11.047
448.26	11.205
448.61	10.946
448.96	11.695
449.31	9.915
449.66	10.076
450.02	10.865
450.37	10.922
450.72	10.764
451.07	10.649
451.42	10.687
451.77	10.673
452.12	10.835
452.47	10.576
452.83	11.261
453.18	10.216
453.53	10.454
453.88	11.209
454.23	10.960
454.58	11.143
454.93	10.316
455.28	11.078
455.63	10.404
455.98	11.061
456.34	10.601
456.69	11.523
457.04	11.466
457.39	11.086
457.74	11.409
458.09	11.422
458.44	11.045
458.79	10.676
459.14	11.012
459.49	10.979
459.84	11.857
460.19	10.827
460.54	10.960
460.89	10.958
461.24	11.034
461.59	11.843
461.94	11.067
462.29	10.806
462.64	10.984
462.99	12.053
463.34	10.642
463.69	10.551
464.04	12.007
464.39	12.164
464.74	12.087
465.09	10.900
465.44	11.588
465.79	11.740
466.14	11.204
466.49	11.632
466.84	10.964
467.19	11.329
467.54	11.222
467.89	11.494
468.24	11.524
468.59	10.944
468.94	10.839
469.29	11.758
469.64	10.807
469.99	11.345
470.34	11.200
470.68	11.210
471.03	12.050
471.38	11.445
471.73	10.468
472.08	12.056
472.43	11.499
472.78	12.280
473.13	11.504
473.48	12.145
473.83	12.014
474.17	12.368
474.52	11.305
474.87	11.794
475.22	11.831
475.57	11.371
475.92	11.648
476.27	12.034
476.61	11.682
476.96	11.366
477.31	12.079
477.66	12.907
478.01	12.456
478.36	11.665
478.70	11.724
479.05	12.014
479.40	12.340
479.75	12.968
480.10	12.222
480.45	11.759
480.79	12.245
481.14	12.316
481.49	12.313
481.84	12.185
482.19	12.473
482.53	12.462
482.88	12.406
483.23	12.272
483.58	12.227
483.92	12.544
484.27	12.066
484.62	12.459
484.97	12.481
485.31	11.545
485.66	11.180
486.01	11.413
486.36	11.756
486.70	12.781
487.05	13.510
487.40	13.049
487.75	12.926
488.09	12.990
488.44	12.207
488.79	12.614
489.13	12.056
489.48	11.689
489.83	12.153
490.17	12.232
490.52	12.931
490.87	12.648
491.22	12.392
491.56	12.927
491.91	12.909
492.26	12.678
492.60	12.680
492.95	12.242
493.30	11.744
493.64	12.615
493.99	12.456
494.34	12.282
494.68	12.634
495.03	12.907
495.37	12.250
495.72	11.927
496.07	12.708
496.41	12.141
496.76	12.469
497.11	13.079
497.45	12.646
497.80	13.372
498.14	12.290
498.49	12.868
498.84	13.711
499.18	13.270
499.53	13.229
499.87	13.187
500.22	12.066
500.56	13.495
500.91	13.501
501.26	13.091
501.60	12.947
501.95	13.157
502.29	12.900
502.64	13.293
502.98	12.856
503.33	13.175
503.67	12.865
504.02	13.222
504.36	12.913
504.71	13.551
505.06	13.324
505.40	13.848
505.75	13.479
506.09	13.490
506.44	13.649
506.78	13.349
507.13	13.923
507.47	13.643
507.82	13.258
508.16	13.671
508.51	13.455
508.85	13.840
509.19	13.880
509.54	14.841
509.88	14.133
510.23	14.376
510.57	14.306
510.92	14.030
511.26	14.959
511.61	13.810
511.95	14.690
512.30	15.017
512.64	14.593
512.98	14.307
513.33	14.113
513.67	14.482
514.02	14.972
514.36	14.527
514.70	14.635
515.05	15.016
515.39	14.908
515.74	15.270
516.08	14.844
516.42	15.699
516.77	15.668
517.11	14.440
517.46	16.278
517.80	16.355
518.14	16.268
518.49	15.672
518.83	15.008
519.17	15.724
519.52	15.828
519.86	16.262
520.20	15.921
520.55	15.608
520.89	15.653
521.23	16.527
521.58	15.876
521.92	16.204
522.26	15.750
522.61	16.551
522.95	15.802
523.29	16.724
523.64	16.816
523.98	16.885
524.32	17.192
524.66	16.676
525.01	16.761
525.35	16.542
525.69	16.473
526.04	16.762
526.38	16.322
526.72	16.724
527.06	16.833
527.41	17.551
527.75	17.102
528.09	17.532
528.43	17.052
528.78	16.532
529.12	16.514
529.46	16.076
529.80	17.277
530.15	17.507
530.49	16.370
530.83	16.647
531.17	16.726
531.51	16.667
531.86	17.188
532.20	18.110
532.54	16.756
532.88	17.576
533.22	16.794
533.57	16.445
533.91	17.172
534.25	17.524
534.59	17.356
534.93	16.469
535.27	16.620
535.62	17.112
535.96	17.083
536.30	16.863
536.64	16.937
536.98	17.774
537.32	17.407
537.66	17.842
538.01	17.100
538.35	16.200
538.69	16.767
539.03	17.781
539.37	17.491
539.71	18.018
540.05	16.966
540.39	17.237
540.73	17.061
541.07	17.045
541.42	17.247
541.76	16.963
542.10	16.948
542.44	17.235
542.78	17.275
543.12	17.461
543.46	16.789
543.80	16.487
544.14	16.936
544.48	17.021
544.82	17.953
545.16	17.710
545.50	16.777
545.84	16.779
546.18	18.642
546.52	17.006
546.86	16.226
547.20	17.048
547.54	17.541
547.88	17.239
548.22	16.959
548.56	17.554
548.90	17.075
549.24	17.325
549.58	17.603
549.92	17.474
550.26	18.123
550.60	17.422
550.94	17.400
551.28	17.690
551.62	17.925
551.96	17.605
552.30	17.782
552.64	18.544
552.98	17.592
553.32	17.428
553.66	17.492
554.00	18.033
554.34	17.117
554.68	17.753
555.02	17.148
555.36	18.146
555.69	17.553
556.03	18.663
556.37	18.085
556.71	18.453
557.05	17.508
557.39	18.315
557.73	18.428
558.07	17.616
558.41	18.339
558.75	17.985
559.08	17.676
559.42	17.901
559.76	18.250
560.10	17.683
560.44	18.536
560.78	18.563
561.12	17.672
561.45	17.701
561.79	18.559
562.13	18.299
562.47	16.646
562.81	17.215
563.15	17.929
563.48	16.967
563.82	18.259
564.16	16.778
564.50	18.057
564.84	17.463
565.17	18.000
565.51	17.722
565.85	17.458
566.19	17.166
566.52	17.905
566.86	18.506
567.20	16.585
567.54	17.260
567.88	17.380
568.21	16.848
568.55	17.554
568.89	17.204
569.23	16.941
569.56	17.155
569.90	16.500
570.24	16.661
570.57	16.774
570.91	16.258
571.25	16.402
571.59	16.699
571.92	16.604
572.26	16.199
572.60	15.971
572.93	16.643
573.27	16.184
573.61	15.723
573.95	16.218
574.28	16.305
574.62	15.871
574.96	15.880
575.29	15.774
575.63	16.286
575.97	16.263
576.30	16.112
576.64	15.963
576.98	15.991
577.31	16.010
577.65	16.013
577.98	16.133
578.32	15.609
578.66	15.812
578.99	16.138
579.33	16.007
579.67	15.979
580.00	16.138
580.34	15.947
580.67	15.733
581.01	15.837
581.35	15.917
581.68	15.652
582.02	15.879
582.35	15.982
582.69	16.268
583.02	15.960
583.36	16.287
583.70	16.314
584.03	16.463
584.37	16.514
584.70	15.966
585.04	15.973
585.37	15.621
585.71	16.375
586.04	16.182
586.38	16.435
586.72	15.919
587.05	16.424
587.39	16.255
587.72	16.651
588.06	16.223
588.39	16.729
588.73	16.640
589.06	16.535
589.40	16.349
589.73	16.934
590.07	16.810
590.40	17.039
590.73	16.684
591.07	17.722
591.40	17.457
591.74	16.733
592.07	17.621
592.41	17.035
592.74	16.684
593.08	16.688
593.41	16.506
593.75	16.810
594.08	17.116
594.41	16.827
594.75	17.303
595.08	17.295
595.42	16.948
595.75	16.952
596.09	17.045
596.42	17.341
596.75	17.638
597.09	17.980
597.42	16.528
597.75	17.170
598.09	17.460
598.42	17.853
598.76	17.081
599.09	16.910
599.42	17.130
599.76	17.035
600.09	17.284
600.42	16.917
600.76	16.975
601.09	16.960
601.42	17.130
601.76	17.241
602.09	16.798
602.42	17.048
602.76	17.159
603.09	16.667
603.42	16.980
603.76	16.631
604.09	18.169
604.42	16.954
604.76	17.390
605.09	17.750
605.42	17.185
605.75	17.192
606.09	16.947
606.42	16.673
606.75	16.867
607.09	16.590
607.42	16.994
607.75	17.468
608.08	16.772
608.42	16.848
608.75	17.703
609.08	17.233
609.41	17.777
609.75	17.946
610.08	17.414
610.41	17.290
610.74	17.353
611.07	17.451
611.41	17.309
611.74	17.413
612.07	17.859
612.40	17.348
612.73	17.457
613.07	18.191
613.40	18.672
613.73	17.044
614.06	17.763
614.39	18.173
614.72	17.467
615.06	17.998
615.39	17.641
615.72	17.820
616.05	17.727
616.38	18.264
616.71	18.234
617.05	17.465
617.38	18.513
617.71	17.927
618.04	17.971
618.37	18.470
618.70	18.495
619.03	17.563
619.36	17.571
619.69	18.258
620.03	17.891
620.36	17.975
620.69	18.445
621.02	19.226
621.35	19.303
621.68	18.655
622.01	18.790
622.34	18.480
622.67	18.900
623.00	17.072
623.33	18.978
623.66	17.964
623.99	18.038
624.32	19.688
624.65	18.662
624.99	18.726
625.32	19.464
625.65	19.420
625.98	17.763
626.31	18.427
626.64	20.073
626.97	18.005
627.30	19.134
627.63	17.854
627.96	19.520
628.29	19.455
628.62	19.144
628.95	19.457
629.28	19.626
629.61	19.276
629.94	18.410
630.26	18.814
630.59	18.653
630.92	18.355
631.25	21.020
631.58	20.433
631.91	20.244
632.24	19.789
632.57	19.639
632.90	19.458
633.23	19.286
633.56	21.020
633.89	19.525
634.22	20.894
634.55	19.415
634.88	19.589
635.20	21.421
635.53	20.452
635.86	21.127
636.19	21.527
636.52	20.042
636.85	20.123
637.18	18.711
637.51	20.000
637.83	20.709
638.16	21.774
638.49	19.718
638.82	20.631
639.15	18.328
639.48	21.132
639.81	19.977
640.13	21.790
640.46	20.848
640.79	19.485
641.12	19.627
641.45	20.577
641.77	21.694
642.10	19.948
642.43	22.606
642.76	21.816
643.09	20.822
643.41	20.308
643.74	20.276
644.07	21.241
644.40	20.651
644.73	21.335
645.05	20.558
645.38	22.878
645.71	21.554
646.04	21.951
646.36	19.708
646.69	21.472
647.02	20.795
647.35	22.748
647.67	21.417
648.00	21.338
648.33	22.222
648.66	21.398
648.98	20.272
649.31	21.922
649.64	21.381
649.96	20.955
650.29	18.915
650.62	21.782
650.94	20.270
651.27	19.910
651.60	19.444
651.92	20.669
652.25	22.287
652.58	21.871
652.90	20.494
653.23	21.972
653.56	18.688
653.88	20.084
654.21	21.972
654.54	21.098
654.86	19.547
655.19	19.950
655.52	20.511
655.84	16.957
656.17	19.518
656.49	27.239
656.82	29.745
657.15	23.485
657.47	18.217
657.80	13.469
658.13	10.796
658.45	14.136
658.78	16.976
659.10	15.948
659.43	15.500
659.75	15.201
660.08	14.454
660.41	15.302
660.73	16.990
661.06	17.768
661.38	19.617
661.71	22.241
662.03	19.577
662.36	21.646
662.68	21.013
663.01	21.062
663.33	21.361
663.66	22.161
663.98	20.577
664.31	21.764
664.63	21.002
664.96	21.234
665.28	20.145
665.61	22.203
665.93	19.821
666.26	21.147
666.58	21.218
666.91	19.439
667.23	21.905
667.56	22.682
667.88	21.400
668.21	19.922
668.53	20.463
668.86	19.843
669.18	19.552
669.50	22.266
669.83	20.000
670.15	18.701
670.48	22.421
670.80	18.738
671.13	22.873
671.45	21.850
671.77	21.657
672.10	18.833
672.42	20.550
672.75	19.355
673.07	19.403
673.39	20.185
673.72	21.812
674.04	22.069
674.37	20.572
674.69	20.988
675.01	19.429
675.34	20.802
675.66	19.288
675.98	21.642
676.31	20.117
676.63	20.913
676.95	22.414
677.28	18.548
677.60	18.898
677.92	21.689
678.25	20.841
678.57	19.039
678.89	20.990
679.22	19.338
679.54	19.487
679.86	17.966
680.18	19.403
680.51	19.654
680.83	20.622
681.15	19.655
681.48	21.416
681.80	17.962
682.12	19.406
682.44	18.698
682.77	20.035
683.09	20.455
683.41	21.124
683.73	18.786
684.06	19.557
684.38	20.215
684.70	20.108
685.02	20.998
685.34	18.968
685.67	18.612
685.99	17.178
686.31	16.860
686.63	20.221
686.96	18.454
687.28	19.870
687.60	17.003
687.92	16.881
688.24	19.699
688.56	17.759
688.89	19.419
689.21	19.569
689.53	19.020
689.85	17.949
690.17	18.519
690.49	17.331
690.82	16.238
691.14	19.028
691.46	21.224
691.78	20.994
692.10	19.450
692.42	17.143
692.74	19.601
693.06	17.222
693.39	18.406
693.71	20.677
694.03	20.446
694.35	20.190
694.67	17.248
694.99	20.000
695.31	18.764
695.63	22.511
695.95	17.805
696.27	19.341
696.59	19.912
696.91	19.369
697.23	22.418
697.56	18.126
697.88	15.909
698.20	19.021
698.52	20.076
698.84	18.711
699.16	21.020
699.48	18.828
699.80	18.936
700.12	18.777
700.44	17.742
700.76	17.815
701.08	20.339
701.40	19.948
701.72	21.642
702.04	22.995
702.36	19.895
702.68	17.848
703.00	16.137
703.32	19.951
703.64	20.538
703.96	17.661
704.28	16.216
704.60	18.481
704.91	18.622
705.23	20.274
705.55	16.713
705.87	18.485
706.19	18.712
706.51	18.072
706.83	18.444
707.15	15.608
707.47	18.224
707.79	17.686
708.11	14.407
708.43	15.269
708.74	15.848
709.06	18.329
709.38	20.892
709.70	17.618
710.02	18.346
710.34	19.415
710.66	15.363
710.98	19.672
711.29	16.209
711.61	20.621
711.93	14.815
712.25	15.676
712.57	20.059
712.89	17.647
713.20	14.793
713.52	18.497
713.84	17.827
714.16	20.789
714.48	18.814
714.80	21.299
715.11	20.210
715.43	15.650
715.75	16.316
716.07	17.403
716.39	19.945
716.70	16.566
717.02	18.689
717.34	16.028
717.66	17.785
717.97	16.438
718.29	14.089
718.61	15.132
718.93	20.712
719.24	18.323
719.56	17.178
719.88	13.814
720.20	16.774
720.51	16.770
720.83	15.938
721.15	14.145
721.46	11.986
721.78	16.667
722.10	14.239
722.42	16.779
722.73	14.516
723.05	15.088
723.37	13.194
723.68	11.828
724.00	18.051
724.32	13.028
724.63	17.483
724.95	19.504
725.27	13.240
725.58	12.367
725.90	18.966
726.22	16.301
726.53	13.961
726.85	18.239
727.16	14.199
727.48	18.349
727.80	19.205
728.11	14.134
728.43	19.192
728.74	15.385
729.06	13.576
729.38	15.909
729.69	16.107
730.01	17.262
730.32	11.515
730.64	16.981
730.96	15.217
731.27	18.715
731.59	16.758
731.90	14.026
732.22	12.500
732.53	13.536
732.85	16.857
733.16	12.610
733.48	15.854
733.80	11.978
734.11	14.815
734.43	16.757
734.74	16.203
735.06	14.070
735.37	17.568
735.69	16.216
736.00	16.102
736.32	14.286
736.63	15.278
736.95	13.218
737.26	16.970
737.58	13.030
737.89	17.059
738.21	12.844
738.52	12.787
738.83	19.795
739.15	13.475
739.46	14.966
739.78	14.417
740.09	15.473
740.41	18.076
740.72	12.000
741.04	13.916
741.35	15.088
741.66	16.471
741.98	11.066
742.29	15.900
742.61	17.105
742.92	14.231
743.23	16.245
743.55	14.729
743.86	14.800
744.18	11.983
744.49	13.080
744.80	16.872
745.12	13.080
745.43	20.732
745.74	16.810
746.06	15.678
746.37	13.080
746.68	17.886
747.00	13.750
747.31	13.734
747.62	19.615
747.94	13.765
748.25	10.442
748.56	8.571
748.88	14.530
749.19	18.966
749.50	18.615
749.82	16.064
750.13	18.505
750.44	11.667
750.75	11.385
751.07	10.769
751.38	13.880
751.69	13.738
752.01	16.505
752.32	13.725
752.63	16.327
752.94	12.457
753.26	9.294
753.57	10.370
753.88	14.232
754.19	15.113
754.51	11.897
754.82	15.113
755.13	15.738
755.44	15.017
755.75	15.132
756.07	14.925
756.38	14.465
756.69	13.855
757.00	14.127
757.31	12.842
757.63	13.299
757.94	11.502
758.25	13.995
758.56	15.904
758.87	16.136
759.18	16.000
759.50	16.714
759.81	15.126
760.12	16.173
760.43	15.625
760.74	14.532
761.05	14.000
761.36	11.807
761.67	14.467
761.99	12.973
762.30	12.500
762.61	11.221
762.92	8.209
763.23	15.730
763.54	14.388
763.85	12.371
764.16	11.785
764.47	15.141
764.78	16.613
765.10	13.783
765.41	13.590
765.72	8.730
766.03	12.712
766.34	7.837
766.65	10.105
766.96	12.351
767.27	14.747
767.58	10.448
767.89	14.904
768.20	13.615
768.51	12.963
768.82	14.458
769.13	12.121
769.44	8.462
769.75	15.884
770.06	14.615
770.37	12.205
770.68	8.085
770.99	6.883
771.30	17.778
771.61	10.646
771.92	13.704
772.23	15.385
772.54	8.796
772.85	13.825
773.16	11.429
773.47	9.524
773.78	3.784
774.09	10.227
774.39	15.000
774.70	12.022
775.01	1.829
775.32	7.059
775.63	4.294
775.94	3.822
776.25	9.032
776.56	16.667
776.87	16.327
777.18	2.759
777.48	6.294
777.79	2.703
778.10	4.412
778.41	5.556
778.72	7.586
779.03	0.000
779.34	6.667
779.65	11.399
779.95	13.333
780.26	11.364
780.57	7.097
780.88	13.043
781.19	14.194
781.50	11.765
781.80	10.753
782.11	11.111
782.42	4.040
782.73	2.395
783.04	7.263
783.34	1.212
783.65	-3.268
783.96	3.727
784.27	4.167
784.57	5.960
784.88	8.571
785.19	7.874
785.50	3.937
785.81	6.015
786.11	6.154
786.42	-9.353
786.73	7.194
787.04	6.015
787.34	2.459
787.65	9.600
787.96	4.478
788.26	9.091
788.57	18.182
788.88	9.868
789.19	7.190
789.49	6.164
789.80	2.837
790.11	10.236
790.41	1.563
790.72	-3.390
791.03	-4.854
791.33	3.478
791.64	10.526
791.95	1.786
792.25	4.762
792.56	0.000
792.87	3.125
793.17	-2.679
793.48	-5.208
793.79	-10.843
794.09	-7.339
794.40	3.670
794.70	8.844
795.01	3.896
795.32	1.370
795.62	9.155
795.93	6.818
796.23	0.820
796.54	-12.500
796.85	4.255
797.15	-2.174
797.46	-15.068
797.76	0.000
798.07	-6.522
798.37	-10.309
798.68	-15.584
798.99	-9.195
799.29	-2.247
799.60	-9.574
799.90	-10.843
800.21	-20.000
800.51	-13.433
800.82	-10.294
801.12	-12.329
801.43	-27.941
801.73	-13.559
802.04	-25.758
802.34	-23.333
802.65	-8.475
802.95	-1.493
803.26	-11.864
803.56	-2.740
803.87	-10.000
804.17	0.000
804.48	-29.825
804.78	-18.056
805.09	-25.862
805.39	2.703
805.70	-18.310
806.00	-1.220
806.30	-8.434
806.61	-17.808
806.91	-1.923
807.22	-13.333
807.52	-17.241
807.83	-4.167
808.13	-9.639
808.43	-6.742
808.74	-8.750
809.04	-41.176
809.35	-16.000
809.65	-20.000
809.95	-17.808
810.26	-29.825
810.56	-24.138
810.86	-14.706
811.17	-28.070
811.47	-26.230
811.77	-35.556
812.08	-3.390
812.38	-13.333
812.69	-20.690
812.99	-37.736
813.29	-69.231
813.59	-38.000
813.90	-21.053
814.20	-18.182
814.50	-9.859
814.81	-3.846
815.11	-22.951
815.41	-23.881
815.72	-15.517
816.02	-26.786
816.32	-8.889
816.62	-34.091
816.93	-42.222
817.23	-24.074
817.53	-25.532
817.84	-33.333
818.14	-55.882
818.44	-30.612
818.74	-26.667
819.04	-69.231
819.35	-57.143
819.65	-119.231
819.95	-28.302
820.25	-26.667
820.56	-42.857
820.86	-56.250
821.16	-58.974
821.46	-58.140
821.76	-58.000
822.07	-21.429
822.37	-43.478
822.67	-38.298
822.97	-86.486
823.27	-50.000
823.57	-24.490
823.88	-20.000
824.18	-30.000
824.48	-56.667
824.78	-80.000
825.08	-72.727
825.38	-17.778
825.69	-21.277
825.99	-47.222
826.29	-71.429
826.59	-33.333
826.89	-48.837
827.19	-34.000
827.49	-44.118
827.79	-16.667
828.09	-72.973
828.39	-73.333
828.70	-73.171
829.00	-37.209
829.30	-50.000
829.60	-23.529
829.90	-32.609
830.20	-74.286
830.50	-89.655
830.80	-127.778
831.10	-84.615
831.40	-50.000
831.70	-128.571
832.00	-25.806
832.30	-176.471
832.60	-125.000
832.90	-215.385
833.20	-131.579
833.50	-120.000
833.80	-105.263
834.10	-142.857
834.40	-44.444
834.70	-46.875
835.00	-42.857
835.30	-50.000
835.60	-30.000
835.90	-44.000
836.20	-163.636
836.50	-76.000
836.80	-87.879
837.10	-96.296
837.40	-74.074
837.70	-218.750
838.00	-21.429
838.30	-95.652
838.60	-58.621
838.90	-128.571
839.19	-152.174
839.49	-275.000
839.79	-73.913
840.09	-187.500
840.39	-100.000
840.69	-35.484
840.99	-67.857
841.29	-173.333
841.59	-115.789
841.88	-30.769
842.18	-80.769
842.48	-110.000
842.78	-120.000
843.08	-63.333
843.38	-80.645
843.68	-138.889
843.97	-38.235
844.27	-162.500
844.57	-131.579
844.87	-260.000
845.17	-106.667
845.47	-71.429
845.76	-80.952
846.06	-311.111
846.36	-129.412
846.66	-65.385
846.96	-193.333
847.25	-170.588
847.55	-56.522
847.85	-110.000
848.15	-105.882
848.44	-172.727
848.74	-71.429
849.04	-87.500
849.34	-137.500
849.63	-95.652
849.93	1800.000
850.23	-186.667
850.53	-96.154
850.82	-254.545
851.12	-50.000
851.42	-245.455
851.71	-161.538
852.01	-115.000
852.31	-76.923
852.61	-52.632
852.90	-183.333
853.20	-83.333
853.50	-333.333
853.79	-109.524
854.09	-122.727
854.39	-216.667
854.68	-70.968
854.98	-100.000
855.28	-155.556
855.57	-110.714
855.87	-92.000
856.17	-109.091
856.46	-59.259
856.76	-150.000
857.05	-117.391
857.35	-75.000
857.65	-153.846
857.94	-80.952
858.24	-18.519
858.53	-91.304
858.83	-158.824
859.13	-135.294
859.42	-141.176
859.72	-142.857
860.01	-135.000
860.31	-266.667
860.60	-280.000
860.90	-133.333
861.20	-100.000
861.49	-100.000
861.79	-46.667
862.08	-153.846
862.38	-59.375
862.67	-111.765
862.97	-150.000
863.26	-344.444
863.56	-190.000
863.85	-227.273
864.15	-116.667
864.44	-733.333
864.74	-121.429
865.03	-125.000
865.33	-300.000
865.62	-87.097
865.92	-81.818
866.21	-73.913
866.51	-142.857
866.80	-500.000
867.10	-266.667
867.39	-200.000
867.69	3600.000
867.98	-357.143
868.27	-141.176
868.57	-4100.000
868.86	-270.000
869.16	-128.571
869.45	-79.167
869.75	-227.273
870.04	-371.429
870.33	-233.333
870.63	-514.286
870.92	-550.000
871.22	-450.000
871.51	-263.636
871.80	-966.667
872.10	-1350.000
>>>>>End Processed Spectral Data<<<<<
