SpectraSuite Data File
++++++++++++++++++++++++++++++++++++
Date: Thu May 14 14:48:23 PDT 2015
User: schluterlab
Dark Spectrum Present: Yes
Reference Spectrum Present: Yes
Number of Sampled Component Spectra: 1
Spectrometers: USB2E3373
Integration Time (usec): 3000 (USB2E3373)
Spectra Averaged: 3 (USB2E3373)
Boxcar Smoothing: 0 (USB2E3373)
Correct for Electrical Dark: No (USB2E3373)
Strobe/Lamp Enabled: No (USB2E3373)
Correct for Detector Non-linearity: No (USB2E3373)
Correct for Stray Light: No (USB2E3373)
Number of Pixels in Processed Spectrum: 2048
>>>>>Begin Processed Spectral Data<<<<<
178.53	0.000
178.91	185.714
179.29	-1700.000
179.67	-900.000
180.04	157.143
180.42	-10.000
180.80	280.000
181.18	600.000
181.56	1000.000
181.94	-25.000
182.31	0.000
182.69	66.667
183.07	-300.000
183.45	225.000
183.83	-50.000
184.20	-233.333
184.58	200.000
184.96	-125.000
185.34	-55.556
185.72	-40.000
186.09	66.667
186.47	450.000
186.85	320.000
187.23	-44.444
187.61	-1100.000
187.98	20.000
188.36	450.000
188.74	-200.000
189.12	-66.667
189.49	-43.750
189.87	-175.000
190.25	-22.222
190.63	-40.000
191.00	-77.778
191.38	0.000
191.76	-175.000
192.14	-116.667
192.51	450.000
192.89	50.000
193.27	0.000
193.65	14.286
194.02	-1300.000
194.40	-142.857
194.78	114.286
195.15	0.000
195.53	81.818
195.91	0.000
196.29	25.000
196.66	-30.769
197.04	-500.000
197.42	-128.571
197.79	0.000
198.17	-62.500
198.55	-142.857
198.92	-11.111
199.30	-37.500
199.68	-27.273
200.05	-7.143
200.43	-150.000
200.81	142.857
201.18	0.000
201.56	133.333
201.94	0.000
202.31	400.000
202.69	-44.444
203.07	700.000
203.44	-100.000
203.82	-375.000
204.19	-66.667
204.57	-83.333
204.95	-62.500
205.32	-1400.000
205.70	225.000
206.08	33.333
206.45	-83.333
206.83	240.000
207.20	-50.000
207.58	-180.000
207.96	-83.333
208.33	66.667
208.71	83.333
209.08	200.000
209.46	0.000
209.84	216.667
210.21	500.000
210.59	250.000
210.96	466.667
211.34	100.000
211.71	-37.500
212.09	200.000
212.46	0.000
212.84	750.000
213.22	-200.000
213.59	-125.000
213.97	20.000
214.34	-133.333
214.72	83.333
215.09	0.000
215.47	0.000
215.84	200.000
216.22	450.000
216.59	-80.000
216.97	-20.000
217.34	-100.000
217.72	-12.500
218.09	-100.000
218.47	-225.000
218.84	0.000
219.22	-40.000
219.59	5.882
219.97	35.000
220.34	50.000
220.72	-88.889
221.09	15.385
221.47	-233.333
221.84	-20.000
222.22	-157.143
222.59	0.000
222.97	-50.000
223.34	-240.000
223.72	-800.000
224.09	-225.000
224.46	-100.000
224.84	160.000
225.21	-100.000
225.59	-275.000
225.96	-100.000
226.34	15.385
226.71	100.000
227.08	-150.000
227.46	13.333
227.83	-25.000
228.21	-15.789
228.58	175.000
228.95	850.000
229.33	41.667
229.70	-30.000
230.08	15.789
230.45	90.000
230.82	0.000
231.20	-35.714
231.57	-41.667
231.95	-63.636
232.32	-145.455
232.69	10.000
233.07	0.000
233.44	-5.882
233.81	-100.000
234.19	-5.556
234.56	0.000
234.93	20.690
235.31	5.263
235.68	27.778
236.05	-30.000
236.43	46.154
236.80	68.000
237.17	0.000
237.55	15.152
237.92	-20.000
238.29	9.677
238.67	2.273
239.04	13.889
239.41	0.000
239.79	13.043
240.16	0.000
240.53	17.391
240.91	17.647
241.28	13.115
241.65	23.881
242.02	22.973
242.40	3.077
242.77	22.667
243.14	10.976
243.51	10.526
243.89	7.692
244.26	16.832
244.63	22.549
245.00	14.953
245.38	16.667
245.75	7.965
246.12	17.460
246.49	12.403
246.87	17.857
247.24	13.907
247.61	19.737
247.98	16.107
248.36	14.815
248.73	17.178
249.10	15.847
249.47	22.886
249.84	26.702
250.22	16.580
250.59	24.444
250.96	19.091
251.33	17.857
251.70	22.222
252.08	18.333
252.45	17.623
252.82	16.116
253.19	14.453
253.56	17.110
253.94	16.923
254.31	18.939
254.68	21.329
255.05	22.801
255.42	17.347
255.79	18.447
256.16	17.881
256.54	18.543
256.91	17.049
257.28	16.393
257.65	18.790
258.02	16.814
258.39	21.368
258.76	20.795
259.14	21.264
259.51	18.444
259.88	18.697
260.25	20.000
260.62	19.726
260.99	24.044
261.36	20.912
261.73	20.955
262.10	19.780
262.47	20.643
262.85	25.253
263.22	18.701
263.59	16.053
263.96	20.205
264.33	20.205
264.70	19.506
265.07	22.434
265.44	23.583
265.81	18.287
266.18	21.088
266.55	22.545
266.92	16.629
267.29	21.882
267.66	19.290
268.03	22.489
268.40	17.328
268.77	17.312
269.14	17.841
269.51	17.325
269.88	20.697
270.25	20.523
270.62	21.097
270.99	19.192
271.36	20.000
271.73	21.022
272.10	20.441
272.47	17.234
272.84	18.072
273.21	19.639
273.58	20.363
273.95	18.269
274.32	19.772
274.69	18.956
275.06	19.780
275.43	18.299
275.80	19.577
276.17	17.778
276.54	18.470
276.91	19.857
277.28	19.711
277.65	19.928
278.02	20.221
278.39	19.565
278.76	17.926
279.13	20.745
279.50	20.103
279.87	18.962
280.23	16.197
280.60	18.136
280.97	20.559
281.34	17.657
281.71	18.951
282.08	19.269
282.45	17.512
282.82	18.524
283.19	17.932
283.56	20.164
283.92	20.721
284.29	21.485
284.66	17.077
285.03	16.506
285.40	18.393
285.77	17.183
286.14	20.611
286.51	18.265
286.87	15.482
287.24	19.127
287.61	17.339
287.98	17.069
288.35	18.935
288.72	17.604
289.08	17.277
289.45	15.533
289.82	16.717
290.19	17.385
290.56	17.746
290.93	17.404
291.29	15.840
291.66	16.116
292.03	16.147
292.40	18.503
292.77	16.038
293.13	15.562
293.50	15.112
293.87	16.510
294.24	17.333
294.60	16.688
294.97	13.557
295.34	15.621
295.71	14.754
296.08	14.341
296.44	15.441
296.81	15.469
297.18	14.695
297.55	14.033
297.91	13.760
298.28	13.744
298.65	14.150
299.02	14.640
299.38	15.332
299.75	14.019
300.12	14.468
300.48	14.055
300.85	14.848
301.22	13.982
301.59	14.041
301.95	15.028
302.32	14.333
302.69	14.677
303.05	13.711
303.42	14.080
303.79	13.958
304.15	12.723
304.52	13.848
304.89	13.508
305.25	12.526
305.62	14.734
305.99	13.196
306.35	13.710
306.72	13.340
307.09	12.081
307.45	13.975
307.82	13.522
308.19	13.421
308.55	13.886
308.92	13.048
309.29	13.218
309.65	13.353
310.02	13.168
310.38	12.992
310.75	14.175
311.12	12.943
311.48	11.535
311.85	12.536
312.22	12.524
312.58	13.709
312.95	13.193
313.31	13.911
313.68	13.278
314.05	14.544
314.41	12.842
314.78	14.714
315.14	14.247
315.51	13.389
315.87	13.591
316.24	14.338
316.61	14.654
316.97	12.941
317.34	12.963
317.70	13.712
318.07	14.550
318.43	13.265
318.80	13.796
319.16	13.305
319.53	12.339
319.89	13.059
320.26	12.633
320.62	13.032
320.99	13.573
321.35	12.847
321.72	14.326
322.08	13.526
322.45	13.279
322.81	13.267
323.18	12.212
323.54	14.310
323.91	14.235
324.27	12.478
324.64	13.686
325.00	13.516
325.37	13.268
325.73	12.975
326.10	13.463
326.46	14.007
326.83	13.531
327.19	13.701
327.56	13.281
327.92	12.903
328.29	12.984
328.65	12.479
329.01	13.452
329.38	13.564
329.74	14.384
330.11	13.870
330.47	13.395
330.84	12.661
331.20	14.083
331.56	11.872
331.93	13.305
332.29	12.119
332.66	13.621
333.02	12.228
333.38	14.010
333.75	13.300
334.11	14.345
334.48	13.449
334.84	14.019
335.20	13.602
335.57	14.418
335.93	14.628
336.29	13.062
336.66	12.700
337.02	12.960
337.38	12.925
337.75	13.058
338.11	12.868
338.47	13.648
338.84	12.944
339.20	12.047
339.56	13.180
339.93	13.465
340.29	13.285
340.65	12.490
341.02	13.567
341.38	13.177
341.74	12.107
342.11	12.792
342.47	12.629
342.83	12.882
343.20	13.573
343.56	12.510
343.92	13.131
344.28	12.109
344.65	13.101
345.01	13.495
345.37	12.908
345.73	12.003
346.10	12.715
346.46	12.737
346.82	12.509
347.19	12.681
347.55	12.671
347.91	11.738
348.27	12.747
348.63	13.404
349.00	12.975
349.36	13.086
349.72	13.170
350.08	13.076
350.45	12.091
350.81	12.217
351.17	12.406
351.53	12.130
351.89	12.832
352.26	12.612
352.62	13.134
352.98	11.527
353.34	12.621
353.70	12.481
354.07	13.338
354.43	11.997
354.79	13.014
355.15	12.656
355.51	12.354
355.87	12.117
356.24	11.863
356.60	12.417
356.96	12.750
357.32	12.565
357.68	12.445
358.04	12.425
358.40	11.493
358.77	13.158
359.13	12.186
359.49	10.929
359.85	11.893
360.21	11.908
360.57	11.127
360.93	12.271
361.29	11.509
361.66	12.093
362.02	13.570
362.38	12.228
362.74	12.081
363.10	12.724
363.46	12.050
363.82	11.790
364.18	11.400
364.54	12.379
364.90	12.843
365.26	11.103
365.62	12.800
365.98	11.981
366.35	12.081
366.71	12.313
367.07	12.246
367.43	12.344
367.79	12.409
368.15	12.977
368.51	12.314
368.87	12.476
369.23	12.200
369.59	12.705
369.95	11.562
370.31	12.019
370.67	12.792
371.03	11.981
371.39	10.947
371.75	11.692
372.11	11.653
372.47	11.307
372.83	14.005
373.19	12.008
373.55	11.789
373.91	11.520
374.27	11.966
374.63	12.314
374.99	11.737
375.35	12.143
375.71	12.452
376.07	11.685
376.42	12.217
376.78	13.114
377.14	12.040
377.50	11.701
377.86	12.623
378.22	12.515
378.58	11.712
378.94	12.559
379.30	11.716
379.66	12.228
380.02	11.829
380.38	12.097
380.74	12.338
381.09	12.137
381.45	12.955
381.81	11.183
382.17	12.708
382.53	12.690
382.89	12.641
383.25	12.251
383.61	12.095
383.97	12.544
384.32	12.739
384.68	11.949
385.04	12.261
385.40	12.787
385.76	12.603
386.12	12.208
386.48	12.824
386.83	12.455
387.19	12.630
387.55	12.559
387.91	11.929
388.27	12.760
388.62	12.199
388.98	12.690
389.34	12.905
389.70	12.435
390.06	12.789
390.42	11.928
390.77	13.064
391.13	12.500
391.49	12.923
391.85	12.242
392.20	11.981
392.56	12.581
392.92	13.468
393.28	12.438
393.64	13.296
393.99	13.364
394.35	12.675
394.71	12.695
395.07	11.796
395.42	12.964
395.78	13.589
396.14	13.310
396.50	11.936
396.85	12.582
397.21	13.077
397.57	13.310
397.92	12.600
398.28	12.656
398.64	12.586
399.00	12.094
399.35	12.565
399.71	13.043
400.07	12.409
400.42	12.049
400.78	12.153
401.14	12.863
401.49	12.848
401.85	12.267
402.21	13.094
402.57	13.850
402.92	12.589
403.28	12.412
403.63	12.709
403.99	13.005
404.35	12.905
404.70	13.371
405.06	12.446
405.42	12.939
405.77	12.541
406.13	13.020
406.49	13.119
406.84	12.853
407.20	13.248
407.55	11.750
407.91	12.445
408.27	12.780
408.62	13.031
408.98	12.188
409.34	12.199
409.69	12.979
410.05	12.837
410.40	13.283
410.76	12.900
411.11	13.501
411.47	12.961
411.83	14.109
412.18	13.494
412.54	12.745
412.89	12.573
413.25	12.867
413.60	12.579
413.96	13.112
414.31	13.314
414.67	13.298
415.03	12.738
415.38	12.989
415.74	12.889
416.09	13.510
416.45	13.400
416.80	12.791
417.16	12.963
417.51	14.010
417.87	13.489
418.22	12.994
418.58	12.887
418.93	13.912
419.29	12.824
419.64	12.305
420.00	13.412
420.35	13.083
420.71	13.153
421.06	13.514
421.42	13.016
421.77	12.332
422.12	13.478
422.48	13.364
422.83	13.363
423.19	13.210
423.54	13.053
423.90	12.535
424.25	12.960
424.61	12.572
424.96	12.960
425.31	13.482
425.67	12.560
426.02	14.001
426.38	13.318
426.73	12.444
427.09	13.437
427.44	13.162
427.79	13.212
428.15	12.842
428.50	13.427
428.85	12.801
429.21	13.511
429.56	13.425
429.92	13.612
430.27	13.253
430.62	14.167
430.98	13.281
431.33	13.050
431.68	13.170
432.04	14.119
432.39	12.319
432.74	13.527
433.10	13.575
433.45	12.598
433.80	13.197
434.16	13.688
434.51	13.566
434.86	14.007
435.22	13.656
435.57	13.856
435.92	13.578
436.28	13.766
436.63	13.381
436.98	12.829
437.34	13.698
437.69	13.429
438.04	13.644
438.39	13.728
438.75	13.448
439.10	13.848
439.45	13.807
439.81	12.938
440.16	13.298
440.51	13.824
440.86	13.341
441.22	13.880
441.57	13.889
441.92	13.143
442.27	13.586
442.63	13.462
442.98	13.981
443.33	13.309
443.68	13.677
444.03	13.688
444.39	13.685
444.74	13.425
445.09	14.344
445.44	14.015
445.79	13.410
446.15	14.029
446.50	14.160
446.85	14.008
447.20	14.120
447.55	13.389
447.91	14.031
448.26	13.372
448.61	13.496
448.96	13.841
449.31	13.786
449.66	13.399
450.02	14.030
450.37	14.012
450.72	13.294
451.07	13.838
451.42	13.634
451.77	13.285
452.12	14.278
452.47	13.428
452.83	13.401
453.18	12.960
453.53	13.498
453.88	13.860
454.23	13.672
454.58	13.755
454.93	12.925
455.28	13.787
455.63	14.213
455.98	14.022
456.34	13.369
456.69	12.816
457.04	13.712
457.39	13.858
457.74	13.870
458.09	13.125
458.44	14.062
458.79	12.893
459.14	13.424
459.49	13.922
459.84	13.903
460.19	12.937
460.54	14.083
460.89	13.764
461.24	13.563
461.59	14.721
461.94	13.120
462.29	14.222
462.64	13.639
462.99	13.183
463.34	14.147
463.69	13.892
464.04	14.008
464.39	13.677
464.74	13.968
465.09	14.302
465.44	13.627
465.79	13.802
466.14	13.497
466.49	13.789
466.84	14.160
467.19	13.642
467.54	13.102
467.89	13.276
468.24	13.573
468.59	12.855
468.94	13.170
469.29	13.677
469.64	14.177
469.99	13.576
470.34	13.800
470.68	13.397
471.03	14.276
471.38	13.538
471.73	13.329
472.08	13.769
472.43	13.847
472.78	13.791
473.13	13.085
473.48	14.139
473.83	14.568
474.17	13.716
474.52	14.432
474.87	13.953
475.22	14.535
475.57	13.448
475.92	13.589
476.27	14.164
476.61	14.123
476.96	13.452
477.31	14.307
477.66	14.376
478.01	13.523
478.36	13.360
478.70	13.547
479.05	14.622
479.40	13.574
479.75	14.361
480.10	14.117
480.45	13.582
480.79	14.104
481.14	13.971
481.49	13.312
481.84	14.578
482.19	13.591
482.53	14.254
482.88	14.222
483.23	13.828
483.58	13.755
483.92	13.431
484.27	14.183
484.62	13.490
484.97	14.230
485.31	13.516
485.66	12.854
486.01	13.315
486.36	13.547
486.70	14.322
487.05	14.323
487.40	14.186
487.75	14.453
488.09	13.300
488.44	13.564
488.79	14.030
489.13	13.686
489.48	13.515
489.83	13.602
490.17	13.892
490.52	13.998
490.87	13.748
491.22	13.345
491.56	13.865
491.91	14.130
492.26	14.236
492.60	13.817
492.95	13.734
493.30	14.567
493.64	14.017
493.99	14.167
494.34	12.892
494.68	13.490
495.03	13.436
495.37	13.937
495.72	13.696
496.07	14.067
496.41	14.157
496.76	14.345
497.11	13.928
497.45	13.552
497.80	14.260
498.14	13.560
498.49	13.787
498.84	14.260
499.18	13.990
499.53	14.126
499.87	14.374
500.22	13.045
500.56	13.765
500.91	13.638
501.26	14.045
501.60	13.964
501.95	13.851
502.29	13.778
502.64	13.730
502.98	14.193
503.33	13.391
503.67	13.650
504.02	13.835
504.36	14.164
504.71	13.964
505.06	13.552
505.40	13.665
505.75	13.479
506.09	13.904
506.44	13.649
506.78	14.541
507.13	13.923
507.47	13.264
507.82	13.731
508.16	14.101
508.51	13.502
508.85	13.085
509.19	13.548
509.54	14.169
509.88	14.133
510.23	14.473
510.57	14.113
510.92	14.756
511.26	14.141
511.61	13.423
511.95	14.300
512.30	14.870
512.64	13.893
512.98	13.757
513.33	13.810
513.67	13.666
514.02	13.848
514.36	14.527
514.70	13.906
515.05	13.191
515.39	13.648
515.74	14.687
516.08	14.369
516.42	14.495
516.77	14.669
517.11	13.254
517.46	13.945
517.80	14.110
518.14	14.146
518.49	13.829
518.83	14.369
519.17	14.216
519.52	14.465
519.86	14.414
520.20	14.324
520.55	14.184
520.89	13.908
521.23	13.791
521.58	14.633
521.92	13.541
522.26	14.318
522.61	14.641
522.95	13.437
523.29	13.851
523.64	14.182
523.98	14.832
524.32	15.014
524.66	14.058
525.01	13.760
525.35	14.015
525.69	14.443
526.04	13.433
526.38	14.368
526.72	14.994
527.06	14.721
527.41	14.752
527.75	14.311
528.09	14.640
528.43	14.802
528.78	13.353
529.12	14.564
529.46	13.828
529.80	14.016
530.15	14.435
530.49	13.938
530.83	14.227
531.17	14.875
531.51	14.801
531.86	13.702
532.20	14.756
532.54	14.303
532.88	14.182
533.22	14.319
533.57	14.195
533.91	14.366
534.25	13.906
534.59	14.310
534.93	13.922
535.27	14.873
535.62	13.985
535.96	15.340
536.30	14.512
536.64	14.234
536.98	14.330
537.32	14.383
537.66	14.722
538.01	14.199
538.35	14.982
538.69	14.062
539.03	14.899
539.37	14.605
539.71	14.294
540.05	13.849
540.39	14.548
540.73	14.147
541.07	13.611
541.42	13.585
541.76	14.591
542.10	13.872
542.44	13.520
542.78	14.659
543.12	13.528
543.46	15.140
543.80	14.029
544.14	13.944
544.48	15.426
544.82	13.944
545.16	14.371
545.50	13.661
545.84	14.881
546.18	15.556
546.52	13.885
546.86	14.088
547.20	14.758
547.54	14.045
547.88	14.045
548.22	13.918
548.56	15.214
548.90	13.731
549.24	14.650
549.58	13.565
549.92	14.923
550.26	15.275
550.60	14.359
550.94	15.201
551.28	14.389
551.62	14.690
551.96	13.916
552.30	15.360
552.64	14.250
552.98	14.660
553.32	14.727
553.66	15.048
554.00	13.871
554.34	13.964
554.68	14.655
555.02	14.192
555.36	15.122
555.69	13.645
556.03	13.997
556.37	15.019
556.71	14.014
557.05	14.760
557.39	15.129
557.73	14.597
558.07	14.570
558.41	14.485
558.75	14.334
559.08	14.753
559.42	14.129
559.76	15.536
560.10	14.468
560.44	14.776
560.78	15.500
561.12	14.224
561.45	14.964
561.79	14.286
562.13	14.356
562.47	14.488
562.81	14.367
563.15	15.152
563.48	13.984
563.82	14.933
564.16	14.476
564.50	15.077
564.84	13.746
565.17	14.706
565.51	14.327
565.85	14.311
566.19	14.343
566.52	14.277
566.86	15.054
567.20	14.247
567.54	14.180
567.88	15.240
568.21	14.279
568.55	15.252
568.89	14.753
569.23	15.082
569.56	14.537
569.90	14.683
570.24	14.570
570.57	15.170
570.91	14.574
571.25	14.319
571.59	14.361
571.92	14.392
572.26	14.770
572.60	14.196
572.93	14.306
573.27	14.358
573.61	14.479
573.95	14.882
574.28	14.693
574.62	14.347
574.96	14.270
575.29	14.475
575.63	14.391
575.97	14.228
576.30	13.817
576.64	14.269
576.98	14.601
577.31	14.630
577.65	14.424
577.98	14.288
578.32	14.801
578.66	14.625
578.99	14.397
579.33	14.340
579.67	14.189
580.00	14.071
580.34	14.529
580.67	14.144
581.01	14.063
581.35	14.378
581.68	14.641
582.02	14.723
582.35	14.814
582.69	14.523
583.02	14.465
583.36	14.767
583.70	14.633
584.03	14.087
584.37	14.392
584.70	14.034
585.04	14.229
585.37	14.163
585.71	15.146
586.04	14.663
586.38	14.949
586.72	14.064
587.05	13.968
587.39	14.361
587.72	14.593
588.06	15.039
588.39	14.937
588.73	14.444
589.06	14.814
589.40	14.874
589.73	14.428
590.07	14.489
590.40	14.841
590.73	14.705
591.07	14.929
591.40	14.813
591.74	14.189
592.07	14.860
592.41	13.998
592.74	14.483
593.08	14.904
593.41	15.311
593.75	14.454
594.08	15.298
594.41	15.000
594.75	14.779
595.08	14.838
595.42	14.513
595.75	14.433
596.09	14.537
596.42	15.192
596.75	15.206
597.09	14.949
597.42	14.700
597.75	14.543
598.09	14.524
598.42	15.078
598.76	14.177
599.09	14.810
599.42	15.085
599.76	14.823
600.09	14.715
600.42	15.015
600.76	14.597
601.09	14.437
601.42	14.487
601.76	14.483
602.09	14.796
602.42	14.286
602.76	14.613
603.09	15.051
603.42	14.559
603.76	14.764
604.09	15.295
604.42	15.450
604.76	14.878
605.09	15.078
605.42	15.072
605.75	14.577
606.09	14.558
606.42	14.885
606.75	14.130
607.09	14.862
607.42	14.566
607.75	14.889
608.08	14.878
608.42	14.672
608.75	14.677
609.08	14.686
609.41	15.307
609.75	14.152
610.08	14.688
610.41	15.378
610.74	14.496
611.07	14.698
611.41	15.247
611.74	14.965
612.07	15.007
612.40	14.354
612.73	14.914
613.07	14.866
613.40	14.581
613.73	14.251
614.06	14.966
614.39	14.140
614.72	14.750
615.06	14.437
615.39	14.016
615.72	14.265
616.05	14.910
616.38	14.834
616.71	14.368
617.05	13.845
617.38	15.142
617.71	14.741
618.04	14.949
618.37	15.191
618.70	15.045
619.03	13.859
619.36	14.365
619.69	14.350
620.03	14.313
620.36	14.172
620.69	14.744
621.02	15.092
621.35	14.877
621.68	14.461
622.01	15.231
622.34	14.505
622.67	14.708
623.00	13.833
623.33	14.798
623.66	15.305
623.99	14.286
624.32	15.724
624.65	14.157
624.99	15.085
625.32	15.807
625.65	14.565
625.98	14.983
626.31	15.237
626.64	15.604
626.97	13.953
627.30	14.503
627.63	14.779
627.96	15.390
628.29	15.486
628.62	13.518
628.95	14.023
629.28	13.679
629.61	14.226
629.94	14.226
630.26	14.576
630.59	14.076
630.92	14.113
631.25	14.669
631.58	15.913
631.91	14.339
632.24	13.929
632.57	14.326
632.90	13.541
633.23	14.592
633.56	14.694
633.89	14.669
634.22	14.865
634.55	14.301
634.88	14.610
635.20	15.823
635.53	15.028
635.86	14.301
636.19	16.649
636.52	14.873
636.85	13.892
637.18	14.345
637.51	16.022
637.83	14.618
638.16	14.516
638.49	14.085
638.82	14.769
639.15	14.777
639.48	15.820
639.81	14.550
640.13	15.901
640.46	12.848
640.79	12.745
641.12	14.534
641.45	13.174
641.77	15.019
642.10	13.255
642.43	15.691
642.76	14.092
643.09	14.795
643.41	15.686
643.74	13.103
644.07	14.483
644.40	12.588
644.73	14.224
645.05	13.216
645.38	16.259
645.71	14.956
646.04	15.065
646.36	13.139
646.69	16.104
647.02	15.902
647.35	15.573
647.67	13.527
648.00	15.287
648.33	15.165
648.66	15.264
648.98	13.878
649.31	13.532
649.64	15.936
649.96	14.456
650.29	13.908
650.62	12.730
650.94	13.514
651.27	13.772
651.60	14.327
651.92	14.894
652.25	14.182
652.58	13.067
652.90	13.808
653.23	14.789
653.56	14.265
653.88	16.011
654.21	15.352
654.54	13.150
654.86	14.873
655.19	12.923
655.52	14.605
655.84	14.854
656.17	17.949
656.49	25.371
656.82	27.751
657.15	21.372
657.47	15.792
657.80	11.603
658.13	8.744
658.45	11.191
658.78	13.889
659.10	13.560
659.43	13.315
659.75	12.687
660.08	12.605
660.41	12.986
660.73	13.113
661.06	13.069
661.38	13.557
661.71	11.724
662.03	13.757
662.36	15.742
662.68	15.009
663.01	13.274
663.33	15.501
663.66	17.216
663.98	14.038
664.31	13.696
664.63	12.909
664.96	15.608
665.28	14.519
665.61	15.035
665.93	13.393
666.26	13.799
666.58	12.915
666.91	15.327
667.23	14.857
667.56	14.793
667.88	15.400
668.21	10.156
668.53	11.583
668.86	13.752
669.18	16.090
669.50	13.121
669.83	14.600
670.15	13.583
670.48	13.889
670.80	12.620
671.13	13.043
671.45	13.189
671.77	16.196
672.10	11.500
672.42	13.754
672.75	14.286
673.07	15.373
673.39	13.559
673.72	14.597
674.04	14.828
674.37	13.059
674.69	15.520
675.01	13.143
675.34	12.595
675.66	11.610
675.98	16.791
676.31	14.258
676.63	18.821
676.95	13.985
677.28	14.113
677.60	10.236
677.92	14.971
678.25	14.442
678.57	16.370
678.89	15.700
679.22	13.240
679.54	11.795
679.86	12.203
680.18	13.267
680.51	13.208
680.83	12.602
681.15	14.483
681.48	13.644
681.80	13.472
682.12	12.063
682.44	13.523
682.77	15.071
683.09	13.636
683.41	14.729
683.73	13.852
684.06	14.022
684.38	13.059
684.70	14.901
685.02	14.114
685.34	12.146
685.67	11.672
685.99	12.577
686.31	12.645
686.63	13.586
686.96	13.722
687.28	14.821
687.60	11.785
687.92	12.862
688.24	14.023
688.56	11.552
688.89	13.249
689.21	17.221
689.53	11.765
689.85	10.059
690.17	11.667
690.49	12.948
690.82	13.069
691.14	12.146
691.46	14.914
691.78	13.812
692.10	10.642
692.42	14.107
692.74	13.975
693.06	12.407
693.39	15.750
693.71	10.526
694.03	14.870
694.35	12.762
694.67	14.990
694.99	12.340
695.31	12.141
695.63	14.069
695.95	11.801
696.27	12.527
696.59	15.708
696.91	14.189
697.23	16.484
697.56	13.035
697.88	13.068
698.20	14.501
698.52	15.152
698.84	12.058
699.16	14.490
699.48	13.598
699.80	14.043
700.12	13.319
700.44	12.903
700.76	13.302
701.08	14.770
701.40	16.580
701.72	13.682
702.04	12.299
702.36	13.089
702.68	11.247
703.00	11.980
703.32	12.069
703.64	16.381
703.96	14.797
704.28	12.039
704.60	15.949
704.91	13.520
705.23	12.329
705.55	13.928
705.87	14.242
706.19	13.497
706.51	10.542
706.83	9.798
707.15	11.376
707.47	13.785
707.79	12.664
708.11	12.712
708.43	13.548
708.74	10.714
709.06	11.601
709.38	12.676
709.70	15.633
710.02	14.470
710.34	16.223
710.66	11.453
710.98	10.383
711.29	13.187
711.61	12.147
711.93	14.530
712.25	14.865
712.57	16.519
712.89	16.176
713.20	11.243
713.52	15.029
713.84	15.599
714.16	14.737
714.48	15.464
714.80	13.506
715.11	12.861
715.43	12.997
715.75	12.105
716.07	12.707
716.39	15.301
716.70	12.952
717.02	14.754
717.34	10.105
717.66	12.416
717.97	10.959
718.29	9.278
718.61	12.171
718.93	14.239
719.24	15.217
719.56	12.577
719.88	11.411
720.20	15.161
720.51	13.043
720.83	12.188
721.15	11.184
721.46	10.274
721.78	13.000
722.10	11.327
722.42	11.074
722.73	11.935
723.05	8.772
723.37	13.889
723.68	16.129
724.00	11.552
724.32	11.620
724.63	15.035
724.95	13.830
725.27	12.195
725.58	8.481
725.90	17.241
726.22	12.853
726.53	13.636
726.85	12.579
727.16	14.804
727.48	13.150
727.80	12.914
728.11	10.247
728.43	14.815
728.74	12.375
729.06	8.278
729.38	10.065
729.69	12.752
730.01	13.393
730.32	10.303
730.64	13.836
730.96	13.665
731.27	14.246
731.59	13.736
731.90	14.026
732.22	9.635
732.53	8.011
732.85	11.143
733.16	11.730
733.48	11.280
733.80	11.142
734.11	13.390
734.43	14.595
734.74	17.722
735.06	13.065
735.37	15.676
735.69	12.432
736.00	11.864
736.32	13.477
736.63	12.778
736.95	12.931
737.26	10.909
737.58	10.303
737.89	11.765
738.21	10.703
738.52	13.115
738.83	15.700
739.15	14.539
739.46	11.565
739.78	11.963
740.09	12.894
740.41	14.577
740.72	11.000
741.04	13.269
741.35	16.491
741.66	12.157
741.98	11.066
742.29	12.971
742.61	8.772
742.92	11.154
743.23	12.274
743.55	9.690
743.86	9.600
744.18	8.678
744.49	8.439
744.80	18.930
745.12	14.346
745.43	17.073
745.74	7.759
746.06	14.407
746.37	16.034
746.68	16.260
747.00	10.833
747.31	13.305
747.62	11.923
747.94	9.717
748.25	14.458
748.56	11.020
748.88	8.120
749.19	9.914
749.50	11.255
749.82	16.064
750.13	13.879
750.44	11.000
750.75	13.538
751.07	11.692
751.38	13.565
751.69	12.141
752.01	12.298
752.32	12.745
752.63	8.503
752.94	13.495
753.26	10.781
753.57	10.000
753.88	11.985
754.19	11.254
754.51	12.540
754.82	13.826
755.13	14.754
755.44	16.724
755.75	12.829
756.07	17.313
756.38	11.321
756.69	13.554
757.00	8.587
757.31	14.754
757.63	12.020
757.94	12.441
758.25	13.093
758.56	12.636
758.87	13.864
759.18	13.067
759.50	13.031
759.81	13.445
760.12	14.016
760.43	12.240
760.74	15.764
761.05	15.750
761.36	13.976
761.67	9.645
761.99	11.622
762.30	11.890
762.61	11.551
762.92	10.821
763.23	13.858
763.54	13.309
763.85	12.371
764.16	14.478
764.47	13.380
764.78	12.460
765.10	12.023
765.41	12.308
765.72	11.640
766.03	17.232
766.34	12.226
766.65	12.195
766.96	12.749
767.27	16.590
767.58	7.960
767.89	16.346
768.20	11.268
768.51	14.815
768.82	8.835
769.13	9.091
769.44	8.077
769.75	14.801
770.06	11.538
770.37	14.961
770.68	9.787
770.99	10.931
771.30	14.074
771.61	10.646
771.92	14.074
772.23	15.385
772.54	8.333
772.85	19.355
773.16	16.190
773.47	6.878
773.78	15.135
774.09	11.932
774.39	13.500
774.70	13.661
775.01	10.976
775.32	9.412
775.63	12.883
775.94	3.822
776.25	14.839
776.56	17.308
776.87	13.605
777.18	17.241
777.48	12.587
777.79	14.189
778.10	2.941
778.41	9.722
778.72	8.966
779.03	10.494
779.34	11.515
779.65	17.617
779.95	17.778
780.26	17.045
780.57	14.839
780.88	18.116
781.19	15.484
781.50	13.529
781.80	17.204
782.11	12.698
782.42	9.596
782.73	4.192
783.04	9.497
783.34	11.515
783.65	6.536
783.96	12.422
784.27	8.333
784.57	12.583
784.88	12.857
785.19	13.386
785.50	7.874
785.81	15.789
786.11	12.308
786.42	7.914
786.73	12.950
787.04	9.774
787.34	10.656
787.65	5.600
787.96	10.448
788.26	14.685
788.57	18.182
788.88	7.895
789.19	18.954
789.49	14.384
789.80	19.149
790.11	11.024
790.41	9.375
790.72	11.864
791.03	10.680
791.33	16.522
791.64	15.789
791.95	8.036
792.25	14.286
792.56	13.393
792.87	8.333
793.17	16.071
793.48	3.125
793.79	-1.205
794.09	7.339
794.40	11.009
794.70	13.605
795.01	16.234
795.32	8.219
795.62	11.972
795.93	12.879
796.23	7.377
796.54	-0.893
796.85	15.957
797.15	13.043
797.46	-8.219
797.76	-6.250
798.07	10.870
798.37	3.093
798.68	0.000
798.99	6.897
799.29	8.989
799.60	10.638
799.90	2.410
800.21	-7.692
800.51	7.463
800.82	1.471
801.12	-12.329
801.43	-1.471
801.73	1.695
802.04	-1.515
802.34	-13.333
802.65	-3.390
802.95	4.478
803.26	3.390
803.56	5.479
803.87	-4.286
804.17	5.479
804.48	-5.263
804.78	11.111
805.09	-10.345
805.39	17.568
805.70	-5.634
806.00	13.415
806.30	14.458
806.61	2.740
806.91	12.500
807.22	8.889
807.52	-1.149
807.83	30.556
808.13	19.277
808.43	2.247
808.74	1.250
809.04	11.765
809.35	5.333
809.65	0.000
809.95	13.699
810.26	7.018
810.56	1.724
810.86	17.647
811.17	10.526
811.47	-14.754
811.77	-4.444
812.08	-3.390
812.38	-6.667
812.69	17.241
812.99	-5.660
813.29	-25.641
813.59	18.000
813.90	10.526
814.20	7.273
814.50	15.493
814.81	12.821
815.11	14.754
815.41	-4.478
815.72	-1.724
816.02	21.429
816.32	35.556
816.62	0.000
816.93	2.222
817.23	18.519
817.53	6.383
817.84	40.476
818.14	-20.588
818.44	2.041
818.74	0.000
819.04	-10.256
819.35	11.429
819.65	-26.923
819.95	3.774
820.25	6.667
820.56	-4.762
820.86	-12.500
821.16	12.821
821.46	-20.930
821.76	-18.000
822.07	1.786
822.37	-10.870
822.67	-2.128
822.97	-21.622
823.27	-5.000
823.57	26.531
823.88	8.889
824.18	17.500
824.48	-53.333
824.78	-28.000
825.08	24.242
825.38	11.111
825.69	17.021
825.99	2.778
826.29	-14.286
826.59	-10.256
826.89	-4.651
827.19	2.000
827.49	-5.882
827.79	20.833
828.09	10.811
828.39	13.333
828.70	-9.756
829.00	-13.953
829.30	-50.000
829.60	2.941
829.90	-4.348
830.20	-2.857
830.50	-6.897
830.80	0.000
831.10	7.692
831.40	2.941
831.70	-23.810
832.00	6.452
832.30	-52.941
832.60	-16.667
832.90	-69.231
833.20	5.263
833.50	-35.000
833.80	-15.789
834.10	-76.190
834.40	25.000
834.70	34.375
835.00	-22.857
835.30	23.529
835.60	-6.667
835.90	8.000
836.20	-77.273
836.50	-24.000
836.80	-9.091
837.10	-55.556
837.40	14.815
837.70	-25.000
838.00	35.714
838.30	-21.739
838.60	27.586
838.90	-35.714
839.19	-65.217
839.49	-33.333
839.79	21.739
840.09	-43.750
840.39	-25.000
840.69	32.258
840.99	-32.143
841.29	-46.667
841.59	-10.526
841.88	17.949
842.18	7.692
842.48	0.000
842.78	-50.000
843.08	20.000
843.38	41.935
843.68	-27.778
843.97	8.824
844.27	12.500
844.57	-26.316
844.87	-50.000
845.17	6.667
845.47	-9.524
845.76	-42.857
846.06	-55.556
846.36	-41.176
846.66	-19.231
846.96	-20.000
847.25	41.176
847.55	47.826
847.85	10.000
848.15	11.765
848.44	-63.636
848.74	0.000
849.04	-29.167
849.34	0.000
849.63	30.435
849.93	650.000
850.23	-33.333
850.53	34.615
850.82	-9.091
851.12	22.727
851.42	0.000
851.71	46.154
852.01	-30.000
852.31	0.000
852.61	-21.053
852.90	-8.333
853.20	16.667
853.50	-55.556
853.79	23.810
854.09	-18.182
854.39	-175.000
854.68	12.903
854.98	-19.231
855.28	11.111
855.57	-28.571
855.87	-20.000
856.17	-45.455
856.46	7.407
856.76	-72.222
857.05	-47.826
857.35	0.000
857.65	-69.231
857.94	33.333
858.24	48.148
858.53	21.739
858.83	17.647
859.13	-5.882
859.42	17.647
859.72	-14.286
860.01	-35.000
860.31	-55.556
860.60	60.000
860.90	-6.667
861.20	-33.333
861.49	38.462
861.79	3.333
862.08	-92.308
862.38	6.250
862.67	-29.412
862.97	-31.250
863.26	-55.556
863.56	-60.000
863.85	0.000
864.15	11.111
864.44	-66.667
864.74	-50.000
865.03	-18.750
865.33	-180.000
865.62	-3.226
865.92	27.273
866.21	13.043
866.51	28.571
866.80	-120.000
867.10	-75.000
867.39	-91.667
867.69	900.000
867.98	-185.714
868.27	11.765
868.57	-1200.000
868.86	-40.000
869.16	-14.286
869.45	-4.167
869.75	9.091
870.04	42.857
870.33	41.667
870.63	-85.714
870.92	125.000
871.22	-162.500
871.51	-54.545
871.80	-466.667
872.10	-200.000
>>>>>End Processed Spectral Data<<<<<
