SpectraSuite Data File
++++++++++++++++++++++++++++++++++++
Date: Thu May 14 14:35:05 PDT 2015
User: schluterlab
Dark Spectrum Present: Yes
Reference Spectrum Present: Yes
Number of Sampled Component Spectra: 1
Spectrometers: USB2E3373
Integration Time (usec): 3000 (USB2E3373)
Spectra Averaged: 3 (USB2E3373)
Boxcar Smoothing: 0 (USB2E3373)
Correct for Electrical Dark: No (USB2E3373)
Strobe/Lamp Enabled: No (USB2E3373)
Correct for Detector Non-linearity: No (USB2E3373)
Correct for Stray Light: No (USB2E3373)
Number of Pixels in Processed Spectrum: 2048
>>>>>Begin Processed Spectral Data<<<<<
178.53	0.000
178.91	-242.857
179.29	1200.000
179.67	2000.000
180.04	-42.857
180.42	-150.000
180.80	-400.000
181.18	1500.000
181.56	3000.000
181.94	-375.000
182.31	450.000
182.69	-666.667
183.07	800.000
183.45	-300.000
183.83	166.667
184.20	400.000
184.58	-1200.000
184.96	300.000
185.34	88.889
185.72	640.000
186.09	-100.000
186.47	-1050.000
186.85	-180.000
187.23	100.000
187.61	1600.000
187.98	-340.000
188.36	-400.000
188.74	550.000
189.12	633.333
189.49	125.000
189.87	150.000
190.25	244.444
190.63	200.000
191.00	188.889
191.38	0.000
191.76	225.000
192.14	300.000
192.51	-1350.000
192.89	383.333
193.27	0.000
193.65	285.714
194.02	1100.000
194.40	242.857
194.78	-257.143
195.15	0.000
195.53	254.545
195.91	0.000
196.29	400.000
196.66	146.154
197.04	1200.000
197.42	371.429
197.79	850.000
198.17	237.500
198.55	42.857
198.92	200.000
199.30	175.000
199.68	236.364
200.05	150.000
200.43	750.000
200.81	-200.000
201.18	0.000
201.56	-144.444
201.94	0.000
202.31	-0.000
202.69	188.889
203.07	-1500.000
203.44	300.000
203.82	450.000
204.19	208.333
204.57	300.000
204.95	62.500
205.32	1800.000
205.70	-375.000
206.08	300.000
206.45	283.333
206.83	-240.000
207.20	350.000
207.58	160.000
207.96	133.333
208.33	316.667
208.71	-158.333
209.08	433.333
209.46	0.000
209.84	-133.333
210.21	-650.000
210.59	-850.000
210.96	-500.000
211.34	325.000
211.71	237.500
212.09	1700.000
212.46	0.000
212.84	-650.000
213.22	120.000
213.59	375.000
213.97	220.000
214.34	666.667
214.72	-283.333
215.09	300.000
215.47	0.000
215.84	-214.286
216.22	-550.000
216.59	520.000
216.97	240.000
217.34	425.000
217.72	375.000
218.09	500.000
218.47	225.000
218.84	0.000
219.22	-200.000
219.59	123.529
219.97	105.000
220.34	-800.000
220.72	288.889
221.09	223.077
221.47	700.000
221.84	190.000
222.22	185.714
222.59	0.000
222.97	187.500
223.34	0.000
223.72	900.000
224.09	450.000
224.46	250.000
224.84	300.000
225.21	242.857
225.59	425.000
225.96	400.000
226.34	103.846
226.71	-166.667
227.08	650.000
227.46	140.000
227.83	450.000
228.21	115.789
228.58	-212.500
228.95	-650.000
229.33	158.333
229.70	230.000
230.08	126.316
230.45	-110.000
230.82	500.000
231.20	171.429
231.57	258.333
231.95	145.455
232.32	318.182
232.69	140.000
233.07	450.000
233.44	111.765
233.81	180.000
234.19	61.111
234.56	109.091
234.93	82.759
235.31	126.316
235.68	144.444
236.05	125.000
236.43	138.462
236.80	136.000
237.17	77.778
237.55	72.727
237.92	170.000
238.29	32.258
238.67	38.636
239.04	61.111
239.41	54.762
239.79	67.391
240.16	50.000
240.53	43.478
240.91	31.373
241.28	49.180
241.65	56.716
242.02	35.135
242.40	32.308
242.77	34.667
243.14	18.293
243.51	14.474
243.89	29.487
244.26	37.624
244.63	35.294
245.00	36.449
245.38	29.825
245.75	15.929
246.12	34.127
246.49	23.256
246.87	29.286
247.24	29.139
247.61	29.605
247.98	33.557
248.36	16.049
248.73	20.245
249.10	21.858
249.47	24.378
249.84	29.843
250.22	21.762
250.59	20.000
250.96	24.545
251.33	17.347
251.70	21.368
252.08	16.250
252.45	20.082
252.82	19.421
253.19	16.016
253.56	16.350
253.94	17.692
254.31	22.348
254.68	19.580
255.05	20.847
255.42	17.687
255.79	19.417
256.16	19.536
256.54	16.556
256.91	20.328
257.28	19.672
257.65	13.057
258.02	14.454
258.39	22.222
258.76	19.572
259.14	19.253
259.51	18.444
259.88	16.147
260.25	16.111
260.62	19.178
260.99	19.945
261.36	21.180
261.73	18.568
262.10	17.857
262.47	17.426
262.85	18.687
263.22	17.143
263.59	13.947
263.96	17.647
264.33	17.391
264.70	16.049
265.07	20.286
265.44	19.048
265.81	15.509
266.18	17.007
266.55	18.304
266.92	18.223
267.29	17.505
267.66	14.634
268.03	15.284
268.40	16.493
268.77	16.173
269.14	14.978
269.51	17.763
269.88	19.877
270.25	16.298
270.62	17.722
270.99	19.192
271.36	15.050
271.73	17.485
272.10	19.238
272.47	13.226
272.84	17.671
273.21	18.036
273.58	19.960
273.95	16.538
274.32	15.970
274.69	15.474
275.06	15.568
275.43	14.048
275.80	16.578
276.17	16.667
276.54	15.485
276.91	14.669
277.28	14.647
277.65	14.901
278.02	16.728
278.39	14.855
278.76	14.587
279.13	14.894
279.50	14.777
279.87	15.742
280.23	13.028
280.60	16.102
280.97	16.283
281.34	14.092
281.71	17.428
282.08	15.282
282.45	14.075
282.82	14.286
283.19	12.763
283.56	14.918
283.92	16.817
284.29	15.166
284.66	15.928
285.03	12.660
285.40	14.683
285.77	15.635
286.14	14.809
286.51	14.916
286.87	15.324
287.24	14.910
287.61	15.097
287.98	14.199
288.35	13.905
288.72	14.645
289.08	13.324
289.45	12.278
289.82	14.458
290.19	14.368
290.56	13.803
290.93	14.265
291.29	14.601
291.66	14.601
292.03	13.161
292.40	14.150
292.77	13.747
293.13	13.667
293.50	12.352
293.87	12.349
294.24	15.333
294.60	14.033
294.97	11.544
295.34	14.085
295.71	12.863
296.08	13.049
296.44	12.500
296.81	14.007
297.18	11.831
297.55	12.618
297.91	12.337
298.28	11.967
298.65	12.604
299.02	13.341
299.38	12.815
299.75	12.500
300.12	11.806
300.48	12.097
300.85	11.811
301.22	12.975
301.59	11.872
301.95	12.994
302.32	13.778
302.69	12.267
303.05	11.970
303.42	12.195
303.79	12.188
304.15	12.618
304.52	10.888
304.89	11.414
305.25	12.008
305.62	13.062
305.99	11.856
306.35	12.399
306.72	12.720
307.09	11.675
307.45	13.975
307.82	13.724
308.19	12.210
308.55	12.825
308.92	12.658
309.29	12.835
309.65	12.183
310.02	11.881
310.38	12.402
310.75	13.786
311.12	13.998
311.48	13.294
311.85	13.105
312.22	12.808
312.58	15.211
312.95	13.289
313.31	14.273
313.68	15.476
314.05	16.350
314.41	15.665
314.78	15.622
315.14	15.064
315.51	15.328
315.87	17.192
316.24	15.251
316.61	17.496
316.97	16.018
317.34	17.196
317.70	17.555
318.07	18.078
318.43	18.707
318.80	18.395
319.16	17.768
319.53	17.052
319.89	17.528
320.26	19.395
320.62	18.883
320.99	20.960
321.35	20.240
321.72	20.837
322.08	20.108
322.45	21.229
322.81	21.300
323.18	21.239
323.54	21.724
323.91	23.043
324.27	22.892
324.64	24.097
325.00	22.388
325.37	22.604
325.73	23.802
326.10	24.574
326.46	24.267
326.83	25.861
327.19	24.961
327.56	25.534
327.92	25.806
328.29	24.435
328.65	25.293
329.01	26.565
329.38	27.717
329.74	27.483
330.11	27.654
330.47	26.790
330.84	28.596
331.20	28.000
331.56	27.383
331.93	28.787
332.29	28.898
332.66	27.824
333.02	28.141
333.38	27.433
333.75	27.357
334.11	27.857
334.48	27.888
334.84	29.482
335.20	29.219
335.57	28.921
335.93	29.256
336.29	28.869
336.66	28.595
337.02	27.843
337.38	29.932
337.75	28.760
338.11	29.184
338.47	28.701
338.84	28.849
339.20	28.222
339.56	28.995
339.93	29.392
340.29	27.536
340.65	28.873
341.02	28.651
341.38	29.830
341.74	27.845
342.11	28.882
342.47	28.038
342.83	29.066
343.20	27.637
343.56	28.549
343.92	28.423
344.28	29.062
344.65	28.217
345.01	28.237
345.37	27.760
345.73	27.514
346.10	28.549
346.46	29.035
346.82	28.839
347.19	29.030
347.55	27.466
347.91	28.678
348.27	27.314
348.63	28.332
349.00	26.324
349.36	27.955
349.72	26.786
350.08	28.158
350.45	27.529
350.81	27.376
351.17	27.368
351.53	27.445
351.89	27.335
352.26	27.463
352.62	27.761
352.98	26.870
353.34	25.915
353.70	26.656
354.07	28.092
354.43	27.031
354.79	27.001
355.15	26.343
355.51	27.997
355.87	27.225
356.24	26.768
356.60	27.421
356.96	27.798
357.32	27.212
357.68	27.233
358.04	26.946
358.40	26.716
358.77	26.681
359.13	26.588
359.49	26.171
359.85	26.541
360.21	26.686
360.57	26.633
360.93	26.939
361.29	26.877
361.66	27.082
362.02	26.722
362.38	27.688
362.74	26.746
363.10	27.098
363.46	27.216
363.82	26.491
364.18	27.164
364.54	27.524
364.90	26.488
365.26	26.897
365.62	26.400
365.98	26.481
366.35	27.517
366.71	27.075
367.07	27.537
367.43	27.446
367.79	27.671
368.15	26.689
368.51	26.319
368.87	27.172
369.23	27.067
369.59	26.708
369.95	27.248
370.31	27.279
370.67	26.547
371.03	26.731
371.39	26.125
371.75	26.685
372.11	26.220
372.47	26.811
372.83	27.029
373.19	26.551
373.55	26.355
373.91	26.653
374.27	26.585
374.63	27.740
374.99	26.923
375.35	26.883
375.71	26.516
376.07	27.050
376.42	25.630
376.78	27.719
377.14	26.638
377.50	27.514
377.86	26.724
378.22	27.725
378.58	27.051
378.94	26.761
379.30	26.948
379.66	27.513
380.02	27.178
380.38	26.786
380.74	27.493
381.09	27.178
381.45	27.614
381.81	27.400
382.17	27.375
382.53	27.018
382.89	26.693
383.25	27.315
383.61	27.199
383.97	27.267
384.32	27.392
384.68	27.030
385.04	28.398
385.40	27.401
385.76	27.843
386.12	28.007
386.48	27.941
386.83	28.129
387.19	27.578
387.55	26.761
387.91	28.082
388.27	27.945
388.62	27.721
388.98	26.678
389.34	28.462
389.70	26.961
390.06	27.590
390.42	27.711
390.77	27.995
391.13	26.819
391.49	27.778
391.85	27.394
392.20	27.995
392.56	27.702
392.92	28.299
393.28	28.192
393.64	27.151
393.99	28.414
394.35	28.271
394.71	29.222
395.07	27.844
395.42	28.441
395.78	28.946
396.14	28.877
396.50	28.385
396.85	27.788
397.21	28.343
397.57	28.151
397.92	29.038
398.28	27.594
398.64	27.288
399.00	27.801
399.35	27.906
399.71	27.826
400.07	27.906
400.42	27.125
400.78	27.025
401.14	27.718
401.49	27.402
401.85	27.674
402.21	27.810
402.57	29.167
402.92	27.364
403.28	27.166
403.63	26.372
403.99	28.207
404.35	26.890
404.70	28.272
405.06	27.717
405.42	28.044
405.77	28.408
406.13	27.066
406.49	27.083
406.84	28.033
407.20	27.893
407.55	27.922
407.91	27.781
408.27	27.797
408.62	28.389
408.98	27.684
409.34	27.273
409.69	29.110
410.05	28.488
410.40	28.770
410.76	27.874
411.11	27.820
411.47	28.747
411.83	28.630
412.18	29.157
412.54	28.156
412.89	28.405
413.25	28.894
413.60	27.341
413.96	28.555
414.31	28.839
414.67	27.370
415.03	27.692
415.38	27.932
415.74	27.978
416.09	27.761
416.45	27.614
416.80	27.723
417.16	28.736
417.51	28.580
417.87	28.204
418.22	29.521
418.58	29.492
418.93	28.871
419.29	29.223
419.64	28.031
420.00	29.199
420.35	28.186
420.71	28.489
421.06	28.407
421.42	28.842
421.77	27.733
422.12	28.013
422.48	29.135
422.83	28.970
423.19	28.912
423.54	28.982
423.90	28.548
424.25	29.653
424.61	28.645
424.96	29.270
425.31	29.512
425.67	29.308
426.02	29.828
426.38	29.506
426.73	28.516
427.09	30.046
427.44	28.345
427.79	29.077
428.15	28.596
428.50	29.270
428.85	28.129
429.21	29.574
429.56	27.986
429.92	28.796
430.27	28.723
430.62	29.165
430.98	28.972
431.33	28.055
431.68	28.305
432.04	29.304
432.39	29.459
432.74	29.110
433.10	29.097
433.45	29.543
433.80	29.882
434.16	29.804
434.51	29.548
434.86	30.076
435.22	30.287
435.57	31.132
435.92	29.827
436.28	29.636
436.63	30.311
436.98	30.166
437.34	29.820
437.69	30.215
438.04	29.614
438.39	30.902
438.75	30.160
439.10	30.867
439.45	30.408
439.81	29.096
440.16	29.223
440.51	30.491
440.86	29.350
441.22	29.314
441.57	30.398
441.92	29.631
442.27	30.152
442.63	30.104
442.98	29.936
443.33	29.879
443.68	30.773
444.03	30.056
444.39	30.513
444.74	29.913
445.09	30.157
445.44	30.348
445.79	30.795
446.15	29.959
446.50	31.059
446.85	29.086
447.20	30.561
447.55	31.433
447.91	30.995
448.26	30.444
448.61	30.765
448.96	31.921
449.31	31.389
449.66	30.338
450.02	31.276
450.37	30.847
450.72	30.947
451.07	31.435
451.42	29.925
451.77	30.406
452.12	31.772
452.47	30.125
452.83	32.095
453.18	31.699
453.53	30.500
453.88	31.419
454.23	31.412
454.58	30.992
454.93	31.614
455.28	31.607
455.63	30.529
455.98	31.285
456.34	31.331
456.69	30.805
457.04	31.797
457.39	30.876
457.74	30.984
458.09	30.752
458.44	31.897
458.79	30.944
459.14	31.411
459.49	32.145
459.84	31.112
460.19	30.150
460.54	32.254
460.89	31.128
461.24	31.322
461.59	32.319
461.94	30.633
462.29	30.851
462.64	32.227
462.99	32.392
463.34	31.862
463.69	32.415
464.04	31.851
464.39	31.502
464.74	30.217
465.09	32.295
465.44	31.223
465.79	32.099
466.14	31.371
466.49	31.316
466.84	31.625
467.19	31.561
467.54	32.256
467.89	30.402
468.24	31.967
468.59	31.500
468.94	31.352
469.29	31.854
469.64	32.104
469.99	31.549
470.34	31.559
470.68	32.126
471.03	32.875
471.38	32.178
471.73	31.925
472.08	32.931
472.43	32.149
472.78	32.809
473.13	31.163
473.48	32.508
473.83	32.501
474.17	32.591
474.52	33.073
474.87	30.952
475.22	32.338
475.57	31.776
475.92	32.056
476.27	32.375
476.61	31.464
476.96	31.648
477.31	32.277
477.66	32.267
478.01	31.673
478.36	31.555
478.70	32.020
479.05	32.464
479.40	32.330
479.75	33.285
480.10	32.212
480.45	31.951
480.79	31.474
481.14	31.066
481.49	32.485
481.84	32.115
482.19	31.957
482.53	31.482
482.88	32.698
483.23	32.237
483.58	31.616
483.92	31.693
484.27	32.261
484.62	31.394
484.97	31.998
485.31	31.538
485.66	30.327
486.01	29.049
486.36	28.685
486.70	29.544
487.05	30.586
487.40	30.671
487.75	31.094
488.09	31.417
488.44	30.826
488.79	32.142
489.13	32.802
489.48	31.107
489.83	32.113
490.17	31.592
490.52	31.281
490.87	31.853
491.22	32.712
491.56	31.527
491.91	32.054
492.26	31.458
492.60	31.963
492.95	32.690
493.30	32.631
493.64	32.545
493.99	31.886
494.34	31.882
494.68	32.034
495.03	32.291
495.37	32.845
495.72	32.290
496.07	32.209
496.41	31.703
496.76	32.569
497.11	32.229
497.45	31.722
497.80	32.341
498.14	32.154
498.49	32.399
498.84	32.815
499.18	32.299
499.53	32.601
499.87	32.132
500.22	31.523
500.56	33.063
500.91	32.998
501.26	33.500
501.60	32.346
501.95	32.262
502.29	32.690
502.64	32.663
502.98	32.097
503.33	32.225
503.67	32.403
504.02	32.268
504.36	31.591
504.71	32.522
505.06	32.833
505.40	32.541
505.75	32.468
506.09	33.057
506.44	33.519
506.78	32.890
507.13	32.273
507.47	33.491
507.82	32.718
508.16	31.979
508.51	32.208
508.85	32.782
509.19	33.396
509.54	33.862
509.88	32.977
510.23	33.609
510.57	34.268
510.92	32.656
511.26	32.275
511.61	31.676
511.95	33.236
512.30	33.432
512.64	32.834
512.98	33.517
513.33	33.468
513.67	33.656
514.02	33.776
514.36	33.350
514.70	33.698
515.05	33.525
515.39	33.701
515.74	34.358
516.08	33.914
516.42	34.171
516.77	33.649
517.11	33.058
517.46	33.881
517.80	34.099
518.14	34.548
518.49	34.328
518.83	33.475
519.17	34.303
519.52	33.857
519.86	35.058
520.20	33.972
520.55	33.242
520.89	33.727
521.23	33.389
521.58	34.463
521.92	33.144
522.26	34.078
522.61	34.722
522.95	34.141
523.29	34.713
523.64	33.576
523.98	34.113
524.32	34.499
524.66	34.092
525.01	34.202
525.35	33.831
525.69	34.107
526.04	33.352
526.38	33.678
526.72	34.660
527.06	33.842
527.41	34.052
527.75	34.561
528.09	34.298
528.43	33.393
528.78	33.699
529.12	33.429
529.46	32.884
529.80	34.382
530.15	33.449
530.49	33.808
530.83	34.534
531.17	34.528
531.51	33.694
531.86	33.654
532.20	34.634
532.54	34.829
532.88	33.879
533.22	33.942
533.57	34.160
533.91	33.838
534.25	33.409
534.59	33.276
534.93	33.673
535.27	33.408
535.62	34.395
535.96	34.340
536.30	34.195
536.64	34.955
536.98	35.670
537.32	33.704
537.66	34.311
538.01	33.233
538.35	33.557
538.69	33.113
539.03	34.764
539.37	33.746
539.71	33.754
540.05	33.993
540.39	32.702
540.73	33.637
541.07	34.641
541.42	33.136
541.76	33.096
542.10	33.052
542.44	33.313
542.78	33.698
543.12	33.552
543.46	34.066
543.80	32.974
544.14	33.094
544.48	32.742
544.82	33.333
545.16	32.976
545.50	32.714
545.84	32.823
546.18	34.568
546.52	35.096
546.86	33.522
547.20	33.461
547.54	33.645
547.88	33.153
548.22	33.158
548.56	32.885
548.90	33.075
549.24	33.009
549.58	33.817
549.92	33.546
550.26	34.628
550.60	34.780
550.94	34.023
551.28	32.937
551.62	33.491
551.96	32.751
552.30	34.034
552.64	32.545
552.98	33.063
553.32	34.019
553.66	33.698
554.00	33.796
554.34	33.591
554.68	33.441
555.02	32.326
555.36	34.977
555.69	33.953
556.03	33.417
556.37	33.479
556.71	33.608
557.05	33.994
557.39	34.240
557.73	33.620
558.07	33.113
558.41	32.425
558.75	33.942
559.08	33.820
559.42	33.333
559.76	33.311
560.10	33.222
560.44	32.916
560.78	33.125
561.12	32.697
561.45	33.942
561.79	33.333
562.13	33.087
562.47	33.107
562.81	32.405
563.15	33.081
563.48	33.313
563.82	32.225
564.16	31.435
564.50	32.837
564.84	32.330
565.17	32.000
565.51	31.070
565.85	32.067
566.19	31.567
566.52	33.879
566.86	32.145
567.20	31.920
567.54	31.121
567.88	31.702
568.21	31.522
568.55	31.367
568.89	30.458
569.23	31.390
569.56	29.152
569.90	29.259
570.24	29.410
570.57	29.057
570.91	28.353
571.25	28.869
571.59	28.890
571.92	28.465
572.26	28.692
572.60	28.856
572.93	28.945
573.27	28.772
573.61	28.666
573.95	28.162
574.28	28.615
574.62	27.854
574.96	27.614
575.29	27.870
575.63	27.836
575.97	27.928
576.30	28.226
576.64	27.917
576.98	27.677
577.31	27.683
577.65	27.652
577.98	27.127
578.32	27.137
578.66	27.346
578.99	27.381
579.33	28.301
579.67	27.629
580.00	27.669
580.34	27.552
580.67	27.273
581.01	27.780
581.35	27.313
581.68	26.832
582.02	26.107
582.35	27.327
582.69	27.386
583.02	27.453
583.36	27.439
583.70	27.880
584.03	27.790
584.37	28.215
584.70	27.946
585.04	26.924
585.37	27.331
585.71	27.292
586.04	27.433
586.38	27.623
586.72	27.024
587.05	27.501
587.39	27.774
587.72	27.799
588.06	27.224
588.39	27.458
588.73	27.275
589.06	27.398
589.40	28.457
589.73	28.021
590.07	29.012
590.40	28.465
590.73	27.819
591.07	28.593
591.40	29.160
591.74	27.981
592.07	28.299
592.41	28.509
592.74	27.263
593.08	27.771
593.41	27.880
593.75	26.782
594.08	27.749
594.41	27.821
594.75	27.400
595.08	27.894
595.42	27.662
595.75	27.737
596.09	28.160
596.42	27.804
596.75	29.101
597.09	28.121
597.42	28.645
597.75	28.185
598.09	28.135
598.42	28.951
598.76	27.436
599.09	26.735
599.42	26.785
599.76	27.006
600.09	27.694
600.42	27.461
600.76	26.849
601.09	27.680
601.42	27.188
601.76	27.310
602.09	27.127
602.42	27.481
602.76	27.749
603.09	27.680
603.42	27.457
603.76	26.850
604.09	27.963
604.42	27.633
604.76	26.903
605.09	27.962
605.42	27.791
605.75	27.192
606.09	27.660
606.42	26.341
606.75	27.024
607.09	27.151
607.42	27.091
607.75	27.354
608.08	27.506
608.42	27.529
608.75	27.902
609.08	27.759
609.41	28.099
609.75	28.304
610.08	27.573
610.41	26.551
610.74	27.437
611.07	27.531
611.41	28.161
611.74	28.360
612.07	27.489
612.40	27.994
612.73	27.922
613.07	27.286
613.40	27.815
613.73	27.106
614.06	27.478
614.39	27.600
614.72	26.977
615.06	27.575
615.39	27.356
615.72	27.014
616.05	27.295
616.38	28.002
616.71	28.213
617.05	26.944
617.38	28.357
617.71	28.132
618.04	27.685
618.37	29.126
618.70	28.281
619.03	28.196
619.36	28.298
619.69	28.507
620.03	27.684
620.36	28.834
620.69	28.501
621.02	29.462
621.35	30.189
621.68	30.224
622.01	28.683
622.34	29.010
622.67	29.278
623.00	28.138
623.33	28.865
623.66	28.664
623.99	27.716
624.32	29.630
624.65	28.121
624.99	29.259
625.32	28.805
625.65	29.400
625.98	28.475
626.31	28.774
626.64	29.744
626.97	28.132
627.30	29.233
627.63	28.807
627.96	30.556
628.29	28.872
628.62	29.555
628.95	30.938
629.28	29.907
629.61	30.471
629.94	27.197
630.26	28.983
630.59	29.965
630.92	29.004
631.25	30.501
631.58	31.168
631.91	30.647
632.24	30.067
632.57	29.886
632.90	31.394
633.23	31.327
633.56	30.204
633.89	29.545
634.22	30.769
634.55	30.585
634.88	31.494
635.20	31.324
635.53	33.446
635.86	32.286
636.19	31.283
636.52	31.646
636.85	30.644
637.18	31.393
637.51	31.183
637.83	33.112
638.16	31.452
638.49	31.925
638.82	31.342
639.15	31.501
639.48	30.716
639.81	31.293
640.13	32.391
640.46	30.788
640.79	31.618
641.12	31.677
641.45	31.995
641.77	34.275
642.10	31.759
642.43	33.112
642.76	33.062
643.09	32.466
643.41	32.493
643.74	32.690
644.07	34.207
644.40	33.522
644.73	32.221
645.05	33.480
645.38	33.525
645.71	32.845
646.04	34.290
646.36	31.825
646.69	32.362
647.02	34.098
647.35	34.809
647.67	32.045
648.00	33.280
648.33	31.682
648.66	30.956
648.98	31.020
649.31	31.529
649.64	31.607
649.96	29.443
650.29	29.207
650.62	32.532
650.94	33.033
651.27	30.240
651.60	31.579
651.92	31.003
652.25	32.706
652.58	31.224
652.90	30.669
653.23	32.113
653.56	30.528
653.88	32.163
654.21	30.000
654.54	32.081
654.86	31.020
655.19	29.611
655.52	26.496
655.84	19.060
656.17	23.853
656.49	34.080
656.82	39.323
657.15	31.625
657.47	24.468
657.80	18.304
658.13	14.833
658.45	20.297
658.78	25.376
659.10	25.644
659.43	26.421
659.75	26.469
660.08	28.852
660.41	29.280
660.73	31.015
661.06	30.396
661.38	31.100
661.71	32.931
662.03	32.804
662.36	32.558
662.68	33.583
663.01	32.566
663.33	32.892
663.66	33.150
663.98	33.462
664.31	34.522
664.63	31.985
664.96	35.027
665.28	30.853
665.61	32.867
665.93	34.107
666.26	32.616
666.58	29.520
666.91	34.579
667.23	35.048
667.56	35.503
667.88	37.200
668.21	32.812
668.53	29.537
668.86	34.185
669.18	32.587
669.50	33.797
669.83	31.400
670.15	30.709
670.48	34.127
670.80	30.784
671.13	30.624
671.45	34.646
671.77	33.898
672.10	30.833
672.42	31.068
672.75	29.493
673.07	30.000
673.39	29.122
673.72	31.376
674.04	31.897
674.37	32.021
674.69	32.099
675.01	29.143
675.34	33.015
675.66	32.210
675.98	32.276
676.31	31.836
676.63	32.129
676.95	32.567
677.28	33.065
677.60	31.102
677.92	32.630
678.25	31.444
678.57	33.808
678.89	31.570
679.22	30.662
679.54	30.427
679.86	27.458
680.18	29.685
680.51	30.975
680.83	29.133
681.15	30.172
681.48	31.088
681.80	31.088
682.12	30.769
682.44	28.381
682.77	30.674
683.09	29.735
683.41	31.783
683.73	31.689
684.06	30.074
684.38	29.875
684.70	31.777
685.02	30.293
685.34	29.285
685.67	27.918
685.99	26.534
686.31	27.180
686.63	28.278
686.96	28.707
687.28	31.107
687.60	28.956
687.92	29.260
688.24	30.384
688.56	29.483
688.89	29.946
689.21	32.485
689.53	31.176
689.85	29.191
690.17	29.815
690.49	28.685
690.82	29.505
691.14	30.769
691.46	31.166
691.78	31.123
692.10	29.174
692.42	29.286
692.74	26.679
693.06	28.333
693.39	29.412
693.71	28.759
694.03	30.297
694.35	28.381
694.67	31.622
694.99	33.191
695.31	31.126
695.63	33.117
695.95	31.677
696.27	29.670
696.59	31.195
696.91	33.333
697.23	30.989
697.56	30.754
697.88	27.273
698.20	29.379
698.52	32.576
698.84	30.146
699.16	29.592
699.48	30.335
699.80	30.213
700.12	28.384
700.44	29.954
700.76	32.304
701.08	30.508
701.40	30.570
701.72	35.572
702.04	35.294
702.36	29.843
702.68	31.540
703.00	28.362
703.32	31.034
703.64	33.007
703.96	31.504
704.28	31.450
704.60	31.646
704.91	30.357
705.23	32.877
705.55	30.919
705.87	36.061
706.19	36.503
706.51	36.145
706.83	34.294
707.15	32.804
707.47	28.738
707.79	29.476
708.11	27.754
708.43	27.312
708.74	28.125
709.06	28.538
709.38	30.282
709.70	33.747
710.02	31.008
710.34	28.191
710.66	28.492
710.98	32.787
711.29	29.121
711.61	32.486
711.93	32.194
712.25	35.405
712.57	30.678
712.89	33.529
713.20	30.473
713.52	31.792
713.84	31.198
714.16	28.947
714.48	33.247
714.80	31.948
715.11	30.446
715.43	30.504
715.75	31.842
716.07	32.597
716.39	34.153
716.70	31.627
717.02	34.098
717.34	31.707
717.66	32.550
717.97	32.192
718.29	33.333
718.61	33.224
718.93	32.686
719.24	33.540
719.56	31.902
719.88	28.228
720.20	29.355
720.51	30.435
720.83	31.563
721.15	28.289
721.46	29.110
721.78	33.000
722.10	29.450
722.42	29.195
722.73	28.710
723.05	32.982
723.37	31.597
723.68	36.559
724.00	31.408
724.32	30.282
724.63	31.119
724.95	35.106
725.27	33.101
725.58	28.975
725.90	37.241
726.22	31.034
726.53	33.442
726.85	33.333
727.16	31.118
727.48	33.028
727.80	32.119
728.11	31.449
728.43	36.027
728.74	32.441
729.06	28.477
729.38	30.844
729.69	32.550
730.01	28.571
730.32	28.182
730.64	30.818
730.96	26.087
731.27	30.168
731.59	29.396
731.90	26.753
732.22	24.740
732.53	27.348
732.85	28.571
733.16	28.739
733.48	28.354
733.80	26.741
734.11	28.775
734.43	26.216
734.74	31.646
735.06	27.387
735.37	28.919
735.69	32.973
736.00	30.226
736.32	28.571
736.63	28.056
736.95	28.736
737.26	31.212
737.58	24.545
737.89	28.529
738.21	25.994
738.52	28.525
738.83	29.693
739.15	30.851
739.46	32.653
739.78	32.822
740.09	25.501
740.41	30.612
740.72	29.000
741.04	33.010
741.35	29.825
741.66	30.196
741.98	34.016
742.29	32.636
742.61	35.965
742.92	33.077
743.23	31.769
743.55	32.171
743.86	34.800
744.18	29.339
744.49	32.489
744.80	31.276
745.12	35.865
745.43	34.553
745.74	29.310
746.06	33.898
746.37	33.333
746.68	36.992
747.00	28.333
747.31	30.901
747.62	31.923
747.94	29.150
748.25	33.333
748.56	28.980
748.88	30.342
749.19	38.793
749.50	29.004
749.82	34.137
750.13	30.961
750.44	28.667
750.75	27.692
751.07	30.462
751.38	32.808
751.69	26.837
752.01	24.919
752.32	29.085
752.63	31.973
752.94	29.758
753.26	27.509
753.57	25.926
753.88	26.592
754.19	30.225
754.51	26.688
754.82	28.296
755.13	29.836
755.44	29.693
755.75	29.934
756.07	28.358
756.38	26.101
756.69	29.819
757.00	24.100
757.31	24.863
757.63	23.274
757.94	25.352
758.25	25.282
758.56	25.926
758.87	28.182
759.18	28.000
759.50	30.312
759.81	32.213
760.12	27.763
760.43	26.562
760.74	26.355
761.05	23.500
761.36	23.614
761.67	25.888
761.99	27.297
762.30	26.524
762.61	25.413
762.92	30.224
763.23	30.712
763.54	25.180
763.85	24.742
764.16	28.283
764.47	27.817
764.78	27.476
765.10	24.927
765.41	27.179
765.72	24.074
766.03	25.424
766.34	23.824
766.65	28.223
766.96	30.677
767.27	28.111
767.58	32.338
767.89	35.577
768.20	36.150
768.51	31.944
768.82	28.916
769.13	28.409
769.44	24.231
769.75	32.491
770.06	30.769
770.37	32.677
770.68	25.957
770.99	23.887
771.30	34.444
771.61	31.939
771.92	28.519
772.23	30.364
772.54	24.537
772.85	40.092
773.16	31.905
773.47	31.217
773.78	23.243
774.09	39.773
774.39	38.500
774.70	37.705
775.01	31.707
775.32	32.941
775.63	39.877
775.94	31.210
776.25	36.774
776.56	41.026
776.87	35.374
777.18	35.862
777.48	27.972
777.79	31.757
778.10	36.029
778.41	35.417
778.72	33.103
779.03	31.481
779.34	34.545
779.65	31.088
779.95	35.556
780.26	27.841
780.57	34.839
780.88	35.507
781.19	38.065
781.50	39.412
781.80	30.108
782.11	33.333
782.42	24.242
782.73	33.533
783.04	31.285
783.34	28.485
783.65	32.026
783.96	32.919
784.27	31.548
784.57	33.113
784.88	35.714
785.19	35.433
785.50	44.882
785.81	42.857
786.11	40.000
786.42	25.899
786.73	41.727
787.04	44.361
787.34	48.361
787.65	37.600
787.96	35.821
788.26	39.860
788.57	39.161
788.88	34.211
789.19	35.948
789.49	31.507
789.80	36.879
790.11	37.008
790.41	42.969
790.72	31.356
791.03	36.893
791.33	34.783
791.64	43.860
791.95	31.250
792.25	37.143
792.56	39.286
792.87	45.833
793.17	33.036
793.48	42.708
793.79	34.940
794.09	32.110
794.40	29.358
794.70	31.973
795.01	28.571
795.32	32.192
795.62	33.803
795.93	34.091
796.23	38.525
796.54	33.036
796.85	41.489
797.15	35.870
797.46	42.466
797.76	46.250
798.07	40.217
798.37	26.804
798.68	35.065
798.99	40.230
799.29	49.438
799.60	35.106
799.90	44.578
800.21	44.615
800.51	44.776
800.82	48.529
801.12	32.877
801.43	39.706
801.73	47.458
802.04	46.970
802.34	36.667
802.65	55.932
802.95	55.224
803.26	45.763
803.56	45.205
803.87	50.000
804.17	53.425
804.48	17.544
804.78	37.500
805.09	51.724
805.39	50.000
805.70	26.761
806.00	39.024
806.30	37.349
806.61	52.055
806.91	39.423
807.22	43.333
807.52	28.736
807.83	38.889
808.13	53.012
808.43	35.955
808.74	43.750
809.04	38.235
809.35	49.333
809.65	44.286
809.95	39.726
810.26	43.860
810.56	50.000
810.86	54.412
811.17	52.632
811.47	37.705
811.77	42.222
812.08	50.847
812.38	60.000
812.69	60.345
812.99	62.264
813.29	30.769
813.59	38.000
813.90	71.930
814.20	43.636
814.50	63.380
814.81	28.205
815.11	49.180
815.41	47.761
815.72	67.241
816.02	62.500
816.32	84.444
816.62	100.000
816.93	46.667
817.23	74.074
817.53	78.723
817.84	71.429
818.14	94.118
818.44	71.429
818.74	53.333
819.04	43.590
819.35	62.857
819.65	46.154
819.95	67.925
820.25	80.000
820.56	64.286
820.86	71.875
821.16	51.282
821.46	27.907
821.76	52.000
822.07	46.429
822.37	36.957
822.67	36.170
822.97	56.757
823.27	80.000
823.57	81.633
823.88	77.778
824.18	77.500
824.48	70.000
824.78	120.000
825.08	87.879
825.38	68.889
825.69	57.447
825.99	38.889
826.29	42.857
826.59	66.667
826.89	46.512
827.19	48.000
827.49	88.235
827.79	62.500
828.09	70.270
828.39	63.333
828.70	70.732
829.00	60.465
829.30	71.429
829.60	73.529
829.90	60.870
830.20	82.857
830.50	55.172
830.80	127.778
831.10	88.462
831.40	70.588
831.70	114.286
832.00	109.677
832.30	82.353
832.60	66.667
832.90	92.308
833.20	84.211
833.50	55.000
833.80	110.526
834.10	66.667
834.40	77.778
834.70	93.750
835.00	51.429
835.30	108.824
835.60	73.333
835.90	112.000
836.20	31.818
836.50	72.000
836.80	48.485
837.10	125.926
837.40	96.296
837.70	93.750
838.00	103.571
838.30	65.217
838.60	96.552
838.90	142.857
839.19	56.522
839.49	133.333
839.79	100.000
840.09	106.250
840.39	95.000
840.69	112.903
840.99	85.714
841.29	160.000
841.59	110.526
841.88	71.795
842.18	73.077
842.48	110.000
842.78	115.000
843.08	93.333
843.38	64.516
843.68	111.111
843.97	94.118
844.27	106.250
844.57	152.632
844.87	100.000
845.17	100.000
845.47	128.571
845.76	90.476
846.06	222.222
846.36	123.529
846.66	100.000
846.96	66.667
847.25	111.765
847.55	91.304
847.85	115.000
848.15	123.529
848.44	154.545
848.74	100.000
849.04	95.833
849.34	125.000
849.63	117.391
849.93	-1150.000
850.23	113.333
850.53	92.308
850.82	200.000
851.12	81.818
851.42	172.727
851.71	215.385
852.01	95.000
852.31	138.462
852.61	94.737
852.90	125.000
853.20	144.444
853.50	177.778
853.79	52.381
854.09	68.182
854.39	83.333
854.68	74.194
854.98	73.077
855.28	116.667
855.57	67.857
855.87	64.000
856.17	104.545
856.46	114.815
856.76	116.667
857.05	69.565
857.35	50.000
857.65	92.308
857.94	157.143
858.24	133.333
858.53	91.304
858.83	88.235
859.13	105.882
859.42	152.941
859.72	164.286
860.01	145.000
860.31	255.556
860.60	260.000
860.90	146.667
861.20	133.333
861.49	138.462
861.79	73.333
862.08	146.154
862.38	96.875
862.67	152.941
862.97	112.500
863.26	111.111
863.56	290.000
863.85	118.182
864.15	122.222
864.44	733.333
864.74	164.286
865.03	93.750
865.33	90.000
865.62	74.194
865.92	90.909
866.21	126.087
866.51	150.000
866.80	240.000
867.10	191.667
867.39	-8.333
867.69	-300.000
867.98	257.143
868.27	129.412
868.57	500.000
868.86	210.000
869.16	42.857
869.45	104.167
869.75	200.000
870.04	200.000
870.33	200.000
870.63	185.714
870.92	375.000
871.22	162.500
871.51	154.545
871.80	266.667
872.10	750.000
>>>>>End Processed Spectral Data<<<<<
