SpectraSuite Data File
++++++++++++++++++++++++++++++++++++
Date: Thu May 14 14:45:34 PDT 2015
User: schluterlab
Dark Spectrum Present: Yes
Reference Spectrum Present: Yes
Number of Sampled Component Spectra: 1
Spectrometers: USB2E3373
Integration Time (usec): 3000 (USB2E3373)
Spectra Averaged: 3 (USB2E3373)
Boxcar Smoothing: 0 (USB2E3373)
Correct for Electrical Dark: No (USB2E3373)
Strobe/Lamp Enabled: No (USB2E3373)
Correct for Detector Non-linearity: No (USB2E3373)
Correct for Stray Light: No (USB2E3373)
Number of Pixels in Processed Spectrum: 2048
>>>>>Begin Processed Spectral Data<<<<<
178.53	0.000
178.91	42.857
179.29	-600.000
179.67	-500.000
180.04	128.571
180.42	70.000
180.80	120.000
181.18	600.000
181.56	1500.000
181.94	50.000
182.31	-150.000
182.69	66.667
183.07	50.000
183.45	-0.000
183.83	-33.333
184.20	-133.333
184.58	400.000
184.96	-125.000
185.34	77.778
185.72	220.000
186.09	55.556
186.47	450.000
186.85	300.000
187.23	-122.222
187.61	-900.000
187.98	80.000
188.36	-100.000
188.74	-150.000
189.12	33.333
189.49	50.000
189.87	87.500
190.25	44.444
190.63	80.000
191.00	-66.667
191.38	0.000
191.76	-50.000
192.14	33.333
192.51	-100.000
192.89	66.667
193.27	0.000
193.65	42.857
194.02	-500.000
194.40	114.286
194.78	57.143
195.15	0.000
195.53	81.818
195.91	0.000
196.29	-175.000
196.66	-15.385
197.04	-800.000
197.42	28.571
197.79	-450.000
198.17	50.000
198.55	-85.714
198.92	66.667
199.30	-12.500
199.68	9.091
200.05	-7.143
200.43	-500.000
200.81	28.571
201.18	0.000
201.56	77.778
201.94	0.000
202.31	400.000
202.69	-122.222
203.07	-200.000
203.44	-11.111
203.82	125.000
204.19	8.333
204.57	33.333
204.95	-25.000
205.32	-500.000
205.70	25.000
206.08	16.667
206.45	66.667
206.83	200.000
207.20	0.000
207.58	-220.000
207.96	33.333
208.33	150.000
208.71	25.000
209.08	83.333
209.46	0.000
209.84	83.333
210.21	350.000
210.59	50.000
210.96	300.000
211.34	100.000
211.71	25.000
212.09	-700.000
212.46	0.000
212.84	350.000
213.22	-100.000
213.59	225.000
213.97	40.000
214.34	-33.333
214.72	50.000
215.09	-250.000
215.47	0.000
215.84	42.857
216.22	500.000
216.59	-40.000
216.97	-40.000
217.34	-300.000
217.72	-37.500
218.09	-225.000
218.47	-100.000
218.84	0.000
219.22	20.000
219.59	-35.294
219.97	30.000
220.34	-300.000
220.72	77.778
221.09	161.538
221.47	0.000
221.84	30.000
222.22	-42.857
222.59	0.000
222.97	137.500
223.34	-40.000
223.72	-600.000
224.09	-50.000
224.46	-75.000
224.84	40.000
225.21	42.857
225.59	-75.000
225.96	125.000
226.34	38.462
226.71	166.667
227.08	350.000
227.46	33.333
227.83	125.000
228.21	68.421
228.58	12.500
228.95	200.000
229.33	33.333
229.70	10.000
230.08	63.158
230.45	-30.000
230.82	166.667
231.20	-14.286
231.57	8.333
231.95	45.455
232.32	-9.091
232.69	15.000
233.07	125.000
233.44	-41.176
233.81	-70.000
234.19	66.667
234.56	-27.273
234.93	17.241
235.31	52.632
235.68	11.111
236.05	-20.000
236.43	0.000
236.80	48.000
237.17	3.704
237.55	45.455
237.92	30.000
238.29	16.129
238.67	20.455
239.04	27.778
239.41	-14.286
239.79	4.348
240.16	3.704
240.53	-8.696
240.91	7.843
241.28	6.557
241.65	17.910
242.02	20.270
242.40	18.462
242.77	16.000
243.14	8.537
243.51	10.526
243.89	5.128
244.26	14.851
244.63	21.569
245.00	22.430
245.38	15.789
245.75	-7.965
246.12	22.222
246.49	13.953
246.87	22.143
247.24	15.894
247.61	10.526
247.98	8.725
248.36	16.667
248.73	12.883
249.10	10.929
249.47	15.423
249.84	17.277
250.22	10.881
250.59	17.222
250.96	17.273
251.33	11.735
251.70	14.530
252.08	12.083
252.45	13.115
252.82	12.810
253.19	10.547
253.56	15.209
253.94	12.308
254.31	14.394
254.68	17.483
255.05	18.567
255.42	14.626
255.79	14.239
256.16	13.576
256.54	14.570
256.91	12.787
257.28	13.770
257.65	7.962
258.02	10.914
258.39	13.390
258.76	18.043
259.14	18.391
259.51	14.121
259.88	10.482
260.25	13.611
260.62	15.068
260.99	10.929
261.36	14.477
261.73	12.202
262.10	14.560
262.47	13.405
262.85	14.394
263.22	14.026
263.59	10.789
263.96	13.043
264.33	14.578
264.70	14.321
265.07	14.081
265.44	17.007
265.81	13.426
266.18	14.059
266.55	12.946
266.92	12.528
267.29	15.536
267.66	14.634
268.03	14.629
268.40	13.570
268.77	11.390
269.14	11.674
269.51	10.965
269.88	17.623
270.25	14.688
270.62	13.924
270.99	15.354
271.36	16.238
271.73	13.556
272.10	14.228
272.47	13.828
272.84	12.249
273.21	15.631
273.58	14.516
273.95	14.231
274.32	12.357
274.69	11.219
275.06	14.286
275.43	12.939
275.80	16.578
276.17	12.222
276.54	12.500
276.91	12.165
277.28	14.467
277.65	14.363
278.02	13.603
278.39	11.957
278.76	14.060
279.13	13.475
279.50	14.089
279.87	14.490
280.23	10.387
280.60	12.712
280.97	13.651
281.34	11.545
281.71	16.074
282.08	14.120
282.45	13.912
282.82	11.617
283.19	11.632
283.56	11.475
283.92	14.114
284.29	13.744
284.66	13.629
285.03	10.417
285.40	13.138
285.77	12.384
286.14	14.046
286.51	12.785
286.87	10.742
287.24	13.102
287.61	12.556
287.98	10.423
288.35	13.018
288.72	11.982
289.08	13.763
289.45	12.278
289.82	12.801
290.19	11.638
290.56	13.380
290.93	12.553
291.29	11.846
291.66	11.433
292.03	10.991
292.40	12.245
292.77	11.186
293.13	11.096
293.50	11.432
293.87	10.336
294.24	13.067
294.60	11.757
294.97	9.933
295.34	11.908
295.71	9.584
296.08	10.465
296.44	9.314
296.81	11.084
297.18	9.465
297.55	11.557
297.91	10.558
298.28	9.360
298.65	10.702
299.02	10.744
299.38	11.785
299.75	10.631
300.12	9.491
300.48	11.636
300.85	11.586
301.22	10.403
301.59	10.959
301.95	9.266
302.32	11.444
302.69	9.967
303.05	10.664
303.42	10.754
303.79	10.208
304.15	10.095
304.52	10.359
304.89	10.262
305.25	10.145
305.62	9.613
305.99	10.722
306.35	9.274
306.72	10.445
307.09	9.239
307.45	11.698
307.82	10.898
308.19	11.201
308.55	10.993
308.92	10.029
309.29	11.207
309.65	11.111
310.02	9.406
310.38	10.236
310.75	10.971
311.12	10.738
311.48	10.166
311.85	11.586
312.22	10.436
312.58	10.986
312.95	10.612
313.31	11.743
313.68	12.363
314.05	11.563
314.41	11.749
314.78	10.536
315.14	11.797
315.51	12.004
315.87	12.331
316.24	13.333
316.61	13.499
316.97	13.032
317.34	13.845
317.70	13.799
318.07	14.638
318.43	14.541
318.80	15.050
319.16	13.820
319.53	13.882
319.89	14.198
320.26	13.790
320.62	14.362
320.99	15.235
321.35	15.157
321.72	15.721
322.08	15.509
322.45	15.176
322.81	16.426
323.18	15.398
323.54	16.810
323.91	16.192
324.27	16.523
324.64	17.212
325.00	16.998
325.37	19.165
325.73	17.934
326.10	18.329
326.46	17.915
326.83	19.295
327.19	18.425
327.56	18.893
327.92	18.253
328.29	19.435
328.65	18.258
329.01	19.205
329.38	19.292
329.74	19.949
330.11	21.147
330.47	20.051
330.84	20.758
331.20	22.167
331.56	20.017
331.93	20.586
332.29	21.017
332.66	21.262
333.02	21.524
333.38	19.966
333.75	21.380
334.11	21.935
334.48	22.772
334.84	22.940
335.20	21.159
335.57	22.766
335.93	23.140
336.29	21.298
336.66	21.278
337.02	22.408
337.38	23.980
337.75	21.736
338.11	22.624
338.47	23.077
338.84	22.250
339.20	20.809
339.56	21.252
339.93	22.414
340.29	21.417
340.65	22.222
341.02	23.224
341.38	22.393
341.74	23.325
342.11	22.204
342.47	21.604
342.83	23.671
343.20	22.649
343.56	22.374
343.92	22.498
344.28	22.656
344.65	23.023
345.01	22.075
345.37	23.095
345.73	21.902
346.10	22.855
346.46	22.073
346.82	22.397
347.19	22.995
347.55	22.914
347.91	22.214
348.27	23.141
348.63	22.011
349.00	22.073
349.36	22.230
349.72	22.619
350.08	22.883
350.45	22.890
350.81	21.644
351.17	21.880
351.53	22.062
351.89	23.766
352.26	22.612
352.62	23.209
352.98	23.664
353.34	21.882
353.70	22.804
354.07	23.174
354.43	22.855
354.79	22.812
355.15	23.179
355.51	23.684
355.87	22.364
356.24	21.749
356.60	22.616
356.96	22.239
357.32	22.751
357.68	23.206
358.04	23.428
358.40	22.313
358.77	23.392
359.13	23.191
359.49	21.710
359.85	22.988
360.21	23.027
360.57	23.259
360.93	23.272
361.29	23.860
361.66	23.172
362.02	23.800
362.38	23.823
362.74	23.673
363.10	24.897
363.46	24.100
363.82	22.798
364.18	23.927
364.54	24.481
364.90	23.813
365.26	25.172
365.62	24.400
365.98	24.098
366.35	24.564
366.71	24.354
367.07	24.154
367.43	24.163
367.79	26.078
368.15	25.418
368.51	24.493
368.87	24.233
369.23	25.400
369.59	26.434
369.95	25.085
370.31	23.768
370.67	25.172
371.03	25.000
371.39	23.573
371.75	26.272
372.11	25.745
372.47	25.796
372.83	26.505
373.19	25.617
373.55	25.949
373.91	25.153
374.27	25.485
374.63	27.064
374.99	26.194
375.35	26.169
375.71	25.677
376.07	26.727
376.42	27.771
376.78	27.781
377.14	26.638
377.50	27.388
377.86	27.217
378.22	27.725
378.58	27.646
378.94	28.052
379.30	27.709
379.66	28.042
380.02	28.390
380.38	28.629
380.74	28.394
381.09	28.688
381.45	28.864
381.81	29.625
382.17	29.216
382.53	28.596
382.89	29.063
383.25	30.070
383.61	29.514
383.97	28.504
384.32	29.725
384.68	29.814
385.04	30.480
385.40	30.996
385.76	30.891
386.12	30.760
386.48	30.882
386.83	31.645
387.19	31.344
387.55	31.338
387.91	30.993
388.27	32.506
388.62	31.042
388.98	31.528
389.34	31.821
389.70	31.435
390.06	31.676
390.42	32.470
390.77	32.571
391.13	32.453
391.49	32.971
391.85	33.152
392.20	32.444
392.56	33.196
392.92	32.279
393.28	33.554
393.64	34.022
393.99	33.236
394.35	33.645
394.71	34.192
395.07	33.114
395.42	33.467
395.78	34.186
396.14	33.987
396.50	33.373
396.85	33.274
397.21	34.201
397.57	33.628
397.92	33.162
398.28	32.808
398.64	33.753
399.00	32.827
399.35	32.984
399.71	33.859
400.07	34.475
400.42	33.353
400.78	33.738
401.14	34.092
401.49	34.508
401.85	33.605
402.21	34.299
402.57	34.038
402.92	34.043
403.28	33.021
403.63	34.308
403.99	33.907
404.35	33.542
404.70	33.711
405.06	34.239
405.42	35.539
405.77	35.005
406.13	33.171
406.49	34.797
406.84	35.235
407.20	33.426
407.55	34.040
407.91	34.507
408.27	34.040
408.62	35.311
408.98	34.243
409.34	33.900
409.69	35.352
410.05	34.584
410.40	34.803
410.76	34.997
411.11	35.009
411.47	34.951
411.83	35.097
412.18	34.819
412.54	34.440
412.89	35.041
413.25	35.384
413.60	34.635
413.96	34.615
414.31	34.391
414.67	34.824
415.03	34.585
415.38	35.813
415.74	34.453
416.09	34.978
416.45	34.941
416.80	35.679
417.16	36.079
417.51	35.492
417.87	36.052
418.22	35.749
418.58	35.998
418.93	36.671
419.29	37.300
419.64	36.795
420.00	35.846
420.35	35.935
420.71	35.382
421.06	36.055
421.42	36.525
421.77	35.326
422.12	36.364
422.48	37.122
422.83	36.857
423.19	36.021
423.54	37.832
423.90	36.444
424.25	38.027
424.61	36.280
424.96	37.507
425.31	37.367
425.67	36.769
426.02	38.129
426.38	38.232
426.73	38.393
427.09	38.754
427.44	38.558
427.79	37.756
428.15	38.413
428.50	38.596
428.85	38.462
429.21	39.840
429.56	37.660
429.92	38.428
430.27	38.940
430.62	38.691
430.98	38.564
431.33	39.150
431.68	39.703
432.04	39.512
432.39	39.904
432.74	39.041
433.10	40.400
433.45	39.911
433.80	40.075
434.16	40.599
434.51	40.699
434.86	41.151
435.22	40.914
435.57	41.392
435.92	40.957
436.28	41.126
436.63	41.180
436.98	40.150
437.34	40.248
437.69	40.892
438.04	40.349
438.39	41.356
438.75	41.505
439.10	41.385
439.45	41.532
439.81	40.847
440.16	40.912
440.51	41.137
440.86	41.634
441.22	42.444
441.57	42.662
441.92	41.804
442.27	43.182
442.63	41.927
442.98	41.676
443.33	42.031
443.68	42.815
444.03	43.039
444.39	43.366
444.74	43.543
445.09	42.372
445.44	43.467
445.79	43.056
446.15	42.549
446.50	43.152
446.85	42.607
447.20	43.037
447.55	44.038
447.91	43.665
448.26	42.759
448.61	43.996
448.96	44.152
449.31	43.425
449.66	42.429
450.02	43.724
450.37	44.006
450.72	44.133
451.07	43.451
451.42	44.483
451.77	43.302
452.12	44.244
452.47	43.553
452.83	45.946
453.18	44.367
453.53	43.423
453.88	44.230
454.23	44.124
454.58	44.399
454.93	44.539
455.28	45.996
455.63	44.571
455.98	45.978
456.34	42.108
456.69	44.150
457.04	44.149
457.39	44.512
457.74	45.134
458.09	44.426
458.44	44.558
458.79	43.785
459.14	44.887
459.49	45.444
459.84	44.281
460.19	44.975
460.54	45.769
460.89	46.744
461.24	44.943
461.59	45.766
461.94	44.210
462.29	45.241
462.64	45.323
462.99	45.449
463.34	46.593
463.69	45.487
464.04	46.248
464.39	45.067
464.74	44.983
465.09	46.251
465.44	45.655
465.79	45.690
466.14	44.190
466.49	45.789
466.84	45.179
467.19	45.896
467.54	44.830
467.89	45.690
468.24	45.762
468.59	45.165
468.94	46.096
469.29	44.751
469.64	45.645
469.99	45.825
470.34	45.978
470.68	46.685
471.03	45.842
471.38	45.455
471.73	46.359
472.08	46.129
472.43	45.154
472.78	44.773
473.13	46.271
473.48	46.284
473.83	45.850
474.17	45.135
474.52	46.542
474.87	45.515
475.22	47.042
475.57	46.521
475.92	45.495
476.27	46.326
476.61	45.950
476.96	46.194
477.31	46.485
477.66	46.747
478.01	46.365
478.36	44.965
478.70	45.468
479.05	46.012
479.40	47.236
479.75	47.310
480.10	47.134
480.45	47.129
480.79	47.438
481.14	45.772
481.49	46.524
481.84	47.346
482.19	46.581
482.53	46.174
482.88	47.231
483.23	48.110
483.58	46.245
483.92	45.301
484.27	46.105
484.62	45.627
484.97	45.995
485.31	45.583
485.66	43.883
486.01	44.155
486.36	45.446
486.70	46.949
487.05	47.861
487.40	46.529
487.75	46.794
488.09	46.999
488.44	45.715
488.79	45.767
489.13	45.836
489.48	46.447
489.83	44.869
490.17	46.092
490.52	45.690
490.87	45.093
491.22	46.360
491.56	45.435
491.91	46.010
492.26	46.387
492.60	46.218
492.95	46.073
493.30	45.809
493.64	47.043
493.99	45.746
494.34	45.514
494.68	45.996
495.03	46.079
495.37	46.516
495.72	47.075
496.07	46.538
496.41	45.860
496.76	46.664
497.11	47.049
497.45	47.216
497.80	47.268
498.14	47.438
498.49	46.829
498.84	46.664
499.18	47.368
499.53	47.758
499.87	47.956
500.22	45.993
500.56	46.784
500.91	47.963
501.26	47.773
501.60	46.620
501.95	47.373
502.29	47.477
502.64	46.786
502.98	47.627
503.33	47.430
503.67	46.010
504.02	47.023
504.36	47.274
504.71	47.818
505.06	46.930
505.40	47.395
505.75	46.175
506.09	47.376
506.44	48.004
506.78	47.661
507.13	47.948
507.47	47.703
507.82	47.254
508.16	46.750
508.51	46.976
508.85	47.945
509.19	48.745
509.54	48.559
509.88	48.470
510.23	49.102
510.57	49.154
510.92	48.428
511.26	48.100
511.61	47.320
511.95	47.926
512.30	47.809
512.64	48.776
512.98	48.674
513.33	48.337
513.67	48.700
514.02	48.850
514.36	48.338
514.70	49.479
515.05	48.540
515.39	49.029
515.74	49.417
516.08	49.023
516.42	49.294
516.77	48.686
517.11	48.427
517.46	49.894
517.80	50.134
518.14	49.510
518.49	49.132
518.83	49.175
519.17	48.896
519.52	49.161
519.86	49.736
520.20	49.148
520.55	49.452
520.89	49.606
521.23	49.581
521.58	51.130
521.92	49.632
522.26	49.542
522.61	49.826
522.95	49.423
523.29	48.793
523.64	49.271
523.98	50.200
524.32	52.493
524.66	50.541
525.01	49.094
525.35	50.029
525.69	50.174
526.04	48.622
526.38	49.885
526.72	48.789
527.06	51.378
527.41	49.971
527.75	49.822
528.09	50.767
528.43	50.266
528.78	49.422
529.12	50.057
529.46	49.466
529.80	50.114
530.15	50.087
530.49	51.186
530.83	50.945
531.17	50.358
531.51	50.662
531.86	50.361
532.20	49.573
532.54	50.269
532.88	50.606
533.22	49.499
533.57	49.336
533.91	50.000
534.25	49.689
534.59	51.034
534.93	49.576
535.27	50.028
535.62	50.426
535.96	51.191
536.30	48.590
536.64	50.811
536.98	50.677
537.32	50.370
537.66	52.901
538.01	50.453
538.35	50.061
538.69	51.082
539.03	50.460
539.37	49.234
539.71	48.829
540.05	50.360
540.39	49.694
540.73	48.998
541.07	49.356
541.42	49.262
541.76	48.043
542.10	51.508
542.44	49.574
542.78	49.635
543.12	49.642
543.46	50.794
543.80	49.700
544.14	49.850
544.48	50.709
544.82	49.431
545.16	50.924
545.50	49.670
545.84	49.847
546.18	50.741
546.52	49.745
546.86	51.006
547.20	50.064
547.54	49.688
547.88	48.644
548.22	48.304
548.56	50.263
548.90	50.567
549.24	51.611
549.58	50.158
549.92	49.235
550.26	50.485
550.60	49.649
550.94	51.423
551.28	49.307
551.62	51.146
551.96	50.032
552.30	50.988
552.64	51.027
552.98	51.279
553.32	52.026
553.66	51.254
554.00	50.252
554.34	51.223
554.68	49.709
555.02	51.248
555.36	52.202
555.69	49.520
556.03	50.063
556.37	50.751
556.71	50.793
557.05	49.712
557.39	51.228
557.73	50.594
558.07	51.126
558.41	51.096
558.75	51.454
559.08	50.870
559.42	49.726
559.76	50.407
560.10	50.569
560.44	51.121
560.78	50.937
561.12	51.170
561.45	50.791
561.79	51.343
562.13	50.647
562.47	50.432
562.81	50.570
563.15	51.705
563.48	51.958
563.82	52.056
564.16	50.454
564.50	50.000
564.84	49.735
565.17	49.882
565.51	49.827
565.85	50.831
566.19	49.309
566.52	51.785
566.86	49.576
567.20	49.864
567.54	50.133
567.88	50.153
568.21	50.840
568.55	50.264
568.89	50.840
569.23	50.148
569.56	49.863
569.90	49.644
570.24	49.916
570.57	49.679
570.91	49.418
571.25	48.944
571.59	49.652
571.92	49.147
572.26	49.285
572.60	48.922
572.93	48.901
573.27	48.356
573.61	47.935
573.95	48.288
574.28	48.073
574.62	48.704
574.96	48.390
575.29	47.544
575.63	48.418
575.97	48.551
576.30	47.792
576.64	48.533
576.98	48.314
577.31	48.379
577.65	48.617
577.98	48.682
578.32	48.263
578.66	48.153
578.99	48.249
579.33	48.310
579.67	48.391
580.00	47.561
580.34	48.233
580.67	48.080
581.01	48.399
581.35	48.062
581.68	48.571
582.02	47.704
582.35	49.129
582.69	48.717
583.02	49.000
583.36	49.271
583.70	48.648
584.03	48.644
584.37	48.753
584.70	47.922
585.04	47.919
585.37	48.122
585.71	48.759
586.04	48.833
586.38	49.025
586.72	48.609
587.05	49.066
587.39	49.090
587.72	49.450
588.06	49.226
588.39	49.241
588.73	48.254
589.06	49.153
589.40	49.939
589.73	49.936
590.07	49.768
590.40	50.879
590.73	50.336
591.07	49.814
591.40	49.495
591.74	49.801
592.07	49.695
592.41	49.842
592.74	48.846
593.08	49.650
593.41	49.606
593.75	49.943
594.08	50.621
594.41	50.481
594.75	50.183
595.08	50.404
595.42	49.448
595.75	49.500
596.09	50.593
596.42	51.129
596.75	49.556
597.09	50.545
597.42	50.536
597.75	49.784
598.09	49.762
598.42	50.181
598.76	49.522
599.09	49.519
599.42	48.609
599.76	49.389
600.09	49.683
600.42	48.815
600.76	49.604
601.09	49.021
601.42	50.051
601.76	49.448
602.09	49.321
602.42	48.310
602.76	49.483
603.09	49.156
603.42	50.072
603.76	49.859
604.09	50.958
604.42	49.358
604.76	49.239
605.09	48.983
605.42	49.880
605.75	49.500
606.09	49.757
606.42	48.632
606.75	49.325
607.09	48.080
607.42	49.210
607.75	49.902
608.08	48.934
608.42	49.335
608.75	50.124
609.08	48.684
609.41	49.272
609.75	49.063
610.08	50.484
610.41	48.895
610.74	49.454
611.07	50.000
611.41	49.731
611.74	50.762
612.07	49.743
612.40	50.000
612.73	50.171
613.07	50.024
613.40	50.144
613.73	49.543
614.06	49.460
614.39	48.931
614.72	50.218
615.06	48.556
615.39	49.058
615.72	49.147
616.05	49.636
616.38	49.647
616.71	50.157
617.05	50.266
617.38	50.508
617.71	50.216
618.04	50.081
618.37	49.836
618.70	50.000
619.03	49.821
619.36	50.062
619.69	51.185
620.03	50.596
620.36	49.693
620.69	50.093
621.02	49.934
621.35	51.089
621.68	50.325
622.01	50.534
622.34	50.070
622.67	50.103
623.00	49.325
623.33	50.232
623.66	49.935
623.99	50.560
624.32	50.877
624.65	49.614
624.99	50.845
625.32	50.163
625.65	50.573
625.98	50.847
626.31	49.468
626.64	50.623
626.97	49.662
627.30	50.949
627.63	50.188
627.96	50.826
628.29	51.673
628.62	50.966
628.95	52.060
629.28	50.212
629.61	50.758
629.94	50.042
630.26	49.492
630.59	50.518
630.92	50.216
631.25	51.073
631.58	53.390
631.91	51.453
632.24	52.354
632.57	51.803
632.90	50.853
633.23	52.653
633.56	50.000
633.89	50.620
634.22	51.247
634.55	51.461
634.88	51.407
635.20	51.884
635.53	55.028
635.86	51.788
636.19	51.962
636.52	51.899
636.85	49.030
637.18	50.624
637.51	50.538
637.83	52.159
638.16	53.802
638.49	50.704
638.82	51.973
639.15	49.255
639.48	52.540
639.81	50.231
640.13	50.883
640.46	51.152
640.79	50.858
641.12	52.671
641.45	52.949
641.77	53.145
642.10	51.444
642.43	53.457
642.76	52.168
643.09	51.781
643.41	51.961
643.74	51.586
644.07	53.517
644.40	50.495
644.73	50.363
645.05	52.276
645.38	51.942
645.71	50.733
646.04	52.224
646.36	50.949
646.69	52.147
647.02	53.058
647.35	53.893
647.67	54.911
648.00	54.936
648.33	52.252
648.66	52.211
648.98	49.796
649.31	51.556
649.64	52.855
649.96	49.204
650.29	51.878
650.62	50.071
650.94	51.652
651.27	49.102
651.60	50.292
651.92	51.520
652.25	51.375
652.58	51.307
652.90	51.453
653.23	52.113
653.56	50.357
653.88	49.860
654.21	50.704
654.54	50.723
654.86	50.283
655.19	48.432
655.52	47.486
655.84	46.073
656.17	56.697
656.49	78.695
656.82	86.748
657.15	66.899
657.47	50.479
657.80	37.031
658.13	29.031
658.45	37.473
658.78	45.458
659.10	43.958
659.43	43.238
659.75	43.454
660.08	42.297
660.41	43.921
660.73	45.040
661.06	48.311
661.38	50.080
661.71	49.483
662.03	50.617
662.36	52.057
662.68	53.846
663.01	49.912
663.33	53.875
663.66	54.579
663.98	52.115
664.31	49.906
664.63	48.940
664.96	51.906
665.28	47.187
665.61	49.301
665.93	50.536
666.26	51.075
666.58	51.476
666.91	52.523
667.23	50.286
667.56	52.268
667.88	55.600
668.21	47.852
668.53	47.876
668.86	50.098
669.18	52.546
669.50	50.696
669.83	50.600
670.15	51.181
670.48	51.587
670.80	49.904
671.13	50.284
671.45	51.969
671.77	52.542
672.10	47.667
672.42	49.838
672.75	49.002
673.07	48.806
673.39	47.304
673.72	49.832
674.04	51.379
674.37	48.658
674.69	49.030
675.01	50.095
675.34	50.000
675.66	48.315
675.98	47.761
676.31	50.586
676.63	51.521
676.95	48.084
677.28	50.605
677.60	46.850
677.92	47.217
678.25	49.360
678.57	48.221
678.89	50.853
679.22	48.432
679.54	49.231
679.86	48.136
680.18	47.595
680.51	49.057
680.83	48.282
681.15	49.828
681.48	49.914
681.80	49.741
682.12	52.098
682.44	46.578
682.77	48.227
683.09	49.053
683.41	48.643
683.73	49.146
684.06	45.572
684.38	44.902
684.70	47.397
685.02	50.086
685.34	49.584
685.67	47.319
685.99	46.779
686.31	46.076
686.63	48.341
686.96	47.634
687.28	45.114
687.60	49.158
687.92	45.177
688.24	48.080
688.56	46.552
688.89	47.550
689.21	48.337
689.53	45.294
689.85	48.718
690.17	45.370
690.49	49.801
690.82	46.535
691.14	47.571
691.46	46.272
691.78	48.803
692.10	44.954
692.42	46.429
692.74	45.191
693.06	46.111
693.39	48.767
693.71	47.368
694.03	46.283
694.35	45.143
694.67	46.817
694.99	47.234
695.31	47.903
695.63	48.268
695.95	47.412
696.27	47.033
696.59	47.124
696.91	49.550
697.23	50.549
697.56	45.214
697.88	47.159
698.20	45.009
698.52	47.538
698.84	49.688
699.16	47.959
699.48	45.607
699.80	47.447
700.12	47.598
700.44	44.700
700.76	45.606
701.08	48.910
701.40	47.409
701.72	47.512
702.04	51.337
702.36	47.382
702.68	48.411
703.00	45.721
703.32	47.291
703.64	49.144
703.96	48.210
704.28	46.192
704.60	46.329
704.91	44.643
705.23	46.575
705.55	49.861
705.87	52.121
706.19	47.546
706.51	48.795
706.83	51.297
707.15	46.825
707.47	49.766
707.79	44.978
708.11	42.373
708.43	44.516
708.74	45.089
709.06	45.708
709.38	45.540
709.70	47.643
710.02	47.287
710.34	44.415
710.66	44.972
710.98	48.087
711.29	44.780
711.61	47.740
711.93	47.578
712.25	47.838
712.57	47.788
712.89	48.529
713.20	45.562
713.52	41.908
713.84	47.632
714.16	47.105
714.48	48.454
714.80	47.792
715.11	45.669
715.43	46.154
715.75	44.737
716.07	44.751
716.39	44.809
716.70	44.880
717.02	50.492
717.34	46.341
717.66	44.966
717.97	45.548
718.29	45.017
718.61	45.395
718.93	42.071
719.24	43.168
719.56	43.558
719.88	43.243
720.20	47.097
720.51	44.099
720.83	43.438
721.15	46.711
721.46	42.808
721.78	47.000
722.10	44.013
722.42	44.631
722.73	42.903
723.05	42.456
723.37	47.569
723.68	45.878
724.00	40.433
724.32	42.958
724.63	43.357
724.95	48.582
725.27	42.160
725.58	39.929
725.90	51.379
726.22	45.768
726.53	46.104
726.85	45.597
727.16	46.224
727.48	46.789
727.80	41.060
728.11	50.177
728.43	45.791
728.74	44.816
729.06	40.066
729.38	44.156
729.69	45.302
730.01	42.857
730.32	40.000
730.64	49.057
730.96	45.652
731.27	46.648
731.59	42.308
731.90	42.857
732.22	39.844
732.53	41.160
732.85	43.143
733.16	43.988
733.48	43.902
733.80	44.847
734.11	42.735
734.43	45.135
734.74	46.329
735.06	40.452
735.37	42.703
735.69	41.081
736.00	41.243
736.32	40.431
736.63	43.056
736.95	44.540
737.26	44.848
737.58	47.273
737.89	42.059
738.21	40.061
738.52	42.295
738.83	44.027
739.15	45.035
739.46	44.558
739.78	45.399
740.09	41.547
740.41	46.939
740.72	39.333
741.04	43.689
741.35	42.105
741.66	41.176
741.98	42.623
742.29	48.117
742.61	46.930
742.92	41.154
743.23	42.960
743.55	44.574
743.86	46.000
744.18	37.190
744.49	40.506
744.80	44.444
745.12	40.928
745.43	46.341
745.74	42.672
746.06	45.339
746.37	45.570
746.68	43.496
747.00	40.417
747.31	43.777
747.62	47.692
747.94	48.988
748.25	36.145
748.56	39.592
748.88	40.171
749.19	46.121
749.50	39.394
749.82	48.996
750.13	45.907
750.44	38.333
750.75	44.000
751.07	44.308
751.38	40.694
751.69	41.534
752.01	40.129
752.32	44.771
752.63	41.837
752.94	42.215
753.26	40.520
753.57	41.111
753.88	43.820
754.19	40.193
754.51	40.836
754.82	43.087
755.13	40.328
755.44	43.686
755.75	39.145
756.07	42.687
756.38	43.711
756.69	44.277
757.00	39.612
757.31	37.705
757.63	38.363
757.94	36.620
758.25	38.600
758.56	38.126
758.87	38.182
759.18	38.133
759.50	41.926
759.81	38.655
760.12	43.127
760.43	45.573
760.74	39.901
761.05	39.250
761.36	37.590
761.67	36.294
761.99	41.081
762.30	39.024
762.61	39.274
762.92	42.910
763.23	44.569
763.54	42.446
763.85	43.299
764.16	39.057
764.47	41.901
764.78	41.534
765.10	40.176
765.41	40.513
765.72	40.212
766.03	42.090
766.34	37.931
766.65	37.979
766.96	41.036
767.27	44.700
767.58	40.299
767.89	45.673
768.20	44.601
768.51	38.889
768.82	43.775
769.13	42.045
769.44	38.077
769.75	41.155
770.06	41.923
770.37	50.000
770.68	36.170
770.99	37.652
771.30	42.593
771.61	38.403
771.92	40.370
772.23	42.510
772.54	36.111
772.85	47.005
773.16	39.048
773.47	42.328
773.78	37.838
774.09	47.159
774.39	46.000
774.70	43.169
775.01	34.756
775.32	38.235
775.63	39.877
775.94	38.854
776.25	36.774
776.56	42.949
776.87	39.456
777.18	42.759
777.48	45.455
777.79	37.162
778.10	28.676
778.41	36.111
778.72	45.517
779.03	37.654
779.34	39.394
779.65	36.788
779.95	41.667
780.26	41.477
780.57	44.516
780.88	43.478
781.19	47.742
781.50	42.941
781.80	38.710
782.11	38.624
782.42	37.879
782.73	40.719
783.04	34.637
783.34	35.758
783.65	39.216
783.96	39.752
784.27	38.690
784.57	39.735
784.88	40.714
785.19	37.795
785.50	40.945
785.81	36.842
786.11	35.385
786.42	34.532
786.73	38.849
787.04	35.338
787.34	40.164
787.65	35.200
787.96	33.582
788.26	34.266
788.57	42.657
788.88	32.237
789.19	32.680
789.49	41.781
789.80	34.752
790.11	39.370
790.41	35.938
790.72	33.051
791.03	23.301
791.33	33.913
791.64	46.491
791.95	26.786
792.25	42.857
792.56	35.714
792.87	39.583
793.17	38.393
793.48	36.458
793.79	33.735
794.09	28.440
794.40	39.450
794.70	36.054
795.01	32.468
795.32	39.041
795.62	41.549
795.93	38.636
796.23	34.426
796.54	37.500
796.85	30.851
797.15	34.783
797.46	42.466
797.76	32.500
798.07	35.870
798.37	25.773
798.68	33.766
798.99	33.333
799.29	37.079
799.60	37.234
799.90	34.940
800.21	23.077
800.51	38.806
800.82	30.882
801.12	32.877
801.43	32.353
801.73	50.847
802.04	31.818
802.34	33.333
802.65	32.203
802.95	52.239
803.26	42.373
803.56	39.726
803.87	37.143
804.17	32.877
804.48	21.053
804.78	47.222
805.09	24.138
805.39	39.189
805.70	28.169
806.00	31.707
806.30	32.530
806.61	31.507
806.91	35.577
807.22	37.778
807.52	28.736
807.83	45.833
808.13	27.711
808.43	39.326
808.74	28.750
809.04	42.647
809.35	42.667
809.65	40.000
809.95	28.767
810.26	26.316
810.56	37.931
810.86	42.647
811.17	42.105
811.47	26.230
811.77	42.222
812.08	40.678
812.38	26.667
812.69	48.276
812.99	39.623
813.29	33.333
813.59	50.000
813.90	35.088
814.20	30.909
814.50	40.845
814.81	24.359
815.11	36.066
815.41	23.881
815.72	44.828
816.02	42.857
816.32	51.111
816.62	27.273
816.93	37.778
817.23	35.185
817.53	44.681
817.84	59.524
818.14	41.176
818.44	32.653
818.74	28.889
819.04	28.205
819.35	5.714
819.65	3.846
819.95	26.415
820.25	20.000
820.56	23.810
820.86	31.250
821.16	5.128
821.46	44.186
821.76	8.000
822.07	25.000
822.37	30.435
822.67	21.277
822.97	-2.703
823.27	32.500
823.57	48.980
823.88	51.111
824.18	32.500
824.48	53.333
824.78	52.000
825.08	30.303
825.38	62.222
825.69	34.043
825.99	41.667
826.29	-22.857
826.59	15.385
826.89	30.233
827.19	28.000
827.49	70.588
827.79	50.000
828.09	32.432
828.39	40.000
828.70	36.585
829.00	30.233
829.30	-3.571
829.60	52.941
829.90	43.478
830.20	48.571
830.50	44.828
830.80	22.222
831.10	50.000
831.40	14.706
831.70	38.095
832.00	77.419
832.30	-11.765
832.60	66.667
832.90	30.769
833.20	31.579
833.50	50.000
833.80	26.316
834.10	-52.381
834.40	19.444
834.70	43.750
835.00	-28.571
835.30	11.765
835.60	30.000
835.90	44.000
836.20	-13.636
836.50	48.000
836.80	-3.030
837.10	7.407
837.40	48.148
837.70	-25.000
838.00	53.571
838.30	-17.391
838.60	68.966
838.90	-64.286
839.19	-73.913
839.49	-16.667
839.79	47.826
840.09	-43.750
840.39	60.000
840.69	35.484
840.99	0.000
841.29	20.000
841.59	52.632
841.88	64.103
842.18	19.231
842.48	30.000
842.78	30.000
843.08	36.667
843.38	3.226
843.68	-33.333
843.97	35.294
844.27	56.250
844.57	36.842
844.87	-70.000
845.17	53.333
845.47	61.905
845.76	-14.286
846.06	-33.333
846.36	-11.765
846.66	38.462
846.96	53.333
847.25	23.529
847.55	30.435
847.85	50.000
848.15	5.882
848.44	9.091
848.74	28.571
849.04	16.667
849.34	12.500
849.63	30.435
849.93	350.000
850.23	66.667
850.53	30.769
850.82	54.545
851.12	45.455
851.42	81.818
851.71	46.154
852.01	0.000
852.31	46.154
852.61	10.526
852.90	16.667
853.20	22.222
853.50	22.222
853.79	-14.286
854.09	-13.636
854.39	-116.667
854.68	22.581
854.98	30.769
855.28	55.556
855.57	14.286
855.87	32.000
856.17	31.818
856.46	22.222
856.76	27.778
857.05	8.696
857.35	16.667
857.65	115.385
857.94	52.381
858.24	7.407
858.53	95.652
858.83	29.412
859.13	35.294
859.42	41.176
859.72	21.429
860.01	5.000
860.31	0.000
860.60	-40.000
860.90	46.667
861.20	27.778
861.49	53.846
861.79	33.333
862.08	23.077
862.38	31.250
862.67	47.059
862.97	-37.500
863.26	-55.556
863.56	60.000
863.85	27.273
864.15	88.889
864.44	-100.000
864.74	100.000
865.03	-25.000
865.33	-30.000
865.62	-12.903
865.92	59.091
866.21	26.087
866.51	7.143
866.80	-20.000
867.10	-41.667
867.39	-108.333
867.69	1000.000
867.98	71.429
868.27	35.294
868.57	-500.000
868.86	-80.000
869.16	-33.333
869.45	41.667
869.75	27.273
870.04	0.000
870.33	8.333
870.63	-142.857
870.92	75.000
871.22	-125.000
871.51	-63.636
871.80	-800.000
872.10	100.000
>>>>>End Processed Spectral Data<<<<<
