SpectraSuite Data File
++++++++++++++++++++++++++++++++++++
Date: Thu May 14 14:32:44 PDT 2015
User: schluterlab
Dark Spectrum Present: Yes
Reference Spectrum Present: Yes
Number of Sampled Component Spectra: 1
Spectrometers: USB2E3373
Integration Time (usec): 3000 (USB2E3373)
Spectra Averaged: 3 (USB2E3373)
Boxcar Smoothing: 0 (USB2E3373)
Correct for Electrical Dark: No (USB2E3373)
Strobe/Lamp Enabled: No (USB2E3373)
Correct for Detector Non-linearity: No (USB2E3373)
Correct for Stray Light: No (USB2E3373)
Number of Pixels in Processed Spectrum: 2048
>>>>>Begin Processed Spectral Data<<<<<
178.53	0.000
178.91	-214.286
179.29	2100.000
179.67	1200.000
180.04	35.714
180.42	-190.000
180.80	-200.000
181.18	1500.000
181.56	2400.000
181.94	-525.000
182.31	700.000
182.69	-400.000
183.07	1050.000
183.45	-300.000
183.83	166.667
184.20	533.333
184.58	-2100.000
184.96	300.000
185.34	177.778
185.72	280.000
186.09	-11.111
186.47	-550.000
186.85	-160.000
187.23	200.000
187.61	1500.000
187.98	-240.000
188.36	-400.000
188.74	500.000
189.12	500.000
189.49	112.500
189.87	75.000
190.25	344.444
190.63	460.000
191.00	177.778
191.38	0.000
191.76	250.000
192.14	183.333
192.51	-650.000
192.89	366.667
193.27	0.000
193.65	228.571
194.02	800.000
194.40	185.714
194.78	-257.143
195.15	0.000
195.53	254.545
195.91	0.000
196.29	525.000
196.66	207.692
197.04	900.000
197.42	214.286
197.79	700.000
198.17	275.000
198.55	200.000
198.92	177.778
199.30	112.500
199.68	200.000
200.05	142.857
200.43	1150.000
200.81	-228.571
201.18	0.000
201.56	-55.556
201.94	0.000
202.31	-366.667
202.69	133.333
203.07	-2200.000
203.44	177.778
203.82	600.000
204.19	150.000
204.57	366.667
204.95	262.500
205.32	1300.000
205.70	-575.000
206.08	300.000
206.45	283.333
206.83	80.000
207.20	250.000
207.58	280.000
207.96	266.667
208.33	433.333
208.71	-141.667
209.08	466.667
209.46	0.000
209.84	-200.000
210.21	-1050.000
210.59	-900.000
210.96	-366.667
211.34	575.000
211.71	250.000
212.09	1900.000
212.46	0.000
212.84	-700.000
213.22	200.000
213.59	400.000
213.97	250.000
214.34	633.333
214.72	-150.000
215.09	325.000
215.47	0.000
215.84	-414.286
216.22	-850.000
216.59	440.000
216.97	380.000
217.34	625.000
217.72	225.000
218.09	450.000
218.47	275.000
218.84	0.000
219.22	-200.000
219.59	129.412
219.97	120.000
220.34	-1050.000
220.72	244.444
221.09	207.692
221.47	533.333
221.84	130.000
222.22	271.429
222.59	0.000
222.97	287.500
223.34	380.000
223.72	1400.000
224.09	425.000
224.46	250.000
224.84	400.000
225.21	157.143
225.59	300.000
225.96	425.000
226.34	107.692
226.71	-333.333
227.08	1050.000
227.46	160.000
227.83	550.000
228.21	126.316
228.58	-187.500
228.95	-550.000
229.33	166.667
229.70	160.000
230.08	142.105
230.45	-80.000
230.82	500.000
231.20	121.429
231.57	208.333
231.95	227.273
232.32	236.364
232.69	105.000
233.07	225.000
233.44	111.765
233.81	150.000
234.19	105.556
234.56	77.273
234.93	75.862
235.31	168.421
235.68	61.111
236.05	70.000
236.43	119.231
236.80	128.000
237.17	51.852
237.55	57.576
237.92	90.000
238.29	70.968
238.67	50.000
239.04	83.333
239.41	50.000
239.79	45.652
240.16	40.741
240.53	52.174
240.91	39.216
241.28	37.705
241.65	65.672
242.02	55.405
242.40	29.231
242.77	33.333
243.14	20.732
243.51	22.368
243.89	28.205
244.26	36.634
244.63	23.529
245.00	29.907
245.38	28.070
245.75	12.389
246.12	26.984
246.49	10.078
246.87	20.000
247.24	19.205
247.61	22.368
247.98	22.148
248.36	21.605
248.73	13.497
249.10	14.754
249.47	24.876
249.84	27.749
250.22	15.544
250.59	18.333
250.96	18.636
251.33	12.755
251.70	17.521
252.08	22.917
252.45	18.852
252.82	14.463
253.19	16.406
253.56	19.011
253.94	14.615
254.31	16.288
254.68	20.979
255.05	16.287
255.42	16.667
255.79	12.298
256.16	14.238
256.54	12.914
256.91	13.770
257.28	15.738
257.65	13.376
258.02	13.274
258.39	16.524
258.76	18.960
259.14	16.954
259.51	16.138
259.88	13.031
260.25	15.833
260.62	17.808
260.99	16.667
261.36	16.890
261.73	13.793
262.10	15.110
262.47	14.477
262.85	14.394
263.22	12.727
263.59	10.789
263.96	12.788
264.33	13.043
264.70	15.062
265.07	13.842
265.44	17.007
265.81	12.269
266.18	13.605
266.55	12.723
266.92	13.212
267.29	13.786
267.66	13.082
268.03	15.502
268.40	14.405
268.77	11.845
269.14	12.335
269.51	12.939
269.88	13.934
270.25	13.682
270.62	13.291
270.99	14.343
271.36	16.238
271.73	11.591
272.10	13.627
272.47	13.427
272.84	13.454
273.21	13.226
273.58	14.919
273.95	13.654
274.32	12.548
274.69	12.573
275.06	13.919
275.43	12.015
275.80	16.402
276.17	12.037
276.54	11.194
276.91	12.522
277.28	13.743
277.65	13.285
278.02	12.868
278.39	14.674
278.76	13.533
279.13	10.638
279.50	15.464
279.87	12.522
280.23	9.331
280.60	14.237
280.97	12.664
281.34	10.357
281.71	13.198
282.08	12.458
282.45	11.948
282.82	11.931
283.19	11.793
283.56	9.836
283.92	14.114
284.29	13.902
284.66	13.957
285.03	12.179
285.40	13.138
285.77	11.610
286.14	12.366
286.51	12.633
286.87	12.006
287.24	12.500
287.61	12.407
287.98	12.236
288.35	13.166
288.72	11.686
289.08	14.348
289.45	10.947
289.82	10.542
290.19	11.494
290.56	11.972
290.93	12.268
291.29	12.121
291.66	11.708
292.03	11.940
292.40	13.469
292.77	11.456
293.13	11.637
293.50	10.907
293.87	11.946
294.24	10.267
294.60	12.516
294.97	9.799
295.34	11.012
295.71	10.719
296.08	10.465
296.44	9.926
296.81	9.257
297.18	10.336
297.55	11.203
297.91	11.269
298.28	9.953
298.65	13.080
299.02	10.508
299.38	10.069
299.75	10.397
300.12	9.375
300.48	9.793
300.85	9.899
301.22	10.403
301.59	9.018
301.95	10.734
302.32	11.556
302.69	10.186
303.05	11.208
303.42	9.424
303.79	9.479
304.15	10.095
304.52	10.571
304.89	10.681
305.25	10.455
305.62	10.345
305.99	10.515
306.35	9.476
306.72	10.962
307.09	9.239
307.45	11.284
307.82	10.394
308.19	9.687
308.55	10.993
308.92	9.445
309.29	10.057
309.65	8.674
310.02	9.901
310.38	10.138
310.75	11.068
311.12	10.834
311.48	10.166
311.85	9.972
312.22	10.342
312.58	9.296
312.95	9.082
313.31	10.027
313.68	10.073
314.05	11.201
314.41	11.020
314.78	10.899
315.14	9.982
315.51	10.434
315.87	11.701
316.24	10.228
316.61	11.545
316.97	9.683
317.34	9.965
317.70	10.830
318.07	10.670
318.43	10.969
318.80	10.702
319.16	10.987
319.53	9.683
319.89	10.780
320.26	11.477
320.62	10.904
320.99	11.634
321.35	10.813
321.72	12.837
322.08	11.091
322.45	10.750
322.81	11.733
323.18	12.212
323.54	10.948
323.91	12.189
324.27	12.306
324.64	11.923
325.00	11.443
325.37	11.876
325.73	12.810
326.10	12.165
326.46	13.274
326.83	12.650
327.19	12.205
327.56	13.518
327.92	13.139
328.29	12.581
328.65	12.647
329.01	12.098
329.38	13.648
329.74	14.212
330.11	14.469
330.47	13.901
330.84	13.092
331.20	13.583
331.56	14.645
331.93	13.724
332.29	14.237
332.66	14.286
333.02	14.322
333.38	13.758
333.75	14.478
334.11	14.345
334.48	13.284
334.84	15.888
335.20	14.610
335.57	14.924
335.93	16.116
336.29	14.393
336.66	14.718
337.02	15.635
337.38	14.541
337.75	14.959
338.11	15.812
338.47	15.219
338.84	14.298
339.20	13.985
339.56	14.827
339.93	14.614
340.29	15.459
340.65	14.517
341.02	15.962
341.38	15.036
341.74	14.851
342.11	14.883
342.47	14.853
342.83	15.378
343.20	14.881
343.56	14.755
343.92	15.532
344.28	16.016
344.65	15.194
345.01	14.743
345.37	15.397
345.73	14.575
346.10	15.367
346.46	15.111
346.82	15.506
347.19	15.126
347.55	15.099
347.91	15.007
348.27	14.188
348.63	15.308
349.00	14.989
349.36	15.019
349.72	15.402
350.08	15.379
350.45	13.916
350.81	15.460
351.17	14.361
351.53	15.087
351.89	15.566
352.26	14.851
352.62	14.851
352.98	15.954
353.34	13.742
353.70	16.179
354.07	15.425
354.43	14.730
354.79	15.482
355.15	15.820
355.51	15.497
355.87	14.959
356.24	15.057
356.60	15.004
356.96	15.122
357.32	14.498
357.68	14.348
358.04	15.045
358.40	15.299
358.77	15.643
359.13	14.771
359.49	14.424
359.85	15.373
360.21	14.491
360.57	14.358
360.93	15.092
361.29	15.368
361.66	15.641
362.02	16.493
362.38	15.109
362.74	14.735
363.10	14.856
363.46	15.582
363.82	16.264
364.18	15.482
364.54	15.353
364.90	15.117
365.26	14.483
365.62	16.067
365.98	14.500
366.35	14.832
366.71	15.442
367.07	16.306
367.43	15.824
367.79	16.457
368.15	15.786
368.51	15.629
368.87	16.003
369.23	14.667
369.59	15.779
369.95	15.416
370.31	16.745
370.67	15.818
371.03	16.343
371.39	15.312
371.75	15.956
372.11	16.734
372.47	16.114
372.83	15.838
373.19	15.544
373.55	16.667
373.91	16.155
374.27	15.977
374.63	17.118
374.99	15.981
375.35	16.234
375.71	15.613
376.07	16.269
376.42	16.247
376.78	16.470
377.14	15.908
377.50	16.256
377.86	17.057
378.22	16.287
378.58	17.301
378.94	15.962
379.30	17.985
379.66	16.814
380.02	16.849
380.38	16.532
380.74	16.732
381.09	17.422
381.45	16.989
381.81	17.740
382.17	18.230
382.53	16.667
382.89	17.043
383.25	17.057
383.61	17.187
383.97	18.021
384.32	18.122
384.68	17.227
385.04	18.161
385.40	19.034
385.76	18.464
386.12	18.073
386.48	18.294
386.83	17.759
387.19	18.946
387.55	18.192
387.91	18.208
388.27	18.418
388.62	19.015
388.98	18.274
389.34	18.326
389.70	18.071
390.06	18.887
390.42	19.699
390.77	19.025
391.13	18.838
391.49	19.324
391.85	18.424
392.20	19.810
392.56	19.315
392.92	19.357
393.28	19.845
393.64	18.603
393.99	19.407
394.35	19.918
394.71	19.461
395.07	18.683
395.42	20.503
395.78	20.110
396.14	19.846
396.50	19.062
396.85	19.439
397.21	19.527
397.57	19.317
397.92	20.046
398.28	19.229
398.64	19.394
399.00	19.058
399.35	19.686
399.71	19.457
400.07	19.989
400.42	20.198
400.78	19.502
401.14	19.750
401.49	19.670
401.85	19.477
402.21	20.046
402.57	20.246
402.92	19.976
403.28	19.789
403.63	19.212
403.99	20.487
404.35	19.898
404.70	20.453
405.06	18.750
405.42	19.496
405.77	19.956
406.13	19.233
406.49	20.214
406.84	20.776
407.20	20.235
407.55	19.746
407.91	20.867
408.27	20.377
408.62	20.768
408.98	20.371
409.34	19.472
409.69	20.272
410.05	20.223
410.40	20.476
410.76	18.901
411.11	21.157
411.47	20.270
411.83	20.400
412.18	20.301
412.54	20.510
412.89	20.780
413.25	20.767
413.60	20.391
413.96	19.988
414.31	20.000
414.67	20.334
415.03	20.985
415.38	21.185
415.74	21.136
416.09	21.900
416.45	20.664
416.80	20.991
417.16	21.903
417.51	21.482
417.87	21.214
418.22	21.198
418.58	21.252
418.93	21.420
419.29	21.640
419.64	20.828
420.00	21.424
420.35	21.168
420.71	21.022
421.06	21.794
421.42	22.190
421.77	20.786
422.12	21.723
422.48	21.045
422.83	21.906
423.19	21.167
423.54	21.239
423.90	22.087
424.25	21.600
424.61	21.412
424.96	21.472
425.31	21.391
425.67	21.632
426.02	22.302
426.38	21.642
426.73	22.321
427.09	23.126
427.44	22.010
427.79	22.388
428.15	21.861
428.50	22.697
428.85	22.847
429.21	22.713
429.56	22.310
429.92	22.211
430.27	22.747
430.62	22.374
430.98	21.741
431.33	22.385
431.68	21.456
432.04	23.057
432.39	23.353
432.74	23.459
433.10	23.472
433.45	22.742
433.80	22.961
434.16	22.882
434.51	23.124
434.86	23.724
435.22	23.379
435.57	23.644
435.92	23.762
436.28	23.151
436.63	23.102
436.98	23.564
437.34	23.732
437.69	23.445
438.04	23.268
438.39	24.067
438.75	23.796
439.10	24.524
439.45	23.756
439.81	23.333
440.16	23.378
440.51	23.523
440.86	24.180
441.22	24.062
441.57	23.847
441.92	23.472
442.27	24.192
442.63	23.696
442.98	24.173
443.33	24.303
443.68	24.529
444.03	23.801
444.39	23.625
444.74	24.809
445.09	24.227
445.44	24.816
445.79	24.856
446.15	24.203
446.50	24.393
446.85	25.146
447.20	24.903
447.55	24.425
447.91	24.398
448.26	24.313
448.61	24.176
448.96	25.376
449.31	25.027
449.66	24.074
450.02	24.789
450.37	24.720
450.72	24.543
451.07	25.285
451.42	24.899
451.77	25.125
452.12	25.451
452.47	25.312
452.83	25.957
453.18	24.869
453.53	24.009
453.88	25.179
454.23	25.198
454.58	25.015
454.93	25.364
455.28	26.430
455.63	25.526
455.98	26.089
456.34	24.558
456.69	25.044
457.04	25.709
457.39	25.831
457.74	26.510
458.09	25.865
458.44	25.377
458.79	25.219
459.14	25.800
459.49	25.693
459.84	25.656
460.19	25.652
460.54	25.497
460.89	26.363
461.24	25.460
461.59	25.733
461.94	25.385
462.29	26.316
462.64	25.890
462.99	26.114
463.34	27.190
463.69	25.557
464.04	27.793
464.39	26.401
464.74	26.910
465.09	26.471
465.44	26.073
465.79	26.547
466.14	25.899
466.49	26.632
466.84	26.777
467.19	25.434
467.54	26.381
467.89	25.977
468.24	26.759
468.59	25.883
468.94	26.457
469.29	25.735
469.64	26.319
469.99	25.940
470.34	26.300
470.68	26.658
471.03	27.177
471.38	26.422
471.73	26.918
472.08	27.348
472.43	26.851
472.78	26.889
473.13	27.307
473.48	26.405
473.83	27.684
474.17	26.671
474.52	26.639
474.87	27.132
475.22	28.225
475.57	26.791
475.92	26.730
476.27	26.624
476.61	26.376
476.96	26.486
477.31	26.980
477.66	27.859
478.01	26.792
478.36	25.922
478.70	26.305
479.05	27.352
479.40	27.443
479.75	27.522
480.10	27.144
480.45	27.849
480.79	26.939
481.14	26.654
481.49	26.579
481.84	27.633
482.19	26.882
482.53	27.285
482.88	27.603
483.23	27.123
483.58	26.943
483.92	26.640
484.27	27.434
484.62	27.682
484.97	26.205
485.31	26.857
485.66	25.871
486.01	25.097
486.36	24.767
486.70	24.807
487.05	24.901
487.40	25.958
487.75	26.107
488.09	26.796
488.44	26.264
488.79	27.285
489.13	27.480
489.48	27.262
489.83	26.720
490.17	27.461
490.52	26.437
490.87	27.073
491.22	27.383
491.56	28.157
491.91	27.562
492.26	28.256
492.60	27.416
492.95	27.731
493.30	27.925
493.64	27.157
493.99	27.719
494.34	27.395
494.68	27.109
495.03	28.458
495.37	28.140
495.72	27.891
496.07	28.133
496.41	27.456
496.76	27.606
497.11	27.219
497.45	27.622
497.80	28.565
498.14	27.710
498.49	28.401
498.84	28.976
499.18	28.250
499.53	28.565
499.87	28.703
500.22	27.694
500.56	27.800
500.91	27.826
501.26	28.545
501.60	28.060
501.95	28.267
502.29	28.785
502.64	28.553
502.98	27.222
503.33	28.035
503.67	27.780
504.02	27.758
504.36	28.954
504.71	28.434
505.06	28.104
505.40	28.016
505.75	28.188
506.09	28.085
506.44	28.459
506.78	29.587
507.13	28.400
507.47	29.133
507.82	28.930
508.16	29.254
508.51	28.317
508.85	28.673
509.19	29.086
509.54	28.963
509.88	29.092
510.23	29.723
510.57	30.208
510.92	29.705
511.26	29.101
511.61	27.523
511.95	28.843
512.30	30.527
512.64	29.085
512.98	29.315
513.33	30.040
513.67	29.730
514.02	30.353
514.36	30.077
514.70	29.635
515.05	29.510
515.39	29.921
515.74	29.321
516.08	30.058
516.42	29.775
516.77	30.284
517.11	29.087
517.46	29.799
517.80	30.999
518.14	30.141
518.49	30.098
518.83	30.229
519.17	29.348
519.52	30.084
519.86	30.148
520.20	31.150
520.55	29.737
520.89	30.011
521.23	29.704
521.58	30.791
521.92	30.312
522.26	29.611
522.61	30.440
522.95	30.796
523.29	31.207
523.64	30.493
523.98	31.375
524.32	31.461
524.66	30.962
525.01	30.861
525.35	30.270
525.69	30.800
526.04	30.540
526.38	30.862
526.72	30.104
527.06	31.026
527.41	30.204
527.75	31.295
528.09	30.992
528.43	30.728
528.78	30.173
529.12	31.479
529.46	30.691
529.80	31.751
530.15	31.536
530.49	30.664
530.83	30.579
531.17	30.824
531.51	31.107
531.86	31.731
532.20	32.134
532.54	31.059
532.88	31.152
533.22	30.112
533.57	30.179
533.91	30.696
534.25	30.356
534.59	29.770
534.93	29.711
535.27	30.535
535.62	30.301
535.96	30.680
536.30	30.905
536.64	31.231
536.98	30.627
537.32	31.296
537.66	31.067
538.01	30.453
538.35	29.476
538.69	30.469
539.03	31.085
539.37	30.035
539.71	30.871
540.05	30.935
540.39	31.051
540.73	30.055
541.07	31.208
541.42	30.538
541.76	30.249
542.10	30.338
542.44	30.390
542.78	31.083
543.12	30.513
543.46	30.525
543.80	30.576
544.14	30.700
544.48	30.792
544.82	31.059
545.16	30.471
545.50	30.318
545.84	30.067
546.18	31.358
546.52	29.682
546.86	29.560
547.20	31.107
547.54	30.649
547.88	30.500
548.22	30.468
548.56	30.193
548.90	30.269
549.24	31.489
549.58	30.789
549.92	32.334
550.26	30.744
550.60	31.398
550.94	31.889
551.28	31.353
551.62	32.278
551.96	31.197
552.30	31.166
552.64	30.865
552.98	31.441
553.32	30.997
553.66	31.190
554.00	31.715
554.34	31.145
554.68	31.117
555.02	31.406
555.36	32.018
555.69	29.853
556.03	31.148
556.37	31.539
556.71	31.516
557.05	30.927
557.39	30.922
557.73	30.911
558.07	31.060
558.41	31.362
558.75	32.184
559.08	31.802
559.42	31.276
559.76	32.022
560.10	32.418
560.44	31.201
560.78	31.500
561.12	30.727
561.45	30.231
561.79	31.074
562.13	31.423
562.47	31.011
562.81	31.139
563.15	32.134
563.48	32.070
563.82	30.895
564.16	30.588
564.50	31.466
564.84	30.383
565.17	30.471
565.51	29.977
565.85	30.582
566.19	30.184
566.52	30.252
566.86	30.787
567.20	29.364
567.54	31.121
567.88	30.071
568.21	29.891
568.55	30.168
568.89	29.868
569.23	29.954
569.56	28.878
569.90	28.617
570.24	29.073
570.57	27.967
570.91	27.648
571.25	26.989
571.59	27.554
571.92	27.265
572.26	27.475
572.60	27.082
572.93	27.080
573.27	27.564
573.61	27.528
573.95	27.167
574.28	26.466
574.62	26.489
574.96	26.092
575.29	26.041
575.63	26.958
575.97	27.257
576.30	26.746
576.64	26.939
576.98	26.856
577.31	26.719
577.65	26.868
577.98	26.581
578.32	26.475
578.66	26.027
578.99	26.131
579.33	27.034
579.67	26.632
580.00	27.422
580.34	27.051
580.67	26.611
581.01	26.850
581.35	26.748
581.68	25.714
582.02	25.945
582.35	26.126
582.69	26.223
583.02	26.799
583.36	27.459
583.70	27.357
584.03	27.070
584.37	27.672
584.70	27.237
585.04	27.203
585.37	26.734
585.71	26.624
586.04	26.772
586.38	27.228
586.72	26.498
587.05	26.426
587.39	27.574
587.72	27.225
588.06	27.321
588.39	27.259
588.73	27.143
589.06	27.342
589.40	28.611
589.73	28.438
590.07	28.216
590.40	28.634
590.73	28.809
591.07	28.965
591.40	28.383
591.74	28.816
592.07	29.314
592.41	28.825
592.74	28.399
593.08	27.707
593.41	27.880
593.75	27.500
594.08	27.537
594.41	28.077
594.75	28.130
595.08	27.927
595.42	28.344
595.75	28.156
596.09	28.363
596.42	28.520
596.75	28.985
597.09	28.929
597.42	29.400
597.75	29.635
598.09	29.008
598.42	29.152
598.76	27.971
599.09	28.480
599.42	27.422
599.76	27.732
600.09	28.695
600.42	28.295
600.76	28.038
601.09	28.045
601.42	28.012
601.76	27.759
602.09	27.734
602.42	27.663
602.76	28.598
603.09	28.708
603.42	28.468
603.76	28.330
604.09	29.028
604.42	29.248
604.76	28.729
605.09	28.680
605.42	28.429
605.75	28.462
606.09	27.958
606.42	28.311
606.75	28.261
607.09	28.034
607.42	28.786
607.75	27.902
608.08	27.743
608.42	28.658
608.75	29.809
609.08	28.183
609.41	29.422
609.75	28.884
610.08	29.464
610.41	29.269
610.74	28.109
611.07	29.041
611.41	29.013
611.74	29.700
612.07	29.126
612.40	29.515
612.73	30.073
613.07	30.073
613.40	29.885
613.73	29.080
614.06	29.588
614.39	29.155
614.72	29.064
615.06	29.066
615.39	29.435
615.72	30.095
616.05	29.626
616.38	30.071
616.71	30.042
617.05	30.671
617.38	30.498
617.71	30.400
618.04	30.599
618.37	30.710
618.70	31.674
619.03	30.944
619.36	31.689
619.69	31.582
620.03	31.073
620.36	30.675
620.69	30.907
621.02	31.168
621.35	32.583
621.68	31.960
622.01	31.957
622.34	32.357
622.67	32.302
623.00	30.094
623.33	31.586
623.66	32.296
623.99	31.139
624.32	32.359
624.65	31.660
624.99	31.599
625.32	31.875
625.65	32.232
625.98	30.237
626.31	32.034
626.64	32.601
626.97	31.508
627.30	32.498
627.63	31.808
627.96	34.459
628.29	32.685
628.62	32.997
628.95	33.830
629.28	33.305
629.61	33.586
629.94	33.222
630.26	33.136
630.59	33.506
630.92	34.286
631.25	34.347
631.58	35.217
631.91	34.021
632.24	33.525
632.57	34.061
632.90	34.804
633.23	34.898
633.56	35.000
633.89	34.814
634.22	35.343
634.55	34.760
634.88	35.065
635.20	36.491
635.53	36.045
635.86	35.861
636.19	38.494
636.52	35.549
636.85	34.729
637.18	34.304
637.51	36.344
637.83	34.551
638.16	36.175
638.49	35.446
638.82	35.287
639.15	34.593
639.48	37.529
639.81	35.219
640.13	38.516
640.46	33.939
640.79	35.539
641.12	36.522
641.45	35.132
641.77	40.308
642.10	35.958
642.43	39.096
642.76	37.127
643.09	36.986
643.41	37.535
643.74	37.793
644.07	37.517
644.40	38.190
644.73	36.430
645.05	37.004
645.38	38.993
645.71	38.563
646.04	39.742
646.36	39.270
646.69	39.417
647.02	39.908
647.35	40.305
647.67	39.775
648.00	39.809
648.33	38.438
648.66	37.518
648.98	35.646
649.31	35.589
649.64	38.645
649.96	37.666
650.29	36.300
650.62	38.331
650.94	38.739
651.27	37.575
651.60	35.380
651.92	36.778
652.25	38.640
652.58	38.239
652.90	36.483
653.23	38.310
653.56	34.237
653.88	39.466
654.21	37.606
654.54	38.150
654.86	36.969
655.19	34.504
655.52	29.370
655.84	23.267
656.17	29.188
656.49	41.278
656.82	46.840
657.15	36.904
657.47	27.716
657.80	20.857
658.13	16.937
658.45	22.710
658.78	27.701
659.10	27.986
659.43	29.593
659.75	31.050
660.08	31.989
660.41	34.243
660.73	35.918
661.06	38.473
661.38	38.756
661.71	39.828
662.03	41.270
662.36	39.356
662.68	38.086
663.01	39.823
663.33	40.832
663.66	41.209
663.98	40.000
664.31	42.214
664.63	38.343
664.96	40.109
665.28	37.750
665.61	37.937
665.93	38.750
666.26	40.860
666.58	37.454
666.91	39.439
667.23	39.238
667.56	40.828
667.88	41.200
668.21	37.109
668.53	38.224
668.86	41.650
669.18	38.900
669.50	40.755
669.83	38.200
670.15	43.110
670.48	42.857
670.80	37.859
671.13	39.319
671.45	40.945
671.77	38.230
672.10	36.167
672.42	37.702
672.75	35.637
673.07	35.522
673.39	36.518
673.72	38.255
674.04	38.103
674.37	40.608
674.69	41.270
675.01	38.476
675.34	38.931
675.66	38.390
675.98	39.179
676.31	38.281
676.63	40.684
676.95	39.080
677.28	39.919
677.60	36.614
677.92	41.651
678.25	38.940
678.57	38.256
678.89	37.201
679.22	35.192
679.54	37.607
679.86	37.627
680.18	35.323
680.51	35.849
680.83	36.825
681.15	34.483
681.48	38.342
681.80	39.033
682.12	38.287
682.44	37.730
682.77	36.348
683.09	38.447
683.41	41.279
683.73	39.279
684.06	38.930
684.38	35.599
684.70	42.011
685.02	38.210
685.34	36.606
685.67	33.281
685.99	35.276
686.31	32.849
686.63	36.493
686.96	35.331
687.28	35.179
687.60	35.690
687.92	35.370
688.24	36.060
688.56	36.552
688.89	37.931
689.21	38.943
689.53	37.647
689.85	38.067
690.17	36.296
690.49	38.446
690.82	35.644
691.14	36.032
691.46	39.579
691.78	38.858
692.10	36.697
692.42	33.929
692.74	34.846
693.06	37.593
693.39	36.243
693.71	35.902
694.03	38.104
694.35	36.762
694.67	37.988
694.99	39.362
695.31	42.163
695.63	38.528
695.95	38.095
696.27	37.802
696.59	38.496
696.91	37.387
697.23	39.560
697.56	37.271
697.88	36.742
698.20	36.911
698.52	37.879
698.84	40.748
699.16	38.776
699.48	37.238
699.80	39.574
700.12	36.463
700.44	36.406
700.76	37.055
701.08	38.257
701.40	40.155
701.72	39.055
702.04	41.979
702.36	41.361
702.68	40.098
703.00	36.186
703.32	38.177
703.64	38.386
703.96	38.663
704.28	37.838
704.60	38.987
704.91	39.541
705.23	45.205
705.55	41.783
705.87	47.576
706.19	45.706
706.51	39.157
706.83	42.363
707.15	37.302
707.47	36.682
707.79	35.153
708.11	33.475
708.43	33.548
708.74	34.152
709.06	36.891
709.38	38.732
709.70	38.213
710.02	37.209
710.34	41.223
710.66	37.430
710.98	40.164
711.29	37.912
711.61	38.983
711.93	41.595
712.25	37.838
712.57	41.593
712.89	39.412
713.20	37.870
713.52	40.173
713.84	39.276
714.16	39.737
714.48	37.887
714.80	37.143
715.11	40.682
715.43	37.666
715.75	38.947
716.07	37.293
716.39	38.525
716.70	35.241
717.02	42.623
717.34	40.767
717.66	40.268
717.97	39.726
718.29	42.612
718.61	38.816
718.93	39.806
719.24	40.373
719.56	39.571
719.88	37.237
720.20	43.871
720.51	35.093
720.83	37.500
721.15	35.855
721.46	35.959
721.78	39.333
722.10	35.599
722.42	43.289
722.73	38.387
723.05	44.561
723.37	41.319
723.68	42.652
724.00	38.989
724.32	40.141
724.63	37.413
724.95	42.908
725.27	42.160
725.58	36.396
725.90	42.759
726.22	38.245
726.53	38.961
726.85	37.421
727.16	36.556
727.48	40.061
727.80	37.417
728.11	36.396
728.43	39.731
728.74	37.124
729.06	39.073
729.38	42.532
729.69	40.268
730.01	37.798
730.32	38.788
730.64	37.107
730.96	38.199
731.27	36.592
731.59	35.165
731.90	35.065
732.22	33.854
732.53	31.215
732.85	38.286
733.16	35.777
733.48	35.061
733.80	36.212
734.11	38.177
734.43	38.108
734.74	36.203
735.06	34.925
735.37	34.865
735.69	35.946
736.00	39.548
736.32	34.771
736.63	33.889
736.95	36.494
737.26	39.091
737.58	37.879
737.89	36.176
738.21	37.309
738.52	35.082
738.83	35.154
739.15	39.716
739.46	35.034
739.78	38.037
740.09	33.238
740.41	33.819
740.72	38.000
741.04	39.806
741.35	41.053
741.66	41.961
741.98	39.344
742.29	41.841
742.61	41.667
742.92	38.846
743.23	41.516
743.55	37.597
743.86	40.800
744.18	35.124
744.49	37.131
744.80	40.329
745.12	42.194
745.43	46.341
745.74	39.224
746.06	44.492
746.37	43.460
746.68	45.528
747.00	37.083
747.31	42.918
747.62	45.000
747.94	40.081
748.25	38.554
748.56	40.000
748.88	41.453
749.19	48.276
749.50	40.260
749.82	46.185
750.13	37.367
750.44	35.667
750.75	38.154
751.07	38.462
751.38	35.962
751.69	35.783
752.01	36.570
752.32	36.275
752.63	37.415
752.94	39.792
753.26	37.175
753.57	37.407
753.88	35.206
754.19	36.334
754.51	35.048
754.82	37.942
755.13	39.344
755.44	39.590
755.75	38.487
756.07	37.015
756.38	36.792
756.69	37.349
757.00	31.302
757.31	36.885
757.63	30.179
757.94	32.629
758.25	32.506
758.56	31.590
758.87	34.091
759.18	31.733
759.50	36.827
759.81	33.053
760.12	33.423
760.43	32.812
760.74	33.744
761.05	32.500
761.36	32.048
761.67	34.010
761.99	32.432
762.30	33.841
762.61	34.323
762.92	38.806
763.23	37.828
763.54	36.691
763.85	36.426
764.16	34.007
764.47	38.732
764.78	38.658
765.10	35.484
765.41	37.436
765.72	30.159
766.03	34.463
766.34	35.737
766.65	34.495
766.96	40.239
767.27	41.014
767.58	40.299
767.89	45.192
768.20	38.498
768.51	41.204
768.82	40.562
769.13	38.636
769.44	31.538
769.75	35.740
770.06	37.692
770.37	40.551
770.68	36.596
770.99	31.174
771.30	41.111
771.61	35.361
771.92	32.963
772.23	44.130
772.54	31.019
772.85	40.092
773.16	39.524
773.47	45.503
773.78	36.757
774.09	44.318
774.39	39.500
774.70	38.798
775.01	42.073
775.32	38.235
775.63	38.037
775.94	36.943
776.25	51.613
776.56	47.436
776.87	56.463
777.18	44.828
777.48	48.951
777.79	41.216
778.10	38.971
778.41	47.917
778.72	46.897
779.03	43.827
779.34	38.182
779.65	38.860
779.95	52.778
780.26	38.636
780.57	47.097
780.88	46.377
781.19	47.742
781.50	45.882
781.80	43.548
782.11	44.974
782.42	35.859
782.73	36.527
783.04	46.927
783.34	35.758
783.65	33.333
783.96	34.783
784.27	32.738
784.57	51.656
784.88	45.000
785.19	40.945
785.50	38.583
785.81	45.113
786.11	46.923
786.42	39.568
786.73	43.165
787.04	45.113
787.34	40.164
787.65	40.800
787.96	37.313
788.26	47.552
788.57	38.462
788.88	43.421
789.19	48.366
789.49	39.041
789.80	40.426
790.11	45.669
790.41	48.438
790.72	49.153
791.03	49.515
791.33	44.348
791.64	50.877
791.95	48.214
792.25	49.524
792.56	48.214
792.87	52.083
793.17	43.750
793.48	50.000
793.79	39.759
794.09	45.872
794.40	45.872
794.70	36.054
795.01	33.766
795.32	32.877
795.62	40.845
795.93	43.939
796.23	44.262
796.54	41.964
796.85	48.936
797.15	47.826
797.46	58.904
797.76	60.000
798.07	48.913
798.37	40.206
798.68	55.844
798.99	54.023
799.29	57.303
799.60	48.936
799.90	51.807
800.21	70.769
800.51	62.687
800.82	50.000
801.12	43.836
801.43	52.941
801.73	72.881
802.04	57.576
802.34	60.000
802.65	47.458
802.95	65.672
803.26	57.627
803.56	52.055
803.87	57.143
804.17	53.425
804.48	33.333
804.78	58.333
805.09	36.207
805.39	56.757
805.70	39.437
806.00	54.878
806.30	43.373
806.61	45.205
806.91	58.654
807.22	47.778
807.52	40.230
807.83	54.167
808.13	60.241
808.43	56.180
808.74	57.500
809.04	39.706
809.35	42.667
809.65	52.857
809.95	53.425
810.26	36.842
810.56	53.448
810.86	69.118
811.17	59.649
811.47	32.787
811.77	53.333
812.08	62.712
812.38	80.000
812.69	68.966
812.99	56.604
813.29	64.103
813.59	70.000
813.90	64.912
814.20	76.364
814.50	52.113
814.81	52.564
815.11	67.213
815.41	52.239
815.72	55.172
816.02	66.071
816.32	77.778
816.62	77.273
816.93	55.556
817.23	72.222
817.53	57.447
817.84	109.524
818.14	85.294
818.44	48.980
818.74	73.333
819.04	43.590
819.35	65.714
819.65	42.308
819.95	56.604
820.25	62.222
820.56	66.667
820.86	84.375
821.16	56.410
821.46	46.512
821.76	40.000
822.07	55.357
822.37	56.522
822.67	68.085
822.97	64.865
823.27	65.000
823.57	55.102
823.88	93.333
824.18	80.000
824.48	103.333
824.78	128.000
825.08	93.939
825.38	88.889
825.69	97.872
825.99	94.444
826.29	57.143
826.59	64.103
826.89	55.814
827.19	62.000
827.49	64.706
827.79	81.250
828.09	72.973
828.39	86.667
828.70	48.780
829.00	72.093
829.30	96.429
829.60	79.412
829.90	65.217
830.20	77.143
830.50	62.069
830.80	116.667
831.10	88.462
831.40	55.882
831.70	109.524
832.00	135.484
832.30	52.941
832.60	95.833
832.90	207.692
833.20	136.842
833.50	135.000
833.80	126.316
834.10	76.190
834.40	105.556
834.70	106.250
835.00	54.286
835.30	85.294
835.60	96.667
835.90	160.000
836.20	54.545
836.50	104.000
836.80	57.576
837.10	100.000
837.40	118.519
837.70	87.500
838.00	60.714
838.30	95.652
838.60	72.414
838.90	142.857
839.19	43.478
839.49	108.333
839.79	91.304
840.09	125.000
840.39	110.000
840.69	109.677
840.99	89.286
841.29	200.000
841.59	168.421
841.88	79.487
842.18	65.385
842.48	230.000
842.78	150.000
843.08	100.000
843.38	83.871
843.68	100.000
843.97	111.765
844.27	168.750
844.57	105.263
844.87	180.000
845.17	120.000
845.47	123.810
845.76	119.048
846.06	177.778
846.36	111.765
846.66	76.923
846.96	80.000
847.25	94.118
847.55	126.087
847.85	145.000
848.15	123.529
848.44	136.364
848.74	90.476
849.04	79.167
849.34	131.250
849.63	56.522
849.93	-700.000
850.23	133.333
850.53	134.615
850.82	245.455
851.12	150.000
851.42	154.545
851.71	246.154
852.01	110.000
852.31	184.615
852.61	89.474
852.90	116.667
853.20	138.889
853.50	66.667
853.79	95.238
854.09	72.727
854.39	75.000
854.68	83.871
854.98	130.769
855.28	100.000
855.57	85.714
855.87	124.000
856.17	131.818
856.46	103.704
856.76	100.000
857.05	69.565
857.35	104.167
857.65	192.308
857.94	133.333
858.24	88.889
858.53	117.391
858.83	176.471
859.13	82.353
859.42	105.882
859.72	128.571
860.01	95.000
860.31	211.111
860.60	220.000
860.90	146.667
861.20	127.778
861.49	92.308
861.79	90.000
862.08	169.231
862.38	90.625
862.67	158.824
862.97	131.250
863.26	188.889
863.56	180.000
863.85	163.636
864.15	100.000
864.44	500.000
864.74	171.429
865.03	100.000
865.33	120.000
865.62	64.516
865.92	159.091
866.21	104.348
866.51	164.286
866.80	300.000
867.10	41.667
867.39	100.000
867.69	-700.000
867.98	385.714
868.27	152.941
868.57	1500.000
868.86	40.000
869.16	80.952
869.45	104.167
869.75	163.636
870.04	285.714
870.33	175.000
870.63	200.000
870.92	650.000
871.22	75.000
871.51	145.455
871.80	366.667
872.10	1050.000
>>>>>End Processed Spectral Data<<<<<
