SpectraSuite Data File
++++++++++++++++++++++++++++++++++++
Date: Thu May 14 15:19:15 PDT 2015
User: schluterlab
Dark Spectrum Present: Yes
Reference Spectrum Present: Yes
Number of Sampled Component Spectra: 1
Spectrometers: USB2E3373
Integration Time (usec): 3000 (USB2E3373)
Spectra Averaged: 3 (USB2E3373)
Boxcar Smoothing: 0 (USB2E3373)
Correct for Electrical Dark: No (USB2E3373)
Strobe/Lamp Enabled: No (USB2E3373)
Correct for Detector Non-linearity: No (USB2E3373)
Correct for Stray Light: No (USB2E3373)
Number of Pixels in Processed Spectrum: 2048
>>>>>Begin Processed Spectral Data<<<<<
178.53	0.000
178.91	542.857
179.29	-5200.000
179.67	-4100.000
180.04	400.000
180.42	340.000
180.80	880.000
181.18	-3800.000
181.56	-3300.000
181.94	1050.000
182.31	-1075.000
182.69	1500.000
183.07	-2000.000
183.45	1125.000
183.83	-600.000
184.20	-1333.333
184.58	4600.000
184.96	-1175.000
185.34	-366.667
185.72	-720.000
186.09	522.222
186.47	2250.000
186.85	1060.000
187.23	-588.889
187.61	-4500.000
187.98	1000.000
188.36	1000.000
188.74	-775.000
189.12	-1166.667
189.49	-206.250
189.87	-512.500
190.25	-400.000
190.63	-760.000
191.00	-488.889
191.38	0.000
191.76	-1025.000
192.14	-666.667
192.51	2350.000
192.89	-650.000
193.27	0.000
193.65	-514.286
194.02	-5000.000
194.40	-428.571
194.78	600.000
195.15	0.000
195.53	-318.182
195.91	0.000
196.29	-1175.000
196.66	-307.692
197.04	-5000.000
197.42	-571.429
197.79	-2200.000
198.17	-450.000
198.55	-528.571
198.92	-433.333
199.30	-500.000
199.68	-263.636
200.05	-257.143
200.43	-2050.000
200.81	614.286
201.18	0.000
201.56	577.778
201.94	0.000
202.31	1366.667
202.69	-444.444
203.07	3700.000
203.44	-388.889
203.82	-1025.000
204.19	-258.333
204.57	-666.667
204.95	-475.000
205.32	-3900.000
205.70	900.000
206.08	-616.667
206.45	-733.333
206.83	1000.000
207.20	-700.000
207.58	-860.000
207.96	-783.333
208.33	-516.667
208.71	291.667
209.08	-616.667
209.46	0.000
209.84	583.333
210.21	1850.000
210.59	2200.000
210.96	1133.333
211.34	-950.000
211.71	-475.000
212.09	-4700.000
212.46	0.000
212.84	2450.000
213.22	-960.000
213.59	-1050.000
213.97	-290.000
214.34	-1300.000
214.72	666.667
215.09	-925.000
215.47	0.000
215.84	585.714
216.22	1950.000
216.59	-740.000
216.97	-820.000
217.34	-1025.000
217.72	-412.500
218.09	-1100.000
218.47	-1125.000
218.84	0.000
219.22	820.000
219.59	-241.176
219.97	-170.000
220.34	2150.000
220.72	-444.444
221.09	-253.846
221.47	-1266.667
221.84	-380.000
222.22	-685.714
222.59	0.000
222.97	-462.500
223.34	-920.000
223.72	-4000.000
224.09	-1150.000
224.46	-1225.000
224.84	-600.000
225.21	-642.857
225.59	-1225.000
225.96	-1100.000
226.34	-146.154
226.71	900.000
227.08	-2350.000
227.46	-240.000
227.83	-900.000
228.21	-147.368
228.58	575.000
228.95	2350.000
229.33	-216.667
229.70	-390.000
230.08	-136.842
230.45	480.000
230.82	-1133.333
231.20	-278.571
231.57	-308.333
231.95	-354.545
232.32	-354.545
232.69	-165.000
233.07	-1125.000
233.44	-200.000
233.81	-390.000
234.19	-205.556
234.56	-136.364
234.93	-82.759
235.31	-168.421
235.68	-227.778
236.05	-225.000
236.43	-100.000
236.80	-116.000
237.17	-92.593
237.55	-75.758
237.92	-360.000
238.29	-103.226
238.67	-50.000
239.04	-80.556
239.41	-42.857
239.79	-60.870
240.16	-61.111
240.53	-69.565
240.91	-54.902
241.28	-40.984
241.65	-22.388
242.02	-16.216
242.40	-40.000
242.77	-28.000
243.14	-19.512
243.51	-32.895
243.89	-16.667
244.26	3.960
244.63	2.941
245.00	-1.869
245.38	4.386
245.75	-22.124
246.12	4.762
246.49	0.000
246.87	0.000
247.24	-0.662
247.61	3.289
247.98	4.698
248.36	-1.852
248.73	4.294
249.10	6.011
249.47	15.920
249.84	19.372
250.22	9.326
250.59	7.778
250.96	18.182
251.33	14.286
251.70	16.239
252.08	12.083
252.45	15.574
252.82	16.942
253.19	12.891
253.56	18.251
253.94	18.462
254.31	17.803
254.68	19.580
255.05	23.779
255.42	15.306
255.79	16.505
256.16	18.543
256.54	19.536
256.91	22.295
257.28	21.967
257.65	20.701
258.02	17.994
258.39	19.088
258.76	25.076
259.14	23.276
259.51	22.478
259.88	19.830
260.25	23.056
260.62	23.288
260.99	23.770
261.36	22.252
261.73	23.077
262.10	22.527
262.47	23.324
262.85	24.747
263.22	21.299
263.59	17.632
263.96	22.762
264.33	23.018
264.70	24.198
265.07	29.594
265.44	26.531
265.81	24.306
266.18	26.531
266.55	24.554
266.92	22.551
267.29	28.884
267.66	24.169
268.03	25.109
268.40	26.096
268.77	22.323
269.14	25.110
269.51	24.561
269.88	26.230
270.25	24.346
270.62	22.996
270.99	23.838
271.36	27.129
271.73	22.593
272.10	26.453
272.47	25.050
272.84	24.699
273.21	25.251
273.58	24.798
273.95	24.423
274.32	24.715
274.69	24.758
275.06	26.374
275.43	23.105
275.80	26.808
276.17	23.148
276.54	24.067
276.91	25.760
277.28	26.401
277.65	25.314
278.02	27.022
278.39	23.370
278.76	21.968
279.13	24.468
279.50	24.055
279.87	25.045
280.23	22.887
280.60	25.424
280.97	27.467
281.34	25.297
281.71	24.873
282.08	23.422
282.45	24.223
282.82	23.391
283.19	22.617
283.56	24.754
283.92	25.526
284.29	24.803
284.66	25.123
285.03	22.436
285.40	23.338
285.77	25.077
286.14	24.122
286.51	23.440
286.87	21.485
287.24	22.590
287.61	24.963
287.98	23.414
288.35	25.000
288.72	21.302
289.08	23.426
289.45	21.450
289.82	20.331
290.19	22.126
290.56	24.789
290.93	23.110
291.29	23.278
291.66	21.212
292.03	21.438
292.40	23.401
292.77	19.407
293.13	20.298
293.50	21.419
293.87	22.148
294.24	22.400
294.60	22.124
294.97	19.866
295.34	21.127
295.71	19.042
296.08	18.863
296.44	19.730
296.81	19.976
297.18	19.427
297.55	18.986
297.91	18.505
298.28	17.536
298.65	18.906
299.02	20.543
299.38	18.650
299.75	18.458
300.12	18.866
300.48	18.664
300.85	19.798
301.22	19.463
301.59	18.607
301.95	19.209
302.32	19.333
302.69	17.963
303.05	19.151
303.42	18.182
303.79	18.958
304.15	18.086
304.52	17.442
304.89	17.696
305.25	18.634
305.62	17.973
305.99	18.969
306.35	16.734
306.72	18.304
307.09	17.868
307.45	18.634
307.82	18.063
308.19	18.466
308.55	18.708
308.92	18.208
309.29	18.103
309.65	18.908
310.02	18.416
310.38	17.028
310.75	18.932
311.12	18.121
311.48	18.377
311.85	18.708
312.22	17.078
312.58	17.371
312.95	16.826
313.31	18.157
313.68	18.040
314.05	17.886
314.41	18.488
314.78	17.711
315.14	17.695
315.51	18.190
315.87	18.002
316.24	18.082
316.61	18.561
316.97	17.014
317.34	18.166
317.70	19.476
318.07	17.725
318.43	18.367
318.80	18.896
319.16	17.082
319.53	16.110
319.89	17.616
320.26	18.683
320.62	17.553
320.99	18.560
321.35	18.577
321.72	17.953
322.08	16.952
322.45	17.435
322.81	16.336
323.18	16.726
323.54	18.276
323.91	17.260
324.27	16.781
324.64	18.640
325.00	17.910
325.37	17.772
325.73	18.347
326.10	18.410
326.46	18.893
326.83	18.495
327.19	17.638
327.56	18.340
327.92	17.467
328.29	16.774
328.65	17.588
329.01	19.120
329.38	17.776
329.74	16.610
330.11	17.123
330.47	17.102
330.84	16.537
331.20	18.083
331.56	16.724
331.93	18.494
332.29	17.627
332.66	17.608
333.02	17.337
333.38	16.695
333.75	15.993
334.11	17.181
334.48	17.409
334.84	17.757
335.20	16.709
335.57	16.863
335.93	17.769
336.29	16.639
336.66	17.073
337.02	17.977
337.38	16.752
337.75	16.364
338.11	17.325
338.47	16.708
338.84	16.328
339.20	15.670
339.56	18.040
339.93	15.764
340.29	18.035
340.65	17.032
341.02	17.159
341.38	17.300
341.74	16.465
342.11	16.975
342.47	16.283
342.83	16.345
343.20	16.844
343.56	16.359
343.92	16.093
344.28	16.797
344.65	16.124
345.01	16.927
345.37	17.963
345.73	16.212
346.10	17.941
346.46	16.456
346.82	16.629
347.19	16.654
347.55	16.540
347.91	16.790
348.27	16.844
348.63	17.365
349.00	16.704
349.36	16.952
349.72	16.146
350.08	16.568
350.45	15.589
350.81	16.063
351.17	16.617
351.53	16.452
351.89	16.856
352.26	16.493
352.62	16.343
352.98	16.031
353.34	16.580
353.70	17.103
354.07	15.872
354.43	15.490
354.79	16.081
355.15	16.777
355.51	16.155
355.87	15.482
356.24	16.654
356.60	16.482
356.96	15.419
357.32	15.093
357.68	14.495
358.04	15.719
358.40	15.970
358.77	16.520
359.13	15.583
359.49	15.316
359.85	14.721
360.21	15.854
360.57	16.009
360.93	16.008
361.29	16.281
361.66	15.568
362.02	17.606
362.38	15.812
362.74	15.642
363.10	16.231
363.46	16.967
363.82	15.554
364.18	15.271
364.54	15.422
364.90	16.054
365.26	15.034
365.62	16.267
365.98	16.201
366.35	15.436
366.71	16.122
367.07	16.306
367.43	16.021
367.79	16.457
368.15	16.722
368.51	15.697
368.87	15.611
369.23	15.733
369.59	15.301
369.95	15.483
370.31	15.733
370.67	17.056
371.03	15.028
371.39	15.581
371.75	16.231
372.11	15.583
372.47	15.911
372.83	16.885
373.19	15.811
373.55	15.447
373.91	14.315
374.27	15.265
374.63	15.291
374.99	15.716
375.35	15.844
375.71	15.419
376.07	14.913
376.42	15.554
376.78	15.973
377.14	15.596
377.50	15.180
377.86	15.333
378.22	15.629
378.58	16.290
378.94	15.845
379.30	15.817
379.66	15.755
380.02	15.522
380.38	15.438
380.74	15.662
381.09	15.389
381.45	15.909
381.81	15.457
382.17	15.914
382.53	15.731
382.89	16.309
383.25	15.416
383.61	15.220
383.97	15.312
384.32	16.148
384.68	15.835
385.04	15.558
385.40	15.734
385.76	15.826
386.12	15.260
386.48	15.353
386.83	16.031
387.19	15.122
387.55	14.554
387.91	15.068
388.27	15.878
388.62	15.292
388.98	14.834
389.34	14.968
389.70	14.817
390.06	14.802
390.42	14.639
390.77	16.616
391.13	15.434
391.49	15.399
391.85	15.273
392.20	15.658
392.56	15.180
392.92	15.867
393.28	15.202
393.64	15.475
393.99	15.282
394.35	15.479
394.71	15.509
395.07	14.910
395.42	14.906
395.78	15.174
396.14	16.340
396.50	14.905
396.85	14.669
397.21	15.148
397.57	15.135
397.92	15.063
398.28	14.286
398.64	14.302
399.00	14.974
399.35	14.921
399.71	15.272
400.07	14.374
400.42	14.319
400.78	15.162
401.14	15.026
401.49	15.463
401.85	14.593
402.21	15.295
402.57	15.082
402.92	14.598
403.28	14.286
403.63	14.260
403.99	14.074
404.35	14.554
404.70	14.278
405.06	14.130
405.42	14.227
405.77	14.449
406.13	14.100
406.49	15.259
406.84	15.512
407.20	14.086
407.55	13.931
407.91	13.702
408.27	14.075
408.62	13.962
408.98	14.858
409.34	14.135
409.69	13.659
410.05	14.537
410.40	15.081
410.76	14.526
411.11	14.553
411.47	15.172
411.83	13.992
412.18	14.699
412.54	14.760
412.89	14.785
413.25	14.165
413.60	14.360
413.96	14.627
414.31	14.051
414.67	15.146
415.03	14.277
415.38	13.934
415.74	13.684
416.09	14.436
416.45	13.713
416.80	14.137
417.16	14.049
417.51	13.636
417.87	14.224
418.22	14.012
418.58	13.941
418.93	14.203
419.29	14.242
419.64	14.226
420.00	14.303
420.35	14.823
420.71	14.130
421.06	15.124
421.42	13.876
421.77	14.001
422.12	14.693
422.48	14.132
422.83	14.951
423.19	14.271
423.54	14.215
423.90	14.025
424.25	14.293
424.61	13.433
424.96	14.003
425.31	14.331
425.67	14.224
426.02	14.112
426.38	14.466
426.73	13.393
427.09	14.475
427.44	12.780
427.79	14.151
428.15	13.813
428.50	13.596
428.85	14.064
429.21	14.787
429.56	14.265
429.92	14.693
430.27	14.795
430.62	15.144
430.98	14.609
431.33	13.881
431.68	14.272
432.04	13.916
432.39	14.515
432.74	13.584
433.10	14.711
433.45	13.434
433.80	13.841
434.16	14.411
434.51	14.440
434.86	14.495
435.22	14.506
435.57	14.328
435.92	15.915
436.28	13.823
436.63	14.091
436.98	13.741
437.34	14.318
437.69	13.924
438.04	14.490
438.39	14.130
438.75	13.558
439.10	14.271
439.45	14.533
439.81	13.955
440.16	14.263
440.51	14.047
440.86	13.897
441.22	14.845
441.57	14.990
441.92	15.276
442.27	15.303
442.63	14.853
442.98	14.194
443.33	14.887
443.68	15.510
444.03	15.757
444.39	15.395
444.74	14.803
445.09	14.952
445.44	15.332
445.79	15.278
446.15	14.337
446.50	14.470
446.85	14.835
447.20	15.280
447.55	14.958
447.91	15.550
448.26	14.588
448.61	14.878
448.96	15.451
449.31	14.846
449.66	13.834
450.02	14.241
450.37	16.036
450.72	15.285
451.07	14.465
451.42	14.905
451.77	14.619
452.12	14.955
452.47	14.973
452.83	14.583
453.18	15.003
453.53	14.589
453.88	13.970
454.23	15.141
454.58	15.554
454.93	14.624
455.28	14.991
455.63	15.293
455.98	14.860
456.34	14.664
456.69	15.050
457.04	14.598
457.39	14.468
457.74	14.989
458.09	14.937
458.44	15.625
458.79	15.317
459.14	15.102
459.49	14.941
459.84	15.477
460.19	15.103
460.54	15.900
460.89	15.776
461.24	14.828
461.59	15.717
461.94	15.231
462.29	15.174
462.64	14.544
462.99	14.752
463.34	15.704
463.69	15.475
464.04	15.953
464.39	15.135
464.74	15.336
465.09	14.072
465.44	14.914
465.79	16.129
466.14	15.581
466.49	17.105
466.84	15.152
467.19	15.491
467.54	14.689
467.89	14.655
468.24	15.291
468.59	13.723
468.94	14.860
469.29	13.737
469.64	14.240
469.99	14.723
470.34	14.109
470.68	14.422
471.03	14.997
471.38	14.388
471.73	14.759
472.08	14.911
472.43	14.449
472.78	15.428
473.13	14.539
473.48	14.864
473.83	14.219
474.17	15.358
474.52	14.853
474.87	15.116
475.22	15.775
475.57	14.901
475.92	15.082
476.27	14.909
476.61	15.265
476.96	14.129
477.31	15.693
477.66	15.530
478.01	14.387
478.36	15.055
478.70	15.074
479.05	15.491
479.40	15.153
479.75	14.890
480.10	15.111
480.45	16.044
480.79	15.465
481.14	15.211
481.49	14.993
481.84	16.101
482.19	16.043
482.53	16.047
482.88	15.596
483.23	15.562
483.58	14.847
483.92	15.071
484.27	15.538
484.62	15.842
484.97	16.058
485.31	15.312
485.66	15.015
486.01	16.713
486.36	17.848
486.70	19.428
487.05	19.037
487.40	17.715
487.75	16.590
488.09	15.976
488.44	15.043
488.79	15.312
489.13	15.098
489.48	14.602
489.83	14.205
490.17	14.864
490.52	14.614
490.87	15.482
491.22	15.165
491.56	15.230
491.91	15.046
492.26	15.318
492.60	14.735
492.95	15.358
493.30	14.971
493.64	15.944
493.99	15.175
494.34	14.591
494.68	15.246
495.03	15.639
495.37	14.425
495.72	15.238
496.07	15.644
496.41	15.101
496.76	15.513
497.11	15.244
497.45	14.890
497.80	15.371
498.14	14.649
498.49	14.798
498.84	14.625
499.18	15.205
499.53	15.202
499.87	15.429
500.22	15.004
500.56	14.530
500.91	15.103
501.26	15.727
501.60	14.848
501.95	15.371
502.29	15.445
502.64	14.735
502.98	14.884
503.33	14.860
503.67	14.871
504.02	14.536
504.36	15.684
504.71	15.204
505.06	14.643
505.40	15.082
505.75	15.027
506.09	15.147
506.44	15.599
506.78	14.771
507.13	15.399
507.47	14.495
507.82	14.820
508.16	14.436
508.51	13.924
508.85	14.785
509.19	14.732
509.54	14.841
509.88	14.764
510.23	14.813
510.57	15.466
510.92	15.094
511.26	14.478
511.61	14.244
511.95	15.081
512.30	15.017
512.64	13.793
512.98	14.107
513.33	14.919
513.67	14.635
514.02	14.359
514.36	14.322
514.70	13.906
515.05	13.921
515.39	14.016
515.74	14.899
516.08	14.422
516.42	15.071
516.77	14.090
517.11	13.667
517.46	14.422
517.80	14.805
518.14	14.091
518.49	14.317
518.83	13.465
519.17	13.516
519.52	14.256
519.86	14.784
520.20	14.271
520.55	13.910
520.89	13.626
521.23	14.126
521.58	14.407
521.92	13.201
522.26	13.517
522.61	13.484
522.95	13.379
523.29	14.080
523.64	14.238
523.98	14.261
524.32	13.983
524.66	14.115
525.01	12.967
525.35	13.900
525.69	13.109
526.04	13.662
526.38	13.218
526.72	12.630
527.06	13.607
527.41	13.294
527.75	13.480
528.09	13.991
528.43	13.618
528.78	12.543
529.12	13.131
529.46	13.659
529.80	13.959
530.15	13.739
530.49	12.337
530.83	12.810
531.17	13.620
531.51	12.455
531.86	13.462
532.20	13.354
532.54	12.867
532.88	12.788
533.22	12.728
533.57	13.387
533.91	13.805
534.25	12.889
534.59	13.276
534.93	12.677
535.27	13.352
535.62	13.758
535.96	12.958
536.30	13.102
536.64	13.634
536.98	13.530
537.32	13.086
537.66	13.412
538.01	12.749
538.35	12.241
538.69	13.582
539.03	13.366
539.37	14.311
539.71	13.153
540.05	13.669
540.39	12.653
540.73	13.115
541.07	12.753
541.42	12.581
541.76	12.871
542.10	13.209
542.44	12.972
542.78	13.260
543.12	13.230
543.46	12.882
543.80	12.890
544.14	13.226
544.48	13.239
544.82	12.687
545.16	13.417
545.50	13.241
545.84	13.166
546.18	12.654
546.52	12.548
546.86	12.642
547.20	13.104
547.54	12.609
547.88	13.140
548.22	13.333
548.56	13.517
548.90	13.552
549.24	13.009
549.58	12.681
549.92	13.329
550.26	12.816
550.60	12.955
550.94	12.225
551.28	12.937
551.62	12.399
551.96	13.333
552.30	13.512
552.64	13.006
552.98	13.662
553.32	14.019
553.66	12.926
554.00	13.178
554.34	12.162
554.68	13.170
555.02	13.535
555.36	14.201
555.69	13.645
556.03	13.304
556.37	13.267
556.71	13.253
557.05	13.355
557.39	12.674
557.73	13.078
558.07	12.450
558.41	13.754
558.75	12.644
559.08	12.317
559.42	12.757
559.76	12.958
560.10	12.793
560.44	12.929
560.78	14.125
561.12	13.424
561.45	13.625
561.79	13.309
562.13	13.740
562.47	13.933
562.81	13.291
563.15	12.121
563.48	13.300
563.82	13.422
564.16	13.083
564.50	13.170
564.84	13.746
565.17	13.706
565.51	13.809
565.85	14.014
566.19	13.364
566.52	13.985
566.86	14.941
567.20	13.757
567.54	14.073
567.88	14.730
568.21	14.822
568.55	15.156
568.89	15.297
569.23	15.082
569.56	15.631
569.90	16.108
570.24	16.762
570.57	16.485
570.91	16.228
571.25	15.852
571.59	16.421
571.92	16.445
572.26	16.252
572.60	15.971
572.93	15.948
573.27	15.735
573.61	15.987
573.95	16.679
574.28	16.678
574.62	16.144
574.96	16.167
575.29	16.612
575.63	16.239
575.97	16.000
576.30	15.618
576.64	15.772
576.98	16.264
577.31	16.229
577.65	17.189
577.98	16.811
578.32	17.007
578.66	16.698
578.99	16.383
579.33	16.341
579.67	15.775
580.00	16.004
580.34	16.230
580.67	16.130
581.01	16.140
581.35	16.930
581.68	17.178
582.02	17.492
582.35	17.955
582.69	17.858
583.02	17.716
583.36	16.718
583.70	16.087
584.03	15.743
584.37	16.045
584.70	16.186
585.04	15.880
585.37	16.792
585.71	17.540
586.04	17.063
586.38	16.945
586.72	16.997
587.05	16.782
587.39	17.228
587.72	17.608
588.06	17.481
588.39	17.326
588.73	16.720
589.06	16.450
589.40	16.810
589.73	16.677
590.07	15.948
590.40	17.174
590.73	16.437
591.07	16.493
591.40	16.485
591.74	16.216
592.07	16.443
592.41	16.640
592.74	17.110
593.08	18.025
593.41	18.460
593.75	18.391
594.08	17.782
594.41	17.532
594.75	17.004
595.08	17.665
595.42	17.695
595.75	17.469
596.09	17.858
596.42	16.553
596.75	16.442
597.09	17.737
597.42	16.845
597.75	16.582
598.09	16.706
598.42	17.732
598.76	17.539
599.09	17.444
599.42	17.566
599.76	18.125
600.09	17.551
600.42	17.751
600.76	17.305
601.09	17.491
601.42	17.439
601.76	17.690
602.09	17.334
602.42	16.939
602.76	17.712
603.09	17.144
603.42	17.811
603.76	17.477
604.09	18.417
604.42	17.615
604.76	17.161
605.09	17.391
605.42	17.145
605.75	16.808
606.09	17.133
606.42	17.840
606.75	17.391
607.09	17.281
607.42	16.802
607.75	17.546
608.08	17.088
608.42	15.800
608.75	17.164
609.08	17.233
609.41	16.542
609.75	16.741
610.08	17.150
610.41	16.780
610.74	17.017
611.07	17.362
611.41	16.592
611.74	17.229
612.07	17.017
612.40	16.255
612.73	16.186
613.07	17.017
613.40	16.121
613.73	16.225
614.06	16.928
614.39	16.375
614.72	16.351
615.06	15.833
615.39	16.916
615.72	16.825
616.05	16.464
616.38	16.498
616.71	16.092
617.05	15.868
617.38	16.854
617.71	17.009
618.04	16.136
618.37	16.721
618.70	17.251
619.03	15.293
619.36	15.290
619.69	14.734
620.03	15.191
620.36	15.399
620.69	14.867
621.02	13.451
621.35	14.296
621.68	14.389
622.01	14.947
622.34	15.411
622.67	14.296
623.00	14.440
623.33	15.063
623.66	15.435
623.99	15.471
624.32	15.854
624.65	15.315
624.99	15.410
625.32	15.937
625.65	15.374
625.98	15.390
626.31	14.316
626.64	14.652
626.97	14.104
627.30	13.440
627.63	14.179
627.96	15.315
628.29	14.475
628.62	13.266
628.95	12.182
629.28	12.234
629.61	13.889
629.94	13.305
630.26	13.559
630.59	13.472
630.92	13.766
631.25	14.043
631.58	13.653
631.91	12.840
632.24	12.680
632.57	11.385
632.90	12.337
633.23	12.857
633.56	12.653
633.89	11.983
634.22	12.370
634.55	10.960
634.88	11.688
635.20	13.348
635.53	12.203
635.86	12.134
636.19	13.680
636.52	12.869
636.85	12.666
637.18	11.746
637.51	12.151
637.83	12.292
638.16	12.442
638.49	11.150
638.82	11.274
639.15	11.569
639.48	13.164
639.81	12.356
640.13	13.074
640.46	9.939
640.79	11.275
641.12	12.298
641.45	9.912
641.77	13.222
642.10	9.843
642.43	12.766
642.76	10.976
643.09	10.411
643.41	9.384
643.74	11.034
644.07	12.552
644.40	9.335
644.73	9.144
645.05	9.251
645.38	9.784
645.71	11.877
646.04	13.199
646.36	9.781
646.69	10.276
647.02	12.385
647.35	11.450
647.67	10.467
648.00	9.713
648.33	10.060
648.66	11.555
648.98	12.109
649.31	11.773
649.64	12.351
649.96	11.936
650.29	9.736
650.62	11.457
650.94	10.060
651.27	10.329
651.60	9.357
651.92	10.334
652.25	12.156
652.58	11.417
652.90	9.302
653.23	10.563
653.56	11.983
653.88	11.938
654.21	11.408
654.54	9.104
654.86	9.490
655.19	11.041
655.52	19.952
655.84	25.025
656.17	28.747
656.49	39.419
656.82	40.451
657.15	29.545
657.47	21.135
657.80	14.826
658.13	11.034
658.45	13.400
658.78	15.452
659.10	13.747
659.43	12.657
659.75	11.026
660.08	9.860
660.41	8.437
660.73	7.982
661.06	6.755
661.38	7.177
661.71	7.586
662.03	8.289
662.36	9.302
662.68	8.443
663.01	9.027
663.33	8.318
663.66	10.989
663.98	6.346
664.31	7.692
664.63	5.780
664.96	9.800
665.28	6.715
665.61	10.140
665.93	7.679
666.26	10.036
666.58	6.827
666.91	7.850
667.23	6.857
667.56	8.481
667.88	7.800
668.21	6.250
668.53	5.598
668.86	6.287
669.18	6.110
669.50	7.952
669.83	3.400
670.15	6.890
670.48	9.722
670.80	7.266
671.13	6.805
671.45	7.480
671.77	8.663
672.10	8.667
672.42	9.223
672.75	11.982
673.07	9.851
673.39	7.088
673.72	10.738
674.04	10.000
674.37	9.302
674.69	10.406
675.01	6.857
675.34	8.397
675.66	7.491
675.98	7.649
676.31	8.594
676.63	9.696
676.95	10.728
677.28	5.645
677.60	7.087
677.92	8.637
678.25	10.055
678.57	10.498
678.89	10.922
679.22	8.885
679.54	10.427
679.86	8.475
680.18	10.116
680.51	9.119
680.83	10.802
681.15	7.931
681.48	8.981
681.80	10.363
682.12	8.916
682.44	8.013
682.77	9.752
683.09	8.712
683.41	10.659
683.73	9.677
684.06	9.594
684.38	8.945
684.70	10.054
685.02	9.983
685.34	8.319
685.67	11.199
685.99	10.583
686.31	9.448
686.63	10.269
686.96	10.410
687.28	9.772
687.60	7.407
687.92	9.968
688.24	11.853
688.56	7.931
688.89	8.348
689.21	9.393
689.53	5.686
689.85	7.298
690.17	8.704
690.49	5.777
690.82	9.109
691.14	7.287
691.46	8.795
691.78	11.971
692.10	8.991
692.42	8.036
692.74	8.530
693.06	5.741
693.39	9.677
693.71	8.083
694.03	9.665
694.35	8.000
694.67	6.982
694.99	7.234
695.31	9.051
695.63	7.143
695.95	9.110
696.27	4.615
696.59	7.965
696.91	6.306
697.23	9.011
697.56	7.943
697.88	9.091
698.20	9.416
698.52	11.553
698.84	7.484
699.16	11.429
699.48	8.159
699.80	8.298
700.12	8.515
700.44	4.147
700.76	5.226
701.08	7.506
701.40	7.513
701.72	4.478
702.04	3.743
702.36	3.403
702.68	5.868
703.00	5.379
703.32	4.926
703.64	5.868
703.96	6.205
704.28	6.634
704.60	7.595
704.91	7.143
705.23	2.740
705.55	3.064
705.87	1.212
706.19	4.908
706.51	2.711
706.83	0.576
707.15	8.730
707.47	7.944
707.79	9.170
708.11	8.686
708.43	9.677
708.74	4.464
709.06	7.889
709.38	7.512
709.70	10.174
710.02	5.685
710.34	3.723
710.66	3.352
710.98	6.557
711.29	4.945
711.61	5.932
711.93	7.407
712.25	3.243
712.57	5.900
712.89	5.588
713.20	0.000
713.52	6.069
713.84	5.571
714.16	8.684
714.48	7.732
714.80	8.052
715.11	7.874
715.43	3.183
715.75	6.053
716.07	4.420
716.39	6.557
716.70	3.916
717.02	0.328
717.34	0.348
717.66	2.013
717.97	-0.342
718.29	2.749
718.61	-0.329
718.93	3.883
719.24	6.211
719.56	3.067
719.88	5.105
720.20	3.226
720.51	0.311
720.83	4.063
721.15	2.961
721.46	1.027
721.78	2.667
722.10	0.000
722.42	1.342
722.73	0.645
723.05	3.158
723.37	1.389
723.68	1.792
724.00	2.527
724.32	-2.113
724.63	0.699
724.95	3.191
725.27	3.484
725.58	-1.060
725.90	6.897
726.22	2.194
726.53	5.844
726.85	5.660
727.16	3.021
727.48	8.563
727.80	4.305
728.11	0.353
728.43	5.724
728.74	3.010
729.06	4.305
729.38	3.247
729.69	6.711
730.01	4.464
730.32	3.939
730.64	4.088
730.96	1.553
731.27	8.380
731.59	7.967
731.90	6.234
732.22	6.510
732.53	3.591
732.85	5.714
733.16	2.346
733.48	4.878
733.80	5.292
734.11	5.128
734.43	8.919
734.74	9.873
735.06	8.543
735.37	7.027
735.69	7.568
736.00	8.192
736.32	8.625
736.63	5.278
736.95	4.598
737.26	5.758
737.58	0.606
737.89	5.000
738.21	3.670
738.52	1.967
738.83	6.143
739.15	7.092
739.46	4.082
739.78	6.748
740.09	4.011
740.41	6.706
740.72	2.000
741.04	3.236
741.35	3.509
741.66	0.784
741.98	0.410
742.29	0.000
742.61	-0.439
742.92	0.385
743.23	2.166
743.55	0.775
743.86	1.200
744.18	-1.240
744.49	0.000
744.80	2.881
745.12	-1.688
745.43	4.065
745.74	1.724
746.06	2.119
746.37	-0.422
746.68	1.220
747.00	-2.083
747.31	-2.146
747.62	3.077
747.94	-2.429
748.25	3.213
748.56	0.000
748.88	-2.137
749.19	0.862
749.50	0.433
749.82	2.008
750.13	3.559
750.44	1.667
750.75	5.846
751.07	5.846
751.38	3.470
751.69	2.556
752.01	3.236
752.32	4.575
752.63	2.041
752.94	2.768
753.26	-1.859
753.57	0.741
753.88	2.996
754.19	3.215
754.51	6.752
754.82	7.074
755.13	6.557
755.44	5.461
755.75	4.276
756.07	6.269
756.38	4.717
756.69	6.024
757.00	6.094
757.31	8.743
757.63	7.673
757.94	7.512
758.25	10.158
758.56	9.804
758.87	7.273
759.18	3.467
759.50	8.215
759.81	7.843
760.12	8.625
760.43	10.937
760.74	9.360
761.05	8.250
761.36	6.506
761.67	7.868
761.99	8.378
762.30	6.098
762.61	0.330
762.92	3.358
763.23	4.869
763.54	5.755
763.85	1.375
764.16	2.694
764.47	2.113
764.78	8.626
765.10	4.399
765.41	12.051
765.72	5.026
766.03	7.345
766.34	2.821
766.65	2.439
766.96	-0.398
767.27	-0.461
767.58	-3.980
767.89	0.000
768.20	4.225
768.51	-0.463
768.82	1.205
769.13	3.788
769.44	1.923
769.75	4.332
770.06	2.308
770.37	9.055
770.68	2.128
770.99	0.405
771.30	7.778
771.61	6.084
771.92	0.370
772.23	5.263
772.54	-2.778
772.85	-0.922
773.16	-3.810
773.47	-7.407
773.78	-9.189
774.09	-6.250
774.39	1.500
774.70	-3.279
775.01	-11.585
775.32	-8.824
775.63	-7.362
775.94	-19.745
776.25	-10.968
776.56	-9.615
776.87	-6.122
777.18	-6.207
777.48	-10.490
777.79	-17.568
778.10	-12.500
778.41	-6.250
778.72	-13.103
779.03	-9.259
779.34	-4.848
779.65	-0.518
779.95	-3.333
780.26	-1.705
780.57	-5.806
780.88	-4.348
781.19	-7.097
781.50	1.176
781.80	-0.538
782.11	-4.762
782.42	-2.020
782.73	-10.778
783.04	-3.911
783.34	-10.303
783.65	-14.379
783.96	-9.317
784.27	-5.952
784.57	-9.934
784.88	-12.143
785.19	-19.685
785.50	-18.110
785.81	-15.038
786.11	-11.538
786.42	-15.108
786.73	-13.669
787.04	-22.556
787.34	-18.852
787.65	-15.200
787.96	-5.970
788.26	-2.797
788.57	-5.594
788.88	-6.579
789.19	-3.268
789.49	-13.699
789.80	-10.638
790.11	-18.110
790.41	-13.281
790.72	-16.949
791.03	-26.214
791.33	-9.565
791.64	-16.667
791.95	-25.893
792.25	-17.143
792.56	-13.393
792.87	-20.833
793.17	-15.179
793.48	-19.792
793.79	-40.964
794.09	-21.101
794.40	-21.101
794.70	-8.844
795.01	-14.286
795.32	-4.795
795.62	-7.042
795.93	-13.636
796.23	-13.115
796.54	-16.964
796.85	-27.660
797.15	-26.087
797.46	-43.836
797.76	-35.000
798.07	-33.696
798.37	-37.113
798.68	-42.857
798.99	-29.885
799.29	-41.573
799.60	-23.404
799.90	-27.711
800.21	-44.615
800.51	-49.254
800.82	-60.294
801.12	-61.644
801.43	-55.882
801.73	-50.847
802.04	-53.030
802.34	-63.333
802.65	-57.627
802.95	-44.776
803.26	-45.763
803.56	-42.466
803.87	-54.286
804.17	-35.616
804.48	-78.947
804.78	-48.611
805.09	-58.621
805.39	-40.541
805.70	-54.930
806.00	-28.049
806.30	-27.711
806.61	-45.205
806.91	-25.000
807.22	-34.444
807.52	-22.989
807.83	-22.222
808.13	-19.277
808.43	-22.472
808.74	-40.000
809.04	-55.882
809.35	-44.000
809.65	-51.429
809.95	-39.726
810.26	-64.912
810.56	-53.448
810.86	-45.588
811.17	-59.649
811.47	-57.377
811.77	-71.111
812.08	-64.407
812.38	-56.667
812.69	-44.828
812.99	-62.264
813.29	-100.000
813.59	-70.000
813.90	-59.649
814.20	-58.182
814.50	-14.085
814.81	-32.051
815.11	-34.426
815.41	-47.761
815.72	-43.103
816.02	-62.500
816.32	-82.222
816.62	-72.727
816.93	-53.333
817.23	-59.259
817.53	-80.851
817.84	-69.048
818.14	-105.882
818.44	-85.714
818.74	-73.333
819.04	-69.231
819.35	-122.857
819.65	-176.923
819.95	-56.604
820.25	-60.000
820.56	-85.714
820.86	-96.875
821.16	-76.923
821.46	-81.395
821.76	-84.000
822.07	-57.143
822.37	-60.870
822.67	-85.106
822.97	-132.432
823.27	-107.500
823.57	-59.184
823.88	-68.889
824.18	-82.500
824.48	-110.000
824.78	-160.000
825.08	-109.091
825.38	-80.000
825.69	-63.830
825.99	-91.667
826.29	-142.857
826.59	-100.000
826.89	-95.349
827.19	-70.000
827.49	-114.706
827.79	-62.500
828.09	-129.730
828.39	-146.667
828.70	-90.244
829.00	-79.070
829.30	-146.429
829.60	-91.176
829.90	-65.217
830.20	-91.429
830.50	-144.828
830.80	-183.333
831.10	-176.923
831.40	-117.647
831.70	-176.190
832.00	-103.226
832.30	-305.882
832.60	-183.333
832.90	-369.231
833.20	-184.211
833.50	-190.000
833.80	-247.368
834.10	-219.048
834.40	-88.889
834.70	-90.625
835.00	-142.857
835.30	-97.059
835.60	-143.333
835.90	-168.000
836.20	-227.273
836.50	-144.000
836.80	-148.485
837.10	-181.481
837.40	-122.222
837.70	-293.750
838.00	-100.000
838.30	-169.565
838.60	-144.828
838.90	-242.857
839.19	-230.435
839.49	-416.667
839.79	-178.261
840.09	-262.500
840.39	-185.000
840.69	-93.548
840.99	-146.429
841.29	-233.333
841.59	-189.474
841.88	-64.103
842.18	-150.000
842.48	-460.000
842.78	-215.000
843.08	-100.000
843.38	-103.226
843.68	-272.222
843.97	-114.706
844.27	-231.250
844.57	-226.316
844.87	-510.000
845.17	-273.333
845.47	-171.429
845.76	-171.429
846.06	-533.333
846.36	-264.706
846.66	-153.846
846.96	-313.333
847.25	-264.706
847.55	-126.087
847.85	-180.000
848.15	-194.118
848.44	-381.818
848.74	-190.476
849.04	-166.667
849.34	-218.750
849.63	-143.478
849.93	2650.000
850.23	-266.667
850.53	-107.692
850.82	-263.636
851.12	-131.818
851.42	-327.273
851.71	-223.077
852.01	-200.000
852.31	-300.000
852.61	-168.421
852.90	-308.333
853.20	-183.333
853.50	-577.778
853.79	-219.048
854.09	-136.364
854.39	-450.000
854.68	-112.903
854.98	-142.308
855.28	-194.444
855.57	-139.286
855.87	-140.000
856.17	-186.364
856.46	-103.704
856.76	-188.889
857.05	-182.609
857.35	-162.500
857.65	-300.000
857.94	-152.381
858.24	-107.407
858.53	-165.217
858.83	-270.588
859.13	-200.000
859.42	-188.235
859.72	-235.714
860.01	-175.000
860.31	-444.444
860.60	-380.000
860.90	-246.667
861.20	-194.444
861.49	-230.769
861.79	-110.000
862.08	-330.769
862.38	-103.125
862.67	-211.765
862.97	-256.250
863.26	-466.667
863.56	-380.000
863.85	-390.909
864.15	-211.111
864.44	-1633.333
864.74	-300.000
865.03	-225.000
865.33	-450.000
865.62	-129.032
865.92	-154.545
866.21	-121.739
866.51	-250.000
866.80	-840.000
867.10	-408.333
867.39	-391.667
867.69	5100.000
867.98	-485.714
868.27	-194.118
868.57	-4900.000
868.86	-550.000
869.16	-209.524
869.45	-125.000
869.75	-281.818
870.04	-557.143
870.33	-308.333
870.63	-557.143
870.92	-925.000
871.22	-600.000
871.51	-454.545
871.80	-1600.000
872.10	-2000.000
>>>>>End Processed Spectral Data<<<<<
