SpectraSuite Data File
++++++++++++++++++++++++++++++++++++
Date: Thu May 14 14:42:33 PDT 2015
User: schluterlab
Dark Spectrum Present: Yes
Reference Spectrum Present: Yes
Number of Sampled Component Spectra: 1
Spectrometers: USB2E3373
Integration Time (usec): 3000 (USB2E3373)
Spectra Averaged: 3 (USB2E3373)
Boxcar Smoothing: 0 (USB2E3373)
Correct for Electrical Dark: No (USB2E3373)
Strobe/Lamp Enabled: No (USB2E3373)
Correct for Detector Non-linearity: No (USB2E3373)
Correct for Stray Light: No (USB2E3373)
Number of Pixels in Processed Spectrum: 2048
>>>>>Begin Processed Spectral Data<<<<<
178.53	0.000
178.91	42.857
179.29	1000.000
179.67	100.000
180.04	92.857
180.42	-110.000
180.80	-20.000
181.18	300.000
181.56	1400.000
181.94	150.000
182.31	325.000
182.69	-100.000
183.07	350.000
183.45	75.000
183.83	66.667
184.20	200.000
184.58	-900.000
184.96	-125.000
185.34	77.778
185.72	220.000
186.09	144.444
186.47	150.000
186.85	40.000
187.23	33.333
187.61	200.000
187.98	-100.000
188.36	-150.000
188.74	50.000
189.12	300.000
189.49	68.750
189.87	12.500
190.25	144.444
190.63	200.000
191.00	-100.000
191.38	0.000
191.76	75.000
192.14	83.333
192.51	-350.000
192.89	183.333
193.27	0.000
193.65	285.714
194.02	-200.000
194.40	71.429
194.78	-128.571
195.15	0.000
195.53	36.364
195.91	0.000
196.29	50.000
196.66	0.000
197.04	-200.000
197.42	28.571
197.79	-200.000
198.17	0.000
198.55	0.000
198.92	44.444
199.30	12.500
199.68	45.455
200.05	64.286
200.43	0.000
200.81	-71.429
201.18	0.000
201.56	44.444
201.94	0.000
202.31	66.667
202.69	77.778
203.07	-900.000
203.44	0.000
203.82	50.000
204.19	50.000
204.57	50.000
204.95	87.500
205.32	1500.000
205.70	-50.000
206.08	0.000
206.45	33.333
206.83	100.000
207.20	0.000
207.58	-80.000
207.96	-83.333
208.33	183.333
208.71	-33.333
209.08	283.333
209.46	0.000
209.84	116.667
210.21	-650.000
210.59	-450.000
210.96	133.333
211.34	225.000
211.71	-25.000
212.09	-1000.000
212.46	0.000
212.84	150.000
213.22	-60.000
213.59	350.000
213.97	200.000
214.34	33.333
214.72	16.667
215.09	-75.000
215.47	0.000
215.84	-28.571
216.22	300.000
216.59	40.000
216.97	60.000
217.34	250.000
217.72	137.500
218.09	-75.000
218.47	0.000
218.84	0.000
219.22	-20.000
219.59	35.294
219.97	35.000
220.34	-200.000
220.72	22.222
221.09	115.385
221.47	166.667
221.84	40.000
222.22	-100.000
222.59	0.000
222.97	50.000
223.34	0.000
223.72	0.000
224.09	-75.000
224.46	-25.000
224.84	260.000
225.21	28.571
225.59	-100.000
225.96	175.000
226.34	57.692
226.71	116.667
227.08	700.000
227.46	6.667
227.83	100.000
228.21	73.684
228.58	62.500
228.95	350.000
229.33	108.333
229.70	30.000
230.08	94.737
230.45	70.000
230.82	366.667
231.20	71.429
231.57	66.667
231.95	45.455
232.32	127.273
232.69	40.000
233.07	0.000
233.44	-5.882
233.81	-30.000
234.19	50.000
234.56	63.636
234.93	31.034
235.31	42.105
235.68	22.222
236.05	-15.000
236.43	65.385
236.80	56.000
237.17	51.852
237.55	48.485
237.92	60.000
238.29	32.258
238.67	0.000
239.04	33.333
239.41	16.667
239.79	0.000
240.16	25.926
240.53	15.217
240.91	9.804
241.28	14.754
241.65	32.836
242.02	25.676
242.40	13.846
242.77	21.333
243.14	4.878
243.51	10.526
243.89	10.256
244.26	22.772
244.63	18.627
245.00	18.692
245.38	9.649
245.75	7.965
246.12	13.492
246.49	14.729
246.87	13.571
247.24	23.841
247.61	19.079
247.98	15.436
248.36	10.494
248.73	11.656
249.10	14.754
249.47	20.398
249.84	20.419
250.22	9.326
250.59	17.222
250.96	12.273
251.33	13.265
251.70	9.402
252.08	10.833
252.45	17.213
252.82	15.289
253.19	11.328
253.56	11.787
253.94	12.308
254.31	12.879
254.68	14.336
255.05	15.961
255.42	15.306
255.79	11.974
256.16	12.914
256.54	11.258
256.91	13.115
257.28	14.754
257.65	11.146
258.02	10.619
258.39	12.536
258.76	13.150
259.14	14.655
259.51	12.968
259.88	10.765
260.25	13.333
260.62	15.890
260.99	15.301
261.36	13.941
261.73	11.406
262.10	12.088
262.47	9.383
262.85	16.162
263.22	14.545
263.59	11.053
263.96	12.532
264.33	12.532
264.70	15.309
265.07	14.797
265.44	15.420
265.81	13.426
266.18	9.524
266.55	12.946
266.92	12.756
267.29	13.567
267.66	12.417
268.03	13.974
268.40	12.735
268.77	8.200
269.14	10.573
269.51	11.623
269.88	13.730
270.25	12.475
270.62	13.291
270.99	13.737
271.36	13.267
271.73	15.128
272.10	12.024
272.47	12.826
272.84	12.651
273.21	13.627
273.58	14.516
273.95	11.923
274.32	12.928
274.69	13.540
275.06	13.004
275.43	10.166
275.80	11.817
276.17	10.370
276.54	11.381
276.91	12.880
277.28	11.212
277.65	14.183
278.02	12.132
278.39	11.232
278.76	11.775
279.13	11.879
279.50	12.543
279.87	11.091
280.23	8.099
280.60	13.390
280.97	11.678
281.34	11.375
281.71	12.690
282.08	12.625
282.45	10.475
282.82	11.146
283.19	10.339
283.56	12.131
283.92	13.664
284.29	13.428
284.66	12.151
285.03	10.256
285.40	10.355
285.77	11.146
286.14	11.908
286.51	12.024
286.87	10.742
287.24	11.898
287.61	11.958
287.98	12.689
288.35	10.799
288.72	11.095
289.08	10.688
289.45	9.911
289.82	11.446
290.19	12.356
290.56	10.282
290.93	10.556
291.29	9.366
291.66	10.744
292.03	9.769
292.40	12.381
292.77	10.916
293.13	10.961
293.50	8.804
293.87	11.409
294.24	10.933
294.60	11.378
294.97	9.128
295.34	12.036
295.71	10.340
296.08	10.336
296.44	10.294
296.81	10.353
297.18	9.091
297.55	10.849
297.91	8.897
298.28	9.716
298.65	11.177
299.02	7.910
299.38	9.725
299.75	9.579
300.12	9.491
300.48	8.756
300.85	10.349
301.22	9.060
301.59	9.247
301.95	9.492
302.32	9.222
302.69	10.186
303.05	10.773
303.42	9.756
303.79	8.854
304.15	9.148
304.52	9.725
304.89	10.471
305.25	10.248
305.62	8.359
305.99	9.278
306.35	7.661
306.72	10.134
307.09	9.442
307.45	9.317
307.82	9.183
308.19	9.384
308.55	10.222
308.92	10.711
309.29	9.770
309.65	9.357
310.02	9.208
310.38	9.449
310.75	10.291
311.12	10.451
311.48	9.189
311.85	9.022
312.22	9.583
312.58	9.671
312.95	10.899
313.31	10.930
313.68	10.623
314.05	10.569
314.41	11.020
314.78	10.263
315.14	10.254
315.51	10.526
315.87	11.611
316.24	11.781
316.61	10.480
316.97	10.226
317.34	10.582
317.70	11.528
318.07	11.993
318.43	11.905
318.80	12.625
319.16	11.416
319.53	10.883
319.89	11.744
320.26	12.011
320.62	12.145
320.99	12.465
321.35	12.662
321.72	14.698
322.08	12.083
322.45	13.460
322.81	13.628
323.18	13.009
323.54	13.448
323.91	13.968
324.27	14.028
324.64	14.610
325.00	13.516
325.37	14.578
325.73	14.711
326.10	14.599
326.46	14.984
326.83	15.212
327.19	14.961
327.56	15.099
327.92	16.050
328.29	14.758
328.65	14.405
329.01	15.821
329.38	16.259
329.74	16.610
330.11	15.839
330.47	15.670
330.84	16.021
331.20	15.500
331.56	16.031
331.93	16.151
332.29	16.356
332.66	16.860
333.02	17.002
333.38	16.107
333.75	15.488
334.11	15.763
334.48	16.502
334.84	16.907
335.20	16.457
335.57	18.128
335.93	16.446
336.29	15.973
336.66	15.559
337.02	17.475
337.38	16.412
337.75	15.537
338.11	16.989
338.47	16.956
338.84	16.328
339.20	17.018
339.56	17.628
339.93	16.585
340.29	16.908
340.65	16.707
341.02	17.079
341.38	16.977
341.74	16.546
342.11	16.653
342.47	15.250
342.83	17.552
343.20	17.007
343.56	17.001
343.92	16.573
344.28	17.812
344.65	17.287
345.01	17.239
345.37	17.185
345.73	15.588
346.10	16.771
346.46	16.297
346.82	17.603
347.19	16.578
347.55	17.451
347.91	16.419
348.27	16.768
348.63	16.451
349.00	16.182
349.36	17.323
349.72	16.295
350.08	17.162
350.45	16.426
350.81	16.817
351.17	16.767
351.53	15.997
351.89	17.160
352.26	16.866
352.62	17.836
352.98	17.328
353.34	16.206
353.70	17.180
354.07	16.617
354.43	16.477
354.79	17.128
355.15	16.851
355.51	17.763
355.87	15.856
356.24	17.338
356.60	17.221
356.96	17.198
357.32	15.911
357.68	17.350
358.04	16.392
358.40	17.164
358.77	17.398
359.13	15.731
359.49	14.572
359.85	17.186
360.21	15.710
360.57	16.511
360.93	16.714
361.29	17.544
361.66	16.727
362.02	16.701
362.38	17.358
362.74	17.249
363.10	18.226
363.46	16.551
363.82	17.330
364.18	16.890
364.54	16.874
364.90	17.592
365.26	17.241
365.62	18.467
365.98	17.835
366.35	17.919
366.71	17.755
367.07	17.862
367.43	18.253
367.79	17.253
368.15	17.659
368.51	17.930
368.87	16.656
369.23	17.267
369.59	17.486
369.95	17.512
370.31	18.433
370.67	17.331
371.03	17.175
371.39	17.529
371.75	18.019
372.11	17.751
372.47	18.416
372.83	17.605
373.19	18.612
373.55	17.480
373.91	17.246
374.27	17.982
374.63	18.133
374.99	17.042
375.35	18.377
375.71	18.323
376.07	18.786
376.42	19.018
376.78	18.832
377.14	17.904
377.50	17.774
377.86	18.411
378.22	18.443
378.58	18.490
378.94	18.251
379.30	18.629
379.66	18.460
380.02	18.984
380.38	19.009
380.74	18.254
381.09	19.106
381.45	19.773
381.81	19.555
382.17	18.884
382.53	18.655
382.89	18.962
383.25	19.343
383.61	19.850
383.97	18.963
384.32	19.438
384.68	19.374
385.04	20.185
385.40	19.328
385.76	20.457
386.12	19.629
386.48	20.118
386.83	19.607
387.19	19.873
387.55	19.131
387.91	20.205
388.27	20.381
388.62	19.759
388.98	19.684
389.34	20.507
389.70	20.337
390.06	20.485
390.42	21.145
390.77	20.590
391.13	19.777
391.49	20.350
391.85	20.182
392.20	19.751
392.56	20.201
392.92	20.611
393.28	20.398
393.64	19.777
393.99	20.918
394.35	20.561
394.71	20.659
395.07	19.880
395.42	19.989
395.78	20.841
396.14	20.559
396.50	20.071
396.85	20.513
397.21	20.000
397.57	20.495
397.92	21.077
398.28	19.880
398.64	20.252
399.00	20.628
399.35	21.152
399.71	20.815
400.07	20.887
400.42	20.664
400.78	19.850
401.14	20.774
401.49	20.694
401.85	21.047
402.21	20.336
402.57	20.716
402.92	20.272
403.28	21.604
403.63	20.585
403.99	19.893
404.35	20.864
404.70	20.907
405.06	20.924
405.42	20.902
405.77	21.156
406.13	21.610
406.49	20.158
406.84	21.108
407.20	20.794
407.55	20.291
407.91	20.490
408.27	21.201
408.62	21.175
408.98	21.184
409.34	20.000
409.69	21.446
410.05	21.512
410.40	20.766
410.76	20.303
411.11	21.040
411.47	20.946
411.83	20.811
412.18	21.386
412.54	21.577
412.89	21.246
413.25	21.332
413.60	20.678
413.96	21.503
414.31	20.907
414.67	20.811
415.03	19.815
415.38	21.375
415.74	21.075
416.09	21.407
416.45	20.852
416.80	20.012
417.16	20.626
417.51	20.922
417.87	21.214
418.22	21.257
418.58	21.252
418.93	21.944
419.29	21.517
419.64	21.369
420.00	22.196
420.35	20.831
420.71	21.080
421.06	20.817
421.42	21.330
421.77	20.948
422.12	21.882
422.48	20.891
422.83	21.906
423.19	21.432
423.54	21.681
423.90	21.425
424.25	22.027
424.61	22.331
424.96	22.186
425.31	21.709
425.67	21.578
426.02	22.911
426.38	21.929
426.73	21.763
427.09	22.607
427.44	21.518
427.79	22.278
428.15	22.032
428.50	22.191
428.85	22.101
429.21	22.926
429.56	21.964
429.92	22.162
430.27	22.410
430.62	22.081
430.98	22.086
431.33	22.287
431.68	21.743
432.04	22.092
432.39	23.139
432.74	23.002
433.10	23.039
433.45	22.352
433.80	22.693
434.16	23.502
434.51	22.970
434.86	23.670
435.22	23.433
435.57	23.644
435.92	22.593
436.28	22.867
436.63	23.703
436.98	23.671
437.34	23.732
437.69	23.280
438.04	23.850
438.39	23.148
438.75	23.022
439.10	24.260
439.45	24.036
439.81	23.503
440.16	24.021
440.51	24.192
440.86	23.902
441.22	24.169
441.57	24.371
441.92	24.103
442.27	24.242
442.63	23.944
442.98	24.280
443.33	24.198
443.68	24.727
444.03	25.259
444.39	24.642
444.74	24.604
445.09	23.771
445.44	25.290
445.79	25.096
446.15	25.283
446.50	25.271
446.85	25.535
447.20	25.532
447.55	24.477
447.91	25.340
448.26	25.846
448.61	24.442
448.96	25.751
449.31	25.080
449.66	25.163
450.02	26.160
450.37	25.519
450.72	25.942
451.07	25.626
451.42	25.303
451.77	24.903
452.12	26.072
452.47	25.253
452.83	25.282
453.18	26.095
453.53	25.043
453.88	25.566
454.23	25.593
454.58	25.943
454.93	25.303
455.28	26.249
455.63	25.924
455.98	25.866
456.34	25.677
456.69	25.985
457.04	26.832
457.39	25.499
457.74	26.510
458.09	25.920
458.44	26.994
458.79	26.251
459.14	25.957
459.49	25.863
459.84	26.338
460.19	26.097
460.54	26.689
460.89	26.575
461.24	25.747
461.59	26.563
461.94	25.556
462.29	25.868
462.64	26.494
462.99	25.487
463.34	26.606
463.69	25.909
464.04	27.237
464.39	25.729
464.74	25.941
465.09	26.413
465.44	27.146
465.79	27.129
466.14	26.785
466.49	26.842
466.84	26.006
467.19	26.243
467.54	24.971
467.89	26.149
468.24	26.427
468.59	25.999
468.94	25.175
469.29	26.455
469.64	26.256
469.99	27.597
470.34	26.176
470.68	27.409
471.03	26.588
471.38	26.619
471.73	26.983
472.08	27.284
472.43	26.851
472.78	27.204
473.13	26.865
473.48	26.767
473.83	27.452
474.17	26.905
474.52	27.300
474.87	27.076
475.22	27.437
475.57	26.376
475.92	27.725
476.27	26.784
476.61	26.895
476.96	26.434
477.31	26.386
477.66	27.282
478.01	26.335
478.36	26.620
478.70	26.897
479.05	27.352
479.40	27.591
479.75	27.378
480.10	26.859
480.45	26.983
480.79	27.438
481.14	27.390
481.49	26.851
481.84	27.328
482.19	27.828
482.53	27.197
482.88	27.692
483.23	27.479
483.58	27.948
483.92	27.172
484.27	27.223
484.62	25.990
484.97	27.411
485.31	26.892
485.66	25.925
486.01	27.091
486.36	27.736
486.70	28.597
487.05	28.407
487.40	27.699
487.75	27.099
488.09	26.712
488.44	26.726
488.79	26.847
489.13	26.575
489.48	26.408
489.83	26.439
490.17	26.974
490.52	27.011
490.87	27.284
491.22	27.296
491.56	27.133
491.91	27.257
492.26	27.347
492.60	27.460
492.95	27.293
493.30	27.611
493.64	27.639
493.99	27.412
494.34	27.003
494.68	26.809
495.03	27.401
495.37	27.519
495.72	27.075
496.07	27.476
496.41	26.727
496.76	27.690
497.11	27.346
497.45	28.269
497.80	27.899
498.14	27.664
498.49	27.344
498.84	27.697
499.18	28.205
499.53	28.341
499.87	27.912
500.22	26.492
500.56	27.530
500.91	28.009
501.26	28.773
501.60	27.309
501.95	28.354
502.29	27.688
502.64	28.553
502.98	26.963
503.33	27.905
503.67	27.737
504.02	27.933
504.36	28.463
504.71	27.928
505.06	27.558
505.40	27.468
505.75	28.461
506.09	28.775
506.44	28.319
506.78	28.486
507.13	28.308
507.47	28.659
507.82	28.172
508.16	28.394
508.51	28.176
508.85	28.531
509.19	28.659
509.54	29.011
509.88	28.460
510.23	28.120
510.57	28.903
510.92	28.544
511.26	28.042
511.61	28.344
511.95	28.551
512.30	29.000
512.64	27.586
512.98	29.065
513.33	29.688
513.67	28.710
514.02	28.411
514.36	28.338
514.70	28.802
515.05	27.894
515.39	28.609
515.74	29.268
516.08	28.368
516.42	28.938
516.77	29.232
517.11	28.056
517.46	29.003
517.80	28.968
518.14	29.380
518.49	28.796
518.83	28.473
519.17	27.894
519.52	29.245
519.86	29.303
520.20	29.446
520.55	28.368
520.89	28.547
521.23	28.867
521.58	29.153
521.92	29.575
522.26	28.351
522.61	29.398
522.95	29.123
523.29	29.310
523.64	28.587
523.98	29.549
524.32	29.398
524.66	29.596
525.01	29.445
525.35	28.374
525.69	28.306
526.04	28.358
526.38	28.563
526.72	29.181
527.06	28.680
527.41	28.280
527.75	29.335
528.09	28.571
528.43	30.314
528.78	28.844
529.12	29.472
529.46	29.342
529.80	29.863
530.15	30.203
530.49	28.885
530.83	29.870
531.17	28.734
531.51	29.663
531.86	28.546
532.20	29.207
532.54	28.127
532.88	28.727
533.22	28.403
533.57	29.313
533.91	29.349
534.25	29.847
534.59	28.966
534.93	28.523
535.27	29.408
535.62	29.221
535.96	28.530
536.30	29.671
536.64	30.270
536.98	29.459
537.32	28.086
537.66	28.696
538.01	29.245
538.35	28.685
538.69	28.906
539.03	29.123
539.37	29.741
539.71	28.529
540.05	29.017
540.39	28.851
540.73	28.597
541.07	28.387
541.42	29.002
541.76	28.410
542.10	28.709
542.44	29.111
542.78	29.319
543.12	28.308
543.46	29.060
543.80	27.938
544.14	28.426
544.48	29.610
544.82	29.144
545.16	29.040
545.50	28.999
545.84	28.904
546.18	29.630
546.52	28.662
546.86	29.308
547.20	28.690
547.54	27.591
547.88	29.174
548.22	29.240
548.56	29.315
548.90	29.194
549.24	30.030
549.58	28.580
549.92	29.145
550.26	29.450
550.60	28.781
550.94	29.948
551.28	29.175
551.62	29.515
551.96	29.191
552.30	29.637
552.64	29.745
552.98	29.008
553.32	30.997
553.66	28.875
554.00	29.634
554.34	28.571
554.68	28.599
555.02	29.106
555.36	29.652
555.69	28.315
556.03	29.193
556.37	29.036
556.71	29.803
557.05	28.626
557.39	28.799
557.73	28.468
558.07	28.874
558.41	29.635
558.75	28.600
559.08	28.462
559.42	28.189
559.76	28.901
560.10	28.734
560.44	29.090
560.78	29.125
561.12	29.433
561.45	29.075
561.79	29.426
562.13	29.698
562.47	28.237
562.81	29.494
563.15	29.735
563.48	29.335
563.82	29.444
564.16	28.710
564.50	29.142
564.84	29.204
565.17	29.588
565.51	28.769
565.85	29.335
566.19	28.571
566.52	29.608
566.86	29.768
567.20	28.603
567.54	29.634
567.88	30.020
568.21	29.249
568.55	29.065
568.89	29.914
569.23	29.109
569.56	29.621
569.90	29.116
570.24	29.444
570.57	29.570
570.91	29.424
571.25	29.534
571.59	28.639
571.92	28.731
572.26	29.089
572.60	28.747
572.93	28.862
573.27	29.053
573.61	28.454
573.95	28.526
574.28	28.942
574.62	28.604
574.96	28.562
575.29	28.376
575.63	28.621
575.97	28.479
576.30	28.596
576.64	28.537
576.98	28.360
577.31	28.822
577.65	29.096
577.98	28.727
578.32	28.498
578.66	28.948
578.99	28.384
579.33	28.568
579.67	28.309
580.00	27.984
580.34	28.141
580.67	28.310
581.01	28.148
581.35	28.385
581.68	28.678
582.02	28.762
582.35	29.415
582.69	29.268
583.02	29.079
583.36	28.815
583.70	28.630
584.03	27.982
584.37	27.746
584.70	28.020
585.04	28.412
585.37	28.414
585.71	28.673
586.04	28.842
586.38	28.389
586.72	28.203
587.05	28.191
587.39	28.721
587.72	29.474
588.06	29.304
588.39	28.728
588.73	28.280
589.06	28.330
589.40	28.888
589.73	28.406
590.07	28.415
590.40	29.040
590.73	28.773
591.07	29.486
591.40	28.188
591.74	28.816
592.07	29.395
592.41	29.022
592.74	29.002
593.08	29.618
593.41	30.067
593.75	29.598
594.08	29.355
594.41	29.583
594.75	28.662
595.08	28.499
595.42	29.253
595.75	28.770
596.09	29.448
596.42	28.950
596.75	28.290
597.09	29.172
597.42	28.566
597.75	28.773
598.09	29.365
598.42	29.192
598.76	28.850
599.09	28.444
599.42	28.729
599.76	28.953
600.09	29.329
600.42	28.762
600.76	29.359
601.09	29.008
601.42	28.493
601.76	28.690
602.09	28.234
602.42	28.499
602.76	28.672
603.09	29.148
603.42	29.010
603.76	28.823
604.09	29.844
604.42	29.615
604.76	29.033
605.09	28.959
605.42	29.107
605.75	29.154
606.09	28.929
606.42	29.150
606.75	28.373
607.09	28.917
607.42	28.401
607.75	29.777
608.08	28.729
608.42	28.335
608.75	29.146
609.08	28.141
609.41	28.319
609.75	28.661
610.08	30.123
610.41	29.737
610.74	29.118
611.07	28.952
611.41	28.969
611.74	30.069
612.07	29.687
612.40	28.137
612.73	29.340
613.07	29.144
613.40	29.500
613.73	28.984
614.06	29.048
614.39	29.203
614.72	28.675
615.06	28.874
615.39	29.193
615.72	29.052
616.05	29.577
616.38	28.658
616.71	28.631
617.05	28.488
617.38	28.357
617.71	29.482
618.04	28.548
618.37	28.962
618.70	29.186
619.03	28.913
619.36	29.100
619.69	28.571
620.03	27.997
620.36	28.957
620.69	29.056
621.02	29.921
621.35	29.681
621.68	29.067
622.01	29.395
622.34	29.010
622.67	28.935
623.00	28.070
623.33	29.794
623.66	29.572
623.99	28.769
624.32	29.630
624.65	28.893
624.99	29.909
625.32	29.458
625.65	29.804
625.98	29.220
626.31	29.341
626.64	28.645
626.97	29.332
627.30	28.853
627.63	27.757
627.96	30.180
628.29	29.805
628.62	28.296
628.95	29.535
629.28	29.057
629.61	29.377
629.94	29.121
630.26	29.492
630.59	28.843
630.92	28.745
631.25	30.769
631.58	29.944
631.91	30.553
632.24	29.299
632.57	28.463
632.90	28.586
633.23	30.816
633.56	30.000
633.89	27.893
634.22	28.794
634.55	28.706
634.88	29.113
635.20	30.248
635.53	29.831
635.86	30.011
636.19	29.692
636.52	31.646
636.85	29.622
637.18	28.482
637.51	29.785
637.83	30.011
638.16	30.415
638.49	30.516
638.82	29.312
639.15	27.721
639.48	31.062
639.81	29.677
640.13	30.742
640.46	27.879
640.79	29.779
641.12	30.062
641.45	28.858
641.77	31.451
642.10	28.084
642.43	32.181
642.76	28.862
643.09	29.315
643.41	28.011
643.74	29.931
644.07	31.724
644.40	28.854
644.73	29.898
645.05	30.690
645.38	28.777
645.71	30.205
646.04	31.707
646.36	30.803
646.69	30.828
647.02	30.428
647.35	29.771
647.67	29.308
648.00	30.573
648.33	30.030
648.66	29.244
648.98	30.476
649.31	30.717
649.64	31.474
649.96	30.239
650.29	28.929
650.62	29.279
650.94	29.429
651.27	29.940
651.60	30.263
651.92	28.419
652.25	30.535
652.58	29.986
652.90	27.616
653.23	28.873
653.56	29.244
653.88	32.444
654.21	29.437
654.54	30.058
654.86	28.329
655.19	30.615
655.52	28.492
655.84	29.017
656.17	36.330
656.49	50.717
656.82	55.324
657.15	41.563
657.47	30.371
657.80	21.951
658.13	16.555
658.45	20.965
658.78	24.907
659.10	23.607
659.43	23.100
659.75	22.497
660.08	23.641
660.41	23.490
660.73	26.226
661.06	25.844
661.38	29.665
661.71	28.276
662.03	30.688
662.36	30.233
662.68	29.644
663.01	31.327
663.33	31.191
663.66	31.868
663.98	30.000
664.31	30.394
664.63	27.360
664.96	30.127
665.28	30.490
665.61	31.119
665.93	30.357
666.26	28.315
666.58	28.782
666.91	31.589
667.23	29.714
667.56	29.980
667.88	28.600
668.21	28.125
668.53	29.730
668.86	30.845
669.18	31.365
669.50	29.622
669.83	33.600
670.15	29.134
670.48	31.944
670.80	29.063
671.13	29.112
671.45	30.512
671.77	30.697
672.10	27.667
672.42	27.184
672.75	28.571
673.07	29.552
673.39	28.968
673.72	30.537
674.04	28.793
674.37	32.200
674.69	29.806
675.01	28.952
675.34	28.817
675.66	29.401
675.98	32.090
676.31	30.469
676.63	32.510
676.95	30.843
677.28	28.629
677.60	27.559
677.92	28.023
678.25	29.250
678.57	29.893
678.89	30.717
679.22	28.746
679.54	28.718
679.86	30.847
680.18	29.353
680.51	29.245
680.83	29.460
681.15	28.966
681.48	28.670
681.80	28.843
682.12	29.720
682.44	27.880
682.77	30.319
683.09	31.250
683.41	29.651
683.73	29.791
684.06	28.598
684.38	28.265
684.70	31.059
685.02	30.120
685.34	27.454
685.67	27.760
685.99	29.601
686.31	28.198
686.63	28.910
686.96	28.233
687.28	29.153
687.60	29.798
687.92	28.778
688.24	29.716
688.56	29.828
688.89	29.038
689.21	30.137
689.53	27.059
689.85	28.205
690.17	27.593
690.49	28.884
690.82	30.099
691.14	28.947
691.46	29.254
691.78	29.834
692.10	30.459
692.42	28.393
692.74	27.586
693.06	28.333
693.39	30.550
693.71	27.820
694.03	27.695
694.35	30.667
694.67	28.131
694.99	31.277
695.31	27.373
695.63	29.221
695.95	26.294
696.27	27.033
696.59	30.752
696.91	31.757
697.23	31.868
697.56	28.717
697.88	28.598
698.20	31.073
698.52	30.492
698.84	30.146
699.16	29.388
699.48	28.870
699.80	26.383
700.12	29.913
700.44	31.106
700.76	29.691
701.08	30.024
701.40	33.420
701.72	29.104
702.04	30.214
702.36	30.105
702.68	29.340
703.00	27.873
703.32	30.049
703.64	33.007
703.96	31.265
704.28	28.256
704.60	32.405
704.91	32.908
705.23	34.247
705.55	31.198
705.87	28.788
706.19	34.969
706.51	28.012
706.83	29.971
707.15	27.249
707.47	28.505
707.79	28.384
708.11	26.059
708.43	27.097
708.74	27.009
709.06	27.842
709.38	29.812
709.70	30.025
710.02	29.199
710.34	30.585
710.66	27.654
710.98	30.055
711.29	26.648
711.61	29.944
711.93	29.630
712.25	28.919
712.57	33.333
712.89	27.647
713.20	30.178
713.52	30.347
713.84	31.476
714.16	29.737
714.48	28.608
714.80	32.727
715.11	29.396
715.43	27.056
715.75	29.474
716.07	26.796
716.39	31.148
716.70	28.012
717.02	28.525
717.34	29.617
717.66	28.188
717.97	27.397
718.29	28.179
718.61	28.289
718.93	28.155
719.24	28.882
719.56	28.221
719.88	29.730
720.20	29.677
720.51	31.366
720.83	27.813
721.15	31.250
721.46	29.452
721.78	27.333
722.10	25.890
722.42	26.510
722.73	28.065
723.05	29.123
723.37	29.167
723.68	30.824
724.00	32.130
724.32	27.113
724.63	29.720
724.95	29.433
725.27	26.481
725.58	30.389
725.90	28.276
726.22	27.586
726.53	30.195
726.85	33.019
727.16	32.628
727.48	31.193
727.80	26.821
728.11	26.502
728.43	31.650
728.74	35.786
729.06	28.477
729.38	30.844
729.69	27.517
730.01	27.976
730.32	28.182
730.64	32.075
730.96	30.745
731.27	29.330
731.59	32.418
731.90	27.532
732.22	30.729
732.53	27.624
732.85	28.571
733.16	28.739
733.48	25.000
733.80	27.855
734.11	28.490
734.43	30.000
734.74	31.392
735.06	29.146
735.37	30.270
735.69	30.000
736.00	27.684
736.32	29.111
736.63	28.889
736.95	29.598
737.26	30.303
737.58	32.424
737.89	31.471
738.21	28.746
738.52	27.869
738.83	31.399
739.15	28.723
739.46	29.252
739.78	32.515
740.09	27.221
740.41	31.487
740.72	29.333
741.04	28.155
741.35	29.825
741.66	29.020
741.98	29.508
742.29	29.289
742.61	31.579
742.92	30.000
743.23	27.798
743.55	29.845
743.86	26.800
744.18	27.273
744.49	26.160
744.80	30.041
745.12	30.380
745.43	29.268
745.74	25.000
746.06	33.898
746.37	30.802
746.68	35.366
747.00	28.750
747.31	27.897
747.62	30.000
747.94	27.935
748.25	26.104
748.56	26.122
748.88	27.778
749.19	31.897
749.50	32.468
749.82	33.735
750.13	33.096
750.44	26.667
750.75	28.923
751.07	29.846
751.38	29.338
751.69	32.588
752.01	27.508
752.32	29.412
752.63	29.252
752.94	28.720
753.26	27.138
753.57	29.630
753.88	29.588
754.19	30.225
754.51	29.904
754.82	29.260
755.13	33.443
755.44	31.399
755.75	27.632
756.07	31.642
756.38	29.245
756.69	29.819
757.00	25.208
757.31	29.508
757.63	26.854
757.94	28.169
758.25	27.088
758.56	26.797
758.87	27.727
759.18	29.333
759.50	28.612
759.81	28.291
760.12	26.685
760.43	29.167
760.74	32.266
761.05	27.000
761.36	27.229
761.67	27.157
761.99	30.000
762.30	28.049
762.61	25.743
762.92	33.582
763.23	33.708
763.54	30.576
763.85	26.804
764.16	24.579
764.47	30.282
764.78	32.268
765.10	29.619
765.41	29.744
765.72	26.720
766.03	29.379
766.34	28.213
766.65	26.132
766.96	33.466
767.27	32.258
767.58	31.343
767.89	31.250
768.20	30.516
768.51	33.333
768.82	31.727
769.13	28.788
769.44	29.615
769.75	30.325
770.06	31.154
770.37	32.283
770.68	25.957
770.99	23.887
771.30	31.481
771.61	34.221
771.92	27.037
772.23	39.271
772.54	24.074
772.85	35.023
773.16	29.524
773.47	28.042
773.78	25.405
774.09	33.523
774.39	38.000
774.70	38.251
775.01	24.390
775.32	30.588
775.63	30.061
775.94	23.567
776.25	38.065
776.56	37.179
776.87	29.932
777.18	22.759
777.48	32.867
777.79	29.054
778.10	27.941
778.41	28.472
778.72	34.483
779.03	34.568
779.34	35.152
779.65	31.088
779.95	33.333
780.26	30.114
780.57	32.903
780.88	34.783
781.19	39.355
781.50	32.941
781.80	31.720
782.11	29.101
782.42	20.707
782.73	31.138
783.04	29.609
783.34	20.606
783.65	28.105
783.96	31.056
784.27	33.929
784.57	36.424
784.88	29.286
785.19	26.772
785.50	33.858
785.81	27.068
786.11	25.385
786.42	29.496
786.73	28.777
787.04	27.068
787.34	31.148
787.65	20.800
787.96	32.090
788.26	37.762
788.57	34.266
788.88	27.632
789.19	32.026
789.49	30.137
789.80	29.078
790.11	28.346
790.41	31.250
790.72	32.203
791.03	10.680
791.33	22.609
791.64	33.333
791.95	27.679
792.25	30.476
792.56	29.464
792.87	22.917
793.17	41.071
793.48	25.000
793.79	34.940
794.09	19.266
794.40	29.358
794.70	27.891
795.01	32.468
795.32	34.932
795.62	27.465
795.93	30.303
796.23	37.705
796.54	27.679
796.85	29.787
797.15	29.348
797.46	30.137
797.76	40.000
798.07	32.609
798.37	17.526
798.68	32.468
798.99	24.138
799.29	28.090
799.60	31.915
799.90	38.554
800.21	23.077
800.51	31.343
800.82	8.824
801.12	20.548
801.43	36.765
801.73	30.508
802.04	31.818
802.34	13.333
802.65	22.034
802.95	28.358
803.26	27.119
803.56	17.808
803.87	30.000
804.17	38.356
804.48	26.316
804.78	34.722
805.09	36.207
805.39	33.784
805.70	15.493
806.00	32.927
806.30	30.120
806.61	17.808
806.91	25.000
807.22	32.222
807.52	32.184
807.83	51.389
808.13	32.530
808.43	35.955
808.74	35.000
809.04	23.529
809.35	33.333
809.65	35.714
809.95	27.397
810.26	21.053
810.56	51.724
810.86	36.765
811.17	38.596
811.47	6.557
811.77	31.111
812.08	22.034
812.38	35.000
812.69	46.552
812.99	37.736
813.29	10.256
813.59	36.000
813.90	45.614
814.20	14.545
814.50	53.521
814.81	48.718
815.11	42.623
815.41	44.776
815.72	43.103
816.02	48.214
816.32	60.000
816.62	50.000
816.93	53.333
817.23	50.000
817.53	36.170
817.84	21.429
818.14	47.059
818.44	26.531
818.74	44.444
819.04	25.641
819.35	20.000
819.65	0.000
819.95	32.075
820.25	17.778
820.56	7.143
820.86	34.375
821.16	20.513
821.46	51.163
821.76	4.000
822.07	51.786
822.37	32.609
822.67	42.553
822.97	18.919
823.27	55.000
823.57	59.184
823.88	48.889
824.18	30.000
824.48	16.667
824.78	44.000
825.08	54.545
825.38	40.000
825.69	36.170
825.99	36.111
826.29	-2.857
826.59	38.462
826.89	34.884
827.19	42.000
827.49	47.059
827.79	39.583
828.09	21.622
828.39	20.000
828.70	21.951
829.00	27.907
829.30	21.429
829.60	44.118
829.90	41.304
830.20	-22.857
830.50	31.034
830.80	66.667
831.10	42.308
831.40	23.529
831.70	57.143
832.00	45.161
832.30	-11.765
832.60	25.000
832.90	-53.846
833.20	47.368
833.50	50.000
833.80	31.579
834.10	-42.857
834.40	19.444
834.70	40.625
835.00	11.429
835.30	44.118
835.60	46.667
835.90	8.000
836.20	-4.545
836.50	20.000
836.80	15.152
837.10	59.259
837.40	51.852
837.70	0.000
838.00	32.143
838.30	21.739
838.60	34.483
838.90	85.714
839.19	4.348
839.49	41.667
839.79	17.391
840.09	50.000
840.39	55.000
840.69	48.387
840.99	46.429
841.29	26.667
841.59	68.421
841.88	51.282
842.18	23.077
842.48	-10.000
842.78	25.000
843.08	43.333
843.38	58.065
843.68	55.556
843.97	44.118
844.27	25.000
844.57	89.474
844.87	-10.000
845.17	26.667
845.47	52.381
845.76	33.333
846.06	44.444
846.36	29.412
846.66	30.769
846.96	80.000
847.25	5.882
847.55	47.826
847.85	45.000
848.15	52.941
848.44	27.273
848.74	76.190
849.04	-20.833
849.34	0.000
849.63	60.870
849.93	200.000
850.23	93.333
850.53	69.231
850.82	54.545
851.12	31.818
851.42	81.818
851.71	76.923
852.01	5.000
852.31	30.769
852.61	57.895
852.90	16.667
853.20	66.667
853.50	11.111
853.79	23.810
854.09	31.818
854.39	41.667
854.68	74.194
854.98	50.000
855.28	105.556
855.57	75.000
855.87	56.000
856.17	45.455
856.46	48.148
856.76	61.111
857.05	-30.435
857.35	-8.333
857.65	46.154
857.94	52.381
858.24	48.148
858.53	60.870
858.83	64.706
859.13	29.412
859.42	5.882
859.72	100.000
860.01	45.000
860.31	144.444
860.60	40.000
860.90	60.000
861.20	22.222
861.49	100.000
861.79	53.333
862.08	23.077
862.38	40.625
862.67	29.412
862.97	18.750
863.26	-22.222
863.56	150.000
863.85	100.000
864.15	88.889
864.44	266.667
864.74	71.429
865.03	37.500
865.33	-40.000
865.62	3.226
865.92	77.273
866.21	56.522
866.51	71.429
866.80	-60.000
867.10	58.333
867.39	41.667
867.69	400.000
867.98	200.000
868.27	76.471
868.57	-1100.000
868.86	-30.000
869.16	28.571
869.45	4.167
869.75	109.091
870.04	142.857
870.33	100.000
870.63	0.000
870.92	200.000
871.22	-112.500
871.51	45.455
871.80	-200.000
872.10	350.000
>>>>>End Processed Spectral Data<<<<<
