SpectraSuite Data File
++++++++++++++++++++++++++++++++++++
Date: Thu May 14 14:37:56 PDT 2015
User: schluterlab
Dark Spectrum Present: Yes
Reference Spectrum Present: Yes
Number of Sampled Component Spectra: 1
Spectrometers: USB2E3373
Integration Time (usec): 3000 (USB2E3373)
Spectra Averaged: 3 (USB2E3373)
Boxcar Smoothing: 0 (USB2E3373)
Correct for Electrical Dark: No (USB2E3373)
Strobe/Lamp Enabled: No (USB2E3373)
Correct for Detector Non-linearity: No (USB2E3373)
Correct for Stray Light: No (USB2E3373)
Number of Pixels in Processed Spectrum: 2048
>>>>>Begin Processed Spectral Data<<<<<
178.53	0.000
178.91	-100.000
179.29	700.000
179.67	1900.000
180.04	-35.714
180.42	-80.000
180.80	-200.000
181.18	2100.000
181.56	1800.000
181.94	-550.000
182.31	500.000
182.69	-400.000
183.07	450.000
183.45	-25.000
183.83	233.333
184.20	366.667
184.58	-1300.000
184.96	350.000
185.34	200.000
185.72	220.000
186.09	-44.444
186.47	-550.000
186.85	-100.000
187.23	155.556
187.61	1400.000
187.98	-260.000
188.36	-225.000
188.74	450.000
189.12	800.000
189.49	118.750
189.87	125.000
190.25	200.000
190.63	320.000
191.00	177.778
191.38	0.000
191.76	250.000
192.14	250.000
192.51	-700.000
192.89	366.667
193.27	0.000
193.65	342.857
194.02	0.000
194.40	257.143
194.78	-257.143
195.15	0.000
195.53	154.545
195.91	0.000
196.29	325.000
196.66	115.385
197.04	900.000
197.42	100.000
197.79	600.000
198.17	112.500
198.55	242.857
198.92	266.667
199.30	262.500
199.68	154.545
200.05	107.143
200.43	350.000
200.81	-200.000
201.18	0.000
201.56	-22.222
201.94	0.000
202.31	-100.000
202.69	66.667
203.07	-1600.000
203.44	222.222
203.82	150.000
204.19	183.333
204.57	200.000
204.95	100.000
205.32	1600.000
205.70	-225.000
206.08	183.333
206.45	366.667
206.83	-0.000
207.20	350.000
207.58	320.000
207.96	316.667
208.33	350.000
208.71	-133.333
209.08	266.667
209.46	0.000
209.84	-16.667
210.21	-750.000
210.59	-1000.000
210.96	-466.667
211.34	700.000
211.71	225.000
212.09	1800.000
212.46	0.000
212.84	-500.000
213.22	200.000
213.59	225.000
213.97	160.000
214.34	300.000
214.72	-16.667
215.09	200.000
215.47	0.000
215.84	-171.429
216.22	-200.000
216.59	360.000
216.97	160.000
217.34	425.000
217.72	150.000
218.09	325.000
218.47	225.000
218.84	0.000
219.22	-80.000
219.59	141.176
219.97	85.000
220.34	-200.000
220.72	211.111
221.09	146.154
221.47	566.667
221.84	130.000
222.22	42.857
222.59	0.000
222.97	112.500
223.34	200.000
223.72	800.000
224.09	325.000
224.46	300.000
224.84	320.000
225.21	185.714
225.59	350.000
225.96	275.000
226.34	73.077
226.71	-233.333
227.08	800.000
227.46	126.667
227.83	450.000
228.21	126.316
228.58	-150.000
228.95	-550.000
229.33	191.667
229.70	190.000
230.08	163.158
230.45	-110.000
230.82	533.333
231.20	214.286
231.57	208.333
231.95	190.909
232.32	72.727
232.69	85.000
233.07	400.000
233.44	88.235
233.81	130.000
234.19	161.111
234.56	90.909
234.93	93.103
235.31	84.211
235.68	100.000
236.05	80.000
236.43	107.692
236.80	112.000
237.17	77.778
237.55	72.727
237.92	140.000
238.29	64.516
238.67	63.636
239.04	58.333
239.41	35.714
239.79	34.783
240.16	50.000
240.53	43.478
240.91	31.373
241.28	45.902
241.65	52.239
242.02	50.000
242.40	53.846
242.77	42.667
243.14	32.927
243.51	40.789
243.89	38.462
244.26	47.525
244.63	40.196
245.00	33.645
245.38	34.211
245.75	15.044
246.12	39.683
246.49	34.884
246.87	36.429
247.24	33.775
247.61	31.579
247.98	24.832
248.36	33.333
248.73	31.288
249.10	28.962
249.47	34.328
249.84	36.126
250.22	29.534
250.59	36.667
250.96	29.091
251.33	26.531
251.70	35.043
252.08	29.167
252.45	29.098
252.82	25.620
253.19	28.516
253.56	36.122
253.94	26.538
254.31	29.545
254.68	29.371
255.05	30.293
255.42	28.912
255.79	25.243
256.16	24.503
256.54	24.834
256.91	26.230
257.28	26.557
257.65	25.478
258.02	23.599
258.39	25.926
258.76	32.416
259.14	29.023
259.51	28.818
259.88	23.796
260.25	26.389
260.62	27.123
260.99	27.322
261.36	26.810
261.73	27.586
262.10	28.846
262.47	27.346
262.85	31.313
263.22	25.714
263.59	26.053
263.96	26.854
264.33	22.762
264.70	26.420
265.07	29.833
265.44	29.252
265.81	26.389
266.18	26.757
266.55	29.018
266.92	25.513
267.29	26.258
267.66	27.938
268.03	25.546
268.40	24.843
268.77	25.513
269.14	24.670
269.51	24.781
269.88	30.738
270.25	23.944
270.62	25.738
270.99	27.273
271.36	26.139
271.73	25.933
272.10	24.248
272.47	26.453
272.84	26.506
273.21	27.054
273.58	28.427
273.95	24.423
274.32	26.046
274.69	24.758
275.06	24.725
275.43	24.584
275.80	25.397
276.17	22.963
276.54	26.679
276.91	22.182
277.28	23.508
277.65	25.314
278.02	25.000
278.39	27.536
278.76	21.617
279.13	25.887
279.50	25.430
279.87	26.834
280.23	21.479
280.60	27.119
280.97	23.849
281.34	23.090
281.71	24.196
282.08	23.256
282.45	24.223
282.82	23.391
283.19	22.294
283.56	23.443
283.92	24.925
284.29	23.855
284.66	25.287
285.03	21.314
285.40	23.493
285.77	24.149
286.14	24.275
286.51	23.288
286.87	23.065
287.24	22.139
287.61	22.422
287.98	23.414
288.35	24.112
288.72	21.450
289.08	23.426
289.45	21.598
289.82	20.633
290.19	22.126
290.56	24.366
290.93	23.395
291.29	20.937
291.66	22.452
292.03	20.488
292.40	22.041
292.77	20.620
293.13	22.192
293.50	19.974
293.87	20.940
294.24	21.333
294.60	19.595
294.97	20.000
295.34	20.743
295.71	18.411
296.08	19.767
296.44	18.137
296.81	19.367
297.18	20.050
297.55	19.575
297.91	18.268
298.28	18.720
298.65	19.025
299.02	19.481
299.38	19.565
299.75	19.159
300.12	16.551
300.48	19.009
300.85	18.448
301.22	19.128
301.59	18.493
301.95	18.079
302.32	18.778
302.69	18.072
303.05	17.737
303.42	18.293
303.79	17.604
304.15	17.560
304.52	18.076
304.89	17.277
305.25	17.598
305.62	17.450
305.99	17.629
306.35	17.540
306.72	16.960
307.09	17.056
307.45	17.391
307.82	16.751
308.19	16.751
308.55	17.454
308.92	17.819
309.29	16.954
309.65	16.277
310.02	16.733
310.38	16.437
310.75	15.437
311.12	16.874
311.48	16.325
311.85	16.144
312.22	16.698
312.58	15.587
312.95	15.870
313.31	16.441
313.68	16.117
314.05	16.893
314.41	18.033
314.78	16.803
315.14	17.332
315.51	16.805
315.87	16.742
316.24	16.895
316.61	17.496
316.97	15.928
317.34	16.314
317.70	16.856
318.07	16.755
318.43	16.156
318.80	17.559
319.16	16.223
319.53	16.110
319.89	15.951
320.26	16.815
320.62	15.248
320.99	16.343
321.35	17.006
321.72	17.953
322.08	15.239
322.45	15.447
322.81	15.704
323.18	16.460
323.54	15.862
323.91	14.858
324.27	14.630
324.64	16.709
325.00	15.837
325.37	17.690
325.73	16.529
326.10	17.113
326.46	17.427
326.83	16.974
327.19	16.457
327.56	16.047
327.92	15.736
328.29	15.565
328.65	15.075
329.01	16.751
329.38	17.102
329.74	16.438
330.11	16.610
330.47	16.681
330.84	17.657
331.20	17.167
331.56	16.551
331.93	16.987
332.29	17.203
332.66	17.276
333.02	15.829
333.38	15.940
333.75	16.162
334.11	15.346
334.48	16.172
334.84	17.587
335.20	16.541
335.57	17.032
335.93	17.107
336.29	15.807
336.66	16.737
337.02	16.890
337.38	15.901
337.75	16.033
338.11	16.484
338.47	16.956
338.84	15.990
339.20	15.417
339.56	16.145
339.93	17.570
340.29	16.264
340.65	14.842
341.02	16.441
341.38	17.219
341.74	15.093
342.11	15.286
342.47	14.535
342.83	16.103
343.20	16.108
343.56	15.958
343.92	16.573
344.28	16.094
344.65	17.132
345.01	16.069
345.37	16.641
345.73	15.355
346.10	16.459
346.46	15.981
346.82	16.404
347.19	15.508
347.55	15.781
347.91	14.710
348.27	15.326
348.63	16.756
349.00	15.735
349.36	14.870
349.72	15.253
350.08	15.453
350.45	15.285
350.81	15.837
351.17	15.263
351.53	15.239
351.89	15.262
352.26	15.672
352.62	14.776
352.98	16.107
353.34	14.862
353.70	14.946
354.07	15.499
354.43	15.186
354.79	14.884
355.15	14.349
355.51	15.278
355.87	14.959
356.24	16.426
356.60	14.486
356.96	14.455
357.32	14.052
357.68	13.982
358.04	14.072
358.40	15.672
358.77	15.205
359.13	14.697
359.49	14.572
359.85	14.866
360.21	15.065
360.57	14.716
360.93	14.245
361.29	15.439
361.66	14.337
362.02	15.379
362.38	14.687
362.74	15.433
363.10	15.337
363.46	14.612
363.82	14.560
364.18	14.567
364.54	14.177
364.90	14.181
365.26	14.414
365.62	15.333
365.98	14.636
366.35	15.168
366.71	15.034
367.07	14.005
367.43	14.314
367.79	14.864
368.15	15.251
368.51	14.411
368.87	14.174
369.23	14.067
369.59	14.549
369.95	14.875
370.31	14.990
370.67	15.406
371.03	14.474
371.39	13.499
371.75	15.543
372.11	14.499
372.47	15.030
372.83	15.903
373.19	15.344
373.55	15.041
373.91	13.701
374.27	14.618
374.63	14.953
374.99	14.257
375.35	14.805
375.71	14.839
376.07	13.751
376.42	14.358
376.78	15.662
377.14	14.161
377.50	14.421
377.86	15.025
378.22	15.569
378.58	13.971
378.94	14.437
379.30	14.938
379.66	14.991
380.02	14.887
380.38	15.380
380.74	14.761
381.09	15.099
381.45	13.920
381.81	15.164
382.17	14.727
382.53	14.269
382.89	14.955
383.25	13.716
383.61	13.715
383.97	13.899
384.32	14.653
384.68	13.457
385.04	15.327
385.40	14.791
385.76	14.361
386.12	14.363
386.48	14.353
386.83	15.375
387.19	14.774
387.55	13.615
387.91	14.212
388.27	15.473
388.62	14.605
388.98	14.721
389.34	15.144
389.70	14.352
390.06	14.861
390.42	14.940
390.77	15.412
391.13	14.143
391.49	15.097
391.85	14.909
392.20	14.176
392.56	14.767
392.92	15.540
393.28	14.483
393.64	14.469
393.99	14.875
394.35	15.888
394.71	15.150
395.07	14.551
395.42	14.620
395.78	15.661
396.14	15.330
396.50	14.786
396.85	14.490
397.21	14.675
397.57	14.488
397.92	15.578
398.28	13.797
398.64	14.302
399.00	14.031
399.35	15.183
399.71	14.402
400.07	15.665
400.42	15.308
400.78	14.641
401.14	15.139
401.49	15.406
401.85	14.419
402.21	15.353
402.57	14.495
402.92	15.071
403.28	14.696
403.63	14.320
403.99	14.014
404.35	14.895
404.70	14.561
405.06	14.891
405.42	15.105
405.77	14.831
406.13	14.965
406.49	14.921
406.84	14.903
407.20	14.310
407.55	14.718
407.91	14.959
408.27	14.075
408.62	15.125
408.98	14.800
409.34	14.076
409.69	14.710
410.05	15.416
410.40	15.313
410.76	14.526
411.11	14.904
411.47	14.803
411.83	15.344
412.18	14.940
412.54	15.531
412.89	15.134
413.25	14.786
413.60	14.819
413.96	14.277
414.31	14.901
414.67	15.086
415.03	14.277
415.38	15.132
415.74	14.844
416.09	15.546
416.45	14.715
416.80	14.565
417.16	14.751
417.51	15.442
417.87	14.163
418.22	15.389
418.58	14.188
418.93	15.076
419.29	14.673
419.64	14.946
420.00	15.074
420.35	14.767
420.71	14.704
421.06	13.686
421.42	14.851
421.77	14.216
422.12	14.482
422.48	14.286
422.83	14.951
423.19	14.324
423.54	14.104
423.90	14.191
424.25	14.667
424.61	13.777
424.96	15.157
425.31	15.074
425.67	14.493
426.02	14.444
426.38	14.179
426.73	13.895
427.09	15.398
427.44	14.637
427.79	14.151
428.15	14.384
428.50	14.270
428.85	14.351
429.21	15.266
429.56	14.413
429.92	14.545
430.27	15.084
430.62	14.362
430.98	14.658
431.33	14.467
431.68	14.559
432.04	15.033
432.39	14.140
432.74	14.726
433.10	14.602
433.45	14.604
433.80	15.182
434.16	15.341
434.51	15.365
434.86	14.767
435.22	15.037
435.57	15.094
435.92	15.081
436.28	15.358
436.63	15.128
436.98	14.278
437.34	14.543
437.69	13.924
438.04	14.172
438.39	14.647
438.75	14.942
439.10	15.275
439.45	14.645
439.81	14.633
440.16	14.048
440.51	15.608
440.86	14.564
441.22	15.166
441.57	14.465
441.92	13.676
442.27	14.798
442.63	14.655
442.98	14.835
443.33	14.256
443.68	15.213
444.03	15.193
444.39	14.563
444.74	14.803
445.09	14.394
445.44	14.436
445.79	14.559
446.15	15.313
446.50	15.245
446.85	15.370
447.20	15.184
447.55	15.167
447.91	14.921
448.26	14.958
448.61	14.718
448.96	15.236
449.31	14.634
449.66	13.453
450.02	15.084
450.37	15.077
450.72	14.693
451.07	15.091
451.42	14.211
451.77	14.008
452.12	15.576
452.47	14.973
452.83	14.921
453.18	14.828
453.53	14.704
453.88	14.357
454.23	14.859
454.58	15.786
454.93	15.049
455.28	15.533
455.63	14.838
455.98	14.302
456.34	15.135
456.69	14.462
457.04	15.248
457.39	15.188
457.74	15.213
458.09	14.827
458.44	15.248
458.79	14.801
459.14	15.155
459.49	15.676
459.84	15.058
460.19	15.103
460.54	15.105
460.89	15.034
461.24	14.080
461.59	15.440
461.94	14.546
462.29	15.286
462.64	14.906
462.99	15.129
463.34	14.731
463.69	15.182
464.04	14.953
464.39	14.126
464.74	15.108
465.09	15.456
465.44	14.968
465.79	15.019
466.14	14.904
466.49	15.474
466.84	14.380
467.19	15.549
467.54	14.160
467.89	14.713
468.24	15.125
468.59	14.939
468.94	15.035
469.29	14.217
469.64	14.431
469.99	14.404
470.34	15.223
470.68	15.311
471.03	15.783
471.38	14.846
471.73	14.759
472.08	15.102
472.43	15.232
472.78	14.106
473.13	14.855
473.48	15.770
473.83	15.148
474.17	15.533
474.52	14.973
474.87	14.452
475.22	14.873
475.57	14.901
475.92	15.431
476.27	15.016
476.61	14.226
476.96	15.276
477.31	15.000
477.66	14.900
478.01	14.184
478.36	15.155
478.70	14.729
479.05	15.491
479.40	14.610
479.75	15.322
480.10	14.732
480.45	15.907
480.79	15.147
481.14	14.798
481.49	14.403
481.84	14.926
482.19	14.882
482.53	15.173
482.88	14.710
483.23	15.207
483.58	14.847
483.92	13.741
484.27	14.987
484.62	14.686
484.97	14.930
485.31	14.009
485.66	13.962
486.01	14.589
486.36	14.450
486.70	14.515
487.05	14.184
487.40	14.093
487.75	14.020
488.09	13.863
488.44	13.471
488.79	14.637
489.13	14.301
489.48	14.369
489.83	14.326
490.17	14.095
490.52	14.409
490.87	14.721
491.22	15.251
491.56	15.145
491.91	15.264
492.26	14.929
492.60	14.779
492.95	14.699
493.30	14.612
493.64	14.367
493.99	15.175
494.34	14.808
494.68	14.647
495.03	14.670
495.37	14.869
495.72	14.512
496.07	14.812
496.41	14.758
496.76	15.138
497.11	14.607
497.45	14.847
497.80	15.016
498.14	14.195
498.49	14.982
498.84	14.488
499.18	15.025
499.53	14.933
499.87	15.033
500.22	14.604
500.56	13.810
500.91	14.874
501.26	15.591
501.60	14.317
501.95	14.850
502.29	15.007
502.64	15.173
502.98	14.495
503.33	14.730
503.67	14.566
504.02	14.142
504.36	15.192
504.71	14.791
505.06	15.098
505.40	14.808
505.75	14.891
506.09	14.273
506.44	15.460
506.78	14.633
507.13	14.984
507.47	15.064
507.82	14.962
508.16	14.866
508.51	14.346
508.85	15.257
509.19	16.011
509.54	14.890
509.88	14.813
510.23	15.347
510.57	15.273
510.92	15.481
511.26	14.959
511.61	14.196
511.95	14.544
512.30	14.377
512.64	14.593
512.98	15.408
513.33	15.171
513.67	14.992
514.02	15.023
514.36	15.652
514.70	14.948
515.05	14.964
515.39	15.381
515.74	15.854
516.08	15.425
516.42	15.437
516.77	15.668
517.11	14.131
517.46	15.164
517.80	15.286
518.14	16.431
518.49	15.781
518.83	15.327
519.17	14.055
519.52	15.356
519.86	15.312
520.20	15.974
520.55	14.677
520.89	15.428
521.23	15.578
521.58	14.859
521.92	15.184
522.26	14.318
522.61	15.451
522.95	14.591
523.29	14.713
523.64	15.639
523.98	15.687
524.32	16.275
524.66	16.164
525.01	15.289
525.35	14.877
525.69	14.617
526.04	15.098
526.38	15.057
526.72	15.859
527.06	15.132
527.41	15.102
527.75	15.796
528.09	15.112
528.43	15.867
528.78	15.434
529.12	15.367
529.46	15.627
529.80	15.503
530.15	15.304
530.49	14.887
530.83	15.230
531.17	15.233
531.51	15.162
531.86	16.647
532.20	15.915
532.54	14.841
532.88	15.576
533.22	15.321
533.57	14.945
533.91	16.218
534.25	15.941
534.59	15.977
534.93	15.393
535.27	15.211
535.62	16.146
535.96	15.456
536.30	14.747
536.64	15.676
536.98	16.605
537.32	15.926
537.66	16.344
538.01	14.864
538.35	15.347
538.69	14.663
539.03	16.248
539.37	15.312
539.71	16.577
540.05	15.947
540.39	15.892
540.73	14.693
541.07	14.838
541.42	15.416
541.76	15.125
542.10	15.018
542.44	15.286
542.78	15.693
543.12	15.852
543.46	15.385
543.80	14.988
544.14	14.782
544.48	14.716
544.82	15.919
545.16	14.490
545.50	14.739
545.84	15.003
546.18	16.605
546.52	14.841
546.86	16.289
547.20	15.649
547.54	15.793
547.88	14.949
548.22	14.620
548.56	15.857
548.90	14.746
549.24	14.529
549.58	15.521
549.92	14.541
550.26	16.311
550.60	15.699
550.94	15.589
551.28	16.106
551.62	15.431
551.96	15.922
552.30	15.488
552.64	15.868
552.98	15.908
553.32	16.334
553.66	15.884
554.00	15.952
554.34	15.122
554.68	15.236
555.02	15.966
555.36	15.253
555.69	14.734
556.03	15.322
556.37	15.770
556.71	15.789
557.05	15.080
557.39	14.997
557.73	15.192
558.07	14.967
558.41	16.346
558.75	15.889
559.08	16.493
559.42	15.021
559.76	16.147
560.10	14.802
560.44	15.303
560.78	16.500
561.12	15.333
561.45	16.423
561.79	15.934
562.13	15.835
562.47	14.858
562.81	15.316
563.15	15.909
563.48	15.227
563.82	15.659
564.16	14.900
564.50	15.614
564.84	14.100
565.17	15.353
565.51	15.075
565.85	15.558
566.19	14.631
566.52	14.043
566.86	15.224
567.20	14.519
567.54	15.454
567.88	15.240
568.21	15.366
568.55	15.540
568.89	15.388
569.23	15.632
569.56	15.201
569.90	15.431
570.24	15.278
570.57	15.266
570.91	14.819
571.25	14.955
571.59	14.974
571.92	14.739
572.26	14.558
572.60	14.333
572.93	14.500
573.27	14.302
573.61	14.637
573.95	14.882
574.28	14.553
574.62	14.711
574.96	14.292
575.29	14.078
575.63	14.276
575.97	14.275
576.30	14.582
576.64	14.030
576.98	14.442
577.31	14.958
577.65	14.631
577.98	14.665
578.32	14.525
578.66	14.474
578.99	13.803
579.33	14.229
579.67	14.211
580.00	14.138
580.34	14.463
580.67	13.945
581.01	14.409
581.35	14.475
581.68	14.676
582.02	14.349
582.35	14.683
582.69	14.694
583.02	14.409
583.36	14.315
583.70	13.906
584.03	13.991
584.37	14.046
584.70	14.328
585.04	14.043
585.37	14.185
585.71	14.779
586.04	14.421
586.38	14.136
586.72	13.688
587.05	14.249
587.39	14.560
587.72	14.330
588.06	14.652
588.39	15.036
588.73	14.233
589.06	14.334
589.40	14.229
589.73	14.428
590.07	14.523
590.40	14.503
590.73	14.387
591.07	15.004
591.40	14.658
591.74	14.388
592.07	14.819
592.41	14.550
592.74	15.087
593.08	15.064
593.41	15.252
593.75	14.914
594.08	14.965
594.41	14.712
594.75	14.048
595.08	14.468
595.42	14.578
595.75	14.595
596.09	14.809
596.42	14.475
596.75	15.014
597.09	14.788
597.42	14.621
597.75	14.543
598.09	15.159
598.42	14.837
598.76	14.673
599.09	15.023
599.42	14.750
599.76	14.790
600.09	14.615
600.42	14.648
600.76	14.663
601.09	15.035
601.42	14.830
601.76	14.655
602.09	14.439
602.42	14.213
602.76	14.465
603.09	14.831
603.42	15.137
603.76	14.341
604.09	14.975
604.42	15.266
604.76	13.775
605.09	14.719
605.42	14.872
605.75	14.577
606.09	14.670
606.42	14.812
606.75	14.318
607.09	14.094
607.42	14.952
607.75	14.889
608.08	14.601
608.42	14.833
608.75	14.842
609.08	13.710
609.41	15.262
609.75	14.688
610.08	15.347
610.41	14.996
610.74	14.412
611.07	14.387
611.41	15.067
611.74	14.226
612.07	15.241
612.40	14.781
612.73	14.768
613.07	14.914
613.40	14.533
613.73	15.503
614.06	15.113
614.39	14.431
614.72	14.944
615.06	14.196
615.39	14.886
615.72	14.882
616.05	14.473
616.38	15.136
616.71	15.465
617.05	14.963
617.38	15.035
617.71	14.471
618.04	14.787
618.37	15.027
618.70	15.781
619.03	14.934
619.36	14.858
619.69	15.695
620.03	15.129
620.36	15.460
620.69	15.114
621.02	15.092
621.35	15.675
621.68	16.052
622.01	15.018
622.34	14.575
622.67	15.326
623.00	14.103
623.33	15.660
623.66	16.083
623.99	14.615
624.32	16.114
624.65	15.122
624.99	15.540
625.32	15.480
625.65	15.711
625.98	14.576
626.31	15.025
626.64	15.018
626.97	14.779
627.30	14.275
627.63	14.779
627.96	16.892
628.29	15.564
628.62	14.694
628.95	15.425
629.28	14.953
629.61	15.404
629.94	14.644
630.26	15.000
630.59	15.630
630.92	15.152
631.25	16.190
631.58	15.254
631.91	16.682
632.24	13.929
632.57	15.465
632.90	15.848
633.23	15.918
633.56	16.837
633.89	15.702
634.22	17.256
634.55	17.328
634.88	16.234
635.20	17.546
635.53	15.480
635.86	16.685
636.19	16.649
636.52	16.139
636.85	15.730
637.18	15.696
637.51	14.731
637.83	15.836
638.16	17.972
638.49	15.376
638.82	17.475
639.15	15.235
639.48	16.859
639.81	17.090
640.13	17.079
640.46	14.424
640.79	15.809
641.12	16.273
641.45	15.935
641.77	18.870
642.10	15.223
642.43	16.755
642.76	15.312
643.09	15.890
643.41	16.527
643.74	16.828
644.07	16.414
644.40	16.266
644.73	16.110
645.05	16.006
645.38	18.705
645.71	15.396
646.04	18.221
646.36	15.912
646.69	17.025
647.02	18.043
647.35	16.794
647.67	16.747
648.00	17.038
648.33	17.117
648.66	14.551
648.98	14.558
649.31	15.156
649.64	15.936
649.96	16.711
650.29	15.438
650.62	16.832
650.94	15.465
651.27	15.868
651.60	15.789
651.92	15.805
652.25	16.932
652.58	17.469
652.90	15.262
653.23	17.183
653.56	18.402
653.88	18.820
654.21	16.761
654.54	16.763
654.86	16.431
655.19	15.307
655.52	15.563
655.84	14.985
656.17	18.263
656.49	25.813
656.82	27.327
657.15	19.844
657.47	14.206
657.80	10.042
658.13	7.548
658.45	10.046
658.78	11.799
659.10	11.546
659.43	11.490
659.75	11.715
660.08	12.493
660.41	12.407
660.73	14.595
661.06	15.712
661.38	15.311
661.71	17.414
662.03	16.755
662.36	19.320
662.68	16.323
663.01	18.230
663.33	15.690
663.66	20.330
663.98	15.962
664.31	16.886
664.63	15.414
664.96	17.060
665.28	14.519
665.61	19.406
665.93	17.321
666.26	17.742
666.58	13.284
666.91	18.505
667.23	16.000
667.56	16.963
667.88	19.000
668.21	15.039
668.53	14.672
668.86	18.664
669.18	16.090
669.50	18.091
669.83	18.000
670.15	15.945
670.48	17.857
670.80	17.400
671.13	15.690
671.45	15.748
671.77	18.079
672.10	15.500
672.42	17.152
672.75	15.515
673.07	15.672
673.39	16.487
673.72	16.946
674.04	16.897
674.37	16.816
674.69	18.166
675.01	15.238
675.34	17.366
675.66	16.105
675.98	19.590
676.31	16.797
676.63	18.061
676.95	18.391
677.28	15.927
677.60	13.780
677.92	16.123
678.25	17.733
678.57	16.904
678.89	19.113
679.22	16.028
679.54	16.923
679.86	14.237
680.18	15.920
680.51	14.623
680.83	16.367
681.15	15.862
681.48	18.307
681.80	16.580
682.12	15.734
682.44	15.192
682.77	16.489
683.09	17.614
683.41	16.860
683.73	15.939
684.06	16.605
684.38	13.417
684.70	17.056
685.02	16.179
685.34	16.140
685.67	16.246
685.99	15.951
686.31	14.680
686.63	15.956
686.96	15.773
687.28	16.450
687.60	12.963
687.92	15.434
688.24	18.030
688.56	13.793
688.89	14.882
689.21	18.787
689.53	14.706
689.85	15.779
690.17	15.926
690.49	16.733
690.82	16.238
691.14	14.170
691.46	19.503
691.78	16.943
692.10	17.431
692.42	16.071
692.74	17.241
693.06	16.667
693.39	17.268
693.71	15.602
694.03	14.498
694.35	16.190
694.67	17.248
694.99	17.872
695.31	16.777
695.63	19.264
695.95	15.528
696.27	17.363
696.59	19.690
696.91	16.667
697.23	16.484
697.56	18.534
697.88	16.477
698.20	17.137
698.52	20.076
698.84	16.216
699.16	19.184
699.48	17.573
699.80	17.660
700.12	18.122
700.44	14.977
700.76	18.765
701.08	16.707
701.40	18.394
701.72	14.428
702.04	17.380
702.36	17.016
702.68	17.604
703.00	16.381
703.32	17.734
703.64	16.626
703.96	18.854
704.28	17.936
704.60	18.987
704.91	16.071
705.23	20.000
705.55	18.384
705.87	18.788
706.19	22.393
706.51	13.554
706.83	17.867
707.15	17.196
707.47	17.757
707.79	16.812
708.11	16.314
708.43	14.624
708.74	14.286
709.06	16.937
709.38	18.545
709.70	18.114
710.02	18.863
710.34	19.681
710.66	15.922
710.98	15.301
711.29	14.286
711.61	19.774
711.93	18.803
712.25	18.108
712.57	17.699
712.89	18.235
713.20	19.231
713.52	19.075
713.84	18.942
714.16	17.895
714.48	17.010
714.80	18.961
715.11	17.060
715.43	17.241
715.75	17.895
716.07	19.061
716.39	20.492
716.70	15.964
717.02	20.328
717.34	13.937
717.66	17.450
717.97	17.466
718.29	20.275
718.61	16.776
718.93	17.152
719.24	18.012
719.56	14.110
719.88	15.315
720.20	16.129
720.51	15.839
720.83	16.563
721.15	14.803
721.46	15.411
721.78	17.667
722.10	17.799
722.42	22.483
722.73	19.677
723.05	17.895
723.37	22.222
723.68	19.713
724.00	20.217
724.32	13.028
724.63	20.629
724.95	21.631
725.27	20.906
725.58	15.194
725.90	17.931
726.22	15.987
726.53	22.078
726.85	19.182
727.16	18.127
727.48	18.043
727.80	22.848
728.11	19.081
728.43	18.519
728.74	21.070
729.06	18.874
729.38	17.857
729.69	19.128
730.01	18.750
730.32	14.848
730.64	19.811
730.96	14.286
731.27	17.877
731.59	19.780
731.90	18.701
732.22	17.448
732.53	13.260
732.85	19.714
733.16	17.009
733.48	18.598
733.80	17.827
734.11	19.658
734.43	18.108
734.74	19.494
735.06	17.085
735.37	18.919
735.69	15.405
736.00	19.774
736.32	21.294
736.63	18.889
736.95	17.816
737.26	20.606
737.58	16.970
737.89	17.647
738.21	16.208
738.52	16.721
738.83	19.113
739.15	18.440
739.46	18.367
739.78	20.245
740.09	17.479
740.41	22.157
740.72	19.000
741.04	19.417
741.35	19.649
741.66	23.137
741.98	19.672
742.29	17.992
742.61	24.561
742.92	20.385
743.23	18.412
743.55	20.930
743.86	22.000
744.18	16.116
744.49	20.253
744.80	20.988
745.12	20.253
745.43	18.699
745.74	18.103
746.06	19.492
746.37	24.895
746.68	24.390
747.00	23.333
747.31	17.597
747.62	20.385
747.94	21.457
748.25	21.687
748.56	21.633
748.88	16.667
749.19	25.000
749.50	22.944
749.82	22.490
750.13	23.843
750.44	17.000
750.75	22.154
751.07	19.692
751.38	20.189
751.69	17.891
752.01	16.828
752.32	20.261
752.63	21.769
752.94	20.415
753.26	17.472
753.57	17.037
753.88	19.476
754.19	18.971
754.51	17.685
754.82	18.650
755.13	23.607
755.44	18.089
755.75	19.079
756.07	18.806
756.38	19.497
756.69	22.289
757.00	16.343
757.31	19.672
757.63	15.601
757.94	14.789
758.25	16.253
758.56	14.815
758.87	19.545
759.18	17.600
759.50	19.830
759.81	17.647
760.12	17.790
760.43	16.406
760.74	18.227
761.05	16.000
761.36	14.217
761.67	18.020
761.99	22.162
762.30	19.207
762.61	17.162
762.92	21.642
763.23	22.097
763.54	18.345
763.85	21.306
764.16	20.539
764.47	19.718
764.78	20.128
765.10	19.648
765.41	19.487
765.72	14.815
766.03	18.927
766.34	15.047
766.65	16.028
766.96	19.920
767.27	23.041
767.58	18.408
767.89	22.115
768.20	20.657
768.51	19.444
768.82	22.088
769.13	20.833
769.44	18.077
769.75	19.856
770.06	21.154
770.37	24.409
770.68	19.574
770.99	12.146
771.30	25.926
771.61	23.194
771.92	18.889
772.23	22.267
772.54	14.815
772.85	23.963
773.16	23.810
773.47	16.402
773.78	18.378
774.09	25.000
774.39	27.500
774.70	23.497
775.01	14.024
775.32	18.824
775.63	22.086
775.94	22.293
776.25	31.613
776.56	24.359
776.87	27.891
777.18	22.069
777.48	27.972
777.79	24.324
778.10	27.206
778.41	30.556
778.72	22.069
779.03	22.840
779.34	17.576
779.65	21.762
779.95	21.667
780.26	19.886
780.57	27.097
780.88	32.609
781.19	29.677
781.50	25.882
781.80	25.806
782.11	21.693
782.42	17.172
782.73	18.563
783.04	26.816
783.34	20.606
783.65	21.569
783.96	21.739
784.27	22.619
784.57	25.828
784.88	25.000
785.19	25.984
785.50	20.472
785.81	27.068
786.11	30.000
786.42	21.583
786.73	27.338
787.04	32.331
787.34	18.033
787.65	22.400
787.96	23.881
788.26	31.469
788.57	27.972
788.88	25.000
789.19	22.222
789.49	15.068
789.80	27.660
790.11	23.622
790.41	27.344
790.72	28.814
791.03	13.592
791.33	33.913
791.64	29.825
791.95	33.929
792.25	26.667
792.56	31.250
792.87	27.083
793.17	41.964
793.48	19.792
793.79	20.482
794.09	22.936
794.40	29.358
794.70	20.408
795.01	25.325
795.32	20.548
795.62	26.056
795.93	27.273
796.23	22.951
796.54	21.429
796.85	21.277
797.15	16.304
797.46	32.877
797.76	40.000
798.07	30.435
798.37	24.742
798.68	28.571
798.99	24.138
799.29	25.843
799.60	29.787
799.90	25.301
800.21	38.462
800.51	25.373
800.82	30.882
801.12	26.027
801.43	20.588
801.73	27.119
802.04	42.424
802.34	30.000
802.65	28.814
802.95	47.761
803.26	45.763
803.56	26.027
803.87	40.000
804.17	43.836
804.48	14.035
804.78	30.556
805.09	20.690
805.39	39.189
805.70	25.352
806.00	26.829
806.30	31.325
806.61	31.507
806.91	28.846
807.22	35.556
807.52	22.989
807.83	55.556
808.13	28.916
808.43	29.213
808.74	31.250
809.04	33.824
809.35	22.667
809.65	44.286
809.95	38.356
810.26	21.053
810.56	32.759
810.86	52.941
811.17	22.807
811.47	44.262
811.77	20.000
812.08	30.508
812.38	53.333
812.69	43.103
812.99	37.736
813.29	51.282
813.59	74.000
813.90	36.842
814.20	32.727
814.50	57.746
814.81	43.590
815.11	45.902
815.41	34.328
815.72	44.828
816.02	58.929
816.32	64.444
816.62	59.091
816.93	20.000
817.23	42.593
817.53	48.936
817.84	66.667
818.14	70.588
818.44	42.857
818.74	80.000
819.04	12.821
819.35	65.714
819.65	19.231
819.95	39.623
820.25	48.889
820.56	42.857
820.86	71.875
821.16	43.590
821.46	30.233
821.76	26.000
822.07	57.143
822.37	36.957
822.67	42.553
822.97	51.351
823.27	37.500
823.57	46.939
823.88	35.556
824.18	62.500
824.48	86.667
824.78	60.000
825.08	45.455
825.38	80.000
825.69	57.447
825.99	88.889
826.29	22.857
826.59	48.718
826.89	48.837
827.19	52.000
827.49	50.000
827.79	66.667
828.09	40.541
828.39	46.667
828.70	41.463
829.00	55.814
829.30	39.286
829.60	70.588
829.90	47.826
830.20	74.286
830.50	51.724
830.80	94.444
831.10	65.385
831.40	41.176
831.70	80.952
832.00	80.645
832.30	11.765
832.60	79.167
832.90	146.154
833.20	84.211
833.50	55.000
833.80	68.421
834.10	-33.333
834.40	69.444
834.70	71.875
835.00	34.286
835.30	58.824
835.60	63.333
835.90	100.000
836.20	59.091
836.50	88.000
836.80	30.303
837.10	37.037
837.40	66.667
837.70	100.000
838.00	50.000
838.30	43.478
838.60	79.310
838.90	128.571
839.19	30.435
839.49	66.667
839.79	65.217
840.09	62.500
840.39	60.000
840.69	58.065
840.99	39.286
841.29	66.667
841.59	73.684
841.88	69.231
842.18	53.846
842.48	120.000
842.78	95.000
843.08	76.667
843.38	96.774
843.68	100.000
843.97	73.529
844.27	106.250
844.57	89.474
844.87	40.000
845.17	146.667
845.47	104.762
845.76	57.143
846.06	244.444
846.36	117.647
846.66	61.538
846.96	20.000
847.25	70.588
847.55	104.348
847.85	90.000
848.15	100.000
848.44	127.273
848.74	90.476
849.04	75.000
849.34	75.000
849.63	73.913
849.93	-200.000
850.23	120.000
850.53	96.154
850.82	209.091
851.12	63.636
851.42	154.545
851.71	184.615
852.01	30.000
852.31	123.077
852.61	94.737
852.90	75.000
853.20	138.889
853.50	200.000
853.79	52.381
854.09	45.455
854.39	91.667
854.68	54.839
854.98	80.769
855.28	105.556
855.57	42.857
855.87	56.000
856.17	27.273
856.46	103.704
856.76	72.222
857.05	73.913
857.35	83.333
857.65	153.846
857.94	152.381
858.24	122.222
858.53	100.000
858.83	58.824
859.13	70.588
859.42	82.353
859.72	142.857
860.01	105.000
860.31	122.222
860.60	100.000
860.90	133.333
861.20	83.333
861.49	84.615
861.79	90.000
862.08	92.308
862.38	90.625
862.67	170.588
862.97	93.750
863.26	144.444
863.56	160.000
863.85	90.909
864.15	116.667
864.44	233.333
864.74	107.143
865.03	87.500
865.33	130.000
865.62	77.419
865.92	104.545
866.21	73.913
866.51	114.286
866.80	280.000
867.10	125.000
867.39	116.667
867.69	-1300.000
867.98	300.000
868.27	170.588
868.57	800.000
868.86	200.000
869.16	80.952
869.45	87.500
869.75	127.273
870.04	57.143
870.33	158.333
870.63	57.143
870.92	500.000
871.22	-62.500
871.51	145.455
871.80	-33.333
872.10	650.000
>>>>>End Processed Spectral Data<<<<<
