SpectraSuite Data File
++++++++++++++++++++++++++++++++++++
Date: Thu May 14 14:36:39 PDT 2015
User: schluterlab
Dark Spectrum Present: Yes
Reference Spectrum Present: Yes
Number of Sampled Component Spectra: 1
Spectrometers: USB2E3373
Integration Time (usec): 3000 (USB2E3373)
Spectra Averaged: 3 (USB2E3373)
Boxcar Smoothing: 0 (USB2E3373)
Correct for Electrical Dark: No (USB2E3373)
Strobe/Lamp Enabled: No (USB2E3373)
Correct for Detector Non-linearity: No (USB2E3373)
Correct for Stray Light: No (USB2E3373)
Number of Pixels in Processed Spectrum: 2048
>>>>>Begin Processed Spectral Data<<<<<
178.53	0.000
178.91	-157.143
179.29	100.000
179.67	1300.000
180.04	-0.000
180.42	-110.000
180.80	-200.000
181.18	600.000
181.56	1900.000
181.94	-500.000
182.31	400.000
182.69	-566.667
183.07	950.000
183.45	-250.000
183.83	333.333
184.20	433.333
184.58	-2200.000
184.96	300.000
185.34	144.444
185.72	380.000
186.09	-122.222
186.47	-400.000
186.85	-80.000
187.23	166.667
187.61	2000.000
187.98	-200.000
188.36	-375.000
188.74	350.000
189.12	400.000
189.49	112.500
189.87	137.500
190.25	122.222
190.63	260.000
191.00	188.889
191.38	0.000
191.76	350.000
192.14	266.667
192.51	-650.000
192.89	466.667
193.27	0.000
193.65	214.286
194.02	500.000
194.40	342.857
194.78	-257.143
195.15	0.000
195.53	200.000
195.91	0.000
196.29	400.000
196.66	38.462
197.04	1000.000
197.42	242.857
197.79	800.000
198.17	200.000
198.55	171.429
198.92	155.556
199.30	125.000
199.68	190.909
200.05	85.714
200.43	1000.000
200.81	-128.571
201.18	0.000
201.56	-111.111
201.94	0.000
202.31	-266.667
202.69	200.000
203.07	-900.000
203.44	211.111
203.82	350.000
204.19	58.333
204.57	183.333
204.95	162.500
205.32	1800.000
205.70	-375.000
206.08	233.333
206.45	250.000
206.83	-160.000
207.20	266.667
207.58	120.000
207.96	316.667
208.33	433.333
208.71	-33.333
209.08	433.333
209.46	0.000
209.84	-266.667
210.21	-1100.000
210.59	-500.000
210.96	-100.000
211.34	650.000
211.71	237.500
212.09	1000.000
212.46	0.000
212.84	-150.000
213.22	140.000
213.59	450.000
213.97	200.000
214.34	566.667
214.72	-266.667
215.09	350.000
215.47	0.000
215.84	-285.714
216.22	100.000
216.59	300.000
216.97	340.000
217.34	525.000
217.72	300.000
218.09	375.000
218.47	125.000
218.84	0.000
219.22	-340.000
219.59	94.118
219.97	120.000
220.34	-400.000
220.72	133.333
221.09	123.077
221.47	766.667
221.84	140.000
222.22	171.429
222.59	0.000
222.97	150.000
223.34	560.000
223.72	1700.000
224.09	425.000
224.46	350.000
224.84	600.000
225.21	171.429
225.59	350.000
225.96	325.000
226.34	92.308
226.71	-116.667
227.08	900.000
227.46	126.667
227.83	475.000
228.21	131.579
228.58	-100.000
228.95	-800.000
229.33	200.000
229.70	170.000
230.08	152.632
230.45	-120.000
230.82	800.000
231.20	150.000
231.57	141.667
231.95	136.364
232.32	190.909
232.69	75.000
233.07	375.000
233.44	123.529
233.81	130.000
234.19	172.222
234.56	104.545
234.93	79.310
235.31	84.211
235.68	105.556
236.05	65.000
236.43	96.154
236.80	96.000
237.17	62.963
237.55	63.636
237.92	100.000
238.29	48.387
238.67	31.818
239.04	52.778
239.41	35.714
239.79	28.261
240.16	40.741
240.53	28.261
240.91	23.529
241.28	31.148
241.65	46.269
242.02	35.135
242.40	24.615
242.77	21.333
243.14	21.951
243.51	10.526
243.89	19.231
244.26	25.743
244.63	35.294
245.00	18.692
245.38	12.281
245.75	0.000
246.12	18.254
246.49	10.853
246.87	17.857
247.24	11.921
247.61	11.184
247.98	12.081
248.36	6.790
248.73	4.908
249.10	9.290
249.47	13.930
249.84	12.042
250.22	7.254
250.59	7.778
250.96	12.727
251.33	9.184
251.70	11.538
252.08	7.500
252.45	7.377
252.82	3.306
253.19	7.031
253.56	7.605
253.94	7.308
254.31	7.576
254.68	10.839
255.05	7.492
255.42	4.762
255.79	4.531
256.16	7.285
256.54	6.291
256.91	8.197
257.28	5.574
257.65	6.051
258.02	3.540
258.39	8.547
258.76	10.703
259.14	6.322
259.51	5.764
259.88	5.382
260.25	4.444
260.62	5.753
260.99	7.377
261.36	5.898
261.73	6.631
262.10	4.396
262.47	2.949
262.85	6.566
263.22	4.156
263.59	2.105
263.96	6.394
264.33	3.069
264.70	5.679
265.07	8.592
265.44	8.390
265.81	3.704
266.18	4.989
266.55	3.571
266.92	3.872
267.29	7.002
267.66	6.430
268.03	5.459
268.40	4.384
268.77	4.556
269.14	1.542
269.51	3.947
269.88	6.352
270.25	5.634
270.62	5.907
270.99	7.071
271.36	6.733
271.73	5.108
272.10	5.611
272.47	4.609
272.84	4.016
273.21	5.210
273.58	5.040
273.95	3.654
274.32	4.563
274.69	6.383
275.06	4.396
275.43	2.403
275.80	5.467
276.17	3.519
276.54	4.104
276.91	4.651
277.28	2.712
277.65	5.566
278.02	3.125
278.39	3.804
278.76	1.230
279.13	4.965
279.50	5.155
279.87	4.293
280.23	3.169
280.60	4.576
280.97	5.428
281.34	1.188
281.71	5.245
282.08	3.821
282.45	2.946
282.82	4.867
283.19	2.262
283.56	3.770
283.92	5.556
284.29	6.951
284.66	4.762
285.03	2.885
285.40	5.564
285.77	3.560
286.14	5.344
286.51	4.262
286.87	3.633
287.24	4.217
287.61	3.886
287.98	2.870
288.35	3.402
288.72	5.325
289.08	6.003
289.45	4.882
289.82	3.163
290.19	3.592
290.56	4.648
290.93	3.138
291.29	3.444
291.66	3.994
292.03	2.985
292.40	5.714
292.77	5.121
293.13	3.924
293.50	3.548
293.87	2.953
294.24	5.067
294.60	4.804
294.97	2.550
295.34	4.738
295.71	3.783
296.08	4.780
296.44	4.534
296.81	4.019
297.18	4.110
297.55	3.656
297.91	4.508
298.28	3.436
298.65	4.518
299.02	4.841
299.38	5.721
299.75	5.841
300.12	3.588
300.48	4.147
300.85	4.724
301.22	6.152
301.59	3.881
301.95	5.085
302.32	4.667
302.69	4.162
303.05	5.223
303.42	5.100
303.79	5.208
304.15	4.627
304.52	4.123
304.89	3.141
305.25	5.383
305.62	5.643
305.99	5.052
306.35	5.444
306.72	4.240
307.09	4.061
307.45	4.244
307.82	4.339
308.19	4.743
308.55	5.304
308.92	5.258
309.29	5.651
309.65	4.386
310.02	4.752
310.38	4.429
310.75	5.437
311.12	5.561
311.48	4.203
311.85	4.368
312.22	4.744
312.58	5.915
312.95	4.780
313.31	5.510
313.68	5.495
314.05	6.052
314.41	5.738
314.78	5.450
315.14	5.989
315.51	5.355
315.87	5.851
316.24	5.114
316.61	6.927
316.97	5.339
317.34	5.203
317.70	4.891
318.07	5.732
318.43	6.463
318.80	6.438
319.16	6.094
319.53	4.627
319.89	4.820
320.26	5.872
320.62	5.142
320.99	5.263
321.35	5.545
321.72	6.977
322.08	6.132
322.45	6.414
322.81	5.325
323.18	5.310
323.54	6.121
323.91	5.605
324.27	6.110
324.64	7.305
325.00	5.970
325.37	7.371
325.73	6.529
326.10	7.056
326.46	7.410
326.83	7.366
327.19	7.087
327.56	7.431
327.92	7.710
328.29	7.097
328.65	6.616
329.01	8.122
329.38	8.172
329.74	7.620
330.11	8.219
330.47	7.751
330.84	8.786
331.20	8.250
331.56	7.799
331.93	8.870
332.29	8.729
332.66	7.475
333.02	8.459
333.38	7.718
333.75	7.997
334.11	8.924
334.48	8.251
334.84	8.751
335.20	7.893
335.57	9.781
335.93	8.760
336.29	8.070
336.66	7.906
337.02	8.779
337.38	8.929
337.75	8.347
338.11	8.915
338.47	7.444
338.84	7.953
339.20	7.582
339.56	8.320
339.93	8.621
340.29	8.937
340.65	7.705
341.02	8.619
341.38	8.327
341.74	8.313
342.11	8.206
342.47	7.705
342.83	8.213
343.20	8.422
343.56	7.859
343.92	8.567
344.28	8.438
344.65	8.450
345.01	7.956
345.37	8.087
345.73	7.794
346.10	8.892
346.46	8.465
346.82	8.689
347.19	7.792
347.55	8.953
347.91	8.321
348.27	8.574
348.63	8.911
349.00	8.054
349.36	7.658
349.72	8.408
350.08	8.321
350.45	8.289
350.81	7.541
351.17	7.594
351.53	7.961
351.89	8.732
352.26	7.836
352.62	7.463
352.98	7.786
353.34	7.170
353.70	8.629
354.07	8.420
354.43	7.365
354.79	8.227
355.15	8.389
355.51	8.333
355.87	7.255
356.24	8.289
356.60	7.908
356.96	8.525
357.32	6.989
357.68	7.394
358.04	8.009
358.40	7.239
358.77	8.187
359.13	7.386
359.49	6.691
359.85	8.484
360.21	8.250
360.57	8.902
360.93	8.110
361.29	8.140
361.66	7.676
362.02	9.047
362.38	8.222
362.74	8.031
363.10	7.497
363.46	8.518
363.82	7.884
364.18	7.530
364.54	7.884
364.90	8.094
365.26	7.034
365.62	8.533
365.98	8.645
366.35	8.255
366.71	8.095
367.07	8.390
367.43	7.945
367.79	7.896
368.15	8.495
368.51	7.984
368.87	7.707
369.23	8.200
369.59	8.470
369.95	8.519
370.31	8.170
370.67	7.772
371.03	8.449
371.39	8.328
371.75	8.116
372.11	8.604
372.47	7.989
372.83	9.293
373.19	8.806
373.55	8.672
373.91	8.112
374.27	8.344
374.63	8.525
374.99	8.621
375.35	9.091
375.71	9.097
376.07	8.328
376.42	8.879
376.78	8.639
377.14	8.422
377.50	8.412
377.86	9.667
378.22	8.443
378.58	8.026
378.94	8.862
379.30	9.432
379.66	9.641
380.02	8.944
380.38	8.871
380.74	9.239
381.09	8.479
381.45	9.091
381.81	8.958
382.17	9.679
382.53	9.766
382.89	9.707
383.25	8.792
383.61	8.449
383.97	8.952
384.32	9.868
384.68	9.339
385.04	9.832
385.40	10.430
385.76	9.965
386.12	8.917
386.48	9.529
386.83	10.250
387.19	10.371
387.55	9.624
387.91	9.532
388.27	10.219
388.62	10.137
388.98	10.152
389.34	9.605
389.70	10.285
390.06	10.776
390.42	9.759
390.77	11.078
391.13	9.918
391.49	10.507
391.85	9.515
392.20	10.202
392.56	11.459
392.92	10.469
393.28	9.840
393.64	9.888
393.99	10.285
394.35	10.689
394.71	10.838
395.07	10.060
395.42	10.223
395.78	11.517
396.14	10.873
396.50	10.273
396.85	10.197
397.21	10.296
397.57	10.542
397.92	11.226
398.28	10.103
398.64	10.240
399.00	10.052
399.35	9.895
399.71	10.272
400.07	10.163
400.42	9.953
400.78	10.475
401.14	10.871
401.49	11.654
401.85	10.988
402.21	11.703
402.57	10.974
402.92	10.757
403.28	10.656
403.63	10.143
403.99	9.917
404.35	10.460
404.70	10.822
405.06	10.598
405.42	10.773
405.77	10.632
406.13	10.535
406.49	9.741
406.84	10.970
407.20	10.565
407.55	10.236
407.91	10.308
408.27	10.895
408.62	10.297
408.98	10.041
409.34	9.971
409.69	10.692
410.05	11.958
410.40	10.905
410.76	9.871
411.11	11.163
411.47	10.934
411.83	11.346
412.18	11.024
412.54	10.492
412.89	10.594
413.25	10.609
413.60	10.741
413.96	10.431
414.31	10.368
414.67	10.614
415.03	10.462
415.38	11.160
415.74	10.751
416.09	11.043
416.45	10.394
416.80	10.710
417.16	11.303
417.51	10.025
417.87	10.362
418.22	10.659
418.58	9.665
418.93	11.700
419.29	11.159
419.64	10.444
420.00	10.148
420.35	11.230
420.71	10.454
421.06	10.408
421.42	11.124
421.77	9.801
422.12	10.465
422.48	10.445
422.83	10.953
423.19	10.345
423.54	10.398
423.90	10.381
424.25	10.773
424.61	10.792
424.96	11.587
425.31	11.571
425.67	10.199
426.02	10.957
426.38	11.079
426.73	10.547
427.09	11.361
427.44	10.322
427.79	11.166
428.15	9.932
428.50	11.292
428.85	11.022
429.21	11.755
429.56	10.563
429.92	10.418
430.27	10.313
430.62	10.699
430.98	10.969
431.33	10.997
431.68	9.866
432.04	10.716
432.39	11.784
432.74	11.016
433.10	10.817
433.45	11.427
433.80	11.373
434.16	11.725
434.51	10.689
434.86	11.292
435.22	10.574
435.57	11.439
435.92	11.241
436.28	10.978
436.63	11.251
436.98	10.950
437.34	10.992
437.69	10.732
438.04	10.735
438.39	11.545
438.75	9.906
439.10	10.994
439.45	10.844
439.81	10.960
440.16	10.509
440.51	11.037
440.86	10.784
441.22	10.879
441.57	10.849
441.92	10.912
442.27	11.515
442.63	10.830
442.98	11.580
443.33	10.573
443.68	11.447
444.03	11.665
444.39	11.558
444.74	11.485
445.09	11.353
445.44	11.433
445.79	11.255
446.15	11.614
446.50	11.008
446.85	10.409
447.20	11.509
447.55	11.402
447.91	10.471
448.26	11.839
448.61	10.627
448.96	11.266
449.31	11.612
449.66	11.438
450.02	11.762
450.37	11.774
450.72	11.087
451.07	11.105
451.42	11.150
451.77	11.117
452.12	11.287
452.47	11.230
452.83	11.486
453.18	11.033
453.53	10.856
453.88	11.761
454.23	11.299
454.58	11.259
454.93	11.529
455.28	11.981
455.63	11.427
455.98	11.285
456.34	10.777
456.69	11.346
457.04	10.461
457.39	11.253
457.74	12.081
458.09	11.367
458.44	11.261
458.79	10.727
459.14	11.379
459.49	11.036
459.84	10.965
460.19	10.494
460.54	11.130
460.89	11.382
461.24	10.977
461.59	11.787
461.94	10.667
462.29	11.478
462.64	10.863
462.99	11.864
463.34	11.875
463.69	11.196
464.04	11.618
464.39	10.987
464.74	11.060
465.09	11.361
465.44	10.891
465.79	11.951
466.14	11.100
466.49	11.632
466.84	11.846
467.19	11.098
467.54	11.163
467.89	10.575
468.24	11.967
468.59	10.539
468.94	11.189
469.29	10.618
469.64	11.380
469.99	11.345
470.34	11.510
470.68	12.167
471.03	11.395
471.38	10.791
471.73	10.403
472.08	10.977
472.43	11.379
472.78	11.146
473.13	10.746
473.48	11.178
473.83	10.911
474.17	10.961
474.52	11.305
474.87	11.517
475.22	11.549
475.57	11.371
475.92	10.951
476.27	10.703
476.61	11.111
476.96	10.792
477.31	10.891
477.66	11.070
478.01	10.880
478.36	10.967
478.70	10.936
479.05	11.145
479.40	10.563
479.75	10.999
480.10	10.564
480.45	10.848
480.79	11.020
481.14	10.478
481.49	10.586
481.84	11.227
482.19	10.882
482.53	10.625
482.88	10.944
483.23	10.405
483.58	10.262
483.92	10.239
484.27	11.008
484.62	10.850
484.97	11.003
485.31	10.102
485.66	10.613
486.01	9.935
486.36	10.118
486.70	10.116
487.05	10.420
487.40	10.889
487.75	10.356
488.09	10.482
488.44	10.943
488.79	10.624
489.13	10.825
489.48	10.485
489.83	10.664
490.17	10.328
490.52	9.934
490.87	10.279
491.22	10.355
491.56	11.263
491.91	10.597
492.26	10.731
492.60	10.538
492.95	10.531
493.30	10.713
493.64	10.644
493.99	9.912
494.34	10.235
494.68	10.150
495.03	10.441
495.37	10.608
495.72	10.295
496.07	10.911
496.41	9.953
496.76	10.550
497.11	9.979
497.45	10.358
497.80	9.996
498.14	10.113
498.49	10.892
498.84	10.558
499.18	10.661
499.53	10.762
499.87	10.857
500.22	9.573
500.56	9.717
500.91	10.160
501.26	10.273
501.60	10.605
501.95	10.986
502.29	9.741
502.64	10.800
502.98	10.483
503.33	9.806
503.67	9.769
504.02	10.508
504.36	10.769
504.71	10.611
505.06	10.005
505.40	10.009
505.75	9.973
506.09	10.313
506.44	10.724
506.78	10.459
507.13	10.881
507.47	10.943
507.82	10.322
508.16	10.086
508.51	10.455
508.85	10.298
509.19	10.753
509.54	10.375
509.88	9.519
510.23	9.956
510.57	10.730
510.92	10.402
511.26	10.101
511.61	9.850
511.95	10.298
512.30	10.389
512.64	9.445
512.98	10.105
513.33	10.534
513.67	9.638
514.02	10.731
514.36	10.844
514.70	10.573
515.05	9.854
515.39	10.394
515.74	11.506
516.08	9.984
516.42	9.942
516.77	10.200
517.11	10.057
517.46	10.233
517.80	10.476
518.14	10.718
518.49	10.195
518.83	10.112
519.17	10.124
519.52	10.639
519.86	10.612
520.20	10.170
520.55	10.405
520.89	10.586
521.23	10.274
521.58	10.226
521.92	9.972
522.26	9.851
522.61	10.301
522.95	10.208
523.29	9.943
523.64	9.529
523.98	10.667
524.32	10.487
524.66	10.245
525.01	10.249
525.35	10.569
525.69	9.571
526.04	10.677
526.38	9.655
526.72	9.804
527.06	10.088
527.41	9.913
527.75	10.214
528.09	10.272
528.43	10.835
528.78	9.306
529.12	10.034
529.46	10.118
529.80	10.297
530.15	10.087
530.49	9.193
530.83	10.626
531.17	9.916
531.51	9.206
531.86	10.697
532.20	10.366
532.54	9.575
532.88	9.030
533.22	10.489
533.57	9.983
533.91	10.606
534.25	9.893
534.59	9.540
534.93	9.677
535.27	10.535
535.62	10.915
535.96	10.808
536.30	9.812
536.64	10.330
536.98	10.455
537.32	10.062
537.66	10.917
538.01	9.366
538.35	9.866
538.69	9.615
539.03	9.749
539.37	10.071
539.71	10.991
540.05	10.612
540.39	9.046
540.73	10.322
541.07	10.055
541.42	10.337
541.76	9.786
542.10	9.710
542.44	9.318
542.78	9.976
543.12	9.416
543.46	10.012
543.80	9.412
544.14	9.336
544.48	10.875
544.82	9.695
545.16	9.660
545.50	9.587
545.84	10.165
546.18	10.309
546.52	9.490
546.86	10.314
547.20	9.478
547.54	10.050
547.88	8.861
548.22	9.825
548.56	9.304
548.90	9.194
549.24	9.544
549.58	10.095
549.92	9.503
550.26	10.809
550.60	9.955
550.94	10.802
551.28	10.627
551.62	9.906
551.96	10.291
552.30	10.580
552.64	10.703
552.98	9.669
553.32	10.740
553.66	10.032
554.00	10.151
554.34	9.653
554.68	8.974
555.02	9.855
555.36	10.322
555.69	9.673
556.03	9.206
556.37	10.138
556.71	9.448
557.05	10.032
557.39	9.489
557.73	9.511
558.07	9.338
558.41	10.764
558.75	9.601
559.08	10.021
559.42	9.877
559.76	10.312
560.10	10.717
560.44	9.301
560.78	9.938
561.12	9.544
561.45	10.584
561.79	9.341
562.13	10.166
562.47	9.926
562.81	10.253
563.15	10.543
563.48	9.882
563.82	9.492
564.16	9.570
564.50	9.237
564.84	9.499
565.17	9.235
565.51	9.091
565.85	9.620
566.19	8.929
566.52	9.655
566.86	8.942
567.20	9.570
567.54	9.559
567.88	9.939
568.21	9.289
568.55	9.161
568.89	9.714
569.23	9.590
569.56	8.675
569.90	8.909
570.24	9.005
570.57	8.659
570.91	8.543
571.25	8.794
571.59	8.906
571.92	8.635
572.26	8.735
572.60	8.900
572.93	8.823
573.27	8.907
573.61	8.894
573.95	8.813
574.28	8.970
574.62	8.527
574.96	8.602
575.29	8.945
575.63	9.101
575.97	8.671
576.30	8.586
576.64	8.972
576.98	8.702
577.31	8.563
577.65	8.811
577.98	8.603
578.32	8.531
578.66	8.462
578.99	8.724
579.33	8.582
579.67	8.590
580.00	8.631
580.34	8.770
580.67	8.407
581.01	8.503
581.35	8.514
581.68	8.554
582.02	8.779
582.35	8.912
582.69	8.433
583.02	8.727
583.36	9.181
583.70	8.771
584.03	9.095
584.37	8.911
584.70	8.802
585.04	8.510
585.37	8.683
585.71	8.759
586.04	8.542
586.38	8.751
586.72	8.473
587.05	8.672
587.39	8.701
587.72	8.756
588.06	8.873
588.39	8.987
588.73	8.836
589.06	8.719
589.40	8.390
589.73	8.772
590.07	8.985
590.40	9.229
590.73	8.978
591.07	9.010
591.40	8.398
591.74	9.499
592.07	9.379
592.41	8.833
592.74	9.230
593.08	9.013
593.41	9.070
593.75	9.167
594.08	8.725
594.41	8.590
594.75	8.801
595.08	8.950
595.42	8.799
595.75	8.944
596.09	9.387
596.42	9.316
596.75	9.263
597.09	9.616
597.42	9.416
597.75	8.977
598.09	9.286
598.42	9.329
598.76	8.598
599.09	9.470
599.42	8.683
599.76	8.716
600.09	9.009
600.42	9.209
600.76	9.511
601.09	8.596
601.42	7.999
601.76	8.828
602.09	9.042
602.42	8.724
602.76	9.041
603.09	8.884
603.42	9.212
603.76	8.598
604.09	9.688
604.42	8.734
604.76	8.524
605.09	8.815
605.42	9.091
605.75	9.308
606.09	9.108
606.42	9.011
606.75	8.471
607.09	8.909
607.42	9.094
607.75	9.379
608.08	8.800
608.42	9.351
608.75	9.080
609.08	8.659
609.41	8.734
609.75	9.062
610.08	9.499
610.41	8.581
610.74	8.403
611.07	9.547
611.41	9.417
611.74	8.776
612.07	9.163
612.40	9.173
612.73	8.655
613.07	8.753
613.40	9.192
613.73	8.570
614.06	9.470
614.39	8.892
614.72	8.879
615.06	8.807
615.39	9.377
615.72	9.336
616.05	9.373
616.38	9.284
616.71	9.979
617.05	8.733
617.38	10.273
617.71	9.611
618.04	9.822
618.37	9.344
618.70	9.050
619.03	9.259
619.36	9.371
619.69	9.545
620.03	9.479
620.36	9.018
620.69	9.624
621.02	9.843
621.35	10.087
621.68	10.123
622.01	9.893
622.34	8.996
622.67	8.935
623.00	8.232
623.33	9.754
623.66	9.403
623.99	8.624
624.32	10.461
624.65	8.880
624.99	9.493
625.32	9.863
625.65	9.508
625.98	9.424
626.31	8.788
626.64	9.377
626.97	8.927
627.30	9.491
627.63	9.452
627.96	10.210
628.29	9.805
628.62	8.564
628.95	9.553
629.28	9.516
629.61	10.185
629.94	8.285
630.26	10.000
630.59	9.326
630.92	9.177
631.25	10.465
631.58	10.169
631.91	10.403
632.24	10.567
632.57	10.531
632.90	9.428
633.23	9.796
633.56	10.408
633.89	9.711
634.22	10.707
634.55	9.499
634.88	9.091
635.20	11.410
635.53	11.525
635.86	11.051
636.19	11.135
636.52	10.338
636.85	9.704
637.18	10.499
637.51	9.032
637.83	10.410
638.16	10.138
638.49	9.155
638.82	10.710
639.15	9.622
639.48	10.739
639.81	10.508
640.13	11.190
640.46	9.455
640.79	10.294
641.12	11.180
641.45	9.912
641.77	12.580
642.10	10.236
642.43	11.968
642.76	10.705
643.09	9.178
643.41	9.104
643.74	10.483
644.07	10.207
644.40	10.325
644.73	10.450
645.05	10.573
645.38	10.360
645.71	9.824
646.04	11.478
646.36	9.781
646.69	9.509
647.02	11.927
647.35	12.061
647.67	10.628
648.00	11.306
648.33	10.511
648.66	11.555
648.98	9.388
649.31	11.231
649.64	11.819
649.96	11.936
650.29	9.318
650.62	10.325
650.94	11.261
651.27	11.078
651.60	10.965
651.92	10.942
652.25	11.433
652.58	11.142
652.90	8.866
653.23	10.000
653.56	11.127
653.88	12.500
654.21	10.986
654.54	10.405
654.86	11.048
655.19	9.410
655.52	8.460
655.84	7.591
656.17	9.305
656.49	13.556
656.82	15.313
657.15	12.281
657.47	9.117
657.80	6.777
658.13	5.309
658.45	7.088
658.78	8.888
659.10	8.712
659.43	9.216
659.75	8.715
660.08	9.132
660.41	9.595
660.73	9.806
661.06	9.692
661.38	11.324
661.71	9.655
662.03	12.346
662.36	13.596
662.68	10.507
663.01	10.973
663.33	13.800
663.66	13.004
663.98	11.731
664.31	11.632
664.63	7.707
664.96	9.982
665.28	9.256
665.61	14.336
665.93	11.429
666.26	12.545
666.58	11.255
666.91	11.589
667.23	15.238
667.56	12.229
667.88	12.600
668.21	9.570
668.53	11.583
668.86	13.949
669.18	10.387
669.50	10.537
669.83	12.000
670.15	10.827
670.48	12.103
670.80	11.855
671.13	11.531
671.45	11.024
671.77	11.864
672.10	8.833
672.42	10.518
672.75	10.906
673.07	11.343
673.39	9.707
673.72	11.577
674.04	11.552
674.37	10.733
674.69	11.640
675.01	9.905
675.34	9.924
675.66	11.236
675.98	11.381
676.31	11.523
676.63	11.977
676.95	12.452
677.28	11.492
677.60	8.465
677.92	10.940
678.25	13.528
678.57	11.210
678.89	13.311
679.22	9.059
679.54	10.085
679.86	9.322
680.18	9.287
680.51	10.220
680.83	10.475
681.15	11.207
681.48	11.054
681.80	11.399
682.12	12.063
682.44	11.686
682.77	11.525
683.09	13.068
683.41	13.372
683.73	10.626
684.06	11.624
684.38	9.481
684.70	12.567
685.02	11.360
685.34	9.983
685.67	10.095
685.99	9.509
686.31	8.866
686.63	9.321
686.96	10.568
687.28	12.052
687.60	10.269
687.92	10.129
688.24	12.020
688.56	8.793
688.89	11.252
689.21	12.524
689.53	10.784
689.85	10.059
690.17	11.111
690.49	11.355
690.82	9.703
691.14	10.324
691.46	10.899
691.78	11.234
692.10	9.541
692.42	9.643
692.74	10.708
693.06	10.185
693.39	13.662
693.71	11.842
694.03	11.524
694.35	10.857
694.67	9.651
694.99	10.000
695.31	9.934
695.63	11.255
695.95	8.903
696.27	14.286
696.59	12.389
696.91	12.838
697.23	13.626
697.56	9.165
697.88	10.417
698.20	12.241
698.52	13.068
698.84	12.474
699.16	11.224
699.48	10.042
699.80	11.489
700.12	11.572
700.44	11.521
700.76	13.539
701.08	13.075
701.40	13.212
701.72	9.950
702.04	13.369
702.36	9.424
702.68	11.491
703.00	9.046
703.32	10.345
703.64	13.692
703.96	13.126
704.28	10.565
704.60	14.937
704.91	10.204
705.23	11.233
705.55	12.535
705.87	12.121
706.19	13.497
706.51	8.434
706.83	11.527
707.15	10.317
707.47	9.579
707.79	10.917
708.11	9.322
708.43	9.677
708.74	9.152
709.06	9.513
709.38	12.441
709.70	14.144
710.02	13.695
710.34	14.362
710.66	9.497
710.98	10.109
711.29	10.165
711.61	14.124
711.93	11.681
712.25	11.351
712.57	16.224
712.89	14.706
713.20	11.243
713.52	15.318
713.84	12.535
714.16	12.632
714.48	8.763
714.80	12.727
715.11	12.073
715.43	12.467
715.75	17.105
716.07	11.878
716.39	15.027
716.70	10.241
717.02	13.115
717.34	10.453
717.66	18.121
717.97	11.986
718.29	10.997
718.61	12.500
718.93	12.298
719.24	12.422
719.56	14.110
719.88	12.913
720.20	11.613
720.51	11.180
720.83	13.125
721.15	12.171
721.46	9.589
721.78	12.333
722.10	9.061
722.42	11.745
722.73	10.000
723.05	11.579
723.37	13.194
723.68	15.054
724.00	13.357
724.32	11.620
724.63	14.685
724.95	16.312
725.27	10.801
725.58	12.014
725.90	18.966
726.22	10.345
726.53	12.338
726.85	15.094
727.16	15.710
727.48	16.514
727.80	14.238
728.11	14.134
728.43	16.162
728.74	11.371
729.06	13.245
729.38	14.935
729.69	15.772
730.01	14.286
730.32	12.121
730.64	11.950
730.96	13.665
731.27	15.642
731.59	13.187
731.90	9.351
732.22	13.021
732.53	10.221
732.85	13.429
733.16	12.903
733.48	9.146
733.80	13.370
734.11	13.390
734.43	14.595
734.74	13.165
735.06	12.312
735.37	11.351
735.69	13.514
736.00	12.429
736.32	12.938
736.63	12.778
736.95	11.207
737.26	12.424
737.58	12.121
737.89	14.412
738.21	8.257
738.52	10.820
738.83	15.700
739.15	11.348
739.46	11.905
739.78	11.963
740.09	12.034
740.41	14.869
740.72	10.000
741.04	15.210
741.35	12.632
741.66	11.373
741.98	16.803
742.29	16.318
742.61	15.789
742.92	10.769
743.23	19.134
743.55	15.504
743.86	14.000
744.18	10.744
744.49	13.080
744.80	20.165
745.12	16.034
745.43	16.667
745.74	9.483
746.06	11.441
746.37	16.034
746.68	20.732
747.00	15.417
747.31	17.167
747.62	16.923
747.94	10.931
748.25	15.261
748.56	9.388
748.88	9.829
749.19	16.379
749.50	12.554
749.82	16.064
750.13	16.726
750.44	11.667
750.75	10.462
751.07	12.000
751.38	11.987
751.69	11.502
752.01	14.239
752.32	15.033
752.63	13.605
752.94	12.803
753.26	12.639
753.57	11.481
753.88	11.985
754.19	13.826
754.51	11.254
754.82	11.897
755.13	15.082
755.44	13.993
755.75	12.171
756.07	13.433
756.38	10.063
756.69	15.060
757.00	9.972
757.31	13.934
757.63	9.463
757.94	10.094
758.25	13.318
758.56	10.458
758.87	13.636
759.18	12.533
759.50	16.147
759.81	11.485
760.12	11.860
760.43	12.760
760.74	12.562
761.05	10.500
761.36	9.398
761.67	12.183
761.99	13.243
762.30	14.329
762.61	11.221
762.92	17.910
763.23	16.105
763.54	13.669
763.85	13.058
764.16	12.121
764.47	13.732
764.78	15.335
765.10	11.437
765.41	13.846
765.72	9.524
766.03	11.582
766.34	7.210
766.65	12.892
766.96	15.538
767.27	15.668
767.58	12.438
767.89	18.750
768.20	15.493
768.51	17.593
768.82	12.048
769.13	12.500
769.44	8.846
769.75	13.357
770.06	13.846
770.37	20.472
770.68	11.064
770.99	9.717
771.30	16.296
771.61	14.449
771.92	14.074
772.23	18.219
772.54	13.426
772.85	17.512
773.16	17.619
773.47	14.286
773.78	15.676
774.09	14.773
774.39	22.500
774.70	20.765
775.01	20.122
775.32	15.294
775.63	20.245
775.94	14.650
776.25	14.839
776.56	23.077
776.87	26.531
777.18	19.310
777.48	19.580
777.79	12.838
778.10	10.294
778.41	21.528
778.72	17.241
779.03	18.519
779.34	18.182
779.65	16.062
779.95	20.556
780.26	12.500
780.57	17.419
780.88	19.565
781.19	21.290
781.50	20.000
781.80	18.280
782.11	19.048
782.42	14.141
782.73	14.371
783.04	18.994
783.34	15.758
783.65	20.261
783.96	14.907
784.27	15.476
784.57	13.907
784.88	21.429
785.19	22.047
785.50	19.685
785.81	17.293
786.11	23.846
786.42	12.950
786.73	16.547
787.04	20.301
787.34	21.311
787.65	21.600
787.96	20.896
788.26	25.175
788.57	23.776
788.88	20.395
789.19	24.183
789.49	22.603
789.80	21.277
790.11	22.835
790.41	22.656
790.72	25.424
791.03	12.621
791.33	24.348
791.64	29.825
791.95	22.321
792.25	24.762
792.56	27.679
792.87	26.042
793.17	31.250
793.48	28.125
793.79	13.253
794.09	9.174
794.40	23.853
794.70	20.408
795.01	7.792
795.32	25.342
795.62	18.310
795.93	22.727
796.23	25.410
796.54	20.536
796.85	30.851
797.15	22.826
797.46	9.589
797.76	20.000
798.07	25.000
798.37	16.495
798.68	24.675
798.99	25.287
799.29	25.843
799.60	28.723
799.90	31.325
800.21	13.846
800.51	14.925
800.82	32.353
801.12	10.959
801.43	8.824
801.73	20.339
802.04	34.848
802.34	38.333
802.65	28.814
802.95	16.418
803.26	30.508
803.56	32.877
803.87	41.429
804.17	39.726
804.48	14.035
804.78	29.167
805.09	18.966
805.39	24.324
805.70	26.761
806.00	31.707
806.30	27.711
806.61	17.808
806.91	33.654
807.22	24.444
807.52	27.586
807.83	31.944
808.13	30.120
808.43	23.596
808.74	35.000
809.04	11.765
809.35	26.667
809.65	17.143
809.95	32.877
810.26	10.526
810.56	32.759
810.86	41.176
811.17	40.351
811.47	16.393
811.77	26.667
812.08	35.593
812.38	43.333
812.69	43.103
812.99	37.736
813.29	23.077
813.59	60.000
813.90	38.596
814.20	27.273
814.50	42.254
814.81	37.179
815.11	34.426
815.41	25.373
815.72	50.000
816.02	44.643
816.32	55.556
816.62	45.455
816.93	55.556
817.23	37.037
817.53	51.064
817.84	40.476
818.14	61.765
818.44	32.653
818.74	37.778
819.04	25.641
819.35	42.857
819.65	50.000
819.95	39.623
820.25	33.333
820.56	14.286
820.86	28.125
821.16	43.590
821.46	51.163
821.76	32.000
822.07	33.929
822.37	28.261
822.67	23.404
822.97	51.351
823.27	27.500
823.57	42.857
823.88	51.111
824.18	52.500
824.48	40.000
824.78	48.000
825.08	72.727
825.38	71.111
825.69	46.809
825.99	55.556
826.29	20.000
826.59	51.282
826.89	39.535
827.19	40.000
827.49	76.471
827.79	52.083
828.09	48.649
828.39	36.667
828.70	46.341
829.00	41.860
829.30	21.429
829.60	38.235
829.90	41.304
830.20	62.857
830.50	34.483
830.80	38.889
831.10	92.308
831.40	64.706
831.70	33.333
832.00	58.065
832.30	35.294
832.60	70.833
832.90	100.000
833.20	47.368
833.50	115.000
833.80	68.421
834.10	9.524
834.40	63.889
834.70	65.625
835.00	34.286
835.30	58.824
835.60	56.667
835.90	52.000
836.20	59.091
836.50	64.000
836.80	15.152
837.10	62.963
837.40	51.852
837.70	62.500
838.00	60.714
838.30	60.870
838.60	65.517
838.90	57.143
839.19	39.130
839.49	133.333
839.79	117.391
840.09	87.500
840.39	90.000
840.69	74.194
840.99	60.714
841.29	66.667
841.59	84.211
841.88	53.846
842.18	65.385
842.48	40.000
842.78	15.000
843.08	46.667
843.38	58.065
843.68	61.111
843.97	58.824
844.27	162.500
844.57	68.421
844.87	110.000
845.17	120.000
845.47	123.810
845.76	80.952
846.06	144.444
846.36	82.353
846.66	96.154
846.96	100.000
847.25	111.765
847.55	86.957
847.85	60.000
848.15	94.118
848.44	181.818
848.74	76.190
849.04	79.167
849.34	125.000
849.63	100.000
849.93	-300.000
850.23	120.000
850.53	69.231
850.82	81.818
851.12	118.182
851.42	163.636
851.71	92.308
852.01	80.000
852.31	107.692
852.61	100.000
852.90	133.333
853.20	122.222
853.50	222.222
853.79	33.333
854.09	72.727
854.39	25.000
854.68	77.419
854.98	46.154
855.28	116.667
855.57	53.571
855.87	44.000
856.17	113.636
856.46	85.185
856.76	61.111
857.05	43.478
857.35	66.667
857.65	115.385
857.94	119.048
858.24	85.185
858.53	69.565
858.83	35.294
859.13	100.000
859.42	141.176
859.72	214.286
860.01	75.000
860.31	177.778
860.60	140.000
860.90	206.667
861.20	133.333
861.49	84.615
861.79	73.333
862.08	184.615
862.38	78.125
862.67	111.765
862.97	81.250
863.26	155.556
863.56	190.000
863.85	154.545
864.15	72.222
864.44	466.667
864.74	107.143
865.03	118.750
865.33	80.000
865.62	54.839
865.92	140.909
866.21	60.870
866.51	121.429
866.80	200.000
867.10	133.333
867.39	58.333
867.69	-600.000
867.98	357.143
868.27	141.176
868.57	500.000
868.86	80.000
869.16	76.190
869.45	95.833
869.75	127.273
870.04	128.571
870.33	175.000
870.63	28.571
870.92	375.000
871.22	125.000
871.51	181.818
871.80	200.000
872.10	850.000
>>>>>End Processed Spectral Data<<<<<
