SpectraSuite Data File
++++++++++++++++++++++++++++++++++++
Date: Thu May 14 14:53:44 PDT 2015
User: schluterlab
Dark Spectrum Present: Yes
Reference Spectrum Present: Yes
Number of Sampled Component Spectra: 1
Spectrometers: USB2E3373
Integration Time (usec): 3000 (USB2E3373)
Spectra Averaged: 3 (USB2E3373)
Boxcar Smoothing: 0 (USB2E3373)
Correct for Electrical Dark: No (USB2E3373)
Strobe/Lamp Enabled: No (USB2E3373)
Correct for Detector Non-linearity: No (USB2E3373)
Correct for Stray Light: No (USB2E3373)
Number of Pixels in Processed Spectrum: 2048
>>>>>Begin Processed Spectral Data<<<<<
178.53	0.000
178.91	171.429
179.29	-2500.000
179.67	-1400.000
180.04	185.714
180.42	170.000
180.80	280.000
181.18	-900.000
181.56	-1000.000
181.94	375.000
182.31	-250.000
182.69	766.667
183.07	-1050.000
183.45	525.000
183.83	-266.667
184.20	-500.000
184.58	1500.000
184.96	-350.000
185.34	-155.556
185.72	-220.000
186.09	211.111
186.47	750.000
186.85	380.000
187.23	-100.000
187.61	-800.000
187.98	180.000
188.36	375.000
188.74	-450.000
189.12	-233.333
189.49	-25.000
189.87	-162.500
190.25	-77.778
190.63	-320.000
191.00	-200.000
191.38	0.000
191.76	-350.000
192.14	-133.333
192.51	800.000
192.89	-50.000
193.27	0.000
193.65	-100.000
194.02	-2300.000
194.40	-85.714
194.78	257.143
195.15	0.000
195.53	-54.545
195.91	0.000
196.29	-150.000
196.66	-15.385
197.04	-1400.000
197.42	-228.571
197.79	-800.000
198.17	-212.500
198.55	-171.429
198.92	-122.222
199.30	-187.500
199.68	-81.818
200.05	-50.000
200.43	-900.000
200.81	485.714
201.18	0.000
201.56	222.222
201.94	0.000
202.31	666.667
202.69	-111.111
203.07	1300.000
203.44	-144.444
203.82	-325.000
204.19	-133.333
204.57	-183.333
204.95	-225.000
205.32	-900.000
205.70	275.000
206.08	-183.333
206.45	-133.333
206.83	500.000
207.20	-216.667
207.58	-360.000
207.96	-366.667
208.33	-100.000
208.71	125.000
209.08	-183.333
209.46	0.000
209.84	366.667
210.21	550.000
210.59	1400.000
210.96	533.333
211.34	-150.000
211.71	-75.000
212.09	-1100.000
212.46	0.000
212.84	1300.000
213.22	-400.000
213.59	-150.000
213.97	-70.000
214.34	-500.000
214.72	250.000
215.09	-425.000
215.47	0.000
215.84	228.571
216.22	1000.000
216.59	-440.000
216.97	-180.000
217.34	-25.000
217.72	-175.000
218.09	-450.000
218.47	-575.000
218.84	0.000
219.22	280.000
219.59	-76.471
219.97	-40.000
220.34	1000.000
220.72	-33.333
221.09	-7.692
221.47	-166.667
221.84	-50.000
222.22	-185.714
222.59	0.000
222.97	-87.500
223.34	-240.000
223.72	-1500.000
224.09	-475.000
224.46	-350.000
224.84	-60.000
225.21	-185.714
225.59	-725.000
225.96	-550.000
226.34	-65.385
226.71	183.333
227.08	-550.000
227.46	-53.333
227.83	-325.000
228.21	-47.368
228.58	75.000
228.95	600.000
229.33	-41.667
229.70	-70.000
230.08	10.526
230.45	150.000
230.82	-333.333
231.20	-50.000
231.57	-100.000
231.95	-145.455
232.32	-54.545
232.69	-40.000
233.07	-275.000
233.44	-76.471
233.81	-80.000
234.19	-22.222
234.56	-31.818
234.93	3.448
235.31	-78.947
235.68	-27.778
236.05	-105.000
236.43	-7.692
236.80	-4.000
237.17	3.704
237.55	-21.212
237.92	-190.000
238.29	-29.032
238.67	-15.909
239.04	-30.556
239.41	-28.571
239.79	-21.739
240.16	-25.926
240.53	-21.739
240.91	-27.451
241.28	-3.279
241.65	-5.970
242.02	-4.054
242.40	-18.462
242.77	-21.333
243.14	-13.415
243.51	-28.947
243.89	-34.615
244.26	-7.921
244.63	-6.863
245.00	-5.607
245.38	-15.789
245.75	-24.779
246.12	-6.349
246.49	-7.752
246.87	-4.286
247.24	-3.974
247.61	-6.579
247.98	-7.383
248.36	-8.025
248.73	-12.883
249.10	0.546
249.47	0.498
249.84	-1.571
250.22	-8.808
250.59	-7.222
250.96	0.000
251.33	-9.694
251.70	-1.709
252.08	-4.583
252.45	-4.508
252.82	-7.851
253.19	-3.125
253.56	-1.521
253.94	-4.231
254.31	0.000
254.68	-0.699
255.05	1.303
255.42	-2.041
255.79	-4.854
256.16	-5.298
256.54	-6.291
256.91	-4.590
257.28	-4.262
257.65	-4.140
258.02	-2.360
258.39	-1.994
258.76	-0.917
259.14	0.575
259.51	-4.035
259.88	-5.382
260.25	-0.556
260.62	-1.644
260.99	0.273
261.36	-1.340
261.73	-2.387
262.10	-4.396
262.47	-3.753
262.85	0.758
263.22	-2.338
263.59	-5.263
263.96	-1.535
264.33	-1.790
264.70	-0.494
265.07	0.955
265.44	2.494
265.81	-1.852
266.18	-0.227
266.55	-0.893
266.92	-2.278
267.29	1.313
267.66	-0.443
268.03	-0.873
268.40	-1.461
268.77	-2.733
269.14	-3.965
269.51	-0.219
269.88	0.205
270.25	0.805
270.62	-1.266
270.99	2.020
271.36	-0.396
271.73	-1.179
272.10	0.200
272.47	-2.405
272.84	0.803
273.21	1.002
273.58	-2.016
273.95	-0.962
274.32	-0.760
274.69	0.387
275.06	-0.549
275.43	-2.588
275.80	1.411
276.17	0.185
276.54	-0.933
276.91	-1.610
277.28	-0.181
277.65	0.000
278.02	0.735
278.39	-0.725
278.76	-1.406
279.13	-0.887
279.50	1.375
279.87	-0.894
280.23	-2.465
280.60	0.169
280.97	-0.493
281.34	-2.377
281.71	-0.508
282.08	-0.831
282.45	-0.818
282.82	-0.942
283.19	-1.292
283.56	0.492
283.92	1.502
284.29	1.896
284.66	0.328
285.03	-1.603
285.40	1.236
285.77	-1.393
286.14	0.763
286.51	-0.457
286.87	-1.738
287.24	0.301
287.61	1.345
287.98	-0.453
288.35	-0.296
288.72	-0.444
289.08	0.732
289.45	-0.592
289.82	-0.753
290.19	-0.862
290.56	-0.563
290.93	-0.999
291.29	0.000
291.66	-0.138
292.03	0.543
292.40	2.313
292.77	0.674
293.13	0.541
293.50	-0.788
293.87	-0.537
294.24	0.933
294.60	0.379
294.97	0.000
295.34	2.305
295.71	-0.631
296.08	1.938
296.44	0.980
296.81	0.244
297.18	-0.374
297.55	1.297
297.91	1.661
298.28	1.422
298.65	0.476
299.02	0.236
299.38	0.686
299.75	1.636
300.12	-0.463
300.48	0.115
300.85	0.787
301.22	0.447
301.59	-0.457
301.95	0.452
302.32	1.444
302.69	0.438
303.05	1.197
303.42	1.885
303.79	1.354
304.15	1.788
304.52	0.951
304.89	0.942
305.25	1.035
305.62	1.985
305.99	2.165
306.35	1.915
306.72	1.448
307.09	0.203
307.45	1.242
307.82	1.615
308.19	2.018
308.55	2.893
308.92	0.779
309.29	1.054
309.65	1.852
310.02	1.683
310.38	0.886
310.75	1.650
311.12	2.205
311.48	2.151
311.85	1.709
312.22	2.087
312.58	3.005
312.95	2.486
313.31	3.884
313.68	3.388
314.05	3.162
314.41	3.825
314.78	2.543
315.14	3.267
315.51	3.970
315.87	3.870
316.24	3.196
316.61	5.151
316.97	3.982
317.34	3.792
317.70	5.764
318.07	4.321
318.43	5.357
318.80	6.522
319.16	4.721
319.53	3.599
319.89	3.418
320.26	5.427
320.62	4.965
320.99	4.986
321.35	5.360
321.72	6.512
322.08	4.328
322.45	5.781
322.81	6.318
323.18	5.575
323.54	5.776
323.91	6.317
324.27	4.819
324.64	7.473
325.00	6.551
325.37	7.699
325.73	6.777
326.10	7.299
326.46	7.980
326.83	8.167
327.19	7.480
327.56	7.273
327.92	7.160
328.29	8.065
328.65	7.538
329.01	7.107
329.38	6.992
329.74	8.733
330.11	9.418
330.47	8.172
330.84	8.355
331.20	9.083
331.56	8.666
331.93	8.703
332.29	9.068
332.66	8.721
333.02	7.956
333.38	8.054
333.75	7.997
334.11	8.340
334.48	8.911
334.84	9.091
335.20	8.732
335.57	9.275
335.93	9.421
336.29	8.403
336.66	8.410
337.02	8.612
337.38	9.184
337.75	7.603
338.11	8.495
338.47	9.429
338.84	8.376
339.20	7.835
339.56	7.990
339.93	9.113
340.29	9.420
340.65	9.084
341.02	9.976
341.38	8.892
341.74	8.797
342.11	9.413
342.47	8.340
342.83	10.064
343.20	8.994
343.56	8.821
343.92	8.967
344.28	9.141
344.65	9.070
345.01	9.828
345.37	9.565
345.73	8.807
346.10	9.048
346.46	8.623
346.82	9.139
347.19	9.396
347.55	10.015
347.91	8.618
348.27	9.105
348.63	9.368
349.00	8.054
349.36	9.071
349.72	9.375
350.08	9.138
350.45	8.821
350.81	8.371
351.17	9.173
351.53	9.174
351.89	8.656
352.26	9.179
352.62	8.284
352.98	8.855
353.34	8.140
353.70	8.860
354.07	9.762
354.43	9.339
354.79	8.901
355.15	8.609
355.51	9.211
355.87	8.601
356.24	9.810
356.60	8.278
356.96	8.525
357.32	9.145
357.68	8.346
358.04	8.683
358.40	8.358
358.77	9.357
359.13	8.863
359.49	9.145
359.85	9.065
360.21	8.250
360.57	8.973
360.93	9.168
361.29	9.895
361.66	8.834
362.02	9.395
362.38	8.644
362.74	9.218
363.10	9.078
363.46	8.726
363.82	9.020
364.18	9.008
364.54	9.059
364.90	9.565
365.26	8.276
365.62	9.533
365.98	9.530
366.35	8.725
366.71	9.456
367.07	9.540
367.43	9.455
367.79	9.423
368.15	9.967
368.51	9.540
368.87	9.798
369.23	10.467
369.59	9.358
369.95	9.601
370.31	10.128
370.67	10.110
371.03	9.903
371.39	8.731
371.75	10.248
372.11	10.298
372.47	9.749
372.83	10.995
373.19	10.607
373.55	9.756
373.91	8.862
374.27	9.767
374.63	10.690
374.99	9.615
375.35	10.584
375.71	9.935
376.07	9.813
376.42	10.139
376.78	10.193
377.14	10.730
377.50	9.677
377.86	10.961
378.22	11.257
378.58	10.285
378.94	10.446
379.30	10.193
379.66	11.170
380.02	11.252
380.38	10.887
380.74	11.155
381.09	11.150
381.45	11.420
381.81	10.831
382.17	11.401
382.53	11.520
382.89	11.512
383.25	10.961
383.61	10.417
383.97	11.425
384.32	12.919
384.68	10.847
385.04	11.452
385.40	11.903
385.76	12.544
386.12	12.029
386.48	12.118
386.83	12.515
387.19	12.283
387.55	10.798
387.91	11.701
388.27	11.894
388.62	11.970
388.98	12.239
389.34	12.493
389.70	11.447
390.06	12.552
390.42	12.289
390.77	13.305
391.13	12.383
391.49	13.225
391.85	12.242
392.20	12.337
392.56	13.408
392.92	12.814
393.28	13.101
393.64	13.184
393.99	13.713
394.35	12.734
394.71	13.533
395.07	12.754
395.42	12.621
395.78	13.346
396.14	13.547
396.50	12.886
396.85	13.298
397.21	12.722
397.57	13.074
397.92	13.517
398.28	12.765
398.64	13.272
399.00	12.827
399.35	12.880
399.71	12.989
400.07	13.532
400.42	13.388
400.78	13.426
401.14	12.635
401.49	13.474
401.85	13.547
402.21	13.789
402.57	13.908
402.92	13.534
403.28	12.939
403.63	12.530
403.99	13.777
404.35	13.758
404.70	13.711
405.06	12.935
405.42	13.525
405.77	14.122
406.13	14.100
406.49	13.908
406.84	15.014
407.20	14.310
407.55	13.144
407.91	12.445
408.27	13.958
408.62	15.183
408.98	13.987
409.34	13.021
409.69	14.400
410.05	14.361
410.40	14.791
410.76	13.741
411.11	14.085
411.47	14.373
411.83	14.521
412.18	14.096
412.54	14.582
412.89	14.261
413.25	13.770
413.60	13.613
413.96	14.103
414.31	13.994
414.67	14.490
415.03	14.646
415.38	14.439
415.74	14.600
416.09	14.682
416.45	13.901
416.80	14.259
417.16	14.176
417.51	14.882
417.87	14.715
418.22	14.970
418.58	14.126
418.93	15.017
419.29	14.735
419.64	13.806
420.00	14.006
420.35	14.935
420.71	14.647
421.06	14.319
421.42	14.851
421.77	13.732
422.12	14.588
422.48	14.542
422.83	15.225
423.19	14.271
423.54	15.210
423.90	14.743
424.25	14.667
424.61	13.949
424.96	15.321
425.31	14.225
425.67	14.600
426.02	14.942
426.38	14.581
426.73	14.732
427.09	15.744
427.44	14.473
427.79	14.096
428.15	14.783
428.50	14.101
428.85	14.007
429.21	15.532
429.56	14.314
429.92	14.398
430.27	14.988
430.62	14.802
430.98	14.363
431.33	14.712
431.68	14.655
432.04	14.881
432.39	15.372
432.74	14.498
433.10	15.089
433.45	13.768
433.80	15.343
434.16	14.773
434.51	15.057
434.86	14.061
435.22	15.515
435.57	15.566
435.92	14.246
436.28	15.017
436.63	15.019
436.98	14.922
437.34	15.389
437.69	14.640
438.04	15.019
438.39	15.106
438.75	15.385
439.10	15.169
439.45	14.421
439.81	14.463
440.16	15.013
440.51	14.047
440.86	13.897
441.22	14.523
441.57	14.990
441.92	15.325
442.27	15.000
442.63	15.450
442.98	15.315
443.33	15.097
443.68	15.907
444.03	14.911
444.39	15.626
444.74	15.620
445.09	15.459
445.44	15.806
445.79	15.613
446.15	15.005
446.50	15.090
446.85	14.835
447.20	15.667
447.55	14.958
447.91	15.026
448.26	14.429
448.61	14.984
448.96	15.987
449.31	15.005
449.66	15.414
450.02	15.084
450.37	15.290
450.72	15.393
451.07	14.579
451.42	14.962
451.77	14.564
452.12	14.616
452.47	14.676
452.83	14.921
453.18	14.769
453.53	15.451
453.88	14.578
454.23	15.254
454.58	15.961
454.93	14.260
455.28	13.847
455.63	15.463
455.98	15.251
456.34	14.547
456.69	15.168
457.04	15.012
457.39	14.634
457.74	15.772
458.09	14.827
458.44	15.248
458.79	14.905
459.14	14.578
459.49	15.167
459.84	15.215
460.19	14.214
460.54	15.673
460.89	15.034
461.24	14.598
461.59	15.551
461.94	14.661
462.29	15.622
462.64	14.665
462.99	14.878
463.34	15.769
463.69	14.947
464.04	15.509
464.39	15.527
464.74	14.766
465.09	14.418
465.44	14.807
465.79	15.336
466.14	14.018
466.49	14.789
466.84	15.317
467.19	14.855
467.54	14.277
467.89	14.598
468.24	15.512
468.59	15.171
468.94	14.569
469.29	14.697
469.64	14.685
469.99	14.978
470.34	14.913
470.68	14.833
471.03	14.931
471.38	15.108
471.73	14.824
472.08	14.277
472.43	14.871
472.78	15.491
473.13	14.602
473.48	14.502
473.83	16.135
474.17	14.771
474.52	14.973
474.87	15.615
475.22	15.155
475.57	15.265
475.92	15.431
476.27	14.643
476.61	14.434
476.96	14.546
477.31	16.188
477.66	15.530
478.01	15.506
478.36	14.706
478.70	14.187
479.05	15.644
479.40	15.400
479.75	15.034
480.10	14.495
480.45	15.314
480.79	15.193
481.14	14.476
481.49	15.357
481.84	15.970
482.19	15.140
482.53	15.435
482.88	15.020
483.23	14.540
483.58	15.459
483.92	14.495
484.27	15.157
484.62	14.645
484.97	15.241
485.31	15.030
485.66	14.178
486.01	14.663
486.36	15.567
486.70	15.976
487.05	16.006
487.40	15.974
487.75	15.827
488.09	15.075
488.44	14.519
488.79	15.110
489.13	14.410
489.48	14.136
489.83	14.567
490.17	14.419
490.52	14.532
490.87	14.552
491.22	14.558
491.56	14.932
491.91	14.959
492.26	14.972
492.60	14.123
492.95	15.270
493.30	14.567
493.64	14.542
493.99	14.825
494.34	14.111
494.68	14.218
495.03	14.890
495.37	15.091
495.72	14.830
496.07	14.724
496.41	14.200
496.76	15.263
497.11	15.117
497.45	14.890
497.80	15.149
498.14	14.558
498.49	14.660
498.84	15.356
499.18	14.890
499.53	14.888
499.87	14.901
500.22	13.802
500.56	15.250
500.91	14.600
501.26	15.182
501.60	14.848
501.95	14.807
502.29	14.612
502.64	15.391
502.98	14.797
503.33	15.335
503.67	14.741
504.02	14.667
504.36	15.639
504.71	15.526
505.06	15.371
505.40	14.991
505.75	15.118
506.09	15.654
506.44	15.274
506.78	15.229
507.13	15.307
507.47	15.064
507.82	15.057
508.16	15.631
508.51	14.112
508.85	15.399
509.19	15.822
509.54	16.042
509.88	14.716
510.23	14.910
510.57	15.611
510.92	15.433
511.26	14.911
511.61	14.872
511.95	14.739
512.30	15.214
512.64	14.643
512.98	15.508
513.33	16.482
513.67	14.890
514.02	16.045
514.36	15.448
514.70	15.312
515.05	15.485
515.39	16.063
515.74	16.119
516.08	16.112
516.42	16.588
516.77	15.983
517.11	14.853
517.46	16.755
517.80	16.569
518.14	16.268
518.49	15.944
518.83	16.126
519.17	15.240
519.52	16.143
519.86	16.420
520.20	16.241
520.55	15.389
520.89	15.372
521.23	16.080
521.58	15.254
521.92	16.091
522.26	15.636
522.61	15.683
522.95	17.128
523.29	15.460
523.64	15.583
523.98	16.657
524.32	17.822
524.66	16.278
525.01	15.912
525.35	15.623
525.69	16.357
526.04	15.212
526.38	15.632
526.72	16.782
527.06	16.129
527.41	16.093
527.75	16.568
528.09	16.352
528.43	16.459
528.78	16.301
529.12	16.055
529.46	16.582
529.80	15.961
530.15	16.522
530.49	16.548
530.83	16.765
531.17	16.487
531.51	16.426
531.86	16.286
532.20	16.646
532.54	15.679
532.88	16.364
533.22	16.559
533.57	16.445
533.91	16.947
534.25	16.280
534.59	17.069
534.93	15.563
535.27	16.225
535.62	16.714
535.96	16.793
536.30	16.627
536.64	16.577
536.98	17.220
537.32	16.049
537.66	16.095
538.01	16.314
538.35	16.565
538.69	16.947
539.03	17.351
539.37	16.313
539.71	17.538
540.05	16.187
540.39	15.831
540.73	15.786
541.07	16.309
541.42	16.361
541.76	15.896
542.10	16.707
542.44	15.652
542.78	16.727
543.12	16.627
543.46	16.300
543.80	14.988
544.14	15.919
544.48	17.317
544.82	16.936
545.16	16.339
545.50	16.357
545.84	16.412
546.18	17.407
546.52	15.924
546.86	16.101
547.20	16.476
547.54	15.918
547.88	15.973
548.22	16.725
548.56	16.735
548.90	16.478
549.24	16.049
549.58	16.341
549.92	15.561
550.26	16.764
550.60	16.528
550.94	15.783
551.28	16.502
551.62	16.644
551.96	16.828
552.30	16.252
552.64	16.366
552.98	17.155
553.32	16.720
553.66	16.013
554.00	16.835
554.34	17.181
554.68	16.139
555.02	16.032
555.36	15.779
555.69	16.208
556.03	15.826
556.37	16.646
556.71	15.853
557.05	16.422
557.39	15.262
557.73	16.182
558.07	16.093
558.41	15.814
558.75	16.498
559.08	16.075
559.42	16.255
559.76	15.943
560.10	16.142
560.44	15.765
560.78	17.000
561.12	17.118
561.45	16.423
561.79	15.629
562.13	17.190
562.47	15.783
562.81	16.646
563.15	16.414
563.48	16.283
563.82	16.385
564.16	16.051
564.50	16.389
564.84	17.345
565.17	17.000
565.51	16.974
565.85	16.508
566.19	16.129
566.52	16.793
566.86	16.695
567.20	16.259
567.54	16.144
567.88	17.176
568.21	16.947
568.55	17.074
568.89	16.387
569.23	16.941
569.56	16.764
569.90	16.928
570.24	16.627
570.57	16.806
570.91	16.993
571.25	17.125
571.59	17.200
571.92	16.791
572.26	16.808
572.60	16.708
572.93	16.755
573.27	16.802
573.61	16.940
573.95	17.043
574.28	17.099
574.62	16.598
574.96	17.005
575.29	16.700
575.63	16.932
575.97	17.317
576.30	16.260
576.64	16.679
576.98	17.198
577.31	16.995
577.65	17.107
577.98	16.585
578.32	16.952
578.66	16.679
578.99	16.793
579.33	17.008
579.67	16.750
580.00	16.880
580.34	16.798
580.67	16.439
581.01	16.530
581.35	16.423
581.68	16.770
582.02	16.987
582.35	17.527
582.69	17.379
583.02	17.230
583.36	16.985
583.70	16.701
584.03	16.343
584.37	16.687
584.70	15.966
585.04	16.322
585.37	16.637
585.71	17.044
586.04	16.579
586.38	16.945
586.72	16.571
587.05	16.500
587.39	16.455
587.72	16.531
588.06	16.804
588.39	17.277
588.73	16.931
589.06	16.789
589.40	16.841
589.73	16.967
590.07	16.976
590.40	16.937
590.73	15.942
591.07	16.418
591.40	16.485
591.74	16.296
592.07	16.849
592.41	16.285
592.74	16.578
593.08	17.197
593.41	16.885
593.75	17.069
594.08	17.146
594.41	16.795
594.75	16.573
595.08	16.386
595.42	16.461
595.75	16.758
596.09	16.910
596.42	16.697
596.75	17.329
597.09	16.121
597.42	17.124
597.75	16.660
598.09	17.262
598.42	17.250
598.76	16.469
599.09	16.803
599.42	16.527
599.76	16.573
600.09	17.651
600.42	16.817
600.76	16.380
601.09	16.528
601.42	16.100
601.76	16.552
602.09	16.798
602.42	16.794
602.76	16.568
603.09	17.144
603.42	16.835
603.76	16.279
604.09	17.104
604.42	17.321
604.76	16.743
605.09	16.354
605.42	16.308
605.75	16.462
606.09	16.723
606.42	16.454
606.75	16.042
607.09	15.975
607.42	16.108
607.75	16.764
608.08	16.732
608.42	16.687
608.75	17.164
609.08	16.171
609.41	16.189
609.75	16.518
610.08	16.051
610.41	15.803
610.74	16.639
611.07	17.007
611.41	16.771
611.74	16.859
612.07	17.298
612.40	16.540
612.73	16.381
613.07	16.870
613.40	16.939
613.73	15.840
614.06	16.781
614.39	16.181
614.72	16.157
615.06	15.881
615.39	16.336
615.72	16.967
616.05	16.513
616.38	16.801
616.71	16.249
617.05	15.282
617.38	16.105
617.71	16.361
618.04	17.107
618.37	17.104
618.70	16.686
619.03	16.487
619.36	16.523
619.69	16.464
620.03	16.447
620.36	16.503
620.69	16.039
621.02	16.404
621.35	16.546
621.68	17.281
622.01	16.228
622.34	15.272
622.67	16.907
623.00	15.452
623.33	17.518
623.66	16.732
623.99	15.932
624.32	16.504
624.65	16.731
624.99	16.970
625.32	16.395
625.65	15.644
625.98	15.797
626.31	16.371
626.64	16.557
626.97	16.129
627.30	17.312
627.63	16.654
627.96	17.342
628.29	16.654
628.62	16.457
628.95	15.776
629.28	16.398
629.61	16.330
629.94	15.900
630.26	16.864
630.59	16.753
630.92	15.411
631.25	16.637
631.58	16.761
631.91	16.120
632.24	14.986
632.57	15.939
632.90	17.553
633.23	15.714
633.56	17.245
633.89	15.289
634.22	17.983
634.55	15.866
634.88	14.610
635.20	16.577
635.53	16.497
635.86	16.685
636.19	16.861
636.52	17.300
636.85	16.547
637.18	16.736
637.51	17.204
637.83	16.390
638.16	17.627
638.49	17.136
638.82	16.234
639.15	15.922
639.48	15.820
639.81	16.628
640.13	16.372
640.46	14.545
640.79	14.951
641.12	15.155
641.45	15.684
641.77	17.330
642.10	14.436
642.43	16.356
642.76	16.531
643.09	15.342
643.41	14.846
643.74	15.724
644.07	15.862
644.40	15.842
644.73	16.546
645.05	15.565
645.38	16.835
645.71	16.862
646.04	18.508
646.36	17.664
646.69	16.718
647.02	15.749
647.35	17.099
647.67	14.493
648.00	15.764
648.33	16.517
648.66	17.832
648.98	15.238
649.31	17.591
649.64	17.131
649.96	16.976
650.29	15.160
650.62	15.559
650.94	15.616
651.27	13.772
651.60	15.789
651.92	16.261
652.25	16.064
652.58	17.607
652.90	15.698
653.23	15.352
653.56	15.407
653.88	18.118
654.21	15.070
654.54	16.329
654.86	16.147
655.19	14.806
655.52	18.436
655.84	18.715
656.17	22.309
656.49	31.033
656.82	33.698
657.15	25.564
657.47	18.870
657.80	13.639
658.13	10.262
658.45	13.468
658.78	15.550
659.10	14.567
659.43	14.423
659.75	14.268
660.08	12.997
660.41	13.317
660.73	12.771
661.06	13.950
661.38	14.035
661.71	14.828
662.03	15.873
662.36	15.921
662.68	15.385
663.01	16.991
663.33	16.446
663.66	18.132
663.98	12.885
664.31	15.385
664.63	14.258
664.96	14.882
665.28	16.152
665.61	17.308
665.93	14.643
666.26	14.158
666.58	13.838
666.91	17.570
667.23	14.667
667.56	14.398
667.88	16.200
668.21	14.648
668.53	14.672
668.86	16.306
669.18	14.257
669.50	14.513
669.83	15.400
670.15	15.354
670.48	15.278
670.80	14.340
671.13	15.501
671.45	15.748
671.77	17.702
672.10	13.833
672.42	15.858
672.75	15.822
673.07	14.328
673.39	14.176
673.72	15.101
674.04	16.207
674.37	16.279
674.69	16.226
675.01	15.238
675.34	14.122
675.66	14.232
675.98	17.164
676.31	15.820
676.63	15.970
676.95	14.368
677.28	14.315
677.60	13.976
677.92	16.507
678.25	14.808
678.57	16.192
678.89	16.382
679.22	14.460
679.54	16.068
679.86	14.746
680.18	15.423
680.51	15.723
680.83	15.221
681.15	15.517
681.48	16.580
681.80	18.826
682.12	15.035
682.44	17.863
682.77	15.603
683.09	14.773
683.41	15.116
683.73	15.370
684.06	15.683
684.38	13.238
684.70	16.876
685.02	15.491
685.34	12.812
685.67	15.457
685.99	15.184
686.31	15.988
686.63	14.060
686.96	15.931
687.28	14.332
687.60	13.973
687.92	13.344
688.24	15.693
688.56	13.966
688.89	15.245
689.21	16.047
689.53	14.118
689.85	15.187
690.17	14.259
690.49	15.139
690.82	13.465
691.14	13.158
691.46	17.017
691.78	18.232
692.10	15.780
692.42	12.500
692.74	16.152
693.06	10.926
693.39	14.421
693.71	15.789
694.03	15.985
694.35	14.286
694.67	18.275
694.99	14.894
695.31	16.115
695.63	14.935
695.95	13.251
696.27	12.088
696.59	15.044
696.91	13.514
697.23	17.802
697.56	13.238
697.88	16.856
698.20	15.254
698.52	18.750
698.84	17.464
699.16	17.755
699.48	16.318
699.80	15.106
700.12	16.376
700.44	13.825
700.76	14.014
701.08	15.254
701.40	13.212
701.72	15.423
702.04	16.043
702.36	12.565
702.68	14.914
703.00	12.958
703.32	14.778
703.64	15.403
703.96	14.320
704.28	12.285
704.60	15.949
704.91	16.837
705.23	14.795
705.55	12.535
705.87	15.758
706.19	15.337
706.51	11.446
706.83	11.527
707.15	10.053
707.47	14.019
707.79	14.629
708.11	13.771
708.43	13.118
708.74	12.946
709.06	12.993
709.38	14.319
709.70	18.362
710.02	14.212
710.34	17.021
710.66	11.732
710.98	14.754
711.29	14.560
711.61	14.124
711.93	15.954
712.25	14.595
712.57	16.224
712.89	14.412
713.20	14.201
713.52	15.896
713.84	12.256
714.16	12.105
714.48	12.371
714.80	16.104
715.11	15.223
715.43	15.385
715.75	12.632
716.07	12.707
716.39	14.754
716.70	10.241
717.02	13.770
717.34	10.453
717.66	12.752
717.97	9.932
718.29	12.371
718.61	12.500
718.93	12.298
719.24	13.354
719.56	13.497
719.88	11.411
720.20	14.839
720.51	13.043
720.83	15.000
721.15	8.224
721.46	8.904
721.78	12.667
722.10	10.032
722.42	10.403
722.73	13.548
723.05	15.088
723.37	10.417
723.68	13.620
724.00	16.968
724.32	12.324
724.63	11.189
724.95	15.248
725.27	13.240
725.58	9.894
725.90	15.172
726.22	15.987
726.53	18.831
726.85	13.208
727.16	15.408
727.48	14.067
727.80	10.927
728.11	10.601
728.43	11.448
728.74	10.368
729.06	12.583
729.38	13.636
729.69	15.772
730.01	14.286
730.32	12.121
730.64	13.522
730.96	13.665
731.27	16.760
731.59	14.835
731.90	12.727
732.22	11.458
732.53	13.260
732.85	11.714
733.16	12.610
733.48	11.280
733.80	13.092
734.11	9.972
734.43	13.784
734.74	16.456
735.06	9.296
735.37	13.243
735.69	14.595
736.00	13.559
736.32	15.364
736.63	11.111
736.95	12.931
737.26	14.545
737.58	13.333
737.89	15.294
738.21	11.621
738.52	11.803
738.83	13.652
739.15	13.475
739.46	13.605
739.78	12.883
740.09	11.748
740.41	16.910
740.72	11.333
741.04	16.828
741.35	10.877
741.66	11.373
741.98	10.656
742.29	9.205
742.61	14.035
742.92	15.385
743.23	11.191
743.55	12.403
743.86	11.200
744.18	3.306
744.49	14.346
744.80	13.169
745.12	12.658
745.43	17.886
745.74	12.931
746.06	13.559
746.37	13.502
746.68	11.789
747.00	8.750
747.31	6.009
747.62	9.231
747.94	12.146
748.25	10.843
748.56	13.469
748.88	10.256
749.19	15.948
749.50	8.658
749.82	15.663
750.13	15.658
750.44	12.667
750.75	14.154
751.07	13.846
751.38	12.618
751.69	12.460
752.01	11.327
752.32	10.784
752.63	11.224
752.94	11.765
753.26	9.665
753.57	10.000
753.88	8.240
754.19	13.183
754.51	11.576
754.82	12.219
755.13	15.410
755.44	12.969
755.75	12.500
756.07	15.821
756.38	13.836
756.69	16.265
757.00	12.742
757.31	12.842
757.63	11.509
757.94	14.554
758.25	16.930
758.56	13.943
758.87	12.955
759.18	12.267
759.50	15.014
759.81	11.485
760.12	12.668
760.43	12.240
760.74	16.502
761.05	14.000
761.36	12.771
761.67	14.721
761.99	10.811
762.30	10.976
762.61	8.581
762.92	10.821
763.23	11.610
763.54	14.388
763.85	13.058
764.16	13.468
764.47	14.437
764.78	12.141
765.10	13.783
765.41	17.949
765.72	10.847
766.03	10.169
766.34	10.345
766.65	13.240
766.96	15.139
767.27	13.364
767.58	7.960
767.89	14.904
768.20	12.676
768.51	12.037
768.82	10.040
769.13	7.955
769.44	6.923
769.75	14.440
770.06	9.615
770.37	16.142
770.68	8.511
770.99	8.502
771.30	18.519
771.61	15.589
771.92	11.852
772.23	11.336
772.54	10.648
772.85	12.442
773.16	13.810
773.47	10.582
773.78	8.649
774.09	10.795
774.39	14.500
774.70	13.661
775.01	4.878
775.32	7.059
775.63	9.202
775.94	7.006
776.25	9.677
776.56	11.538
776.87	6.122
777.18	11.034
777.48	4.196
777.79	6.757
778.10	-0.735
778.41	12.500
778.72	8.966
779.03	9.877
779.34	7.879
779.65	8.290
779.95	16.667
780.26	12.500
780.57	7.742
780.88	15.942
781.19	10.323
781.50	12.941
781.80	16.129
782.11	11.111
782.42	7.576
782.73	1.796
783.04	6.145
783.34	5.455
783.65	5.229
783.96	8.696
784.27	13.095
784.57	11.921
784.88	10.000
785.19	4.724
785.50	11.811
785.81	8.271
786.11	10.000
786.42	10.791
786.73	8.633
787.04	6.767
787.34	1.639
787.65	4.000
787.96	5.224
788.26	11.888
788.57	13.287
788.88	10.526
789.19	14.379
789.49	17.808
789.80	6.383
790.11	7.087
790.41	7.031
790.72	4.237
791.03	-7.767
791.33	6.957
791.64	5.263
791.95	1.786
792.25	9.524
792.56	14.286
792.87	0.000
793.17	4.464
793.48	-3.125
793.79	-4.819
794.09	11.009
794.40	0.000
794.70	14.966
795.01	5.844
795.32	6.164
795.62	7.746
795.93	3.788
796.23	9.836
796.54	0.893
796.85	-7.447
797.15	4.348
797.46	-2.740
797.76	3.750
798.07	1.087
798.37	1.031
798.68	-7.792
798.99	-3.448
799.29	3.371
799.60	-1.064
799.90	2.410
800.21	-1.538
800.51	-8.955
800.82	-20.588
801.12	-9.589
801.43	-25.000
801.73	-8.475
802.04	-6.061
802.34	-26.667
802.65	-11.864
802.95	0.000
803.26	-18.644
803.56	-16.438
803.87	-10.000
804.17	-4.110
804.48	-21.053
804.78	-1.389
805.09	3.448
805.39	1.351
805.70	-2.817
806.00	7.317
806.30	-2.410
806.61	-16.438
806.91	3.846
807.22	1.111
807.52	-1.149
807.83	2.778
808.13	6.024
808.43	-2.247
808.74	-12.500
809.04	-26.471
809.35	10.667
809.65	7.143
809.95	0.000
810.26	-14.035
810.56	-15.517
810.86	-8.824
811.17	-5.263
811.47	-19.672
811.77	-42.222
812.08	-15.254
812.38	8.333
812.69	3.448
812.99	5.660
813.29	-38.462
813.59	-14.000
813.90	3.509
814.20	-14.545
814.50	5.634
814.81	-1.282
815.11	3.279
815.41	-2.985
815.72	0.000
816.02	-5.357
816.32	-2.222
816.62	-20.455
816.93	-20.000
817.23	18.519
817.53	-6.383
817.84	-4.762
818.14	-14.706
818.44	-6.122
818.74	-24.444
819.04	-61.538
819.35	-20.000
819.65	-46.154
819.95	-11.321
820.25	22.222
820.56	-2.381
820.86	-28.125
821.16	-30.769
821.46	-34.884
821.76	-42.000
822.07	-5.357
822.37	-23.913
822.67	-27.660
822.97	-54.054
823.27	-25.000
823.57	6.122
823.88	-2.222
824.18	-12.500
824.48	-43.333
824.78	-44.000
825.08	-18.182
825.38	-6.667
825.69	-17.021
825.99	-33.333
826.29	-68.571
826.59	-30.769
826.89	-44.186
827.19	-18.000
827.49	-8.824
827.79	-6.250
828.09	-35.135
828.39	-16.667
828.70	-12.195
829.00	-11.628
829.30	-57.143
829.60	-11.765
829.90	13.043
830.20	-20.000
830.50	-34.483
830.80	-94.444
831.10	-57.692
831.40	-20.588
831.70	-23.810
832.00	-3.226
832.30	-158.824
832.60	-75.000
832.90	-176.923
833.20	-73.684
833.50	-90.000
833.80	-57.895
834.10	-119.048
834.40	-19.444
834.70	-6.250
835.00	-40.000
835.30	-14.706
835.60	-26.667
835.90	-60.000
836.20	-113.636
836.50	24.000
836.80	-45.455
837.10	-14.815
837.40	-62.963
837.70	-68.750
838.00	-7.143
838.30	-78.261
838.60	3.448
838.90	-142.857
839.19	-95.652
839.49	-125.000
839.79	-17.391
840.09	-131.250
840.39	-40.000
840.69	6.452
840.99	-50.000
841.29	-146.667
841.59	-94.737
841.88	7.692
842.18	-42.308
842.48	-250.000
842.78	-45.000
843.08	-30.000
843.38	-38.710
843.68	-111.111
843.97	-2.941
844.27	-50.000
844.57	-94.737
844.87	-160.000
845.17	-40.000
845.47	-28.571
845.76	-80.952
846.06	-122.222
846.36	-94.118
846.66	-23.077
846.96	-60.000
847.25	-64.706
847.55	4.348
847.85	-50.000
848.15	-17.647
848.44	-72.727
848.74	14.286
849.04	-62.500
849.34	-68.750
849.63	-8.696
849.93	750.000
850.23	-53.333
850.53	-7.692
850.82	-100.000
851.12	-9.091
851.42	-181.818
851.71	-107.692
852.01	-90.000
852.31	-107.692
852.61	-63.158
852.90	-100.000
853.20	-50.000
853.50	-233.333
853.79	-61.905
854.09	-50.000
854.39	-166.667
854.68	-9.677
854.98	-50.000
855.28	-11.111
855.57	-39.286
855.87	-36.000
856.17	-40.909
856.46	3.704
856.76	-66.667
857.05	-34.783
857.35	-91.667
857.65	-92.308
857.94	-42.857
858.24	-22.222
858.53	-4.348
858.83	-58.824
859.13	-64.706
859.42	-23.529
859.72	-50.000
860.01	-45.000
860.31	-55.556
860.60	-140.000
860.90	-93.333
861.20	-22.222
861.49	-30.769
861.79	-26.667
862.08	-53.846
862.38	-3.125
862.67	-41.176
862.97	-25.000
863.26	-211.111
863.56	-60.000
863.85	-63.636
864.15	-11.111
864.44	-333.333
864.74	-78.571
865.03	-62.500
865.33	-130.000
865.62	-61.290
865.92	-31.818
866.21	8.696
866.51	-92.857
866.80	-300.000
867.10	-91.667
867.39	-133.333
867.69	1700.000
867.98	-214.286
868.27	-17.647
868.57	-1800.000
868.86	-270.000
869.16	-57.143
869.45	-12.500
869.75	-72.727
870.04	-71.429
870.33	-8.333
870.63	-200.000
870.92	-175.000
871.22	-187.500
871.51	-154.545
871.80	-633.333
872.10	-900.000
>>>>>End Processed Spectral Data<<<<<
