SpectraSuite Data File
++++++++++++++++++++++++++++++++++++
Date: Thu May 14 15:19:51 PDT 2015
User: schluterlab
Dark Spectrum Present: Yes
Reference Spectrum Present: Yes
Number of Sampled Component Spectra: 1
Spectrometers: USB2E3373
Integration Time (usec): 3000 (USB2E3373)
Spectra Averaged: 3 (USB2E3373)
Boxcar Smoothing: 0 (USB2E3373)
Correct for Electrical Dark: No (USB2E3373)
Strobe/Lamp Enabled: No (USB2E3373)
Correct for Detector Non-linearity: No (USB2E3373)
Correct for Stray Light: No (USB2E3373)
Number of Pixels in Processed Spectrum: 2048
>>>>>Begin Processed Spectral Data<<<<<
178.53	0.000
178.91	614.286
179.29	-4500.000
179.67	-4500.000
180.04	435.714
180.42	480.000
180.80	960.000
181.18	-4300.000
181.56	-3100.000
181.94	1100.000
182.31	-1025.000
182.69	1466.667
183.07	-2150.000
183.45	1050.000
183.83	-683.333
184.20	-1166.667
184.58	4200.000
184.96	-1000.000
185.34	-444.444
185.72	-660.000
186.09	600.000
186.47	2650.000
186.85	820.000
187.23	-588.889
187.61	-5100.000
187.98	820.000
188.36	950.000
188.74	-1075.000
189.12	-1533.333
189.49	-231.250
189.87	-487.500
190.25	-400.000
190.63	-720.000
191.00	-455.556
191.38	0.000
191.76	-1200.000
192.14	-583.333
192.51	2550.000
192.89	-583.333
193.27	0.000
193.65	-542.857
194.02	-4600.000
194.40	-514.286
194.78	614.286
195.15	0.000
195.53	-227.273
195.91	0.000
196.29	-975.000
196.66	-300.000
197.04	-4900.000
197.42	-485.714
197.79	-1850.000
198.17	-487.500
198.55	-685.714
198.92	-388.889
199.30	-512.500
199.68	-263.636
200.05	-235.714
200.43	-2300.000
200.81	600.000
201.18	0.000
201.56	600.000
201.94	0.000
202.31	1700.000
202.69	-544.444
203.07	3900.000
203.44	-388.889
203.82	-1175.000
204.19	-325.000
204.57	-583.333
204.95	-512.500
205.32	-4200.000
205.70	1150.000
206.08	-666.667
206.45	-550.000
206.83	940.000
207.20	-616.667
207.58	-980.000
207.96	-750.000
208.33	-533.333
208.71	400.000
209.08	-550.000
209.46	0.000
209.84	850.000
210.21	2250.000
210.59	1900.000
210.96	1766.667
211.34	-1000.000
211.71	-500.000
212.09	-4000.000
212.46	0.000
212.84	2650.000
213.22	-1060.000
213.59	-900.000
213.97	-320.000
214.34	-1333.333
214.72	650.000
215.09	-1025.000
215.47	0.000
215.84	671.429
216.22	2300.000
216.59	-880.000
216.97	-980.000
217.34	-950.000
217.72	-425.000
218.09	-775.000
218.47	-1175.000
218.84	0.000
219.22	680.000
219.59	-205.882
219.97	-200.000
220.34	2100.000
220.72	-422.222
221.09	-200.000
221.47	-1400.000
221.84	-390.000
222.22	-628.571
222.59	0.000
222.97	-437.500
223.34	-860.000
223.72	-3400.000
224.09	-975.000
224.46	-1300.000
224.84	-780.000
225.21	-685.714
225.59	-1050.000
225.96	-1000.000
226.34	-123.077
226.71	800.000
227.08	-2400.000
227.46	-220.000
227.83	-950.000
228.21	-173.684
228.58	512.500
228.95	1550.000
229.33	-316.667
229.70	-380.000
230.08	-152.632
230.45	470.000
230.82	-1500.000
231.20	-257.143
231.57	-341.667
231.95	-390.909
232.32	-327.273
232.69	-150.000
233.07	-1025.000
233.44	-223.529
233.81	-320.000
234.19	-211.111
234.56	-136.364
234.93	-100.000
235.31	-189.474
235.68	-205.556
236.05	-215.000
236.43	-138.462
236.80	-104.000
237.17	-118.519
237.55	-133.333
237.92	-440.000
238.29	-103.226
238.67	-88.636
239.04	-72.222
239.41	-76.190
239.79	-78.261
240.16	-59.259
240.53	-71.739
240.91	-72.549
241.28	-55.738
241.65	-26.866
242.02	-20.270
242.40	-49.231
242.77	-34.667
243.14	-41.463
243.51	-61.842
243.89	-53.846
244.26	-22.772
244.63	-28.431
245.00	-23.364
245.38	-20.175
245.75	-30.973
246.12	-14.286
246.49	-20.155
246.87	-10.000
247.24	-15.232
247.61	-6.579
247.98	-14.765
248.36	-11.728
248.73	-16.564
249.10	-9.836
249.47	-3.980
249.84	-4.188
250.22	-9.845
250.59	-11.667
250.96	-1.818
251.33	-3.061
251.70	-1.709
252.08	0.000
252.45	0.410
252.82	-4.132
253.19	-7.031
253.56	-2.281
253.94	-4.231
254.31	0.758
254.68	4.196
255.05	2.606
255.42	-1.361
255.79	0.971
256.16	-0.331
256.54	-3.311
256.91	4.590
257.28	0.328
257.65	-1.592
258.02	1.770
258.39	5.983
258.76	4.281
259.14	8.621
259.51	3.170
259.88	1.983
260.25	3.056
260.62	3.014
260.99	4.918
261.36	4.021
261.73	2.653
262.10	2.198
262.47	2.949
262.85	7.071
263.22	2.078
263.59	-1.053
263.96	3.581
264.33	1.535
264.70	5.679
265.07	4.296
265.44	7.937
265.81	4.630
266.18	5.669
266.55	4.688
266.92	2.050
267.29	5.470
267.66	4.656
268.03	6.114
268.40	7.516
268.77	3.872
269.14	3.524
269.51	5.044
269.88	7.172
270.25	6.439
270.62	4.008
270.99	8.485
271.36	7.921
271.73	5.894
272.10	7.415
272.47	5.210
272.84	3.614
273.21	3.206
273.58	5.645
273.95	4.808
274.32	5.323
274.69	5.996
275.06	7.692
275.43	5.176
275.80	6.173
276.17	4.259
276.54	4.291
276.91	5.188
277.28	6.329
277.65	7.899
278.02	7.537
278.39	4.529
278.76	5.800
279.13	6.028
279.50	7.732
279.87	7.156
280.23	2.641
280.60	6.441
280.97	7.566
281.34	5.093
281.71	7.276
282.08	5.814
282.45	7.038
282.82	6.436
283.19	6.624
283.56	5.082
283.92	8.559
284.29	8.215
284.66	8.374
285.03	5.929
285.40	7.883
285.77	6.656
286.14	7.786
286.51	7.306
286.87	5.371
287.24	6.777
287.61	4.185
287.98	6.193
288.35	6.213
288.72	5.917
289.08	6.589
289.45	5.769
289.82	6.325
290.19	6.034
290.56	7.324
290.93	6.562
291.29	5.647
291.66	7.025
292.03	5.563
292.40	7.211
292.77	4.987
293.13	6.360
293.50	5.388
293.87	6.309
294.24	7.333
294.60	7.459
294.97	4.966
295.34	6.786
295.71	4.414
296.08	7.494
296.44	5.270
296.81	5.603
297.18	6.600
297.55	6.368
297.91	6.406
298.28	5.569
298.65	5.589
299.02	5.431
299.38	6.979
299.75	5.841
300.12	6.019
300.48	6.106
300.85	6.862
301.22	7.494
301.59	6.621
301.95	7.119
302.32	6.444
302.69	7.777
303.05	6.311
303.42	5.876
303.79	7.187
304.15	6.940
304.52	7.717
304.89	7.958
305.25	6.625
305.62	7.419
305.99	7.320
306.35	7.460
306.72	8.170
307.09	7.817
307.45	7.764
307.82	7.164
308.19	6.559
308.55	7.715
308.92	8.374
309.29	7.950
309.65	7.700
310.02	8.614
310.38	8.268
310.75	8.835
311.12	10.355
311.48	8.895
311.85	9.877
312.22	9.677
312.58	10.235
312.95	9.751
313.31	11.292
313.68	11.538
314.05	11.563
314.41	12.204
314.78	11.535
315.14	13.249
315.51	12.835
315.87	13.051
316.24	12.968
316.61	14.121
316.97	13.575
317.34	14.374
317.70	15.197
318.07	14.815
318.43	15.051
318.80	15.635
319.16	15.451
319.53	15.253
319.89	16.477
320.26	16.281
320.62	15.957
320.99	16.990
321.35	17.098
321.72	17.674
322.08	16.501
322.45	17.525
322.81	20.217
323.18	18.938
323.54	19.655
323.91	18.950
324.27	19.621
324.64	20.151
325.00	20.978
325.37	21.130
325.73	21.240
326.10	21.168
326.46	21.987
326.83	23.379
327.19	22.047
327.56	23.794
327.92	22.738
328.29	23.387
328.65	23.367
329.01	23.181
329.38	26.622
329.74	24.144
330.11	24.829
330.47	24.684
330.84	24.548
331.20	26.500
331.56	25.390
331.93	25.774
332.29	26.271
332.66	27.492
333.02	26.549
333.38	26.091
333.75	25.926
334.11	26.606
334.48	27.063
334.84	28.462
335.20	27.708
335.57	27.572
335.93	27.769
336.29	26.955
336.66	27.670
337.02	27.341
337.38	27.551
337.75	27.769
338.11	27.923
338.47	28.288
338.84	27.750
339.20	28.054
339.56	28.418
339.93	28.900
340.29	25.604
340.65	27.494
341.02	28.651
341.38	28.779
341.74	27.603
342.11	28.882
342.47	27.244
342.83	29.147
343.20	28.618
343.56	27.586
343.92	28.423
344.28	29.453
344.65	29.070
345.01	27.613
345.37	29.005
345.73	27.592
346.10	29.329
346.46	28.402
346.82	28.165
347.19	29.106
347.55	28.528
347.91	28.380
348.27	29.211
348.63	29.246
349.00	28.859
349.36	28.625
349.72	29.390
350.08	29.421
350.45	28.441
350.81	28.959
351.17	30.226
351.53	30.478
351.89	30.828
352.26	30.000
352.62	30.075
352.98	30.611
353.34	29.350
353.70	29.122
354.07	29.359
354.43	29.916
354.79	29.693
355.15	30.316
355.51	30.775
355.87	30.666
356.24	31.103
356.60	29.933
356.96	31.208
357.32	30.706
357.68	30.088
358.04	30.165
358.40	31.418
358.77	32.968
359.13	31.019
359.49	31.227
359.85	31.109
360.21	30.775
360.57	31.299
360.93	32.299
361.29	33.053
361.66	32.151
362.02	31.733
362.38	31.483
362.74	31.355
363.10	33.287
363.46	32.341
363.82	32.812
364.18	33.005
364.54	33.126
364.90	33.378
365.26	33.172
365.62	33.667
365.98	33.764
366.35	32.953
366.71	33.469
367.07	33.627
367.43	34.012
367.79	34.904
368.15	35.251
368.51	34.100
368.87	34.291
369.23	33.467
369.59	35.451
369.95	34.618
370.31	35.517
370.67	34.457
371.03	36.357
371.39	34.990
371.75	36.520
372.11	36.450
372.47	35.003
372.83	35.929
373.19	37.158
373.55	35.434
373.91	35.106
374.27	36.546
374.63	36.942
374.99	36.737
375.35	37.208
375.71	36.903
376.07	36.669
376.42	37.909
376.78	38.471
377.14	37.118
377.50	39.532
377.86	38.978
378.22	38.563
378.58	39.061
378.94	40.200
379.30	40.187
379.66	40.094
380.02	39.181
380.38	41.417
380.74	41.014
381.09	40.418
381.45	40.966
381.81	42.564
382.17	41.983
382.53	41.228
382.89	42.099
383.25	41.911
383.61	43.171
383.97	42.403
384.32	43.481
384.68	41.879
385.04	43.551
385.40	44.431
385.76	44.783
386.12	44.165
386.48	44.882
386.83	44.636
387.19	44.554
387.55	44.484
387.91	44.578
388.27	44.804
388.62	45.017
388.98	44.670
389.34	45.963
389.70	46.949
390.06	45.648
390.42	45.301
390.77	45.695
391.13	46.538
391.49	46.256
391.85	46.061
392.20	46.619
392.56	46.958
392.92	46.510
393.28	47.595
393.64	47.542
393.99	47.763
394.35	47.079
394.71	48.024
395.07	45.269
395.42	47.801
395.78	49.055
396.14	48.010
396.50	47.743
396.85	47.466
397.21	47.574
397.57	47.939
397.92	49.313
398.28	47.529
398.64	48.513
399.00	47.906
399.35	48.429
399.71	48.750
400.07	49.130
400.42	49.709
400.78	48.958
401.14	47.923
401.49	48.835
401.85	48.837
402.21	49.884
402.57	49.413
402.92	49.409
403.28	47.951
403.63	48.866
403.99	49.109
404.35	48.152
404.70	49.292
405.06	47.935
405.42	49.590
405.77	49.455
406.13	49.595
406.49	48.930
406.84	49.751
407.20	49.413
407.55	48.092
407.91	49.654
408.27	49.764
408.62	49.622
408.98	48.926
409.34	47.801
409.69	50.185
410.05	50.469
410.40	50.870
410.76	49.635
411.11	50.029
411.47	49.324
411.83	49.618
412.18	49.699
412.54	49.437
412.89	50.873
413.25	49.266
413.60	50.029
413.96	50.699
414.31	50.198
414.67	49.493
415.03	50.338
415.38	50.126
415.74	50.336
416.09	50.216
416.45	48.591
416.80	49.878
417.16	49.617
417.51	49.066
417.87	50.705
418.22	50.539
418.58	50.991
418.93	50.990
419.29	50.925
419.64	51.080
420.00	49.674
420.35	50.814
420.71	49.454
421.06	50.489
421.42	50.631
421.77	50.781
422.12	50.634
422.48	51.562
422.83	52.793
423.19	51.777
423.54	52.931
423.90	50.525
424.25	52.373
424.61	51.091
424.96	51.949
425.31	52.282
425.67	50.617
426.02	52.684
426.38	51.607
426.73	51.004
427.09	51.442
427.44	51.010
427.79	51.907
428.15	51.199
428.50	52.303
428.85	51.894
429.21	51.702
429.56	52.419
429.92	51.253
430.27	52.964
430.62	52.858
430.98	53.025
431.33	51.857
431.68	51.964
432.04	53.022
432.39	53.455
432.74	53.025
433.10	52.569
433.45	51.282
433.80	51.985
434.16	53.099
434.51	53.803
434.86	53.963
435.22	54.676
435.57	53.479
435.92	53.255
436.28	53.925
436.63	55.871
436.98	53.462
437.34	54.228
437.69	54.375
438.04	53.622
438.39	54.854
438.75	54.123
439.10	55.180
439.45	54.444
439.81	53.503
440.16	53.190
440.51	53.790
440.86	53.641
441.22	54.502
441.57	54.403
441.92	55.286
442.27	55.404
442.63	55.390
442.98	54.803
443.33	55.339
443.68	55.401
444.03	57.056
444.39	56.172
444.74	56.866
445.09	55.753
445.44	56.164
445.79	56.849
446.15	55.807
446.50	56.796
446.85	56.907
447.20	56.576
447.55	56.119
447.91	56.545
448.26	56.871
448.61	56.908
448.96	58.262
449.31	57.158
449.66	55.556
450.02	56.698
450.37	56.633
450.72	56.889
451.07	57.232
451.42	59.330
451.77	55.920
452.12	57.506
452.47	55.853
452.83	59.178
453.18	56.918
453.53	56.979
453.88	56.599
454.23	57.288
454.58	58.619
454.93	56.553
455.28	58.158
455.63	57.703
455.98	56.872
456.34	57.597
456.69	57.613
457.04	59.634
457.39	57.594
457.74	58.501
458.09	57.496
458.44	58.190
458.79	57.916
459.14	57.053
459.49	58.291
459.84	58.080
460.19	57.079
460.54	57.694
460.89	59.820
461.24	56.437
461.59	58.052
461.94	56.703
462.29	58.791
462.64	57.996
462.99	57.627
463.34	58.079
463.69	57.034
464.04	58.366
464.39	58.128
464.74	56.727
465.09	58.593
465.44	58.369
465.79	58.223
466.14	57.113
466.49	57.842
466.84	58.567
467.19	58.671
467.54	57.051
467.89	56.552
468.24	57.507
468.59	56.167
468.94	56.352
469.29	57.948
469.64	56.643
469.99	57.680
470.34	57.673
470.68	59.193
471.03	57.564
471.38	58.077
471.73	58.518
472.08	57.868
472.43	58.278
472.78	58.627
473.13	58.913
473.48	58.127
473.83	59.373
474.17	58.558
474.52	60.493
474.87	58.361
475.22	58.873
475.57	58.307
475.92	58.537
476.27	58.892
476.61	57.892
476.96	58.029
477.31	58.762
477.66	59.182
478.01	58.719
478.36	58.275
478.70	59.507
479.05	59.765
479.40	59.576
479.75	59.510
480.10	60.019
480.45	59.435
480.79	59.637
481.14	58.364
481.49	59.564
481.84	59.704
482.19	59.484
482.53	60.122
482.88	60.035
483.23	59.982
483.58	59.301
483.92	58.466
484.27	58.256
484.62	58.003
484.97	58.204
485.31	57.480
485.66	53.848
486.01	55.605
486.36	58.549
486.70	61.962
487.05	63.411
487.40	61.203
487.75	59.059
488.09	57.706
488.44	56.350
488.79	55.987
489.13	56.662
489.48	56.816
489.83	57.103
490.17	57.797
490.52	57.964
490.87	58.799
491.22	60.052
491.56	58.831
491.91	58.744
492.26	59.541
492.60	59.860
492.95	59.675
493.30	59.839
493.64	59.615
493.99	58.904
494.34	58.972
494.68	59.143
495.03	59.559
495.37	60.142
495.72	59.546
496.07	58.370
496.41	59.674
496.76	59.800
497.11	60.807
497.45	59.776
497.80	59.884
498.14	60.862
498.49	59.789
498.84	59.963
499.18	60.279
499.53	59.731
499.87	60.044
500.22	61.131
500.56	58.480
500.91	61.053
501.26	60.318
501.60	59.744
501.95	60.226
502.29	60.728
502.64	60.778
502.98	59.275
503.33	60.302
503.67	59.573
504.02	59.151
504.36	61.260
504.71	61.553
505.06	60.346
505.40	60.192
505.75	60.656
506.09	60.313
506.44	61.699
506.78	61.284
507.13	60.535
507.47	61.819
507.82	61.269
508.16	61.185
508.51	61.275
508.85	60.935
509.19	61.298
509.54	61.864
509.88	61.389
510.23	61.292
510.57	62.349
510.92	62.264
511.26	61.905
511.61	60.695
511.95	62.225
512.30	61.645
512.64	61.319
512.98	61.181
513.33	61.240
513.67	62.213
514.02	62.391
514.36	62.864
514.70	61.615
515.05	62.617
515.39	62.047
515.74	63.998
516.08	62.493
516.42	64.260
516.77	62.566
517.11	62.094
517.46	63.097
517.80	63.549
518.14	63.547
518.49	64.154
518.83	62.480
519.17	63.974
519.52	63.417
519.86	62.566
520.20	63.206
520.55	62.377
520.89	62.950
521.23	63.540
521.58	64.576
521.92	63.456
522.26	63.574
522.61	64.873
522.95	64.591
523.29	64.195
523.64	62.500
523.98	64.746
524.32	65.559
524.66	63.973
525.01	63.817
525.35	63.125
525.69	64.443
526.04	63.088
526.38	64.943
526.72	64.937
527.06	64.399
527.41	63.965
527.75	65.083
528.09	63.636
528.43	63.706
528.78	64.220
529.12	64.220
529.46	63.969
529.80	64.645
530.15	65.101
530.49	65.065
530.83	64.522
531.17	63.978
531.51	64.079
531.86	64.303
532.20	65.000
532.54	64.034
532.88	64.121
533.22	64.290
533.57	63.474
533.91	63.692
534.25	63.765
534.59	65.115
534.93	64.799
535.27	64.676
535.62	64.639
535.96	63.858
536.30	64.689
536.64	65.165
536.98	65.560
537.32	64.506
537.66	65.066
538.01	63.444
538.35	64.007
538.69	64.243
539.03	65.849
539.37	63.369
539.71	64.144
540.05	63.729
540.39	63.509
540.73	62.781
541.07	63.948
541.42	63.497
541.76	63.108
542.10	65.078
542.44	64.616
542.78	63.990
543.12	63.170
543.46	64.713
543.80	62.830
544.14	63.615
544.48	64.480
544.82	64.093
545.16	65.236
545.50	64.410
545.84	63.686
546.18	65.062
546.52	64.204
546.86	64.465
547.20	64.440
547.54	63.296
547.88	63.773
548.22	63.977
548.56	64.892
548.90	64.478
549.24	64.438
549.58	62.397
549.92	65.561
550.26	64.854
550.60	62.412
550.94	64.877
551.28	63.498
551.62	64.623
551.96	64.725
552.30	66.348
552.64	65.339
552.98	64.754
553.32	66.945
553.66	66.495
554.00	64.943
554.34	64.929
554.68	64.622
555.02	65.046
555.36	64.826
555.69	64.190
556.03	64.124
556.37	64.956
556.71	63.348
557.05	66.198
557.39	66.291
557.73	64.861
558.07	65.828
558.41	65.249
558.75	64.706
559.08	66.736
559.42	64.403
559.76	64.383
560.10	64.568
560.44	65.963
560.78	65.000
561.12	65.209
561.45	65.876
561.79	66.484
562.13	67.344
562.47	65.351
562.81	65.190
563.15	65.215
563.48	66.004
563.82	65.357
564.16	64.385
564.50	63.588
564.84	64.307
565.17	65.000
565.51	63.464
565.85	65.618
566.19	64.919
566.52	65.126
566.86	66.271
567.20	63.730
567.54	64.631
567.88	65.189
568.21	65.267
568.55	64.940
568.89	63.867
569.23	63.963
569.56	64.322
569.90	64.576
570.24	63.744
570.57	64.529
570.91	63.043
571.25	63.003
571.59	62.705
571.92	63.300
572.26	63.182
572.60	62.462
572.93	62.288
573.27	62.096
573.61	61.938
573.95	61.641
574.28	61.084
574.62	61.892
574.96	61.050
575.29	60.939
575.63	62.116
575.97	62.012
576.30	60.622
576.64	60.678
576.98	61.663
577.31	61.651
577.65	62.216
577.98	61.747
578.32	61.905
578.66	61.591
578.99	61.356
579.33	61.249
579.67	61.333
580.00	60.935
580.34	60.951
580.67	60.680
581.01	60.385
581.35	60.783
581.68	61.757
582.02	61.873
582.35	62.825
582.69	63.291
583.02	62.829
583.36	62.354
583.70	61.600
584.03	60.043
584.37	60.454
584.70	60.587
585.04	59.986
585.37	60.429
585.71	60.906
586.04	62.131
586.38	61.815
586.72	62.271
587.05	62.190
587.39	63.201
587.72	62.679
588.06	62.766
588.39	61.937
588.73	61.825
589.06	62.359
589.40	63.122
589.73	62.757
590.07	62.898
590.40	62.745
590.73	61.965
591.07	63.366
591.40	62.442
591.74	63.235
592.07	62.850
592.41	63.170
592.74	62.904
593.08	64.427
593.41	63.984
593.75	64.023
594.08	64.950
594.41	63.846
594.75	62.637
595.08	63.594
595.42	63.669
595.75	62.351
596.09	64.046
596.42	63.203
596.75	61.829
597.09	63.636
597.42	62.495
597.75	62.681
598.09	62.659
598.42	63.530
598.76	62.400
599.09	63.368
599.42	62.085
599.76	62.925
600.09	63.263
600.42	63.096
600.76	63.276
601.09	62.297
601.42	62.856
601.76	62.345
602.09	62.294
602.42	62.704
602.76	62.915
603.09	63.399
603.42	63.981
603.76	63.636
604.09	64.585
604.42	63.633
604.76	62.709
605.09	63.821
605.42	63.477
605.75	62.500
606.09	64.128
606.42	62.058
606.75	62.819
607.09	62.327
607.42	62.582
607.75	63.189
608.08	62.549
608.42	62.838
608.75	63.060
609.08	61.800
609.41	63.167
609.75	63.616
610.08	63.896
610.41	63.934
610.74	61.975
611.07	64.076
611.41	64.215
611.74	63.557
612.07	63.441
612.40	63.213
612.73	64.303
613.07	63.961
613.40	64.533
613.73	63.746
614.06	63.935
614.39	63.508
614.72	62.882
615.06	63.234
615.39	63.896
615.72	63.886
616.05	64.497
616.38	64.279
616.71	63.950
617.05	63.791
617.38	63.563
617.71	64.147
618.04	63.627
618.37	64.809
618.70	64.649
619.03	64.098
619.36	64.057
619.69	64.061
620.03	64.721
620.36	63.436
620.69	65.762
621.02	64.042
621.35	66.183
621.68	65.871
622.01	64.626
622.34	63.459
622.67	64.467
623.00	64.170
623.33	65.295
623.66	65.694
623.99	66.096
624.32	65.952
624.65	64.221
624.99	66.580
625.32	65.056
625.65	66.352
625.98	65.559
626.31	65.273
626.64	64.469
626.97	64.516
627.30	64.313
627.63	65.866
627.96	66.216
628.29	64.125
628.62	66.331
628.95	67.046
629.28	66.185
629.61	65.909
629.94	65.356
630.26	67.373
630.59	66.321
630.92	66.667
631.25	65.921
631.58	66.384
631.91	68.135
632.24	67.051
632.57	65.085
632.90	67.904
633.23	67.755
633.56	64.898
633.89	67.149
634.22	66.632
634.55	66.806
634.88	68.182
635.20	66.631
635.53	67.006
635.86	67.172
636.19	67.232
636.52	66.350
636.85	66.803
637.18	64.553
637.51	66.559
637.83	65.559
638.16	68.318
638.49	69.014
638.82	65.276
639.15	66.781
639.48	68.245
639.81	66.166
640.13	66.549
640.46	65.576
640.79	66.912
641.12	66.335
641.45	65.245
641.77	68.678
642.10	66.929
642.43	65.957
642.76	65.041
643.09	66.575
643.41	69.048
643.74	65.517
644.07	70.207
644.40	64.922
644.73	69.231
645.05	65.932
645.38	66.906
645.71	68.328
646.04	66.428
646.36	64.964
646.69	67.485
647.02	67.431
647.35	67.176
647.67	67.311
648.00	71.178
648.33	68.769
648.66	67.903
648.98	65.578
649.31	65.765
649.64	67.596
649.96	64.456
650.29	63.004
650.62	65.205
650.94	65.015
651.27	65.419
651.60	62.719
651.92	65.046
652.25	64.110
652.58	62.724
652.90	63.517
653.23	66.197
653.56	67.190
653.88	63.343
654.21	61.972
654.54	64.451
654.86	64.731
655.19	62.108
655.52	71.269
655.84	68.814
656.17	75.664
656.49	99.533
656.82	100.008
657.15	92.862
657.47	62.556
657.80	45.589
658.13	35.027
658.45	44.588
658.78	51.651
659.10	48.267
659.43	45.871
659.75	44.264
660.08	42.689
660.41	44.417
660.73	51.425
661.06	58.297
661.38	59.171
661.71	59.828
662.03	61.023
662.36	65.295
662.68	64.540
663.01	63.186
663.33	63.138
663.66	66.484
663.98	66.923
664.31	66.041
664.63	64.162
664.96	64.610
665.28	62.432
665.61	63.112
665.93	62.857
666.26	64.695
666.58	64.760
666.91	63.364
667.23	64.000
667.56	65.483
667.88	66.000
668.21	65.430
668.53	61.004
668.86	64.047
669.18	64.969
669.50	65.010
669.83	60.600
670.15	63.583
670.48	65.873
670.80	61.950
671.13	62.571
671.45	60.433
671.77	65.913
672.10	59.500
672.42	61.489
672.75	60.522
673.07	57.761
673.39	59.322
673.72	64.430
674.04	63.793
674.37	62.254
674.69	62.787
675.01	62.286
675.34	62.214
675.66	59.551
675.98	60.634
676.31	61.914
676.63	61.217
676.95	62.835
677.28	62.702
677.60	59.449
677.92	63.340
678.25	58.867
678.57	62.811
678.89	62.628
679.22	58.537
679.54	59.487
679.86	61.695
680.18	60.862
680.51	58.805
680.83	59.411
681.15	61.034
681.48	60.104
681.80	58.377
682.12	60.664
682.44	56.594
682.77	60.106
683.09	62.121
683.41	62.984
683.73	58.444
684.06	62.177
684.38	57.961
684.70	61.580
685.02	58.864
685.34	59.401
685.67	59.148
685.99	59.509
686.31	54.070
686.63	59.400
686.96	55.205
687.28	58.143
687.60	60.101
687.92	57.556
688.24	56.427
688.56	57.586
688.89	56.624
689.21	61.057
689.53	59.804
689.85	56.607
690.17	55.741
690.49	59.163
690.82	58.416
691.14	56.073
691.46	59.656
691.78	60.589
692.10	60.183
692.42	55.714
692.74	54.809
693.06	53.333
693.39	60.531
693.71	58.083
694.03	54.647
694.35	56.952
694.67	57.084
694.99	54.894
695.31	56.954
695.63	59.091
695.95	57.350
696.27	56.923
696.59	56.195
696.91	55.856
697.23	59.121
697.56	55.397
697.88	56.818
698.20	56.309
698.52	57.955
698.84	55.509
699.16	57.143
699.48	54.812
699.80	53.830
700.12	54.148
700.44	54.147
700.76	54.869
701.08	52.300
701.40	59.326
701.72	51.493
702.04	60.428
702.36	57.592
702.68	54.034
703.00	54.279
703.32	54.433
703.64	55.746
703.96	54.177
704.28	55.283
704.60	53.671
704.91	53.061
705.23	56.986
705.55	52.646
705.87	58.485
706.19	58.896
706.51	48.494
706.83	59.942
707.15	50.265
707.47	53.037
707.79	51.965
708.11	50.424
708.43	50.538
708.74	51.786
709.06	50.580
709.38	52.582
709.70	53.846
710.02	48.579
710.34	49.734
710.66	53.073
710.98	51.366
711.29	54.121
711.61	53.390
711.93	51.282
712.25	47.297
712.57	53.687
712.89	51.471
713.20	48.225
713.52	53.179
713.84	53.203
714.16	50.000
714.48	53.093
714.80	51.169
715.11	53.543
715.43	49.337
715.75	48.947
716.07	48.066
716.39	49.180
716.70	48.795
717.02	48.525
717.34	49.477
717.66	46.644
717.97	44.521
718.29	45.704
718.61	48.355
718.93	47.896
719.24	49.068
719.56	48.466
719.88	45.646
720.20	50.000
720.51	47.516
720.83	45.000
721.15	44.737
721.46	50.342
721.78	47.333
722.10	45.631
722.42	45.638
722.73	42.581
723.05	47.368
723.37	48.611
723.68	52.330
724.00	54.513
724.32	42.958
724.63	50.350
724.95	47.163
725.27	48.432
725.58	42.756
725.90	49.310
726.22	45.141
726.53	51.299
726.85	49.371
727.16	46.224
727.48	47.401
727.80	40.728
728.11	45.583
728.43	47.811
728.74	49.164
729.06	48.013
729.38	48.377
729.69	43.960
730.01	45.238
730.32	42.727
730.64	46.226
730.96	46.584
731.27	49.721
731.59	46.703
731.90	43.117
732.22	43.490
732.53	41.436
732.85	42.000
733.16	46.041
733.48	45.732
733.80	43.454
734.11	43.305
734.43	45.405
734.74	47.089
735.06	44.221
735.37	46.486
735.69	43.514
736.00	42.938
736.32	42.588
736.63	45.000
736.95	42.241
737.26	46.667
737.58	42.727
737.89	42.353
738.21	44.954
738.52	42.295
738.83	41.980
739.15	45.035
739.46	48.299
739.78	45.706
740.09	39.542
740.41	44.898
740.72	44.000
741.04	41.424
741.35	42.105
741.66	42.745
741.98	44.262
742.29	43.096
742.61	47.368
742.92	41.154
743.23	44.043
743.55	38.372
743.86	42.800
744.18	36.364
744.49	33.755
744.80	44.033
745.12	43.460
745.43	41.870
745.74	46.983
746.06	43.220
746.37	44.726
746.68	44.715
747.00	41.250
747.31	40.773
747.62	45.000
747.94	34.413
748.25	44.578
748.56	37.959
748.88	33.761
749.19	44.828
749.50	44.156
749.82	44.980
750.13	44.840
750.44	41.667
750.75	39.692
751.07	42.462
751.38	40.379
751.69	43.131
752.01	39.482
752.32	44.118
752.63	42.177
752.94	41.176
753.26	41.636
753.57	41.852
753.88	41.948
754.19	41.479
754.51	38.264
754.82	38.264
755.13	39.344
755.44	41.297
755.75	44.408
756.07	41.194
756.38	40.881
756.69	41.265
757.00	35.734
757.31	38.525
757.63	38.107
757.94	39.906
758.25	40.632
758.56	39.869
758.87	40.000
759.18	38.133
759.50	40.227
759.81	39.216
760.12	40.162
760.43	40.885
760.74	42.857
761.05	41.250
761.36	39.518
761.67	36.802
761.99	35.405
762.30	39.634
762.61	27.723
762.92	34.701
763.23	37.079
763.54	39.568
763.85	37.801
764.16	40.404
764.47	39.085
764.78	39.936
765.10	36.657
765.41	42.308
765.72	33.598
766.03	35.311
766.34	32.602
766.65	29.965
766.96	34.263
767.27	31.336
767.58	29.851
767.89	35.096
768.20	37.089
768.51	33.333
768.82	35.743
769.13	33.712
769.44	35.769
769.75	35.379
770.06	34.231
770.37	37.008
770.68	30.213
770.99	29.150
771.30	38.148
771.61	33.840
771.92	30.370
772.23	36.842
772.54	22.685
772.85	33.641
773.16	30.000
773.47	33.862
773.78	24.324
774.09	36.932
774.39	30.000
774.70	26.230
775.01	27.439
775.32	25.882
775.63	25.767
775.94	21.019
776.25	25.161
776.56	26.282
776.87	26.531
777.18	26.897
777.48	24.476
777.79	18.243
778.10	26.471
778.41	20.833
778.72	26.207
779.03	27.160
779.34	29.697
779.65	23.316
779.95	27.222
780.26	21.023
780.57	27.742
780.88	26.812
781.19	33.548
781.50	34.706
781.80	28.495
782.11	30.688
782.42	23.232
782.73	20.359
783.04	19.553
783.34	13.939
783.65	18.301
783.96	26.087
784.27	19.643
784.57	19.205
784.88	12.857
785.19	13.386
785.50	22.835
785.81	15.789
786.11	18.462
786.42	11.511
786.73	12.950
787.04	21.053
787.34	13.115
787.65	12.000
787.96	21.642
788.26	26.573
788.57	25.874
788.88	15.132
789.19	22.222
789.49	17.123
789.80	12.057
790.11	15.748
790.41	14.062
790.72	10.169
791.03	-1.942
791.33	9.565
791.64	7.895
791.95	6.250
792.25	5.714
792.56	8.929
792.87	13.542
793.17	4.464
793.48	4.167
793.79	-2.410
794.09	9.174
794.40	17.431
794.70	12.245
795.01	14.286
795.32	15.753
795.62	13.380
795.93	9.848
796.23	9.016
796.54	-0.893
796.85	1.064
797.15	0.000
797.46	-1.370
797.76	-2.500
798.07	-2.174
798.37	-1.031
798.68	-19.481
798.99	-12.644
799.29	-6.742
799.60	-3.191
799.90	-10.843
800.21	-20.000
800.51	-7.463
800.82	-23.529
801.12	-21.918
801.43	-29.412
801.73	-25.424
802.04	-12.121
802.34	-33.333
802.65	-10.169
802.95	-2.985
803.26	-32.203
803.56	-16.438
803.87	-17.143
804.17	-6.849
804.48	-36.842
804.78	-12.500
805.09	-31.034
805.39	-2.703
805.70	-26.761
806.00	-3.659
806.30	-10.843
806.61	-9.589
806.91	-4.808
807.22	1.111
807.52	-14.943
807.83	-4.167
808.13	-2.410
808.43	-13.483
808.74	-10.000
809.04	-25.000
809.35	-9.333
809.65	-14.286
809.95	-23.288
810.26	-31.579
810.56	-25.862
810.86	-26.471
811.17	-15.789
811.47	-31.148
811.77	-35.556
812.08	-33.898
812.38	-33.333
812.69	-22.414
812.99	-43.396
813.29	-66.667
813.59	-22.000
813.90	-26.316
814.20	-45.455
814.50	-4.225
814.81	-6.410
815.11	-36.066
815.41	-38.806
815.72	-18.966
816.02	-26.786
816.32	-35.556
816.62	-38.636
816.93	-46.667
817.23	-20.370
817.53	-53.191
817.84	-38.095
818.14	-82.353
818.44	-36.735
818.74	-57.778
819.04	-102.564
819.35	-91.429
819.65	-96.154
819.95	-22.642
820.25	-46.667
820.56	-47.619
820.86	-53.125
821.16	-64.103
821.46	-37.209
821.76	-56.000
822.07	-30.357
822.37	-52.174
822.67	-61.702
822.97	-102.703
823.27	-65.000
823.57	-22.449
823.88	-35.556
824.18	-47.500
824.48	-96.667
824.78	-124.000
825.08	-78.788
825.38	-62.222
825.69	-48.936
825.99	-52.778
826.29	-117.143
826.59	-92.308
826.89	-83.721
827.19	-48.000
827.49	-88.235
827.79	-47.917
828.09	-83.784
828.39	-96.667
828.70	-75.610
829.00	-67.442
829.30	-114.286
829.60	-58.824
829.90	-36.957
830.20	-74.286
830.50	-110.345
830.80	-144.444
831.10	-115.385
831.40	-70.588
831.70	-157.143
832.00	-96.774
832.30	-264.706
832.60	-133.333
832.90	-330.769
833.20	-163.158
833.50	-170.000
833.80	-215.789
834.10	-209.524
834.40	-86.111
834.70	-84.375
835.00	-91.429
835.30	-73.529
835.60	-90.000
835.90	-148.000
836.20	-136.364
836.50	-64.000
836.80	-118.182
837.10	-114.815
837.40	-107.407
837.70	-275.000
838.00	-128.571
838.30	-156.522
838.60	-120.690
838.90	-250.000
839.19	-178.261
839.49	-308.333
839.79	-139.130
840.09	-250.000
840.39	-165.000
840.69	-74.194
840.99	-153.571
841.29	-200.000
841.59	-210.526
841.88	-66.667
842.18	-111.538
842.48	-430.000
842.78	-185.000
843.08	-93.333
843.38	-70.968
843.68	-233.333
843.97	-64.706
844.27	-168.750
844.57	-142.105
844.87	-410.000
845.17	-240.000
845.47	-123.810
845.76	-157.143
846.06	-422.222
846.36	-247.059
846.66	-111.538
846.96	-246.667
847.25	-252.941
847.55	-152.174
847.85	-155.000
848.15	-176.471
848.44	-390.909
848.74	-190.476
849.04	-175.000
849.34	-243.750
849.63	-169.565
849.93	2050.000
850.23	-233.333
850.53	-119.231
850.82	-345.455
851.12	-131.818
851.42	-345.455
851.71	-261.538
852.01	-235.000
852.31	-253.846
852.61	-163.158
852.90	-300.000
853.20	-205.556
853.50	-488.889
853.79	-180.952
854.09	-172.727
854.39	-383.333
854.68	-100.000
854.98	-146.154
855.28	-138.889
855.57	-96.429
855.87	-128.000
856.17	-181.818
856.46	-129.630
856.76	-205.556
857.05	-169.565
857.35	-187.500
857.65	-276.923
857.94	-152.381
858.24	-114.815
858.53	-139.130
858.83	-235.294
859.13	-205.882
859.42	-176.471
859.72	-235.714
860.01	-195.000
860.31	-488.889
860.60	-340.000
860.90	-253.333
861.20	-188.889
861.49	-276.923
861.79	-110.000
862.08	-361.538
862.38	-84.375
862.67	-211.765
862.97	-225.000
863.26	-477.778
863.56	-310.000
863.85	-345.455
864.15	-172.222
864.44	-1100.000
864.74	-185.714
865.03	-162.500
865.33	-460.000
865.62	-122.581
865.92	-127.273
866.21	-121.739
866.51	-235.714
866.80	-760.000
867.10	-358.333
867.39	-341.667
867.69	4300.000
867.98	-642.857
868.27	-211.765
868.57	-4900.000
868.86	-400.000
869.16	-166.667
869.45	-108.333
869.75	-318.182
870.04	-600.000
870.33	-325.000
870.63	-800.000
870.92	-1000.000
871.22	-575.000
871.51	-381.818
871.80	-1600.000
872.10	-1850.000
>>>>>End Processed Spectral Data<<<<<
