SpectraSuite Data File
++++++++++++++++++++++++++++++++++++
Date: Thu May 14 14:53:19 PDT 2015
User: schluterlab
Dark Spectrum Present: Yes
Reference Spectrum Present: Yes
Number of Sampled Component Spectra: 1
Spectrometers: USB2E3373
Integration Time (usec): 3000 (USB2E3373)
Spectra Averaged: 3 (USB2E3373)
Boxcar Smoothing: 0 (USB2E3373)
Correct for Electrical Dark: No (USB2E3373)
Strobe/Lamp Enabled: No (USB2E3373)
Correct for Detector Non-linearity: No (USB2E3373)
Correct for Stray Light: No (USB2E3373)
Number of Pixels in Processed Spectrum: 2048
>>>>>Begin Processed Spectral Data<<<<<
178.53	0.000
178.91	242.857
179.29	-2500.000
179.67	-1500.000
180.04	228.571
180.42	130.000
180.80	280.000
181.18	-500.000
181.56	-300.000
181.94	325.000
182.31	-125.000
182.69	366.667
183.07	-350.000
183.45	300.000
183.83	0.000
184.20	-166.667
184.58	300.000
184.96	-225.000
185.34	-100.000
185.72	-60.000
186.09	322.222
186.47	600.000
186.85	400.000
187.23	-211.111
187.61	-2100.000
187.98	240.000
188.36	425.000
188.74	-325.000
189.12	-433.333
189.49	-37.500
189.87	-237.500
190.25	-100.000
190.63	-420.000
191.00	-277.778
191.38	0.000
191.76	-25.000
192.14	-283.333
192.51	800.000
192.89	0.000
193.27	0.000
193.65	-257.143
194.02	-2200.000
194.40	-85.714
194.78	142.857
195.15	0.000
195.53	-90.909
195.91	0.000
196.29	-325.000
196.66	-92.308
197.04	-2000.000
197.42	-300.000
197.79	-700.000
198.17	-162.500
198.55	-200.000
198.92	-77.778
199.30	-150.000
199.68	-45.455
200.05	-42.857
200.43	-950.000
200.81	214.286
201.18	0.000
201.56	211.111
201.94	0.000
202.31	566.667
202.69	-122.222
203.07	1500.000
203.44	-122.222
203.82	-375.000
204.19	-41.667
204.57	-216.667
204.95	-87.500
205.32	-1000.000
205.70	400.000
206.08	-200.000
206.45	0.000
206.83	360.000
207.20	-150.000
207.58	-300.000
207.96	-366.667
208.33	-166.667
208.71	133.333
209.08	-100.000
209.46	0.000
209.84	350.000
210.21	400.000
210.59	350.000
210.96	400.000
211.34	-300.000
211.71	-225.000
212.09	-1700.000
212.46	0.000
212.84	800.000
213.22	-400.000
213.59	-200.000
213.97	-180.000
214.34	-400.000
214.72	166.667
215.09	-500.000
215.47	0.000
215.84	128.571
216.22	1100.000
216.59	-340.000
216.97	-380.000
217.34	-150.000
217.72	-112.500
218.09	-500.000
218.47	-75.000
218.84	0.000
219.22	220.000
219.59	-5.882
219.97	-55.000
220.34	900.000
220.72	-233.333
221.09	-7.692
221.47	-200.000
221.84	-30.000
222.22	-171.429
222.59	0.000
222.97	-100.000
223.34	-260.000
223.72	-1500.000
224.09	-225.000
224.46	-450.000
224.84	40.000
225.21	-200.000
225.59	-325.000
225.96	-275.000
226.34	-19.231
226.71	300.000
227.08	-800.000
227.46	-106.667
227.83	-300.000
228.21	15.789
228.58	187.500
228.95	500.000
229.33	25.000
229.70	-130.000
230.08	21.053
230.45	170.000
230.82	-400.000
231.20	-50.000
231.57	-33.333
231.95	-63.636
232.32	-45.455
232.69	-30.000
233.07	-450.000
233.44	-82.353
233.81	-90.000
234.19	33.333
234.56	-4.545
234.93	0.000
235.31	-31.579
235.68	-38.889
236.05	-35.000
236.43	15.385
236.80	12.000
237.17	-14.815
237.55	9.091
237.92	-70.000
238.29	19.355
238.67	-4.545
239.04	11.111
239.41	-26.190
239.79	13.043
240.16	1.852
240.53	-4.348
240.91	5.882
241.28	3.279
241.65	23.881
242.02	16.216
242.40	15.385
242.77	9.333
243.14	0.000
243.51	5.263
243.89	16.667
244.26	16.832
244.63	25.490
245.00	29.907
245.38	17.544
245.75	7.080
246.12	23.016
246.49	22.481
246.87	26.429
247.24	17.881
247.61	26.316
247.98	21.477
248.36	24.074
248.73	26.380
249.10	24.590
249.47	30.846
249.84	29.319
250.22	31.088
250.59	26.667
250.96	29.545
251.33	26.531
251.70	27.778
252.08	27.083
252.45	27.459
252.82	26.033
253.19	26.172
253.56	29.278
253.94	30.000
254.31	29.545
254.68	33.566
255.05	32.573
255.42	29.252
255.79	27.508
256.16	29.139
256.54	26.490
256.91	29.836
257.28	29.836
257.65	28.025
258.02	28.319
258.39	27.350
258.76	32.110
259.14	32.759
259.51	29.971
259.88	30.028
260.25	25.556
260.62	29.041
260.99	29.235
261.36	29.223
261.73	28.382
262.10	28.846
262.47	29.223
262.85	29.545
263.22	30.909
263.59	28.684
263.96	30.946
264.33	28.133
264.70	30.864
265.07	28.640
265.44	29.252
265.81	28.009
266.18	29.705
266.55	32.589
266.92	31.207
267.29	30.635
267.66	27.938
268.03	26.856
268.40	31.942
268.77	29.613
269.14	28.194
269.51	30.482
269.88	31.148
270.25	30.785
270.62	33.544
270.99	33.131
271.36	30.099
271.73	31.041
272.10	32.866
272.47	30.661
272.84	27.309
273.21	30.060
273.58	31.250
273.95	26.923
274.32	25.856
274.69	27.466
275.06	30.037
275.43	27.542
275.80	29.453
276.17	28.333
276.54	29.478
276.91	29.159
277.28	28.391
277.65	29.982
278.02	33.272
278.39	29.167
278.76	29.525
279.13	29.610
279.50	29.553
279.87	28.980
280.23	25.176
280.60	29.322
280.97	29.276
281.34	29.032
281.71	28.934
282.08	26.080
282.45	27.005
282.82	27.002
283.19	28.756
283.56	28.361
283.92	29.279
284.29	28.436
284.66	28.900
285.03	27.724
285.40	27.666
285.77	28.173
286.14	29.160
286.51	27.549
286.87	27.330
287.24	28.012
287.61	28.251
287.98	26.284
288.35	27.367
288.72	27.071
289.08	27.672
289.45	26.183
289.82	25.904
290.19	27.155
290.56	26.901
290.93	26.676
291.29	25.482
291.66	25.620
292.03	26.187
292.40	27.483
292.77	25.741
293.13	24.493
293.50	22.733
293.87	23.221
294.24	25.867
294.60	23.894
294.97	22.953
295.34	24.840
295.71	23.203
296.08	24.160
296.44	23.407
296.81	23.873
297.18	21.669
297.55	22.288
297.91	22.420
298.28	21.919
298.65	21.403
299.02	21.133
299.38	22.082
299.75	23.131
300.12	21.181
300.48	20.737
300.85	23.060
301.22	23.378
301.59	21.233
301.95	21.243
302.32	22.333
302.69	20.920
303.05	22.089
303.42	20.399
303.79	21.354
304.15	21.767
304.52	20.930
304.89	20.942
305.25	22.257
305.62	20.272
305.99	20.928
306.35	21.774
306.72	22.647
307.09	21.117
307.45	20.704
307.82	21.090
308.19	19.576
308.55	20.540
308.92	21.324
309.29	21.169
309.65	21.637
310.02	20.594
310.38	19.882
310.75	21.748
311.12	20.614
311.48	21.114
311.85	22.127
312.22	20.588
312.58	20.094
312.95	20.937
313.31	19.783
313.68	20.330
314.05	21.229
314.41	20.583
314.78	21.253
315.14	21.506
315.51	20.683
315.87	21.242
316.24	21.553
316.61	21.048
316.97	19.729
317.34	19.489
317.70	21.659
318.07	20.988
318.43	20.153
318.80	21.154
319.16	19.914
319.53	19.794
319.89	20.245
320.26	20.552
320.62	20.213
320.99	19.575
321.35	19.316
321.72	21.209
322.08	20.198
322.45	21.590
322.81	22.022
323.18	20.619
323.54	20.345
323.91	22.153
324.27	19.707
324.64	20.907
325.00	20.232
325.37	20.229
325.73	20.000
326.10	20.276
326.46	21.091
326.83	21.777
327.19	22.205
327.56	20.632
327.92	19.906
328.29	20.081
328.65	19.179
329.01	20.981
329.38	19.714
329.74	19.264
330.11	21.404
330.47	20.303
330.84	20.327
331.20	22.167
331.56	20.711
331.93	21.423
332.29	20.169
332.66	20.764
333.02	20.268
333.38	20.554
333.75	20.034
334.11	20.767
334.48	20.050
334.84	20.136
335.20	20.151
335.57	19.899
335.93	20.909
336.29	18.469
336.66	20.185
337.02	21.405
337.38	19.898
337.75	20.000
338.11	19.765
338.47	20.430
338.84	20.812
339.20	19.798
339.56	19.028
339.93	19.540
340.29	19.807
340.65	19.546
341.02	19.792
341.38	20.372
341.74	19.532
342.11	20.837
342.47	19.301
342.83	20.612
343.20	18.970
343.56	19.567
343.92	19.536
344.28	19.609
344.65	20.853
345.01	19.423
345.37	19.751
345.73	19.018
346.10	20.203
346.46	19.620
346.82	19.251
347.19	19.633
347.55	19.196
347.91	19.614
348.27	19.879
348.63	20.183
349.00	19.239
349.36	19.777
349.72	19.048
350.08	20.282
350.45	19.163
350.81	19.608
351.17	18.571
351.53	20.167
351.89	18.527
352.26	19.552
352.62	17.836
352.98	18.550
353.34	18.745
353.70	20.108
354.07	18.405
354.43	18.983
354.79	19.073
355.15	18.543
355.51	20.102
355.87	19.222
356.24	18.403
356.60	18.625
356.96	19.496
357.32	18.959
357.68	18.521
358.04	18.862
358.40	17.910
358.77	19.006
359.13	17.725
359.49	17.323
359.85	18.637
360.21	19.225
360.57	18.234
360.93	18.265
361.29	18.947
361.66	18.465
362.02	19.485
362.38	18.552
362.74	18.785
363.10	19.257
363.46	19.252
363.82	18.537
364.18	18.227
364.54	18.188
364.90	18.997
365.26	18.138
365.62	19.067
365.98	17.835
366.35	18.188
366.71	18.231
367.07	19.350
367.43	18.253
367.79	18.182
368.15	19.197
368.51	18.133
368.87	19.073
369.23	17.267
369.59	17.418
369.95	17.918
370.31	18.501
370.67	17.813
371.03	17.105
371.39	17.193
371.75	17.538
372.11	18.225
372.47	17.874
372.83	18.455
373.19	18.212
373.55	17.683
373.91	16.428
374.27	17.335
374.63	17.118
374.99	18.302
375.35	18.247
375.71	18.194
376.07	18.657
376.42	17.758
376.78	17.651
377.14	17.405
377.50	17.647
377.86	18.842
378.22	17.605
378.58	18.312
378.94	18.310
379.30	18.161
379.66	17.813
380.02	17.946
380.38	18.203
380.74	18.648
381.09	18.002
381.45	18.239
381.81	18.970
382.17	17.637
382.53	18.480
382.89	17.889
383.25	18.113
383.61	17.940
383.97	18.021
384.32	18.301
384.68	16.531
385.04	17.814
385.40	18.798
385.76	17.819
386.12	17.415
386.48	18.706
386.83	18.117
387.19	17.845
387.55	16.667
387.91	17.580
388.27	17.436
388.62	17.698
388.98	17.315
389.34	17.266
389.70	17.897
390.06	17.880
390.42	17.169
390.77	18.663
391.13	16.843
391.49	18.539
391.85	16.364
392.20	17.853
392.56	18.252
392.92	19.193
393.28	17.910
393.64	17.709
393.99	18.361
394.35	18.516
394.71	17.665
395.07	16.946
395.42	17.761
395.78	17.672
396.14	18.538
396.50	17.102
396.85	17.174
397.21	17.396
397.57	18.433
397.92	17.526
398.28	17.436
398.64	17.162
399.00	16.702
399.35	17.801
399.71	17.880
400.07	17.294
400.42	17.753
400.78	17.593
401.14	17.245
401.49	17.396
401.85	17.093
402.21	17.034
402.57	18.016
402.92	17.612
403.28	16.686
403.63	16.885
403.99	17.637
404.35	17.681
404.70	17.337
405.06	17.554
405.42	17.389
405.77	17.721
406.13	17.666
406.49	17.173
406.84	18.283
407.20	17.552
407.55	16.111
407.91	16.782
408.27	17.432
408.62	17.161
408.98	17.528
409.34	16.305
409.69	16.378
410.05	17.057
410.40	17.691
410.76	16.826
411.11	17.183
411.47	17.690
411.83	17.166
412.18	17.711
412.54	16.953
412.89	17.637
413.25	16.479
413.60	16.829
413.96	17.075
414.31	16.431
414.67	17.829
415.03	16.862
415.38	17.087
415.74	17.288
416.09	16.780
416.45	16.281
416.80	17.075
417.16	16.794
417.51	16.936
417.87	17.351
418.22	17.365
418.58	16.853
418.93	16.531
419.29	16.153
419.64	16.026
420.00	16.795
420.35	17.294
420.71	16.255
421.06	16.676
421.42	17.431
421.77	16.801
422.12	17.125
422.48	16.487
422.83	17.579
423.19	15.756
423.54	17.035
423.90	15.792
424.25	17.387
424.61	16.131
424.96	16.749
425.31	16.507
425.67	17.123
426.02	16.989
426.38	16.418
426.73	16.574
427.09	17.013
427.44	16.821
427.79	16.307
428.15	15.753
428.50	16.067
428.85	16.590
429.21	17.819
429.56	16.041
429.92	16.069
430.27	16.578
430.62	16.805
430.98	16.281
431.33	16.129
431.68	16.667
432.04	16.861
432.39	16.658
432.74	16.153
433.10	16.549
433.45	16.165
433.80	17.167
434.16	17.355
434.51	16.855
434.86	16.667
435.22	17.481
435.57	17.276
435.92	16.583
436.28	15.245
436.63	16.931
436.98	15.888
437.34	16.967
437.69	16.070
438.04	15.918
438.39	16.255
438.75	16.768
439.10	17.336
439.45	16.266
439.81	16.836
440.16	15.710
440.51	16.555
440.86	15.731
441.22	16.452
441.57	15.985
441.92	16.440
442.27	16.566
442.63	16.195
442.98	16.756
443.33	15.886
443.68	16.799
444.03	17.074
444.39	17.013
444.74	17.458
445.09	16.067
445.44	16.860
445.79	16.427
446.15	17.061
446.50	16.331
446.85	16.391
447.20	16.489
447.55	16.579
447.91	16.073
448.26	16.279
448.61	15.887
448.96	17.221
449.31	16.013
449.66	15.850
450.02	16.561
450.37	16.516
450.72	16.254
451.07	16.515
451.42	16.118
451.77	16.398
452.12	17.494
452.47	15.627
452.83	16.441
453.18	15.937
453.53	16.083
453.88	15.737
454.23	16.610
454.58	15.786
454.93	15.534
455.28	16.014
455.63	16.543
455.98	15.922
456.34	16.137
456.69	15.285
457.04	15.603
457.39	15.909
457.74	17.226
458.09	15.980
458.44	16.272
458.79	15.884
459.14	16.413
459.49	16.695
459.84	16.055
460.19	16.047
460.54	16.014
460.89	16.623
461.24	16.322
461.59	16.602
461.94	15.573
462.29	16.237
462.64	15.932
462.99	15.694
463.34	16.937
463.69	15.768
464.04	16.120
464.39	15.919
464.74	16.078
465.09	14.937
465.44	16.094
465.79	16.023
466.14	15.633
466.49	16.421
466.84	16.474
467.19	15.954
467.54	14.982
467.89	16.149
468.24	16.288
468.59	15.576
468.94	15.501
469.29	14.997
469.64	15.194
469.99	16.189
470.34	16.027
470.68	16.336
471.03	15.717
471.38	14.977
471.73	15.410
472.08	16.053
472.43	15.653
472.78	15.743
473.13	15.613
473.48	15.106
473.83	15.554
474.17	15.944
474.52	14.973
474.87	15.836
475.22	15.549
475.57	15.680
475.92	15.331
476.27	16.187
476.61	16.251
476.96	14.651
477.31	15.396
477.66	16.946
478.01	15.557
478.36	15.155
478.70	15.369
479.05	15.951
479.40	15.350
479.75	16.138
480.10	15.680
480.45	14.768
480.79	15.329
481.14	15.487
481.49	15.584
481.84	15.535
482.19	15.656
482.53	16.441
482.88	15.729
483.23	15.696
483.58	15.197
483.92	14.938
484.27	15.665
484.62	15.470
484.97	15.474
485.31	15.663
485.66	14.718
486.01	14.829
486.36	15.353
486.70	16.602
487.05	17.373
487.40	17.599
487.75	17.888
488.09	17.272
488.44	17.047
488.79	16.358
489.13	16.039
489.48	15.223
489.83	15.453
490.17	14.621
490.52	15.805
490.87	15.440
491.22	15.338
491.56	15.316
491.91	14.871
492.26	15.102
492.60	15.435
492.95	15.445
493.30	15.240
493.64	14.717
493.99	15.132
494.34	15.287
494.68	14.946
495.03	15.507
495.37	14.869
495.72	14.830
496.07	14.812
496.41	14.672
496.76	15.304
497.11	14.947
497.45	14.717
497.80	15.371
498.14	15.238
498.49	15.257
498.84	14.945
499.18	15.025
499.53	15.022
499.87	15.516
500.22	14.426
500.56	15.115
500.91	14.783
501.26	15.636
501.60	14.848
501.95	15.371
502.29	14.963
502.64	15.129
502.98	14.840
503.33	14.903
503.67	14.871
504.02	15.499
504.36	15.103
504.71	15.158
505.06	15.280
505.40	15.128
505.75	14.845
506.09	15.101
506.44	15.367
506.78	16.101
507.13	15.168
507.47	15.775
507.82	15.152
508.16	15.296
508.51	14.299
508.85	15.021
509.19	14.827
509.54	15.322
509.88	15.056
510.23	15.444
510.57	15.370
510.92	15.094
511.26	14.622
511.61	14.727
511.95	14.934
512.30	15.017
512.64	15.092
512.98	14.357
513.33	15.373
513.67	14.839
514.02	14.921
514.36	14.629
514.70	14.323
515.05	15.276
515.39	14.751
515.74	15.376
516.08	15.108
516.42	14.390
516.77	14.826
517.11	14.905
517.46	14.528
517.80	14.698
518.14	15.288
518.49	14.100
518.83	14.795
519.17	14.970
519.52	14.780
519.86	15.839
520.20	15.122
520.55	14.458
520.89	14.752
521.23	15.466
521.58	14.802
521.92	14.391
522.26	13.975
522.61	14.583
522.95	14.533
523.29	15.000
523.64	14.574
523.98	15.174
524.32	14.842
524.66	14.855
525.01	14.892
525.35	14.704
525.69	14.907
526.04	14.868
526.38	15.000
526.72	14.187
527.06	14.604
527.41	15.394
527.75	14.846
528.09	14.758
528.43	15.394
528.78	14.740
529.12	14.736
529.46	14.559
529.80	14.188
530.15	15.362
530.49	14.116
530.83	15.289
531.17	14.815
531.51	14.681
531.86	15.445
532.20	15.183
532.54	14.662
532.88	15.455
533.22	14.555
533.57	15.695
533.91	14.983
534.25	15.150
534.59	15.287
534.93	14.997
535.27	15.380
535.62	15.520
535.96	14.991
536.30	14.924
536.64	15.315
536.98	15.683
537.32	15.432
537.66	15.908
538.01	14.683
538.35	14.738
538.69	15.024
539.03	15.389
539.37	15.018
539.71	16.156
540.05	15.707
540.39	14.914
540.73	15.301
541.07	15.267
541.42	15.357
541.76	15.184
542.10	15.078
542.44	15.225
542.78	15.146
543.12	15.554
543.46	14.896
543.80	14.089
544.14	15.440
544.48	15.780
544.82	16.397
545.16	14.908
545.50	14.380
545.84	15.370
546.18	16.049
546.52	15.032
546.86	15.849
547.20	15.204
547.54	14.419
547.88	15.853
548.22	14.561
548.56	15.448
548.90	15.284
549.24	15.198
549.58	15.079
549.92	14.732
550.26	16.246
550.60	15.763
550.94	14.812
551.28	14.785
551.62	15.499
551.96	14.369
552.30	15.488
552.64	15.059
552.98	15.284
553.32	16.334
553.66	15.048
554.00	16.204
554.34	14.801
554.68	15.365
555.02	15.572
555.36	15.450
555.69	13.645
556.03	14.943
556.37	16.646
556.71	15.346
557.05	15.719
557.39	14.930
557.73	14.663
558.07	14.305
558.41	15.017
558.75	14.807
559.08	15.449
559.42	14.883
559.76	16.214
560.10	15.606
560.44	14.380
560.78	15.062
561.12	15.209
561.45	16.302
561.79	14.530
562.13	15.835
562.47	14.488
562.81	14.494
563.15	15.972
563.48	15.538
563.82	15.115
564.16	15.809
564.50	15.673
564.84	15.516
565.17	15.176
565.51	15.362
565.85	15.618
566.19	15.783
566.52	14.745
566.86	15.224
567.20	15.715
567.54	15.826
567.88	15.749
568.21	16.206
568.55	16.835
568.89	16.568
569.23	15.927
569.56	16.100
569.90	16.429
570.24	16.290
570.57	16.453
570.91	16.565
571.25	16.488
571.59	16.977
571.92	17.084
572.26	17.152
572.60	16.790
572.93	17.284
573.27	17.252
573.61	17.205
573.95	17.213
574.28	17.169
574.62	17.758
574.96	16.740
575.29	16.854
575.63	17.279
575.97	17.749
576.30	17.740
576.64	17.013
576.98	17.403
577.31	17.455
577.65	17.623
577.98	17.206
578.32	17.227
578.66	17.622
578.99	17.776
579.33	17.852
579.67	17.611
580.00	17.487
580.34	17.779
580.67	17.498
581.01	17.352
581.35	17.319
581.68	17.356
582.02	16.971
582.35	17.889
582.69	17.824
583.02	18.221
583.36	18.525
583.70	17.860
584.03	17.831
584.37	18.070
584.70	17.042
585.04	17.136
585.37	17.344
585.71	17.260
586.04	17.503
586.38	17.456
586.72	17.172
587.05	17.447
587.39	17.178
587.72	17.584
588.06	17.868
588.39	17.476
588.73	17.196
589.06	17.805
589.40	17.394
589.73	17.674
590.07	17.540
590.40	17.410
590.73	17.321
591.07	17.386
591.40	16.524
591.74	16.932
592.07	17.377
592.41	16.640
592.74	16.507
593.08	16.752
593.41	17.206
593.75	16.897
594.08	17.237
594.41	17.276
594.75	16.871
595.08	16.824
595.42	17.013
595.75	17.501
596.09	17.655
596.42	17.556
596.75	17.985
597.09	17.131
597.42	16.528
597.75	17.327
598.09	17.381
598.42	17.290
598.76	16.699
599.09	16.732
599.42	16.225
599.76	17.035
600.09	17.484
600.42	16.984
600.76	16.942
601.09	16.694
601.42	17.061
601.76	16.931
602.09	17.655
602.42	16.867
602.76	17.196
603.09	17.474
603.42	16.908
603.76	16.984
604.09	17.708
604.42	17.064
604.76	16.324
605.09	16.833
605.42	17.305
605.75	17.385
606.09	16.349
606.42	16.819
606.75	16.604
607.09	16.321
607.42	16.455
607.75	17.311
608.08	16.851
608.42	16.848
608.75	18.076
609.08	16.426
609.41	16.189
609.75	17.098
610.08	17.238
610.41	17.120
610.74	16.807
611.07	16.385
611.41	17.085
611.74	17.413
612.07	16.877
612.40	16.445
612.73	16.919
613.07	16.528
613.40	16.699
613.73	16.129
614.06	16.487
614.39	16.327
614.72	15.866
615.06	16.506
615.39	16.240
615.72	16.351
616.05	16.513
616.38	16.953
616.71	17.346
617.05	16.028
617.38	17.282
617.71	17.063
618.04	16.892
618.37	16.612
618.70	17.251
619.03	15.950
619.36	16.769
619.69	15.567
620.03	16.321
620.36	16.319
620.69	16.533
621.02	16.010
621.35	16.328
621.68	17.281
622.01	15.730
622.34	15.132
622.67	16.632
623.00	14.710
623.33	15.660
623.66	16.148
623.99	15.800
624.32	16.569
624.65	15.894
624.99	15.735
625.32	16.917
625.65	15.779
625.98	15.661
626.31	15.308
626.64	14.872
626.97	15.454
627.30	15.718
627.63	16.054
627.96	16.216
628.29	15.642
628.62	15.365
628.95	15.513
629.28	14.698
629.61	14.646
629.94	14.895
630.26	15.508
630.59	14.940
630.92	14.113
631.25	16.369
631.58	15.066
631.91	14.714
632.24	14.986
632.57	15.180
632.90	14.544
633.23	13.878
633.56	15.306
633.89	13.223
634.22	14.449
634.55	13.883
634.88	14.502
635.20	14.639
635.53	14.463
635.86	13.651
636.19	15.589
636.52	14.662
636.85	13.687
637.18	12.890
637.51	14.516
637.83	14.618
638.16	15.668
638.49	13.028
638.82	15.107
639.15	13.058
639.48	15.820
639.81	13.395
640.13	13.545
640.46	11.879
640.79	11.887
641.12	12.919
641.45	13.676
641.77	14.763
642.10	13.255
642.43	15.559
642.76	14.092
643.09	14.658
643.41	13.305
643.74	12.828
644.07	15.586
644.40	12.447
644.73	13.498
645.05	12.041
645.38	12.374
645.71	13.050
646.04	15.065
646.36	12.263
646.69	13.190
647.02	13.914
647.35	13.740
647.67	13.688
648.00	13.217
648.33	12.162
648.66	14.551
648.98	12.245
649.31	12.449
649.64	13.811
649.96	13.263
650.29	12.378
650.62	13.437
650.94	11.712
651.27	11.826
651.60	11.842
651.92	12.918
652.25	14.182
652.58	13.480
652.90	13.227
653.23	13.099
653.56	14.123
653.88	15.028
654.21	14.789
654.54	13.006
654.86	14.023
655.19	12.547
655.52	16.840
655.84	17.056
656.17	19.705
656.49	28.699
656.82	32.875
657.15	27.814
657.47	22.025
657.80	16.607
658.13	13.493
658.45	18.321
658.78	22.348
659.10	21.569
659.43	20.317
659.75	19.376
660.08	17.423
660.41	15.136
660.73	14.595
661.06	13.069
661.38	13.716
661.71	11.724
662.03	10.758
662.36	13.775
662.68	13.884
663.01	12.212
663.33	12.287
663.66	13.553
663.98	11.154
664.31	13.133
664.63	10.597
664.96	12.341
665.28	11.071
665.61	13.287
665.93	13.036
666.26	14.695
666.58	10.148
666.91	13.458
667.23	14.286
667.56	14.398
667.88	12.400
668.21	11.328
668.53	10.425
668.86	12.377
669.18	12.831
669.50	13.718
669.83	10.800
670.15	13.386
670.48	11.706
670.80	8.604
671.13	12.665
671.45	12.008
671.77	13.748
672.10	12.667
672.42	13.430
672.75	11.521
673.07	11.940
673.39	12.789
673.72	14.430
674.04	14.310
674.37	12.880
674.69	15.168
675.01	12.381
675.34	12.977
675.66	11.423
675.98	11.567
676.31	11.914
676.63	13.308
676.95	14.751
677.28	12.702
677.60	10.630
677.92	12.668
678.25	12.797
678.57	14.235
678.89	14.676
679.22	12.195
679.54	13.846
679.86	12.203
680.18	13.599
680.51	13.679
680.83	14.566
681.15	14.138
681.48	13.299
681.80	12.263
682.12	12.937
682.44	13.022
682.77	12.411
683.09	12.311
683.41	14.922
683.73	13.283
684.06	12.362
684.38	10.912
684.70	14.901
685.02	14.286
685.34	11.814
685.67	12.303
685.99	12.423
686.31	11.919
686.63	14.376
686.96	14.826
687.28	15.147
687.60	12.458
687.92	12.701
688.24	13.189
688.56	12.759
688.89	13.612
689.21	14.090
689.53	12.157
689.85	14.793
690.17	12.407
690.49	12.749
690.82	12.673
691.14	12.146
691.46	12.428
691.78	14.917
692.10	10.459
692.42	11.964
692.74	12.341
693.06	11.667
693.39	15.370
693.71	12.218
694.03	12.082
694.35	13.905
694.67	14.168
694.99	13.830
695.31	13.024
695.63	13.203
695.95	10.766
696.27	9.231
696.59	15.044
696.91	11.937
697.23	14.286
697.56	11.202
697.88	12.311
698.20	13.371
698.52	14.962
698.84	13.929
699.16	13.469
699.48	13.598
699.80	11.489
700.12	11.572
700.44	12.212
700.76	13.064
701.08	14.286
701.40	13.731
701.72	12.189
702.04	11.765
702.36	7.330
702.68	11.736
703.00	11.491
703.32	13.547
703.64	15.648
703.96	14.320
704.28	12.285
704.60	14.684
704.91	9.184
705.23	10.685
705.55	13.370
705.87	10.909
706.19	13.497
706.51	7.229
706.83	8.934
707.15	6.614
707.47	10.981
707.79	14.192
708.11	11.864
708.43	10.538
708.74	8.259
709.06	11.833
709.38	15.023
709.70	11.663
710.02	9.819
710.34	11.968
710.66	9.777
710.98	11.749
711.29	10.714
711.61	12.429
711.93	9.402
712.25	9.189
712.57	15.339
712.89	9.118
713.20	7.692
713.52	9.538
713.84	11.421
714.16	11.842
714.48	10.825
714.80	14.026
715.11	13.648
715.43	10.345
715.75	11.842
716.07	10.221
716.39	13.661
716.70	11.747
717.02	12.459
717.34	10.801
717.66	10.738
717.97	12.671
718.29	10.309
718.61	8.224
718.93	10.680
719.24	13.975
719.56	12.270
719.88	10.811
720.20	9.355
720.51	9.938
720.83	10.312
721.15	9.868
721.46	6.507
721.78	13.333
722.10	9.385
722.42	10.067
722.73	10.000
723.05	9.474
723.37	11.458
723.68	12.903
724.00	9.386
724.32	8.099
724.63	7.692
724.95	14.184
725.27	12.892
725.58	7.774
725.90	13.448
726.22	9.091
726.53	16.234
726.85	14.151
727.16	10.574
727.48	15.596
727.80	12.252
728.11	9.894
728.43	11.785
728.74	12.375
729.06	10.265
729.38	11.364
729.69	10.067
730.01	12.202
730.32	6.061
730.64	12.579
730.96	10.559
731.27	13.128
731.59	10.714
731.90	9.870
732.22	10.417
732.53	10.773
732.85	12.571
733.16	10.557
733.48	9.756
733.80	13.928
734.11	13.105
734.43	13.243
734.74	14.937
735.06	11.558
735.37	14.324
735.69	13.243
736.00	13.277
736.32	10.512
736.63	11.389
736.95	12.931
737.26	13.030
737.58	11.818
737.89	14.118
738.21	8.869
738.52	13.115
738.83	12.628
739.15	7.801
739.46	12.245
739.78	12.883
740.09	8.883
740.41	13.120
740.72	14.000
741.04	14.239
741.35	15.439
741.66	13.333
741.98	9.426
742.29	10.042
742.61	12.281
742.92	10.385
743.23	14.440
743.55	13.566
743.86	10.800
744.18	8.678
744.49	7.173
744.80	10.700
745.12	9.705
745.43	11.789
745.74	6.466
746.06	5.932
746.37	11.814
746.68	13.415
747.00	11.667
747.31	6.438
747.62	12.692
747.94	8.907
748.25	10.442
748.56	4.898
748.88	7.692
749.19	14.655
749.50	6.494
749.82	12.851
750.13	11.388
750.44	8.333
750.75	14.462
751.07	10.769
751.38	10.410
751.69	10.863
752.01	14.239
752.32	13.725
752.63	13.946
752.94	12.457
753.26	11.896
753.57	10.000
753.88	10.112
754.19	11.254
754.51	9.968
754.82	14.148
755.13	12.787
755.44	10.922
755.75	10.526
756.07	14.925
756.38	11.635
756.69	14.458
757.00	8.587
757.31	14.481
757.63	12.532
757.94	12.911
758.25	17.607
758.56	14.379
758.87	14.091
759.18	16.267
759.50	14.448
759.81	13.725
760.12	15.364
760.43	13.281
760.74	14.778
761.05	12.250
761.36	13.735
761.67	13.706
761.99	13.784
762.30	10.671
762.61	11.551
762.92	7.090
763.23	16.105
763.54	14.029
763.85	11.340
764.16	13.805
764.47	14.437
764.78	15.974
765.10	15.249
765.41	15.385
765.72	9.524
766.03	13.277
766.34	11.599
766.65	8.711
766.96	12.351
767.27	11.982
767.58	9.950
767.89	14.904
768.20	12.207
768.51	8.333
768.82	11.647
769.13	10.227
769.44	5.385
769.75	8.664
770.06	13.077
770.37	11.811
770.68	9.362
770.99	12.146
771.30	18.148
771.61	11.407
771.92	7.778
772.23	14.170
772.54	7.407
772.85	15.207
773.16	13.810
773.47	7.407
773.78	7.027
774.09	3.409
774.39	11.000
774.70	9.836
775.01	10.366
775.32	4.706
775.63	11.656
775.94	5.096
776.25	10.323
776.56	7.692
776.87	8.844
777.18	8.966
777.48	2.098
777.79	8.108
778.10	1.471
778.41	8.333
778.72	8.966
779.03	11.728
779.34	10.303
779.65	13.990
779.95	13.889
780.26	12.500
780.57	12.258
780.88	18.116
781.19	9.677
781.50	15.882
781.80	11.828
782.11	10.582
782.42	6.061
782.73	5.988
783.04	8.380
783.34	4.848
783.65	5.229
783.96	1.242
784.27	10.119
784.57	3.974
784.88	7.143
785.19	7.087
785.50	11.811
785.81	11.278
786.11	10.769
786.42	9.353
786.73	5.755
787.04	14.286
787.34	3.279
787.65	4.000
787.96	3.731
788.26	15.385
788.57	13.986
788.88	7.895
789.19	7.843
789.49	-2.740
789.80	14.184
790.11	6.299
790.41	4.687
790.72	12.712
791.03	4.854
791.33	4.348
791.64	14.035
791.95	7.143
792.25	10.476
792.56	1.786
792.87	-3.125
793.17	7.143
793.48	7.292
793.79	-14.458
794.09	-1.835
794.40	6.422
794.70	7.483
795.01	-0.649
795.32	4.795
795.62	4.930
795.93	-0.758
796.23	1.639
796.54	14.286
796.85	5.319
797.15	3.261
797.46	4.110
797.76	3.750
798.07	-2.174
798.37	6.186
798.68	-18.182
798.99	0.000
799.29	6.742
799.60	4.255
799.90	-6.024
800.21	-4.615
800.51	-5.970
800.82	2.941
801.12	-5.479
801.43	-22.059
801.73	-18.644
802.04	4.545
802.34	-18.333
802.65	-11.864
802.95	-4.478
803.26	-10.169
803.56	5.479
803.87	-2.857
804.17	4.110
804.48	-14.035
804.78	-12.500
805.09	-25.862
805.39	2.703
805.70	-22.535
806.00	14.634
806.30	-9.639
806.61	-13.699
806.91	11.538
807.22	16.667
807.52	-9.195
807.83	2.778
808.13	10.843
808.43	4.494
808.74	6.250
809.04	-10.294
809.35	-10.667
809.65	-1.429
809.95	-5.479
810.26	-17.544
810.56	-17.241
810.86	-2.941
811.17	-12.281
811.47	-26.230
811.77	-11.111
812.08	-5.085
812.38	1.667
812.69	10.345
812.99	-24.528
813.29	-43.590
813.59	-14.000
813.90	-7.018
814.20	0.000
814.50	16.901
814.81	11.538
815.11	-4.918
815.41	-13.433
815.72	-3.448
816.02	-21.429
816.32	11.111
816.62	-22.727
816.93	-22.222
817.23	-5.556
817.53	-2.128
817.84	0.000
818.14	-58.824
818.44	0.000
818.74	-13.333
819.04	-48.718
819.35	-20.000
819.65	-73.077
819.95	-15.094
820.25	-4.444
820.56	-11.905
820.86	-25.000
821.16	-12.821
821.46	-27.907
821.76	-42.000
822.07	-10.714
822.37	-21.739
822.67	-8.511
822.97	-45.946
823.27	-12.500
823.57	-10.204
823.88	-4.444
824.18	-5.000
824.48	-26.667
824.78	-48.000
825.08	3.030
825.38	-8.889
825.69	-6.383
825.99	-19.444
826.29	-51.429
826.59	-20.513
826.89	-39.535
827.19	-16.000
827.49	-14.706
827.79	-12.500
828.09	-54.054
828.39	-46.667
828.70	-24.390
829.00	-16.279
829.30	-64.286
829.60	-29.412
829.90	-30.435
830.20	-20.000
830.50	-58.621
830.80	-38.889
831.10	-46.154
831.40	-11.765
831.70	-42.857
832.00	-3.226
832.30	-141.176
832.60	-70.833
832.90	-115.385
833.20	-47.368
833.50	-55.000
833.80	-47.368
834.10	-57.143
834.40	-8.333
834.70	-6.250
835.00	-82.857
835.30	-17.647
835.60	-16.667
835.90	-20.000
836.20	-59.091
836.50	-8.000
836.80	-27.273
837.10	-33.333
837.40	-48.148
837.70	-125.000
838.00	0.000
838.30	-60.870
838.60	-10.345
838.90	-135.714
839.19	-126.087
839.49	-175.000
839.79	-30.435
840.09	-93.750
840.39	-60.000
840.69	-9.677
840.99	-42.857
841.29	-20.000
841.59	-110.526
841.88	-28.205
842.18	-38.462
842.48	-130.000
842.78	-85.000
843.08	-23.333
843.38	9.677
843.68	-88.889
843.97	-8.824
844.27	-62.500
844.57	-84.211
844.87	-100.000
845.17	-93.333
845.47	-19.048
845.76	-42.857
846.06	-88.889
846.36	-58.824
846.66	-53.846
846.96	-120.000
847.25	-52.941
847.55	-13.043
847.85	-45.000
848.15	-41.176
848.44	-163.636
848.74	-9.524
849.04	-29.167
849.34	-131.250
849.63	-26.087
849.93	950.000
850.23	-100.000
850.53	-23.077
850.82	-145.455
851.12	9.091
851.42	-172.727
851.71	-61.538
852.01	-55.000
852.31	-30.769
852.61	-89.474
852.90	-116.667
853.20	-38.889
853.50	-177.778
853.79	-28.571
854.09	-59.091
854.39	-216.667
854.68	-12.903
854.98	-53.846
855.28	-22.222
855.57	-14.286
855.87	-12.000
856.17	-18.182
856.46	-33.333
856.76	-127.778
857.05	-30.435
857.35	-66.667
857.65	-7.692
857.94	19.048
858.24	11.111
858.53	-4.348
858.83	-52.941
859.13	-23.529
859.42	-17.647
859.72	-21.429
860.01	-70.000
860.31	-77.778
860.60	-190.000
860.90	-80.000
861.20	-5.556
861.49	-53.846
861.79	-3.333
862.08	-107.692
862.38	18.750
862.67	-41.176
862.97	-31.250
863.26	-155.556
863.56	-160.000
863.85	-127.273
864.15	-88.889
864.44	-200.000
864.74	-107.143
865.03	-56.250
865.33	-150.000
865.62	-41.935
865.92	31.818
866.21	-17.391
866.51	0.000
866.80	-400.000
867.10	-150.000
867.39	-108.333
867.69	1800.000
867.98	-200.000
868.27	11.765
868.57	-2100.000
868.86	-170.000
869.16	-42.857
869.45	-33.333
869.75	-163.636
870.04	-242.857
870.33	-66.667
870.63	-271.429
870.92	-300.000
871.22	-187.500
871.51	-109.091
871.80	-900.000
872.10	-950.000
>>>>>End Processed Spectral Data<<<<<
