SpectraSuite Data File
++++++++++++++++++++++++++++++++++++
Date: Thu May 14 14:31:38 PDT 2015
User: schluterlab
Dark Spectrum Present: Yes
Reference Spectrum Present: Yes
Number of Sampled Component Spectra: 1
Spectrometers: USB2E3373
Integration Time (usec): 3000 (USB2E3373)
Spectra Averaged: 3 (USB2E3373)
Boxcar Smoothing: 0 (USB2E3373)
Correct for Electrical Dark: No (USB2E3373)
Strobe/Lamp Enabled: No (USB2E3373)
Correct for Detector Non-linearity: No (USB2E3373)
Correct for Stray Light: No (USB2E3373)
Number of Pixels in Processed Spectrum: 2048
>>>>>Begin Processed Spectral Data<<<<<
178.53	0.000
178.91	-185.714
179.29	1000.000
179.67	1500.000
180.04	28.571
180.42	-200.000
180.80	-180.000
181.18	900.000
181.56	2000.000
181.94	-700.000
182.31	450.000
182.69	-566.667
183.07	1200.000
183.45	-300.000
183.83	300.000
184.20	600.000
184.58	-1000.000
184.96	350.000
185.34	255.556
185.72	540.000
186.09	-44.444
186.47	-650.000
186.85	-140.000
187.23	144.444
187.61	1100.000
187.98	-360.000
188.36	-275.000
188.74	525.000
189.12	533.333
189.49	118.750
189.87	325.000
190.25	222.222
190.63	420.000
191.00	111.111
191.38	0.000
191.76	375.000
192.14	350.000
192.51	-450.000
192.89	383.333
193.27	0.000
193.65	157.143
194.02	300.000
194.40	314.286
194.78	-171.429
195.15	0.000
195.53	136.364
195.91	0.000
196.29	425.000
196.66	115.385
197.04	900.000
197.42	214.286
197.79	550.000
198.17	237.500
198.55	257.143
198.92	255.556
199.30	200.000
199.68	172.727
200.05	207.143
200.43	850.000
200.81	-128.571
201.18	0.000
201.56	-133.333
201.94	0.000
202.31	-533.333
202.69	122.222
203.07	-2100.000
203.44	211.111
203.82	325.000
204.19	200.000
204.57	283.333
204.95	225.000
205.32	2200.000
205.70	-525.000
206.08	450.000
206.45	500.000
206.83	-60.000
207.20	216.667
207.58	300.000
207.96	300.000
208.33	416.667
208.71	-158.333
209.08	500.000
209.46	0.000
209.84	-83.333
210.21	-400.000
210.59	-900.000
210.96	-666.667
211.34	500.000
211.71	150.000
212.09	1500.000
212.46	0.000
212.84	-950.000
213.22	460.000
213.59	450.000
213.97	230.000
214.34	666.667
214.72	-333.333
215.09	225.000
215.47	0.000
215.84	-228.571
216.22	-850.000
216.59	300.000
216.97	260.000
217.34	450.000
217.72	87.500
218.09	350.000
218.47	375.000
218.84	0.000
219.22	-400.000
219.59	182.353
219.97	135.000
220.34	-650.000
220.72	211.111
221.09	161.538
221.47	900.000
221.84	130.000
222.22	28.571
222.59	0.000
222.97	337.500
223.34	220.000
223.72	2100.000
224.09	375.000
224.46	175.000
224.84	320.000
225.21	185.714
225.59	225.000
225.96	525.000
226.34	61.538
226.71	-133.333
227.08	900.000
227.46	173.333
227.83	250.000
228.21	157.895
228.58	-62.500
228.95	-700.000
229.33	150.000
229.70	140.000
230.08	189.474
230.45	-150.000
230.82	566.667
231.20	185.714
231.57	175.000
231.95	172.727
232.32	200.000
232.69	155.000
233.07	375.000
233.44	123.529
233.81	140.000
234.19	94.444
234.56	127.273
234.93	79.310
235.31	110.526
235.68	138.889
236.05	35.000
236.43	88.462
236.80	152.000
237.17	118.519
237.55	66.667
237.92	150.000
238.29	83.871
238.67	38.636
239.04	36.111
239.41	59.524
239.79	56.522
240.16	22.222
240.53	34.783
240.91	35.294
241.28	42.623
241.65	52.239
242.02	47.297
242.40	44.615
242.77	33.333
243.14	28.049
243.51	18.421
243.89	25.641
244.26	18.812
244.63	36.275
245.00	27.103
245.38	27.193
245.75	15.929
246.12	37.302
246.49	27.907
246.87	30.714
247.24	29.139
247.61	25.000
247.98	28.188
248.36	21.605
248.73	19.632
249.10	22.404
249.47	29.353
249.84	29.319
250.22	18.135
250.59	26.667
250.96	25.909
251.33	21.429
251.70	22.222
252.08	21.250
252.45	19.262
252.82	18.595
253.19	16.016
253.56	21.673
253.94	18.077
254.31	20.833
254.68	23.077
255.05	20.847
255.42	17.687
255.79	17.152
256.16	14.570
256.54	19.536
256.91	18.033
257.28	19.016
257.65	17.834
258.02	16.519
258.39	17.379
258.76	18.349
259.14	19.540
259.51	18.444
259.88	16.147
260.25	17.222
260.62	16.986
260.99	17.486
261.36	21.716
261.73	16.711
262.10	17.033
262.47	16.354
262.85	20.960
263.22	14.545
263.59	13.421
263.96	18.159
264.33	16.113
264.70	14.568
265.07	19.332
265.44	21.995
265.81	17.361
266.18	19.048
266.55	14.509
266.92	15.490
267.29	17.943
267.66	17.960
268.03	18.559
268.40	18.163
268.77	13.440
269.14	14.978
269.51	16.228
269.88	17.828
270.25	16.298
270.62	16.034
270.99	16.364
271.36	14.257
271.73	15.914
272.10	16.834
272.47	15.030
272.84	17.269
273.21	17.635
273.58	16.331
273.95	16.538
274.32	12.167
274.69	14.700
275.06	18.315
275.43	13.863
275.80	16.755
276.17	11.481
276.54	14.552
276.91	12.880
277.28	14.467
277.65	16.697
278.02	15.257
278.39	15.942
278.76	13.357
279.13	13.652
279.50	14.948
279.87	17.889
280.23	13.028
280.60	14.407
280.97	17.270
281.34	14.941
281.71	17.766
282.08	14.950
282.45	12.602
282.82	14.286
283.19	12.116
283.56	13.934
283.92	14.715
284.29	18.483
284.66	15.271
285.03	11.378
285.40	15.456
285.77	13.467
286.14	16.031
286.51	12.938
286.87	13.902
287.24	15.361
287.61	14.649
287.98	14.653
288.35	14.645
288.72	14.053
289.08	13.324
289.45	13.905
289.82	14.307
290.19	14.224
290.56	15.493
290.93	14.836
291.29	12.810
291.66	13.774
292.03	14.111
292.40	13.878
292.77	12.264
293.13	14.073
293.50	12.878
293.87	11.678
294.24	14.800
294.60	14.539
294.97	11.544
295.34	15.109
295.71	12.484
296.08	14.341
296.44	13.725
296.81	14.373
297.18	13.200
297.55	13.208
297.91	14.235
298.28	14.218
298.65	13.793
299.02	14.876
299.38	14.073
299.75	14.603
300.12	13.773
300.48	14.055
300.85	14.286
301.22	14.318
301.59	15.068
301.95	14.463
302.32	15.000
302.69	13.582
303.05	14.146
303.42	15.854
303.79	14.896
304.15	14.721
304.52	14.165
304.89	14.974
305.25	14.907
305.62	15.674
305.99	15.155
306.35	15.323
306.72	15.098
307.09	14.924
307.45	16.149
307.82	14.632
308.19	15.742
308.55	15.911
308.92	15.969
309.29	15.900
309.65	16.179
310.02	16.733
310.38	15.354
310.75	17.961
311.12	17.450
311.48	16.618
311.85	17.759
312.22	18.596
312.58	19.155
312.95	18.929
313.31	18.880
313.68	19.322
314.05	19.061
314.41	20.947
314.78	20.254
315.14	20.054
315.51	19.021
315.87	19.982
316.24	21.461
316.61	21.758
316.97	21.448
317.34	21.076
317.70	22.271
318.07	22.751
318.43	22.449
318.80	23.328
319.16	22.489
319.53	22.708
319.89	22.436
320.26	23.577
320.62	23.493
320.99	23.730
321.35	25.139
321.72	24.837
322.08	24.256
322.45	24.752
322.81	24.458
323.18	24.867
323.54	25.086
323.91	26.779
324.27	25.731
324.64	26.448
325.00	24.876
325.37	26.536
325.73	26.364
326.10	26.196
326.46	27.687
326.83	27.622
327.19	27.559
327.56	28.538
327.92	27.223
328.29	27.742
328.65	27.722
329.01	27.157
329.38	29.149
329.74	28.425
330.11	30.394
330.47	28.728
330.84	29.113
331.20	29.500
331.56	29.463
331.93	30.293
332.29	30.593
332.66	29.900
333.02	30.067
333.38	30.705
333.75	29.377
334.11	29.274
334.48	29.373
334.84	30.586
335.20	29.135
335.57	31.366
335.93	30.165
336.29	30.699
336.66	29.437
337.02	30.435
337.38	30.442
337.75	30.579
338.11	31.287
338.47	30.687
338.84	29.949
339.20	30.076
339.56	29.984
339.93	30.870
340.29	30.757
340.65	30.170
341.02	30.567
341.38	30.881
341.74	30.912
342.11	30.169
342.47	28.753
342.83	30.032
343.20	30.826
343.56	30.393
343.92	30.344
344.28	31.328
344.65	30.698
345.01	30.343
345.37	30.171
345.73	30.008
346.10	30.343
346.46	30.854
346.82	29.588
347.19	30.634
347.55	31.108
347.91	29.792
348.27	29.970
348.63	29.931
349.00	30.127
349.36	30.781
349.72	30.208
350.08	30.832
350.45	30.342
350.81	30.468
351.17	30.226
351.53	30.857
351.89	30.600
352.26	30.373
352.62	28.284
352.98	29.542
353.34	29.798
353.70	31.510
354.07	29.881
354.43	31.131
354.79	31.114
355.15	30.316
355.51	30.775
355.87	29.768
356.24	31.027
356.60	29.564
356.96	30.615
357.32	29.963
357.68	30.893
358.04	30.090
358.40	30.224
358.77	30.409
359.13	29.911
359.49	29.814
359.85	30.674
360.21	30.344
360.57	30.223
360.93	30.536
361.29	29.895
361.66	31.571
362.02	30.898
362.38	31.202
362.74	31.145
363.10	30.536
363.46	31.510
363.82	31.676
364.18	31.457
364.54	31.604
364.90	31.572
365.26	31.586
365.62	31.200
365.98	31.995
366.35	32.215
366.71	31.837
367.07	31.597
367.43	30.794
367.79	32.449
368.15	33.311
368.51	31.935
368.87	32.005
369.23	33.000
369.59	32.923
369.95	33.130
370.31	33.288
370.67	32.875
371.03	32.341
371.39	32.975
371.75	33.219
372.11	33.266
372.47	32.634
372.83	33.377
373.19	32.755
373.55	33.266
373.91	32.856
374.27	33.441
374.63	34.100
374.99	34.483
375.35	33.571
375.71	34.194
376.07	33.764
376.42	33.942
376.78	34.307
377.14	34.685
377.50	35.168
377.86	34.914
378.22	34.910
378.58	33.888
378.94	35.739
379.30	35.091
379.66	34.979
380.02	35.488
380.38	35.714
380.74	35.718
381.09	36.411
381.45	35.682
381.81	36.944
382.17	36.283
382.53	37.018
382.89	36.682
383.25	36.460
383.61	36.806
383.97	37.397
384.32	38.696
384.68	37.645
385.04	37.999
385.40	38.539
385.76	38.218
386.12	37.522
386.48	37.941
386.83	38.617
387.19	39.166
387.55	38.967
387.91	39.783
388.27	38.741
388.62	39.633
388.98	38.973
389.34	40.189
389.70	39.977
390.06	39.668
390.42	38.916
390.77	40.397
391.13	40.317
391.49	40.519
391.85	39.697
392.20	40.747
392.56	40.756
392.92	40.949
393.28	40.520
393.64	40.223
393.99	40.906
394.35	40.479
394.71	40.719
395.07	40.838
395.42	41.291
395.78	42.169
396.14	40.998
396.50	41.627
396.85	40.787
397.21	41.538
397.57	41.225
397.92	41.810
398.28	40.087
398.64	41.362
399.00	39.843
399.35	40.471
399.71	40.870
400.07	40.820
400.42	40.978
400.78	42.014
401.14	41.491
401.49	42.013
401.85	42.558
402.21	42.410
402.57	42.430
402.92	42.139
403.28	42.213
403.63	41.289
403.99	41.805
404.35	40.591
404.70	40.907
405.06	40.978
405.42	42.272
405.77	42.312
406.13	41.491
406.49	41.667
406.84	41.219
407.20	41.420
407.55	41.248
407.91	42.112
408.27	41.166
408.62	42.118
408.98	40.743
409.34	41.642
409.69	42.336
410.05	41.208
410.40	42.053
410.76	40.998
411.11	42.431
411.47	43.243
411.83	42.798
412.18	42.530
412.54	41.968
412.89	41.735
413.25	42.438
413.60	41.470
413.96	42.657
414.31	42.096
414.67	42.099
415.03	42.769
415.38	43.443
415.74	42.028
416.09	42.936
416.45	42.455
416.80	41.738
417.16	42.912
417.51	42.092
417.87	43.164
418.22	43.473
418.58	42.689
418.93	44.121
419.29	43.218
419.64	43.277
420.00	43.620
420.35	43.964
420.71	43.653
421.06	43.531
421.42	43.750
421.77	42.757
422.12	42.970
422.48	44.700
422.83	45.071
423.19	42.706
423.54	44.414
423.90	43.898
424.25	44.587
424.61	44.834
424.96	44.426
425.31	44.904
425.67	44.283
426.02	45.490
426.38	45.695
426.73	44.475
427.09	46.424
427.44	45.603
427.79	46.490
428.15	45.320
428.50	45.169
428.85	45.235
429.21	46.543
429.56	45.607
429.92	46.044
430.27	46.940
430.62	45.725
430.98	45.942
431.33	46.725
431.68	46.695
432.04	46.724
432.39	46.760
432.74	46.861
433.10	48.296
433.45	47.269
433.80	47.425
434.16	47.882
434.51	47.688
434.86	48.697
435.22	47.928
435.57	49.351
435.92	48.136
436.28	49.261
436.63	48.935
436.98	47.611
437.34	48.253
437.69	48.762
438.04	48.599
438.39	49.339
438.75	48.478
439.10	49.630
439.45	48.742
439.81	49.266
440.16	49.062
440.51	50.669
440.86	48.416
441.22	49.357
441.57	51.310
441.92	49.321
442.27	50.606
442.63	49.578
442.98	51.441
443.33	51.447
443.68	51.586
444.03	51.129
444.39	50.624
444.74	50.587
445.09	49.823
445.44	51.317
445.79	51.772
446.15	52.107
446.50	51.783
446.85	51.848
447.20	50.822
447.55	51.987
447.91	51.780
448.26	52.484
448.61	52.338
448.96	52.897
449.31	52.068
449.66	52.887
450.02	51.582
450.37	52.531
450.72	52.799
451.07	52.733
451.42	52.744
451.77	53.252
452.12	53.725
452.47	51.812
452.83	54.279
453.18	52.656
453.53	53.073
453.88	52.954
454.23	53.390
454.58	54.034
454.93	53.883
455.28	53.582
455.63	54.633
455.98	54.246
456.34	54.594
456.69	54.321
457.04	54.137
457.39	54.601
457.74	55.649
458.09	53.432
458.44	53.825
458.79	53.997
459.14	55.218
459.49	55.857
459.84	54.984
460.19	53.581
460.54	55.821
460.89	54.156
461.24	54.483
461.59	55.506
461.94	54.193
462.29	56.607
462.64	55.039
462.99	55.242
463.34	55.159
463.69	54.689
464.04	56.865
464.39	55.493
464.74	55.188
465.09	56.344
465.44	55.472
465.79	56.795
466.14	54.664
466.49	55.263
466.84	55.868
467.19	56.127
467.54	55.523
467.89	55.000
468.24	56.011
468.59	56.630
468.94	55.478
469.29	55.249
469.64	56.262
469.99	58.190
470.34	57.178
470.68	57.690
471.03	57.564
471.38	57.358
471.73	57.282
472.08	56.472
472.43	56.231
472.78	56.801
473.13	58.344
473.48	58.308
473.83	58.328
474.17	57.093
474.52	57.968
474.87	57.697
475.22	58.592
475.57	58.255
475.92	57.840
476.27	57.614
476.61	57.217
476.96	57.873
477.31	57.475
477.66	58.972
478.01	57.905
478.36	57.627
478.70	58.867
479.05	59.458
479.40	58.736
479.75	58.165
480.10	58.835
480.45	57.840
480.79	58.957
481.14	58.410
481.49	58.519
481.84	58.442
482.19	57.935
482.53	58.330
482.88	59.459
483.23	59.404
483.58	58.821
483.92	58.511
484.27	58.594
484.62	58.498
484.97	58.398
485.31	59.521
485.66	58.898
486.01	56.934
486.36	56.681
486.70	56.374
487.05	56.696
487.40	56.095
487.75	57.099
488.09	57.537
488.44	58.138
488.79	58.820
489.13	58.726
489.48	59.146
489.83	58.712
490.17	58.485
490.52	58.456
490.87	60.110
491.22	58.925
491.56	59.642
491.91	60.488
492.26	59.887
492.60	59.641
492.95	59.675
493.30	61.183
493.64	61.629
493.99	59.211
494.34	60.148
494.68	59.829
495.03	60.220
495.37	60.763
495.72	60.272
496.07	60.780
496.41	60.275
496.76	60.467
497.11	61.401
497.45	59.948
497.80	60.506
498.14	60.952
498.49	61.489
498.84	62.020
499.18	61.359
499.53	62.018
499.87	61.934
500.22	60.641
500.56	61.179
500.91	61.968
501.26	62.545
501.60	61.511
501.95	61.442
502.29	60.904
502.64	62.659
502.98	60.915
503.33	60.216
503.67	61.273
504.02	61.778
504.36	62.779
504.71	62.793
505.06	62.028
505.40	62.569
505.75	61.703
506.09	63.168
506.44	63.417
506.78	63.991
507.13	63.163
507.47	62.672
507.82	63.258
508.16	62.763
508.51	63.057
508.85	63.439
509.19	63.951
509.54	64.265
509.88	64.400
510.23	65.080
510.57	64.959
510.92	64.490
511.26	63.829
511.61	63.351
511.95	63.934
512.30	63.516
512.64	63.718
512.98	63.882
513.33	64.365
513.67	65.630
514.02	65.764
514.36	64.962
514.70	66.302
515.05	65.902
515.39	64.724
515.74	66.013
516.08	64.606
516.42	66.091
516.77	65.142
517.11	64.982
517.46	65.748
517.80	66.221
518.14	67.519
518.49	66.215
518.83	64.715
519.17	65.913
519.52	66.090
519.86	65.734
520.20	65.921
520.55	66.484
520.89	66.498
521.23	66.220
521.58	67.910
521.92	66.629
522.26	65.922
522.61	67.940
522.95	66.782
523.29	67.011
523.64	66.368
523.98	66.914
524.32	69.112
524.66	67.558
525.01	65.572
525.35	65.824
525.69	66.705
526.04	65.499
526.38	67.529
526.72	66.724
527.06	67.801
527.41	67.580
527.75	67.755
528.09	68.123
528.43	66.903
528.78	66.243
529.12	67.259
529.46	66.161
529.80	66.991
530.15	66.957
530.49	67.972
530.83	67.887
531.17	68.100
531.51	67.449
531.86	68.089
532.20	67.805
532.54	66.068
532.88	67.636
533.22	66.293
533.57	66.301
533.91	66.274
534.25	66.478
534.59	68.506
534.93	67.289
535.27	66.479
535.62	67.027
535.96	67.170
536.30	66.804
536.64	67.688
536.98	68.081
537.32	67.901
537.66	68.060
538.01	66.103
538.35	65.469
538.69	66.647
539.03	67.566
539.37	66.196
539.71	66.907
540.05	68.046
540.39	65.892
540.73	68.852
541.07	68.056
541.42	65.682
541.76	66.489
542.10	67.008
542.44	66.809
542.78	67.275
543.12	66.627
543.46	66.239
543.80	64.988
544.14	67.504
544.48	66.076
544.82	67.624
545.16	65.832
545.50	67.106
545.84	67.055
546.18	66.975
546.52	66.433
546.86	68.553
547.20	67.875
547.54	66.355
547.88	66.486
548.22	66.374
548.56	67.876
548.90	68.299
549.24	67.416
549.58	66.751
549.92	68.686
550.26	67.573
550.60	67.645
550.94	67.012
551.28	67.195
551.62	67.722
551.96	66.084
552.30	67.941
552.64	68.699
552.98	68.122
553.32	68.682
553.66	68.810
554.00	68.222
554.34	67.117
554.68	66.882
555.02	67.674
555.36	68.508
555.69	66.688
556.03	69.105
556.37	67.522
556.71	67.533
557.05	67.796
557.39	68.348
557.73	69.947
558.07	68.278
558.41	68.638
558.75	67.884
559.08	69.381
559.42	69.136
559.76	68.589
560.10	68.118
560.44	67.942
560.78	69.000
561.12	68.781
561.45	70.195
561.79	67.277
562.13	68.392
562.47	67.448
562.81	68.038
563.15	68.434
563.48	67.557
563.82	67.533
564.16	68.565
564.50	66.687
564.84	67.139
565.17	68.471
565.51	65.880
565.85	68.171
566.19	66.014
566.52	67.934
566.86	67.233
567.20	65.362
567.54	66.968
567.88	66.208
568.21	66.947
568.55	66.859
568.89	66.228
569.23	64.385
569.56	65.533
569.90	64.291
570.24	64.283
570.57	63.951
570.91	62.584
571.25	62.453
571.59	63.596
571.92	62.713
572.26	62.176
572.60	61.916
572.93	62.149
573.27	62.152
573.61	61.832
573.95	61.568
574.28	61.504
574.62	62.028
574.96	61.756
575.29	61.247
575.63	61.700
575.97	61.749
576.30	60.992
576.64	62.205
576.98	61.959
577.31	61.783
577.65	62.361
577.98	61.295
578.32	60.857
578.66	60.121
578.99	61.212
579.33	61.205
579.67	61.695
580.00	60.620
580.34	61.715
580.67	62.070
581.01	62.159
581.35	60.939
581.68	61.313
582.02	61.466
582.35	61.575
582.69	62.436
583.02	61.260
583.36	61.676
583.70	61.963
584.03	61.531
584.37	62.404
584.70	61.516
585.04	61.218
585.37	62.307
585.71	61.359
586.04	61.537
586.38	62.372
586.72	62.046
587.05	62.932
587.39	61.755
587.72	62.727
588.06	62.452
588.39	62.609
588.73	62.354
589.06	63.403
589.40	63.706
589.73	63.560
590.07	63.229
590.40	63.320
590.73	63.344
591.07	64.594
591.40	63.569
591.74	63.672
592.07	64.596
592.41	63.446
592.74	63.117
593.08	64.140
593.41	63.488
593.75	63.420
594.08	62.193
594.41	63.878
594.75	62.770
595.08	62.853
595.42	63.766
595.75	63.287
596.09	63.911
596.42	64.636
596.75	64.184
597.09	65.091
597.42	64.005
597.75	63.348
598.09	63.452
598.42	63.651
598.76	63.775
599.09	63.368
599.42	62.420
599.76	62.067
600.09	63.163
600.42	63.397
600.76	63.045
601.09	62.131
601.42	62.444
601.76	63.621
602.09	63.367
602.42	62.923
602.76	62.435
603.09	63.216
603.42	63.728
603.76	63.425
604.09	63.307
604.42	63.046
604.76	62.785
605.09	64.180
605.42	62.998
605.75	63.038
606.09	63.531
606.42	63.480
606.75	62.331
607.09	62.212
607.42	63.699
607.75	63.540
608.08	63.102
608.42	62.676
608.75	63.101
609.08	63.200
609.41	64.270
609.75	63.304
610.08	64.072
610.41	64.316
610.74	63.697
611.07	63.277
611.41	63.184
611.74	64.388
612.07	64.984
612.40	63.688
612.73	64.059
613.07	64.010
613.40	63.619
613.73	62.831
614.06	64.573
614.39	63.994
614.72	62.688
615.06	62.897
615.39	63.799
615.72	63.602
616.05	64.400
616.38	64.581
616.71	64.211
617.05	61.821
617.38	63.724
617.71	64.741
618.04	63.788
618.37	66.066
618.70	64.932
619.03	65.591
619.36	65.290
619.69	66.047
620.03	66.227
620.36	64.479
620.69	65.885
621.02	65.551
621.35	67.417
621.68	67.028
622.01	64.555
622.34	65.830
622.67	65.911
623.00	64.980
623.33	66.158
623.66	67.639
623.99	65.109
624.32	67.251
624.65	63.835
624.99	66.580
625.32	64.925
625.65	66.352
625.98	63.661
626.31	66.619
626.64	66.081
626.97	67.442
627.30	67.426
627.63	65.191
627.96	66.892
628.29	67.082
628.62	66.499
628.95	67.485
629.28	65.930
629.61	66.919
629.94	65.858
630.26	66.017
630.59	65.889
630.92	66.926
631.25	68.068
631.58	67.985
631.91	68.041
632.24	68.300
632.57	68.121
632.90	68.205
633.23	67.857
633.56	66.837
633.89	67.769
634.22	70.270
634.55	69.102
634.88	69.913
635.20	69.214
635.53	70.960
635.86	67.822
636.19	68.399
636.52	68.882
636.85	67.416
637.18	66.008
637.51	68.172
637.83	67.996
638.16	69.470
638.49	69.366
638.82	69.222
639.15	68.156
639.48	71.132
639.81	68.245
640.13	67.727
640.46	68.727
640.79	67.279
641.12	71.429
641.45	69.134
641.77	73.813
642.10	68.635
642.43	70.479
642.76	70.325
643.09	72.055
643.41	71.008
643.74	70.759
644.07	69.931
644.40	69.448
644.73	69.666
645.05	70.631
645.38	71.079
645.71	70.528
646.04	70.301
646.36	68.029
646.69	69.939
647.02	70.183
647.35	69.771
647.67	73.108
648.00	73.885
648.33	69.970
648.66	68.331
648.98	68.980
649.31	69.418
649.64	68.127
649.96	67.109
650.29	67.177
650.62	69.307
650.94	68.168
651.27	66.018
651.60	67.544
651.92	69.757
652.25	68.886
652.58	66.850
652.90	68.314
653.23	69.155
653.56	66.334
653.88	67.275
654.21	68.310
654.54	65.318
654.86	69.405
655.19	63.363
655.52	58.500
655.84	51.906
656.17	65.663
656.49	91.945
656.82	100.008
657.15	81.429
657.47	59.342
657.80	43.740
658.13	34.458
658.45	45.570
658.78	55.343
659.10	55.621
659.43	56.224
659.75	59.546
660.08	59.496
660.41	63.275
660.73	64.424
661.06	69.897
661.38	66.826
661.71	71.034
662.03	68.430
662.36	68.336
662.68	68.856
663.01	67.257
663.33	71.078
663.66	71.062
663.98	70.192
664.31	70.732
664.63	68.786
664.96	67.877
665.28	67.332
665.61	69.755
665.93	65.357
666.26	67.921
666.58	66.421
666.91	69.907
667.23	71.619
667.56	68.836
667.88	71.000
668.21	70.508
668.53	67.181
668.86	70.727
669.18	70.876
669.50	67.594
669.83	66.400
670.15	67.520
670.48	70.635
670.80	67.113
671.13	67.486
671.45	68.898
671.77	69.115
672.10	63.333
672.42	63.430
672.75	63.748
673.07	64.030
673.39	64.099
673.72	68.960
674.04	65.000
674.37	64.222
674.69	63.668
675.01	69.333
675.34	67.939
675.66	65.169
675.98	66.604
676.31	69.531
676.63	64.259
676.95	67.816
677.28	65.323
677.60	64.370
677.92	66.795
678.25	64.899
678.57	68.149
678.89	67.235
679.22	63.937
679.54	62.564
679.86	62.542
680.18	61.692
680.51	61.478
680.83	61.538
681.15	65.172
681.48	64.594
681.80	64.421
682.12	64.685
682.44	64.942
682.77	63.830
683.09	66.856
683.41	66.473
683.73	63.947
684.06	64.207
684.38	62.075
684.70	65.889
685.02	65.921
685.34	61.897
685.67	61.356
685.99	61.963
686.31	60.756
686.63	61.611
686.96	60.095
687.28	63.029
687.60	63.805
687.92	60.450
688.24	61.770
688.56	62.241
688.89	63.521
689.21	64.188
689.53	60.980
689.85	65.089
690.17	64.259
690.49	64.940
690.82	63.168
691.14	61.741
691.46	61.568
691.78	64.641
692.10	62.385
692.42	60.179
692.74	59.891
693.06	58.704
693.39	63.947
693.71	63.910
694.03	62.825
694.35	60.762
694.67	60.986
694.99	63.617
695.31	60.044
695.63	61.688
695.95	63.354
696.27	64.615
696.59	64.381
696.91	61.261
697.23	65.934
697.56	64.358
697.88	60.606
698.20	61.205
698.52	65.530
698.84	62.786
699.16	64.286
699.48	63.180
699.80	62.128
700.12	62.009
700.44	64.977
700.76	63.895
701.08	63.923
701.40	67.098
701.72	60.945
702.04	68.984
702.36	65.707
702.68	65.526
703.00	63.814
703.32	65.271
703.64	64.792
703.96	61.814
704.28	62.408
704.60	64.557
704.91	63.776
705.23	62.192
705.55	64.345
705.87	65.758
706.19	69.939
706.51	65.663
706.83	61.671
707.15	63.757
707.47	60.280
707.79	58.079
708.11	57.839
708.43	61.290
708.74	62.054
709.06	60.325
709.38	63.146
709.70	62.531
710.02	59.432
710.34	63.298
710.66	63.687
710.98	64.208
711.29	60.989
711.61	62.712
711.93	66.097
712.25	60.541
712.57	66.372
712.89	67.353
713.20	56.805
713.52	65.029
713.84	62.117
714.16	58.158
714.48	58.505
714.80	59.740
715.11	60.105
715.43	62.334
715.75	62.368
716.07	58.011
716.39	57.923
716.70	65.663
717.02	67.541
717.34	61.324
717.66	62.752
717.97	63.014
718.29	63.574
718.61	60.526
718.93	62.783
719.24	61.180
719.56	59.509
719.88	60.661
720.20	61.613
720.51	61.801
720.83	57.500
721.15	59.211
721.46	61.644
721.78	59.667
722.10	59.871
722.42	57.047
722.73	56.129
723.05	62.456
723.37	60.764
723.68	63.082
724.00	63.538
724.32	55.986
724.63	60.140
724.95	59.220
725.27	63.415
725.58	61.131
725.90	59.310
726.22	57.994
726.53	62.987
726.85	61.006
727.16	57.402
727.48	59.327
727.80	60.927
728.11	60.424
728.43	61.279
728.74	58.194
729.06	62.583
729.38	53.896
729.69	61.409
730.01	55.655
730.32	50.303
730.64	58.805
730.96	58.075
731.27	59.218
731.59	53.297
731.90	51.948
732.22	52.083
732.53	54.420
732.85	57.143
733.16	58.358
733.48	59.756
733.80	53.203
734.11	56.695
734.43	58.108
734.74	54.684
735.06	56.281
735.37	56.757
735.69	56.486
736.00	60.169
736.32	54.447
736.63	52.222
736.95	53.448
737.26	57.273
737.58	59.091
737.89	58.824
738.21	58.716
738.52	55.410
738.83	60.751
739.15	58.511
739.46	57.143
739.78	59.202
740.09	53.009
740.41	55.977
740.72	60.333
741.04	59.871
741.35	56.140
741.66	57.255
741.98	61.066
742.29	58.159
742.61	67.105
742.92	61.154
743.23	58.845
743.55	54.651
743.86	60.000
744.18	57.438
744.49	54.852
744.80	60.082
745.12	62.025
745.43	60.163
745.74	59.914
746.06	60.169
746.37	63.291
746.68	60.163
747.00	57.083
747.31	57.940
747.62	59.615
747.94	56.275
748.25	57.430
748.56	60.000
748.88	56.410
749.19	59.914
749.50	58.874
749.82	65.462
750.13	58.719
750.44	54.000
750.75	53.231
751.07	57.231
751.38	52.050
751.69	54.633
752.01	56.311
752.32	57.843
752.63	56.122
752.94	54.671
753.26	58.736
753.57	56.296
753.88	59.925
754.19	53.376
754.51	53.376
754.82	54.341
755.13	57.705
755.44	54.949
755.75	53.618
756.07	51.940
756.38	51.887
756.69	52.410
757.00	50.416
757.31	52.459
757.63	47.826
757.94	50.939
758.25	49.210
758.56	49.673
758.87	49.318
759.18	50.400
759.50	53.824
759.81	49.020
760.12	50.943
760.43	50.521
760.74	52.956
761.05	50.250
761.36	49.880
761.67	49.746
761.99	49.730
762.30	52.134
762.61	49.835
762.92	54.851
763.23	58.427
763.54	49.281
763.85	51.546
764.16	56.902
764.47	54.930
764.78	51.757
765.10	49.267
765.41	48.974
765.72	49.471
766.03	51.977
766.34	48.903
766.65	49.477
766.96	54.582
767.27	57.604
767.58	53.731
767.89	57.692
768.20	54.930
768.51	49.537
768.82	56.225
769.13	55.682
769.44	51.923
769.75	50.181
770.06	52.308
770.37	57.480
770.68	51.915
770.99	49.798
771.30	55.556
771.61	55.513
771.92	50.000
772.23	59.514
772.54	51.852
772.85	61.751
773.16	57.143
773.47	54.497
773.78	54.054
774.09	59.659
774.39	57.000
774.70	57.377
775.01	54.268
775.32	50.588
775.63	50.307
775.94	54.140
776.25	62.581
776.56	65.385
776.87	60.544
777.18	60.000
777.48	60.839
777.79	52.027
778.10	56.618
778.41	54.861
778.72	60.000
779.03	51.235
779.34	58.788
779.65	50.259
779.95	54.444
780.26	56.250
780.57	56.774
780.88	63.768
781.19	60.645
781.50	51.176
781.80	56.452
782.11	55.556
782.42	46.970
782.73	50.299
783.04	49.721
783.34	50.303
783.65	56.209
783.96	58.385
784.27	52.976
784.57	52.980
784.88	55.000
785.19	59.843
785.50	67.717
785.81	59.398
786.11	66.154
786.42	56.115
786.73	56.835
787.04	62.406
787.34	57.377
787.65	58.400
787.96	55.970
788.26	58.042
788.57	55.245
788.88	62.500
789.19	58.170
789.49	47.945
789.80	53.901
790.11	59.055
790.41	58.594
790.72	59.322
791.03	55.340
791.33	51.304
791.64	58.772
791.95	55.357
792.25	69.524
792.56	52.679
792.87	52.083
793.17	55.357
793.48	62.500
793.79	54.217
794.09	49.541
794.40	52.294
794.70	51.701
795.01	46.104
795.32	47.945
795.62	62.676
795.93	54.545
796.23	57.377
796.54	47.321
796.85	54.255
797.15	69.565
797.46	61.644
797.76	65.000
798.07	59.783
798.37	52.577
798.68	70.130
798.99	57.471
799.29	61.798
799.60	53.191
799.90	75.904
800.21	76.923
800.51	76.119
800.82	61.765
801.12	41.096
801.43	60.294
801.73	57.627
802.04	66.667
802.34	76.667
802.65	89.831
802.95	71.642
803.26	62.712
803.56	68.493
803.87	65.714
804.17	58.904
804.48	54.386
804.78	50.000
805.09	58.621
805.39	58.108
805.70	46.479
806.00	56.098
806.30	60.241
806.61	61.644
806.91	58.654
807.22	50.000
807.52	63.218
807.83	66.667
808.13	60.241
808.43	62.921
808.74	63.750
809.04	57.353
809.35	72.000
809.65	64.286
809.95	86.301
810.26	59.649
810.56	65.517
810.86	75.000
811.17	50.877
811.47	50.820
811.77	91.111
812.08	77.966
812.38	63.333
812.69	77.586
812.99	66.038
813.29	76.923
813.59	76.000
813.90	80.702
814.20	74.545
814.50	85.915
814.81	57.692
815.11	75.410
815.41	67.164
815.72	86.207
816.02	80.357
816.32	82.222
816.62	72.727
816.93	64.444
817.23	75.926
817.53	78.723
817.84	100.000
818.14	85.294
818.44	73.469
818.74	97.778
819.04	53.846
819.35	68.571
819.65	69.231
819.95	83.019
820.25	84.444
820.56	107.143
820.86	109.375
821.16	79.487
821.46	69.767
821.76	68.000
822.07	66.071
822.37	67.391
822.67	70.213
822.97	40.541
823.27	67.500
823.57	81.633
823.88	80.000
824.18	80.000
824.48	80.000
824.78	116.000
825.08	87.879
825.38	95.556
825.69	72.340
825.99	111.111
826.29	74.286
826.59	61.538
826.89	67.442
827.19	68.000
827.49	97.059
827.79	81.250
828.09	81.081
828.39	76.667
828.70	90.244
829.00	88.372
829.30	85.714
829.60	114.706
829.90	84.783
830.20	77.143
830.50	106.897
830.80	161.111
831.10	111.538
831.40	82.353
831.70	147.619
832.00	119.355
832.30	52.941
832.60	91.667
832.90	130.769
833.20	126.316
833.50	110.000
833.80	105.263
834.10	38.095
834.40	91.667
834.70	106.250
835.00	45.714
835.30	70.588
835.60	90.000
835.90	120.000
836.20	63.636
836.50	140.000
836.80	72.727
837.10	88.889
837.40	81.481
837.70	87.500
838.00	110.714
838.30	117.391
838.60	55.172
838.90	185.714
839.19	34.783
839.49	175.000
839.79	78.261
840.09	18.750
840.39	135.000
840.69	77.419
840.99	75.000
841.29	180.000
841.59	94.737
841.88	74.359
842.18	61.538
842.48	220.000
842.78	70.000
843.08	120.000
843.38	103.226
843.68	-5.556
843.97	97.059
844.27	118.750
844.57	100.000
844.87	190.000
845.17	160.000
845.47	95.238
845.76	95.238
846.06	188.889
846.36	111.765
846.66	88.462
846.96	100.000
847.25	141.176
847.55	113.043
847.85	95.000
848.15	152.941
848.44	136.364
848.74	133.333
849.04	87.500
849.34	112.500
849.63	91.304
849.93	-600.000
850.23	180.000
850.53	80.769
850.82	118.182
851.12	127.273
851.42	209.091
851.71	184.615
852.01	80.000
852.31	169.231
852.61	78.947
852.90	191.667
853.20	94.444
853.50	200.000
853.79	85.714
854.09	54.545
854.39	150.000
854.68	80.645
854.98	92.308
855.28	183.333
855.57	78.571
855.87	108.000
856.17	72.727
856.46	92.593
856.76	94.444
857.05	117.391
857.35	125.000
857.65	230.769
857.94	123.810
858.24	111.111
858.53	104.348
858.83	123.529
859.13	147.059
859.42	141.176
859.72	164.286
860.01	120.000
860.31	188.889
860.60	240.000
860.90	93.333
861.20	105.556
861.49	130.769
861.79	70.000
862.08	100.000
862.38	87.500
862.67	164.706
862.97	75.000
863.26	311.111
863.56	240.000
863.85	100.000
864.15	100.000
864.44	733.333
864.74	100.000
865.03	106.250
865.33	140.000
865.62	22.581
865.92	154.545
866.21	86.957
866.51	171.429
866.80	300.000
867.10	83.333
867.39	158.333
867.69	-700.000
867.98	357.143
868.27	164.706
868.57	900.000
868.86	160.000
869.16	114.286
869.45	100.000
869.75	200.000
870.04	300.000
870.33	158.333
870.63	28.571
870.92	375.000
871.22	137.500
871.51	163.636
871.80	433.333
872.10	900.000
>>>>>End Processed Spectral Data<<<<<
