SpectraSuite Data File
++++++++++++++++++++++++++++++++++++
Date: Thu May 14 14:55:55 PDT 2015
User: schluterlab
Dark Spectrum Present: Yes
Reference Spectrum Present: Yes
Number of Sampled Component Spectra: 1
Spectrometers: USB2E3373
Integration Time (usec): 3000 (USB2E3373)
Spectra Averaged: 3 (USB2E3373)
Boxcar Smoothing: 0 (USB2E3373)
Correct for Electrical Dark: No (USB2E3373)
Strobe/Lamp Enabled: No (USB2E3373)
Correct for Detector Non-linearity: No (USB2E3373)
Correct for Stray Light: No (USB2E3373)
Number of Pixels in Processed Spectrum: 2048
>>>>>Begin Processed Spectral Data<<<<<
178.53	0.000
178.91	285.714
179.29	-2900.000
179.67	-1700.000
180.04	271.429
180.42	170.000
180.80	360.000
181.18	-1300.000
181.56	-1200.000
181.94	425.000
182.31	-400.000
182.69	700.000
183.07	-650.000
183.45	400.000
183.83	-316.667
184.20	-466.667
184.58	1600.000
184.96	-600.000
185.34	-211.111
185.72	-160.000
186.09	166.667
186.47	1150.000
186.85	380.000
187.23	-266.667
187.61	-2800.000
187.98	300.000
188.36	475.000
188.74	-675.000
189.12	-533.333
189.49	-81.250
189.87	-237.500
190.25	-155.556
190.63	-400.000
191.00	-277.778
191.38	0.000
191.76	-575.000
192.14	-200.000
192.51	1250.000
192.89	-316.667
193.27	0.000
193.65	-257.143
194.02	-1800.000
194.40	-342.857
194.78	200.000
195.15	0.000
195.53	-100.000
195.91	0.000
196.29	-325.000
196.66	-130.769
197.04	-2600.000
197.42	-285.714
197.79	-950.000
198.17	-225.000
198.55	-271.429
198.92	-155.556
199.30	-200.000
199.68	-118.182
200.05	-71.429
200.43	-850.000
200.81	214.286
201.18	0.000
201.56	288.889
201.94	0.000
202.31	600.000
202.69	-200.000
203.07	1400.000
203.44	-144.444
203.82	-525.000
204.19	-116.667
204.57	-266.667
204.95	-162.500
205.32	-900.000
205.70	375.000
206.08	-333.333
206.45	-100.000
206.83	300.000
207.20	-83.333
207.58	-460.000
207.96	-300.000
208.33	-66.667
208.71	225.000
209.08	-183.333
209.46	0.000
209.84	383.333
210.21	800.000
210.59	550.000
210.96	866.667
211.34	-350.000
211.71	-200.000
212.09	-700.000
212.46	0.000
212.84	1200.000
213.22	-460.000
213.59	-575.000
213.97	-190.000
214.34	-800.000
214.72	316.667
215.09	-275.000
215.47	0.000
215.84	214.286
216.22	800.000
216.59	-240.000
216.97	-600.000
217.34	-475.000
217.72	-200.000
218.09	-550.000
218.47	-450.000
218.84	0.000
219.22	360.000
219.59	-17.647
219.97	-10.000
220.34	750.000
220.72	-200.000
221.09	-30.769
221.47	-666.667
221.84	-190.000
222.22	-228.571
222.59	0.000
222.97	-162.500
223.34	-340.000
223.72	-1400.000
224.09	-350.000
224.46	-200.000
224.84	-140.000
225.21	-285.714
225.59	-675.000
225.96	-500.000
226.34	-26.923
226.71	283.333
227.08	-750.000
227.46	-86.667
227.83	-425.000
228.21	-42.105
228.58	225.000
228.95	1350.000
229.33	-225.000
229.70	-130.000
230.08	-5.263
230.45	290.000
230.82	-833.333
231.20	-92.857
231.57	-141.667
231.95	-218.182
232.32	-118.182
232.69	-65.000
233.07	-275.000
233.44	-123.529
233.81	-170.000
234.19	-50.000
234.56	-40.909
234.93	-24.138
235.31	-89.474
235.68	-77.778
236.05	-55.000
236.43	-7.692
236.80	-24.000
237.17	-29.630
237.55	-27.273
237.92	-150.000
238.29	-32.258
238.67	-11.364
239.04	-41.667
239.41	-33.333
239.79	-21.739
240.16	-12.963
240.53	-17.391
240.91	-37.255
241.28	-14.754
241.65	16.418
242.02	8.108
242.40	-18.462
242.77	1.333
243.14	-14.634
243.51	-7.895
243.89	-12.821
244.26	7.921
244.63	1.961
245.00	1.869
245.38	4.386
245.75	-15.929
246.12	3.968
246.49	4.651
246.87	7.143
247.24	9.272
247.61	7.237
247.98	3.356
248.36	3.086
248.73	6.748
249.10	4.372
249.47	10.448
249.84	14.660
250.22	6.218
250.59	6.667
250.96	10.000
251.33	1.020
251.70	10.256
252.08	10.417
252.45	8.197
252.82	8.678
253.19	9.766
253.56	8.745
253.94	10.769
254.31	13.258
254.68	10.490
255.05	9.772
255.42	9.524
255.79	11.003
256.16	13.576
256.54	8.940
256.91	12.131
257.28	11.148
257.65	7.325
258.02	7.670
258.39	7.977
258.76	12.538
259.14	11.207
259.51	9.798
259.88	10.198
260.25	10.556
260.62	14.795
260.99	12.295
261.36	12.332
261.73	7.958
262.10	11.813
262.47	10.992
262.85	15.657
263.22	9.351
263.59	10.789
263.96	12.788
264.33	10.486
264.70	13.086
265.07	11.933
265.44	14.286
265.81	11.806
266.18	14.286
266.55	13.839
266.92	13.212
267.29	12.691
267.66	12.195
268.03	13.319
268.40	11.691
268.77	8.656
269.14	9.031
269.51	11.842
269.88	14.549
270.25	11.066
270.62	13.713
270.99	13.939
271.36	13.663
271.73	11.198
272.10	13.226
272.47	13.226
272.84	12.048
273.21	12.224
273.58	13.710
273.95	11.731
274.32	10.646
274.69	12.379
275.06	11.905
275.43	10.536
275.80	13.580
276.17	9.815
276.54	11.381
276.91	10.733
277.28	11.392
277.65	11.311
278.02	12.132
278.39	13.225
278.76	11.072
279.13	13.475
279.50	12.715
279.87	11.449
280.23	11.268
280.60	13.051
280.97	13.322
281.34	11.545
281.71	15.736
282.08	11.462
282.45	11.620
282.82	12.402
283.19	9.855
283.56	11.967
283.92	13.964
284.29	14.692
284.66	12.479
285.03	11.859
285.40	11.128
285.77	12.848
286.14	12.214
286.51	12.024
286.87	11.690
287.24	11.446
287.61	11.211
287.98	9.215
288.35	10.651
288.72	11.982
289.08	11.859
289.45	9.615
289.82	11.596
290.19	10.920
290.56	11.549
290.93	10.842
291.29	9.917
291.66	11.846
292.03	10.583
292.40	11.429
292.77	11.725
293.13	10.284
293.50	8.147
293.87	9.664
294.24	10.667
294.60	10.746
294.97	9.128
295.34	11.396
295.71	8.827
296.08	8.786
296.44	10.662
296.81	9.501
297.18	10.336
297.55	10.259
297.91	9.609
298.28	9.242
298.65	11.177
299.02	9.327
299.38	10.755
299.75	9.579
300.12	9.144
300.48	8.986
300.85	9.224
301.22	9.732
301.59	8.790
301.95	9.379
302.32	10.889
302.69	8.872
303.05	8.923
303.42	9.978
303.79	9.375
304.15	10.410
304.52	9.197
304.89	8.901
305.25	9.731
305.62	8.882
305.99	9.175
306.35	9.073
306.72	8.376
307.09	8.731
307.45	10.352
307.82	8.577
308.19	9.889
308.55	8.390
308.92	9.153
309.29	9.100
309.65	8.577
310.02	9.208
310.38	8.957
310.75	9.126
311.12	8.917
311.48	7.722
311.85	8.357
312.22	9.677
312.58	8.638
312.95	8.891
313.31	9.575
313.68	9.249
314.05	9.214
314.41	10.109
314.78	8.538
315.14	9.347
315.51	8.864
315.87	9.991
316.24	9.589
316.61	10.657
316.97	8.688
317.34	8.113
317.70	9.520
318.07	9.524
318.43	8.333
318.80	10.201
319.16	9.099
319.53	7.626
319.89	8.151
320.26	9.964
320.62	8.865
320.99	8.864
321.35	7.486
321.72	10.605
322.08	8.476
322.45	8.311
322.81	9.116
323.18	7.788
323.54	9.138
323.91	9.609
324.27	9.466
324.64	9.152
325.00	8.872
325.37	9.746
325.73	8.843
326.10	8.678
326.46	9.691
326.83	9.367
327.19	9.528
327.56	10.119
327.92	9.284
328.29	8.790
328.65	8.040
329.01	8.629
329.38	10.110
329.74	9.589
330.11	8.305
330.47	8.509
330.84	8.613
331.20	9.250
331.56	9.359
331.93	9.707
332.29	9.068
332.66	9.219
333.02	8.878
333.38	8.473
333.75	8.754
334.11	9.091
334.48	10.149
334.84	10.620
335.20	9.152
335.57	10.202
335.93	9.835
336.29	8.486
336.66	7.906
337.02	9.448
337.38	8.759
337.75	9.174
338.11	9.504
338.47	9.098
338.84	8.968
339.20	8.425
339.56	8.072
339.93	9.031
340.29	9.179
340.65	8.678
341.02	9.737
341.38	9.620
341.74	9.040
342.11	9.252
342.47	9.531
342.83	9.742
343.20	8.749
343.56	9.302
343.92	8.967
344.28	9.453
344.65	10.000
345.01	8.658
345.37	9.876
345.73	8.418
346.10	9.828
346.46	8.386
346.82	9.288
347.19	8.633
347.55	8.725
347.91	8.841
348.27	7.587
348.63	9.596
349.00	9.471
349.36	8.996
349.72	9.449
350.08	10.847
350.45	8.669
350.81	8.974
351.17	7.895
351.53	8.795
351.89	9.491
352.26	9.179
352.62	8.284
352.98	8.397
353.34	8.364
353.70	9.399
354.07	8.718
354.43	8.580
354.79	8.452
355.15	9.051
355.51	9.430
355.87	8.601
356.24	9.049
356.60	8.500
356.96	8.895
357.32	7.509
357.68	8.858
358.04	8.832
358.40	8.134
358.77	8.333
359.13	8.050
359.49	7.732
359.85	8.412
360.21	8.393
360.57	7.968
360.93	8.745
361.29	8.281
361.66	8.400
362.02	9.325
362.38	9.417
362.74	8.450
363.10	9.147
363.46	9.003
363.82	8.097
364.18	8.445
364.54	9.751
364.90	9.298
365.26	7.862
365.62	9.400
365.98	8.441
366.35	8.926
366.71	9.048
367.07	7.848
367.43	8.601
367.79	9.091
368.15	8.896
368.51	8.863
368.87	8.818
369.23	8.867
369.59	9.016
369.95	8.519
370.31	8.643
370.67	8.391
371.03	8.864
371.39	8.999
371.75	8.803
372.11	8.672
372.47	8.463
372.83	8.508
373.19	8.005
373.55	8.672
373.91	8.725
374.27	8.538
374.63	8.187
374.99	9.019
375.35	9.416
375.71	8.000
376.07	8.328
376.42	8.564
376.78	8.452
377.14	8.796
377.50	8.223
377.86	9.729
378.22	9.222
378.58	9.572
378.94	8.392
379.30	8.084
379.66	8.466
380.02	8.194
380.38	8.986
380.74	7.944
381.09	8.885
381.45	8.920
381.81	9.836
382.17	9.204
382.53	8.480
382.89	9.594
383.25	9.320
383.61	8.044
383.97	8.598
384.32	9.450
384.68	8.759
385.04	8.618
385.40	8.957
385.76	9.789
386.12	8.139
386.48	8.882
386.83	8.522
387.19	8.806
387.55	8.744
387.91	9.075
388.27	8.430
388.62	8.534
388.98	8.460
389.34	8.780
389.70	8.483
390.06	8.763
390.42	8.133
390.77	9.573
391.13	8.568
391.49	8.333
391.85	8.485
392.20	8.660
392.56	9.037
392.92	9.433
393.28	8.734
393.64	8.883
393.99	9.239
394.35	8.820
394.71	9.102
395.07	8.443
395.42	8.224
395.78	9.567
396.14	9.507
396.50	8.551
396.85	8.766
397.21	8.284
397.57	8.716
397.92	9.393
398.28	8.093
398.64	9.039
399.00	8.586
399.35	8.848
399.71	8.098
400.07	8.703
400.42	8.556
400.78	8.681
401.14	9.220
401.49	8.528
401.85	8.721
402.21	9.154
402.57	9.155
402.92	9.102
403.28	8.782
403.63	8.115
403.99	8.729
404.35	9.039
404.70	8.782
405.06	8.533
405.42	8.431
405.77	9.160
406.13	9.238
406.49	8.953
406.84	8.864
407.20	7.881
407.55	8.359
407.91	8.045
408.27	8.893
408.62	9.017
408.98	9.054
409.34	8.094
409.69	7.911
410.05	8.206
410.40	8.527
410.76	8.357
411.11	8.942
411.47	9.337
411.83	9.289
412.18	8.735
412.54	9.721
412.89	8.906
413.25	8.747
413.60	8.845
413.96	8.858
414.31	8.782
414.67	9.123
415.03	8.985
415.38	8.827
415.74	7.636
416.09	8.513
416.45	8.265
416.80	8.996
417.16	8.685
417.51	8.157
417.87	8.400
418.22	8.503
418.58	8.550
418.93	9.139
419.29	8.570
419.64	8.643
420.00	9.080
420.35	9.321
420.71	8.788
421.06	8.798
421.42	8.658
421.77	8.831
422.12	9.144
422.48	8.346
422.83	8.817
423.19	8.912
423.54	8.684
423.90	9.608
424.25	8.640
424.61	8.726
424.96	8.677
425.31	9.236
425.67	8.535
426.02	8.301
426.38	9.070
426.73	8.650
427.09	10.265
427.44	8.192
427.79	7.518
428.15	8.505
428.50	8.989
428.85	9.357
429.21	8.617
429.56	8.539
429.92	8.747
430.27	9.157
430.62	8.696
430.98	8.903
431.33	8.700
431.68	8.764
432.04	9.040
432.39	9.159
432.74	9.304
433.10	8.870
433.45	8.138
433.80	8.745
434.16	8.833
434.51	8.428
434.86	8.958
435.22	8.820
435.57	8.903
435.92	9.460
436.28	9.044
436.63	8.520
436.98	8.642
437.34	8.399
437.69	8.310
438.04	7.879
438.39	9.592
438.75	8.301
439.10	9.672
439.45	8.944
439.81	8.362
440.16	8.472
440.51	9.476
440.86	8.949
441.22	8.682
441.57	8.910
441.92	8.778
442.27	8.434
442.63	8.843
442.98	9.605
443.33	8.680
443.68	9.514
444.03	9.548
444.39	9.200
444.74	9.188
445.09	8.920
445.44	8.957
445.79	9.052
446.15	9.507
446.50	8.424
446.85	9.144
447.20	9.333
447.55	8.734
447.91	9.476
448.26	8.879
448.61	9.033
448.96	9.120
449.31	8.855
449.66	7.407
450.02	8.703
450.37	9.483
450.72	8.934
451.07	9.112
451.42	8.203
451.77	8.282
452.12	9.255
452.47	8.616
452.83	9.516
453.18	8.523
453.53	8.558
453.88	9.111
454.23	8.870
454.58	8.590
454.93	8.252
455.28	8.669
455.63	9.210
455.98	9.162
456.34	8.481
456.69	9.700
457.04	9.338
457.39	8.426
457.74	9.732
458.09	8.237
458.44	8.675
458.79	9.386
459.14	8.862
459.49	8.998
459.84	8.762
460.19	8.440
460.54	8.915
460.89	9.529
461.24	8.276
461.59	9.076
461.94	8.671
462.29	9.462
462.64	8.449
462.99	8.977
463.34	7.982
463.69	9.027
464.04	9.394
464.39	8.913
464.74	9.236
465.09	8.708
465.44	8.852
465.79	8.990
466.14	8.338
466.49	9.368
466.84	9.146
467.19	8.960
467.54	7.932
467.89	8.161
468.24	8.809
468.59	7.875
468.94	8.450
469.29	8.578
469.64	7.947
469.99	8.286
470.34	8.787
470.68	8.681
471.03	8.841
471.38	7.914
471.73	8.322
472.08	9.327
472.43	8.308
472.78	8.375
473.13	8.534
473.48	9.486
473.83	8.996
474.17	8.968
474.52	8.539
474.87	8.915
475.22	8.732
475.57	8.775
475.92	9.358
476.27	9.105
476.61	8.515
476.96	8.133
477.31	9.059
477.66	9.549
478.01	9.151
478.36	9.123
478.70	9.409
479.05	8.742
479.40	8.440
479.75	9.702
480.10	8.811
480.45	9.070
480.79	9.433
481.14	8.915
481.49	9.041
481.84	9.356
482.19	8.430
482.53	9.270
482.88	8.994
483.23	9.071
483.58	8.515
483.92	8.777
484.27	9.314
484.62	8.828
484.97	8.942
485.31	8.870
485.66	8.372
486.01	8.717
486.36	9.245
486.70	9.489
487.05	9.786
487.40	9.310
487.75	9.338
488.09	8.735
488.44	8.785
488.79	8.904
489.13	8.979
489.48	7.961
489.83	9.296
490.17	9.437
490.52	8.498
490.87	8.503
491.22	9.489
491.56	9.130
491.91	8.417
492.26	8.914
492.60	8.833
492.95	9.127
493.30	8.920
493.64	9.198
493.99	8.816
494.34	8.667
494.68	8.737
495.03	9.736
495.37	9.232
495.72	8.934
496.07	8.852
496.41	8.795
496.76	9.383
497.11	9.342
497.45	8.632
497.80	8.929
498.14	9.252
498.49	8.824
498.84	9.049
499.18	9.312
499.53	9.193
499.87	9.451
500.22	8.682
500.56	8.772
500.91	9.153
501.26	9.318
501.60	8.573
501.95	9.032
502.29	9.522
502.64	9.226
502.98	9.189
503.33	8.467
503.67	9.027
504.02	8.538
504.36	9.339
504.71	9.003
505.06	9.141
505.40	9.324
505.75	8.743
506.09	8.564
506.44	9.192
506.78	9.312
507.13	9.267
507.47	9.664
507.82	9.186
508.16	9.417
508.51	8.908
508.85	9.306
509.19	9.095
509.54	9.846
509.88	9.179
510.23	9.131
510.57	9.570
510.92	9.676
511.26	9.668
511.61	8.064
511.95	8.443
512.30	9.453
512.64	8.396
512.98	8.704
513.33	8.921
513.67	8.771
514.02	9.351
514.36	8.389
514.70	8.802
515.05	8.551
515.39	9.606
515.74	9.067
516.08	8.980
516.42	9.628
516.77	8.938
517.11	8.974
517.46	8.961
517.80	9.460
518.14	9.848
518.49	9.544
518.83	9.686
519.17	8.778
519.52	9.644
519.86	9.979
520.20	9.159
520.55	9.091
520.89	9.178
521.23	9.436
521.58	9.379
521.92	9.065
522.26	8.477
522.61	8.391
522.95	9.573
523.29	9.540
523.64	9.361
523.98	9.527
524.32	10.258
524.66	8.936
525.01	8.664
525.35	8.903
525.69	8.701
526.04	8.783
526.38	9.828
526.72	8.304
527.06	9.326
527.41	9.388
527.75	8.967
528.09	9.740
528.43	8.171
528.78	8.382
529.12	9.174
529.46	9.668
529.80	9.382
530.15	8.812
530.49	8.897
530.83	10.213
531.17	8.961
531.51	9.206
531.86	9.135
532.20	9.268
532.54	8.857
532.88	9.030
533.22	9.369
533.57	9.636
533.91	9.652
534.25	9.214
534.59	9.080
534.93	8.659
535.27	8.676
535.62	9.551
535.96	9.064
536.30	8.519
536.64	8.829
536.98	9.840
537.32	9.630
537.66	10.106
538.01	9.003
538.35	8.952
538.69	8.894
539.03	9.626
539.37	8.657
539.71	8.829
540.05	10.012
540.39	9.597
540.73	9.290
541.07	9.135
541.42	9.273
541.76	8.541
542.10	8.685
542.44	8.465
542.78	9.246
543.12	9.416
543.46	9.463
543.80	9.053
544.14	8.318
544.48	9.929
544.82	9.874
545.16	9.064
545.50	9.107
545.84	8.389
546.18	10.802
546.52	8.790
546.86	8.302
547.20	9.288
547.54	9.301
547.88	8.861
548.22	9.123
548.56	9.947
548.90	9.075
549.24	9.605
549.58	8.833
549.92	9.056
550.26	9.515
550.60	8.168
550.94	8.279
551.28	10.231
551.62	9.097
551.96	9.838
552.30	9.305
552.64	9.708
552.98	9.545
553.32	8.489
553.66	9.453
554.00	9.647
554.34	9.073
554.68	8.844
555.02	9.067
555.36	10.256
555.69	8.392
556.03	8.953
556.37	9.262
556.71	9.448
557.05	9.968
557.39	8.560
557.73	9.313
558.07	8.344
558.41	9.369
558.75	9.195
559.08	10.021
559.42	8.025
559.76	9.769
560.10	9.377
560.44	9.697
560.78	9.188
561.12	9.175
561.45	10.036
561.79	8.974
562.13	9.735
562.47	8.755
562.81	8.734
563.15	9.659
563.48	8.950
563.82	9.129
564.16	8.964
564.50	9.893
564.84	8.732
565.17	9.471
565.51	9.436
565.85	8.670
566.19	8.756
566.52	8.309
566.86	9.451
567.20	9.516
567.54	9.241
567.88	9.123
568.21	9.239
568.55	9.305
568.89	8.806
569.23	9.590
569.56	9.379
569.90	9.587
570.24	9.949
570.57	9.044
570.91	9.247
571.25	9.372
571.59	9.797
571.92	9.408
572.26	9.238
572.60	9.227
572.93	9.129
573.27	9.019
573.61	9.079
573.95	9.444
574.28	9.320
574.62	9.300
574.96	9.109
575.29	9.385
575.63	9.517
575.97	9.916
576.30	9.055
576.64	9.425
576.98	9.226
577.31	9.527
577.65	9.430
577.98	9.657
578.32	9.413
578.66	9.518
578.99	9.482
579.33	9.382
579.67	9.202
580.00	9.598
580.34	9.599
580.67	9.157
581.01	9.174
581.35	9.254
581.68	9.406
582.02	9.593
582.35	9.915
582.69	9.613
583.02	9.568
583.36	9.304
583.70	9.407
584.03	9.311
584.37	9.059
584.70	9.022
585.04	9.370
585.37	9.412
585.71	9.622
586.04	9.357
586.38	9.494
586.72	9.075
587.05	9.286
587.39	9.274
587.72	9.378
588.06	9.478
588.39	9.236
588.73	9.444
589.06	9.199
589.40	9.250
589.73	9.094
590.07	9.549
590.40	9.567
590.73	9.332
591.07	9.270
591.40	8.865
591.74	8.824
592.07	9.419
592.41	9.227
592.74	9.265
593.08	9.554
593.41	9.828
593.75	9.454
594.08	9.543
594.41	9.551
594.75	8.768
595.08	9.017
595.42	9.318
595.75	9.493
596.09	9.319
596.42	9.244
596.75	9.765
597.09	9.818
597.42	8.939
597.75	9.643
598.09	9.683
598.42	9.610
598.76	9.094
599.09	9.185
599.42	9.219
599.76	9.475
600.09	9.510
600.42	9.309
600.76	9.214
601.09	9.625
601.42	9.543
601.76	9.586
602.09	9.149
602.42	8.760
602.76	9.483
603.09	8.774
603.42	9.212
603.76	9.302
604.09	10.220
604.42	9.211
604.76	9.209
605.09	8.935
605.42	9.649
605.75	9.346
606.09	8.996
606.42	8.865
606.75	8.883
607.09	8.564
607.42	9.326
607.75	9.691
608.08	9.234
608.42	9.270
608.75	9.826
609.08	9.126
609.41	9.307
609.75	8.705
610.08	9.015
610.41	9.091
610.74	9.118
611.07	8.615
611.41	9.372
611.74	9.007
612.07	9.958
612.40	9.078
612.73	8.949
613.07	9.340
613.40	9.095
613.73	9.485
614.06	8.832
614.39	8.698
614.72	9.073
615.06	8.807
615.39	8.507
615.72	9.384
616.05	8.354
616.38	9.637
616.71	9.561
617.05	8.733
617.38	9.203
617.71	9.935
618.04	9.174
618.37	8.852
618.70	8.880
619.03	8.483
619.36	8.446
619.69	9.289
620.03	8.475
620.36	9.448
620.69	8.822
621.02	9.121
621.35	9.797
621.68	9.038
622.01	9.893
622.34	8.229
622.67	8.729
623.00	7.422
623.33	9.157
623.66	9.339
623.99	8.624
624.32	10.331
624.65	8.044
624.99	9.883
625.32	9.275
625.65	9.508
625.98	8.610
626.31	9.709
626.64	8.718
626.97	8.852
627.30	7.821
627.63	9.227
627.96	9.685
628.29	8.794
628.62	7.641
628.95	7.888
629.28	8.241
629.61	9.175
629.94	7.615
630.26	8.390
630.59	8.377
630.92	8.658
631.25	8.408
631.58	9.134
631.91	7.591
632.24	8.069
632.57	8.444
632.90	8.124
633.23	8.776
633.56	8.776
633.89	8.058
634.22	9.771
634.55	7.724
634.88	6.926
635.20	9.150
635.53	8.136
635.86	8.884
636.19	10.286
636.52	8.122
636.85	8.274
637.18	8.732
637.51	7.957
637.83	10.188
638.16	7.719
638.49	7.394
638.82	8.005
639.15	6.415
639.48	8.083
639.81	8.314
640.13	8.127
640.46	6.303
640.79	8.701
641.12	8.075
641.45	8.281
641.77	10.270
642.10	7.612
642.43	9.574
642.76	7.995
643.09	7.260
643.41	7.563
643.74	7.310
644.07	7.862
644.40	7.496
644.73	7.547
645.05	7.048
645.38	8.921
645.71	8.651
646.04	10.187
646.36	7.299
646.69	6.595
647.02	8.563
647.35	8.244
647.67	8.535
648.00	7.006
648.33	8.258
648.66	7.418
648.98	8.163
649.31	7.848
649.64	8.765
649.96	7.825
650.29	6.120
650.62	8.204
650.94	6.607
651.27	7.784
651.60	6.725
651.92	6.687
652.25	9.841
652.58	7.703
652.90	6.541
653.23	10.845
653.56	8.417
653.88	8.989
654.21	6.620
654.54	6.647
654.86	8.215
655.19	6.650
655.52	9.657
655.84	9.547
656.17	11.663
656.49	16.747
656.82	18.427
657.15	14.013
657.47	10.652
657.80	7.455
658.13	5.750
658.45	7.293
658.78	8.654
659.10	8.080
659.43	7.600
659.75	6.850
660.08	7.283
660.41	6.782
660.73	7.070
661.06	6.902
661.38	7.815
661.71	7.241
662.03	6.878
662.36	7.513
662.68	6.754
663.01	8.673
663.33	6.427
663.66	8.608
663.98	6.538
664.31	5.441
664.63	5.010
664.96	5.989
665.28	5.808
665.61	8.741
665.93	7.143
666.26	9.140
666.58	6.089
666.91	8.224
667.23	8.381
667.56	5.917
667.88	7.000
668.21	4.297
668.53	4.247
668.86	6.876
669.18	5.906
669.50	7.753
669.83	7.400
670.15	5.906
670.48	8.730
670.80	5.545
671.13	6.994
671.45	5.118
671.77	7.533
672.10	8.167
672.42	6.149
672.75	8.295
673.07	6.866
673.39	8.166
673.72	7.886
674.04	8.276
674.37	7.513
674.69	9.347
675.01	6.095
675.34	6.298
675.66	5.431
675.98	7.649
676.31	5.664
676.63	8.745
676.95	7.088
677.28	5.645
677.60	6.496
677.92	7.869
678.25	6.581
678.57	9.609
678.89	9.215
679.22	4.530
679.54	7.692
679.86	6.102
680.18	5.804
680.51	8.019
680.83	6.547
681.15	6.207
681.48	8.981
681.80	7.254
682.12	6.643
682.44	6.010
682.77	6.560
683.09	7.197
683.41	10.853
683.73	7.780
684.06	5.166
684.38	4.830
684.70	8.797
685.02	7.573
685.34	7.155
685.67	7.256
685.99	6.902
686.31	7.994
686.63	7.109
686.96	6.782
687.28	6.515
687.60	4.545
687.92	5.466
688.24	8.514
688.56	7.241
688.89	5.082
689.21	7.241
689.53	5.294
689.85	4.931
690.17	5.741
690.49	7.171
690.82	8.317
691.14	5.061
691.46	6.119
691.78	7.182
692.10	6.055
692.42	4.821
692.74	7.441
693.06	4.259
693.39	8.159
693.71	6.767
694.03	9.665
694.35	6.095
694.67	7.187
694.99	5.957
695.31	7.285
695.63	6.926
695.95	7.453
696.27	5.934
696.59	6.416
696.91	8.108
697.23	9.451
697.56	6.314
697.88	8.523
698.20	5.085
698.52	10.606
698.84	6.029
699.16	6.122
699.48	6.276
699.80	7.660
700.12	7.860
700.44	5.069
700.76	6.888
701.08	6.538
701.40	6.477
701.72	9.950
702.04	5.882
702.36	3.927
702.68	4.890
703.00	5.868
703.32	5.665
703.64	6.846
703.96	5.251
704.28	7.125
704.60	7.089
704.91	7.398
705.23	7.397
705.55	5.292
705.87	6.970
706.19	8.896
706.51	2.711
706.83	3.170
707.15	2.116
707.47	4.206
707.79	6.550
708.11	4.449
708.43	6.667
708.74	3.125
709.06	6.961
709.38	7.512
709.70	7.692
710.02	3.359
710.34	6.915
710.66	4.190
710.98	4.918
711.29	4.121
711.61	8.192
711.93	4.274
712.25	7.027
712.57	9.145
712.89	7.059
713.20	4.734
713.52	6.358
713.84	5.292
714.16	6.053
714.48	7.216
714.80	5.195
715.11	4.987
715.43	5.836
715.75	5.000
716.07	4.420
716.39	6.011
716.70	2.108
717.02	3.279
717.34	3.484
717.66	4.698
717.97	0.685
718.29	-0.344
718.61	3.947
718.93	5.178
719.24	5.280
719.56	4.601
719.88	6.907
720.20	6.452
720.51	6.832
720.83	3.438
721.15	3.947
721.46	-1.027
721.78	1.667
722.10	0.971
722.42	3.356
722.73	3.226
723.05	4.211
723.37	5.208
723.68	7.527
724.00	7.220
724.32	5.986
724.63	3.497
724.95	7.801
725.27	6.969
725.58	0.707
725.90	3.793
726.22	2.821
726.53	4.221
726.85	4.717
727.16	2.719
727.48	6.422
727.80	4.967
728.11	2.473
728.43	3.367
728.74	5.351
729.06	3.974
729.38	2.922
729.69	6.040
730.01	7.440
730.32	5.758
730.64	4.088
730.96	1.863
731.27	6.425
731.59	7.418
731.90	2.857
732.22	3.125
732.53	4.420
732.85	6.286
733.16	6.745
733.48	2.744
733.80	3.064
734.11	6.553
734.43	4.595
734.74	8.608
735.06	7.538
735.37	8.649
735.69	4.054
736.00	4.520
736.32	9.164
736.63	7.222
736.95	8.046
737.26	8.485
737.58	4.848
737.89	6.765
738.21	2.141
738.52	2.951
738.83	5.461
739.15	3.901
739.46	3.741
739.78	4.601
740.09	2.865
740.41	8.163
740.72	3.333
741.04	5.178
741.35	6.667
741.66	5.882
741.98	4.508
742.29	5.858
742.61	4.386
742.92	0.385
743.23	6.498
743.55	4.264
743.86	2.000
744.18	-4.132
744.49	-1.688
744.80	4.527
745.12	2.532
745.43	6.098
745.74	-1.724
746.06	1.271
746.37	5.063
746.68	6.098
747.00	3.333
747.31	1.288
747.62	6.154
747.94	3.239
748.25	2.008
748.56	0.000
748.88	1.282
749.19	1.293
749.50	3.030
749.82	2.410
750.13	7.117
750.44	2.000
750.75	2.462
751.07	6.769
751.38	4.416
751.69	2.236
752.01	1.618
752.32	6.209
752.63	2.381
752.94	0.000
753.26	2.230
753.57	2.963
753.88	0.375
754.19	5.466
754.51	6.109
754.82	5.466
755.13	7.869
755.44	4.778
755.75	6.579
756.07	8.358
756.38	4.088
756.69	4.217
757.00	3.878
757.31	3.279
757.63	4.092
757.94	5.869
758.25	6.998
758.56	5.229
758.87	8.182
759.18	8.000
759.50	5.099
759.81	7.563
760.12	6.739
760.43	7.292
760.74	8.621
761.05	5.000
761.36	3.373
761.67	5.584
761.99	7.297
762.30	3.963
762.61	2.640
762.92	2.239
763.23	2.996
763.54	3.957
763.85	2.749
764.16	6.734
764.47	4.225
764.78	8.307
765.10	2.933
765.41	4.615
765.72	2.910
766.03	7.627
766.34	1.567
766.65	3.833
766.96	3.984
767.27	1.843
767.58	-2.488
767.89	9.135
768.20	-0.469
768.51	4.167
768.82	4.016
769.13	4.924
769.44	2.692
769.75	6.859
770.06	5.000
770.37	9.449
770.68	1.702
770.99	0.405
771.30	3.704
771.61	5.323
771.92	1.481
772.23	6.478
772.54	-1.852
772.85	6.452
773.16	4.762
773.47	3.704
773.78	0.541
774.09	-0.568
774.39	12.500
774.70	2.732
775.01	-3.659
775.32	-2.941
775.63	6.135
775.94	-2.548
776.25	3.226
776.56	0.641
776.87	-0.680
777.18	-1.379
777.48	-6.294
777.79	-3.378
778.10	-8.088
778.41	4.167
778.72	-0.690
779.03	3.086
779.34	-0.606
779.65	3.627
779.95	3.889
780.26	-1.136
780.57	-4.516
780.88	0.000
781.19	2.581
781.50	4.706
781.80	2.688
782.11	-1.058
782.42	-2.525
782.73	-3.593
783.04	2.793
783.34	-3.636
783.65	-3.922
783.96	-4.348
784.27	1.786
784.57	-1.987
784.88	-5.000
785.19	-1.575
785.50	1.575
785.81	0.000
786.11	-1.538
786.42	-2.878
786.73	-1.439
787.04	-1.504
787.34	-3.279
787.65	1.600
787.96	-0.746
788.26	0.000
788.57	2.797
788.88	-1.316
789.19	9.804
789.49	1.370
789.80	0.709
790.11	3.150
790.41	-6.250
790.72	-10.169
791.03	-7.767
791.33	-10.435
791.64	-3.509
791.95	-8.929
792.25	4.762
792.56	-6.250
792.87	-16.667
793.17	-7.143
793.48	-8.333
793.79	-30.120
794.09	-11.927
794.40	-12.844
794.70	2.721
795.01	2.597
795.32	-2.055
795.62	4.225
795.93	-5.303
796.23	-0.820
796.54	-7.143
796.85	-6.383
797.15	-4.348
797.46	-13.699
797.76	-13.750
798.07	-7.609
798.37	-20.619
798.68	-15.584
798.99	-10.345
799.29	-11.236
799.60	-10.638
799.90	-18.072
800.21	-35.385
800.51	-31.343
800.82	-29.412
801.12	-34.247
801.43	-20.588
801.73	-22.034
802.04	-15.152
802.34	-25.000
802.65	-23.729
802.95	2.985
803.26	-13.559
803.56	-5.479
803.87	-14.286
804.17	-6.849
804.48	-26.316
804.78	-13.889
805.09	-24.138
805.39	-5.405
805.70	-19.718
806.00	-20.732
806.30	-13.253
806.61	-32.877
806.91	-9.615
807.22	-5.556
807.52	-21.839
807.83	-5.556
808.13	-9.639
808.43	-10.112
808.74	-16.250
809.04	-20.588
809.35	-21.333
809.65	-11.429
809.95	-10.959
810.26	-33.333
810.56	-18.966
810.86	-10.294
811.17	-28.070
811.47	-37.705
811.77	-60.000
812.08	-23.729
812.38	-15.000
812.69	3.448
812.99	-28.302
813.29	-38.462
813.59	-14.000
813.90	-14.035
814.20	-14.545
814.50	-15.493
814.81	-3.846
815.11	-13.115
815.41	-11.940
815.72	-10.345
816.02	-26.786
816.32	-40.000
816.62	-25.000
816.93	-44.444
817.23	-37.037
817.53	-21.277
817.84	-19.048
818.14	-35.294
818.44	-20.408
818.74	-15.556
819.04	-53.846
819.35	-54.286
819.65	-73.077
819.95	-3.774
820.25	-8.889
820.56	-23.810
820.86	-81.250
821.16	-53.846
821.46	-41.860
821.76	-40.000
822.07	0.000
822.37	-34.783
822.67	-38.298
822.97	-70.270
823.27	-62.500
823.57	-28.571
823.88	-20.000
824.18	-22.500
824.48	-76.667
824.78	-80.000
825.08	-51.515
825.38	-8.889
825.69	-10.638
825.99	-13.889
826.29	-74.286
826.59	-43.590
826.89	-27.907
827.19	-40.000
827.49	-58.824
827.79	-14.583
828.09	-43.243
828.39	-53.333
828.70	-48.780
829.00	-27.907
829.30	-35.714
829.60	-23.529
829.90	-30.435
830.20	-40.000
830.50	-72.414
830.80	-88.889
831.10	-119.231
831.40	-29.412
831.70	-14.286
832.00	-25.806
832.30	-182.353
832.60	-70.833
832.90	-200.000
833.20	-100.000
833.50	-100.000
833.80	-126.316
834.10	-157.143
834.40	-25.000
834.70	-34.375
835.00	-45.714
835.30	-32.353
835.60	-53.333
835.90	-48.000
836.20	-104.545
836.50	-48.000
836.80	-51.515
837.10	-40.741
837.40	-37.037
837.70	-181.250
838.00	-32.143
838.30	-100.000
838.60	-27.586
838.90	-64.286
839.19	-100.000
839.49	-183.333
839.79	-60.870
840.09	-187.500
840.39	-100.000
840.69	-6.452
840.99	-67.857
841.29	-100.000
841.59	-94.737
841.88	-23.077
842.18	-19.231
842.48	-310.000
842.78	-100.000
843.08	-26.667
843.38	-25.806
843.68	-150.000
843.97	-8.824
844.27	-118.750
844.57	-100.000
844.87	-250.000
845.17	-126.667
845.47	-38.095
845.76	-66.667
846.06	-177.778
846.36	-76.471
846.66	-38.462
846.96	-66.667
847.25	-41.176
847.55	-30.435
847.85	-70.000
848.15	-23.529
848.44	-181.818
848.74	-114.286
849.04	-104.167
849.34	-56.250
849.63	-30.435
849.93	1200.000
850.23	-126.667
850.53	-53.846
850.82	-100.000
851.12	-22.727
851.42	-181.818
851.71	-130.769
852.01	-95.000
852.31	-176.923
852.61	-63.158
852.90	-125.000
853.20	-61.111
853.50	-277.778
853.79	-90.476
854.09	-118.182
854.39	-241.667
854.68	-35.484
854.98	-100.000
855.28	-88.889
855.57	-82.143
855.87	-44.000
856.17	-63.636
856.46	-74.074
856.76	-127.778
857.05	-47.826
857.35	-112.500
857.65	-153.846
857.94	-52.381
858.24	3.704
858.53	-26.087
858.83	-94.118
859.13	-135.294
859.42	-58.824
859.72	-150.000
860.01	-80.000
860.31	-177.778
860.60	-160.000
860.90	-93.333
861.20	-122.222
861.49	-46.154
861.79	-43.333
862.08	-115.385
862.38	-25.000
862.67	-70.588
862.97	-112.500
863.26	-288.889
863.56	-100.000
863.85	-154.545
864.15	-55.556
864.44	-733.333
864.74	-107.143
865.03	-131.250
865.33	-130.000
865.62	-41.935
865.92	-50.000
866.21	-52.174
866.51	-107.143
866.80	-480.000
867.10	-150.000
867.39	-175.000
867.69	2200.000
867.98	-271.429
868.27	0.000
868.57	-3000.000
868.86	-290.000
869.16	-123.810
869.45	-75.000
869.75	-200.000
870.04	-328.571
870.33	-150.000
870.63	-342.857
870.92	-375.000
871.22	-300.000
871.51	-136.364
871.80	-766.667
872.10	-1000.000
>>>>>End Processed Spectral Data<<<<<
