SpectraSuite Data File
++++++++++++++++++++++++++++++++++++
Date: Thu May 14 14:40:05 PDT 2015
User: schluterlab
Dark Spectrum Present: Yes
Reference Spectrum Present: Yes
Number of Sampled Component Spectra: 1
Spectrometers: USB2E3373
Integration Time (usec): 3000 (USB2E3373)
Spectra Averaged: 3 (USB2E3373)
Boxcar Smoothing: 0 (USB2E3373)
Correct for Electrical Dark: No (USB2E3373)
Strobe/Lamp Enabled: No (USB2E3373)
Correct for Detector Non-linearity: No (USB2E3373)
Correct for Stray Light: No (USB2E3373)
Number of Pixels in Processed Spectrum: 2048
>>>>>Begin Processed Spectral Data<<<<<
178.53	0.000
178.91	-71.429
179.29	300.000
179.67	800.000
180.04	35.714
180.42	-90.000
180.80	-240.000
181.18	900.000
181.56	1700.000
181.94	-375.000
182.31	325.000
182.69	-366.667
183.07	700.000
183.45	-175.000
183.83	150.000
184.20	233.333
184.58	-1600.000
184.96	175.000
185.34	111.111
185.72	360.000
186.09	-77.778
186.47	-400.000
186.85	20.000
187.23	100.000
187.61	0.000
187.98	-200.000
188.36	-50.000
188.74	300.000
189.12	366.667
189.49	93.750
189.87	100.000
190.25	144.444
190.63	320.000
191.00	88.889
191.38	0.000
191.76	250.000
192.14	250.000
192.51	-600.000
192.89	266.667
193.27	0.000
193.65	171.429
194.02	-200.000
194.40	200.000
194.78	-42.857
195.15	0.000
195.53	154.545
195.91	0.000
196.29	375.000
196.66	38.462
197.04	1300.000
197.42	300.000
197.79	400.000
198.17	75.000
198.55	171.429
198.92	155.556
199.30	125.000
199.68	45.455
200.05	128.571
200.43	-350.000
200.81	-28.571
201.18	0.000
201.56	44.444
201.94	0.000
202.31	-166.667
202.69	-11.111
203.07	-1500.000
203.44	266.667
203.82	350.000
204.19	108.333
204.57	133.333
204.95	225.000
205.32	300.000
205.70	-225.000
206.08	233.333
206.45	116.667
206.83	-160.000
207.20	150.000
207.58	200.000
207.96	150.000
208.33	283.333
208.71	-58.333
209.08	250.000
209.46	0.000
209.84	-83.333
210.21	-800.000
210.59	-850.000
210.96	-433.333
211.34	275.000
211.71	87.500
212.09	1500.000
212.46	0.000
212.84	200.000
213.22	100.000
213.59	425.000
213.97	220.000
214.34	666.667
214.72	-50.000
215.09	150.000
215.47	0.000
215.84	-200.000
216.22	-550.000
216.59	280.000
216.97	100.000
217.34	250.000
217.72	212.500
218.09	300.000
218.47	25.000
218.84	0.000
219.22	-60.000
219.59	76.471
219.97	90.000
220.34	-500.000
220.72	166.667
221.09	84.615
221.47	366.667
221.84	140.000
222.22	28.571
222.59	0.000
222.97	112.500
223.34	-40.000
223.72	1400.000
224.09	350.000
224.46	375.000
224.84	240.000
225.21	185.714
225.59	25.000
225.96	250.000
226.34	65.385
226.71	50.000
227.08	550.000
227.46	113.333
227.83	250.000
228.21	36.842
228.58	-0.000
228.95	50.000
229.33	175.000
229.70	200.000
230.08	136.842
230.45	-100.000
230.82	466.667
231.20	92.857
231.57	150.000
231.95	63.636
232.32	90.909
232.69	90.000
233.07	325.000
233.44	29.412
233.81	70.000
234.19	94.444
234.56	54.545
234.93	48.276
235.31	73.684
235.68	100.000
236.05	35.000
236.43	57.692
236.80	92.000
237.17	37.037
237.55	45.455
237.92	-10.000
238.29	51.613
238.67	36.364
239.04	33.333
239.41	30.952
239.79	36.957
240.16	9.259
240.53	17.391
240.91	21.569
241.28	27.869
241.65	35.821
242.02	24.324
242.40	10.769
242.77	13.333
243.14	17.073
243.51	7.895
243.89	15.385
244.26	16.832
244.63	14.706
245.00	12.150
245.38	11.404
245.75	3.540
246.12	19.048
246.49	14.729
246.87	12.857
247.24	19.205
247.61	20.395
247.98	7.383
248.36	9.877
248.73	10.429
249.10	10.383
249.47	18.408
249.84	17.801
250.22	12.435
250.59	16.111
250.96	12.273
251.33	11.735
251.70	12.393
252.08	9.583
252.45	13.934
252.82	6.612
253.19	7.422
253.56	11.787
253.94	7.692
254.31	12.879
254.68	13.986
255.05	12.378
255.42	7.483
255.79	5.178
256.16	9.603
256.54	6.291
256.91	9.180
257.28	10.164
257.65	6.051
258.02	5.605
258.39	9.117
258.76	10.703
259.14	13.218
259.51	6.052
259.88	8.499
260.25	10.278
260.62	11.781
260.99	14.208
261.36	10.992
261.73	10.080
262.10	5.220
262.47	6.702
262.85	12.879
263.22	5.455
263.59	4.211
263.96	12.532
264.33	7.417
264.70	11.605
265.07	11.695
265.44	13.152
265.81	7.639
266.18	9.524
266.55	9.152
266.92	5.923
267.29	9.847
267.66	8.647
268.03	9.389
268.40	9.186
268.77	7.745
269.14	6.167
269.51	8.333
269.88	10.656
270.25	9.256
270.62	8.017
270.99	10.909
271.36	10.891
271.73	8.841
272.10	9.018
272.47	7.014
272.84	7.831
273.21	8.818
273.58	8.468
273.95	8.462
274.32	7.414
274.69	6.963
275.06	9.158
275.43	5.915
275.80	7.231
276.17	6.481
276.54	5.970
276.91	6.619
277.28	8.499
277.65	7.899
278.02	8.272
278.39	5.797
278.76	5.272
279.13	6.206
279.50	8.591
279.87	8.229
280.23	4.754
280.60	8.644
280.97	7.072
281.34	7.131
281.71	9.645
282.08	8.140
282.45	6.710
282.82	7.535
283.19	5.977
283.56	6.066
283.92	9.009
284.29	10.111
284.66	7.882
285.03	5.769
285.40	8.810
285.77	6.966
286.14	9.313
286.51	6.545
286.87	7.109
287.24	6.476
287.61	6.726
287.98	5.891
288.35	7.692
288.72	7.692
289.08	7.174
289.45	6.065
289.82	7.380
290.19	7.328
290.56	6.901
290.93	6.705
291.29	7.989
291.66	6.198
292.03	4.613
292.40	7.347
292.77	6.334
293.13	6.766
293.50	4.862
293.87	5.638
294.24	7.867
294.60	7.585
294.97	5.101
295.34	7.426
295.71	6.431
296.08	4.780
296.44	6.127
296.81	5.847
297.18	5.106
297.55	5.542
297.91	5.813
298.28	4.739
298.65	6.064
299.02	6.375
299.38	5.950
299.75	5.374
300.12	6.019
300.48	5.530
300.85	5.737
301.22	6.711
301.59	4.680
301.95	4.746
302.32	7.667
302.69	4.819
303.05	6.529
303.42	7.095
303.79	5.625
304.15	5.994
304.52	5.603
304.89	5.550
305.25	6.418
305.62	5.434
305.99	5.876
306.35	4.738
306.72	6.929
307.09	5.888
307.45	5.590
307.82	5.449
308.19	5.752
308.55	6.557
308.92	5.842
309.29	5.460
309.65	5.750
310.02	5.545
310.38	5.709
310.75	7.184
311.12	5.849
311.48	5.865
311.85	5.223
312.22	7.021
312.58	6.573
312.95	6.214
313.31	6.594
313.68	6.227
314.05	7.498
314.41	7.013
314.78	6.994
315.14	6.534
315.51	8.310
315.87	7.741
316.24	8.219
316.61	8.171
316.97	6.697
317.34	7.407
317.70	8.472
318.07	8.554
318.43	9.099
318.80	9.866
319.16	9.957
319.53	7.798
319.89	9.378
320.26	10.231
320.62	9.131
320.99	9.511
321.35	9.889
321.72	11.442
322.08	9.378
322.45	10.930
322.81	11.191
323.18	11.150
323.54	11.466
323.91	12.011
324.27	13.253
324.64	13.266
325.00	11.360
325.37	12.858
325.73	13.802
326.10	14.193
326.46	15.961
326.83	13.931
327.19	14.567
327.56	16.443
327.92	15.500
328.29	15.000
328.65	15.159
329.01	14.044
329.38	16.681
329.74	17.637
330.11	18.322
330.47	16.681
330.84	18.519
331.20	18.167
331.56	17.244
331.93	19.163
332.29	19.746
332.66	18.854
333.02	18.425
333.38	18.540
333.75	19.108
334.11	19.766
334.48	19.637
334.84	21.750
335.20	20.235
335.57	20.573
335.93	21.322
336.29	19.800
336.66	21.194
337.02	21.237
337.38	21.599
337.75	21.322
338.11	22.204
338.47	21.588
338.84	21.489
339.20	20.809
339.56	20.758
339.93	21.757
340.29	21.820
340.65	21.249
341.02	21.868
341.38	22.555
341.74	20.904
342.11	22.365
342.47	21.287
342.83	22.142
343.20	22.322
343.56	22.213
343.92	22.178
344.28	22.500
344.65	23.178
345.01	22.075
345.37	22.706
345.73	21.512
346.10	22.933
346.46	21.598
346.82	22.697
347.19	22.842
347.55	22.989
347.91	22.363
348.27	21.320
348.63	22.772
349.00	21.700
349.36	23.569
349.72	22.024
350.08	22.957
350.45	21.901
350.81	22.097
351.17	23.233
351.53	24.792
351.89	23.842
352.26	22.388
352.62	22.985
352.98	22.977
353.34	23.077
353.70	22.881
354.07	24.069
354.43	23.311
354.79	23.111
355.15	24.945
355.51	23.757
355.87	22.289
356.24	23.042
356.60	23.577
356.96	22.906
357.32	23.346
357.68	23.353
358.04	23.204
358.40	23.507
358.77	23.319
359.13	23.634
359.49	23.197
359.85	24.511
360.21	23.386
360.57	24.049
360.93	23.484
361.29	23.579
361.66	24.475
362.02	24.148
362.38	23.753
362.74	24.232
363.10	24.897
363.46	25.762
363.82	25.000
364.18	24.560
364.54	24.205
364.90	25.151
365.26	23.517
365.62	25.133
365.98	25.528
366.35	24.497
366.71	26.463
367.07	24.831
367.43	26.789
367.79	25.282
368.15	26.020
368.51	25.643
368.87	25.865
369.23	25.933
369.59	26.708
369.95	25.761
370.31	26.266
370.67	26.135
371.03	26.316
371.39	25.386
371.75	27.304
372.11	27.304
372.47	27.353
372.83	27.094
373.19	26.751
373.55	26.626
373.91	26.380
374.27	27.426
374.63	27.943
374.99	26.857
375.35	28.312
375.71	27.355
376.07	27.308
376.42	27.456
376.78	27.906
377.14	26.825
377.50	27.704
377.86	28.510
378.22	27.964
378.58	28.716
378.94	27.582
379.30	28.588
379.66	28.807
380.02	29.198
380.38	29.493
380.74	28.620
381.09	29.559
381.45	28.977
381.81	30.094
382.17	29.929
382.53	29.883
382.89	29.402
383.25	30.715
383.61	29.687
383.97	30.683
384.32	31.280
384.68	30.162
385.04	30.538
385.40	31.232
385.76	31.360
386.12	29.563
386.48	31.471
386.83	31.704
387.19	30.823
387.55	30.399
387.91	30.936
388.27	31.582
388.62	31.501
388.98	31.077
389.34	31.408
389.70	31.900
390.06	31.616
390.42	32.952
390.77	31.607
391.13	32.218
391.49	32.005
391.85	31.333
392.20	33.333
392.56	32.841
392.92	31.952
393.28	32.836
393.64	31.955
393.99	33.062
394.35	32.185
394.71	33.713
395.07	32.335
395.42	32.838
395.78	34.065
396.14	33.630
396.50	32.838
396.85	32.558
397.21	34.024
397.57	33.157
397.92	33.505
398.28	32.428
398.64	32.952
399.00	31.466
399.35	33.037
399.71	33.152
400.07	33.015
400.42	34.168
400.78	33.565
401.14	33.637
401.49	34.224
401.85	34.709
402.21	34.357
402.57	34.448
402.92	33.274
403.28	32.963
403.63	33.592
403.99	34.501
404.35	33.030
404.70	33.881
405.06	33.641
405.42	34.192
405.77	34.133
406.13	33.387
406.49	34.234
406.84	33.961
407.20	33.426
407.55	33.919
407.91	33.815
408.27	33.922
408.62	33.566
408.98	34.010
409.34	33.490
409.69	34.363
410.05	34.174
410.40	34.571
410.76	33.259
411.11	34.775
411.47	34.705
411.83	34.392
412.18	35.723
412.54	34.381
412.89	34.575
413.25	34.368
413.60	34.348
413.96	35.023
414.31	33.881
414.67	34.526
415.03	33.662
415.38	34.300
415.74	33.537
416.09	35.163
416.45	33.939
416.80	33.966
417.16	34.674
417.51	34.807
417.87	34.151
418.22	35.509
418.58	35.006
418.93	35.739
419.29	34.710
419.64	35.474
420.00	34.599
420.35	35.036
420.71	34.865
421.06	34.733
421.42	34.117
421.77	34.195
422.12	34.884
422.48	34.818
422.83	35.871
423.19	34.801
423.54	36.283
423.90	35.340
424.25	36.160
424.61	35.304
424.96	35.914
425.31	35.828
425.67	35.534
426.02	36.027
426.38	35.132
426.73	35.100
427.09	36.794
427.44	36.210
427.79	36.153
428.15	35.959
428.50	35.843
428.85	36.108
429.21	36.170
429.56	35.587
429.92	36.757
430.27	36.530
430.62	36.297
430.98	36.203
431.33	35.924
431.68	34.674
432.04	36.059
432.39	36.690
432.74	37.100
433.10	36.885
433.45	36.399
433.80	37.178
434.16	36.674
434.51	36.691
434.86	37.296
435.22	36.876
435.57	37.382
435.92	38.453
436.28	37.543
436.63	39.268
436.98	37.735
437.34	37.317
437.69	37.589
438.04	36.965
438.39	38.139
438.75	37.963
439.10	38.214
439.45	37.675
439.81	37.571
440.16	38.123
440.51	38.573
440.86	37.854
441.22	37.728
441.57	38.836
441.92	37.294
442.27	38.737
442.63	38.053
442.98	38.207
443.33	37.770
443.68	38.107
444.03	40.216
444.39	38.742
444.74	38.336
445.09	37.861
445.44	39.831
445.79	39.176
446.15	38.900
446.50	38.191
446.85	38.619
447.20	38.830
447.55	39.540
447.91	38.691
448.26	38.795
448.61	38.789
448.96	39.968
449.31	39.130
449.66	39.434
450.02	37.869
450.37	39.371
450.72	39.612
451.07	40.604
451.42	39.861
451.77	39.188
452.12	40.068
452.47	39.929
452.83	41.610
453.18	39.054
453.53	39.403
453.88	39.426
454.23	39.435
454.58	40.337
454.93	39.806
455.28	40.277
455.63	40.250
455.98	40.223
456.34	40.165
456.69	40.858
457.04	40.839
457.39	40.743
457.74	40.996
458.09	39.484
458.44	39.763
458.79	39.299
459.14	39.486
459.49	40.125
459.84	40.346
460.19	39.200
460.54	41.624
460.89	40.974
461.24	40.172
461.59	40.066
461.94	40.274
462.29	40.817
462.64	39.831
462.99	39.736
463.34	41.921
463.69	39.742
464.04	40.689
464.39	40.078
464.74	39.624
465.09	41.003
465.44	40.826
465.79	40.719
466.14	39.969
466.49	39.947
466.84	41.267
467.19	40.520
467.54	39.072
467.89	39.310
468.24	40.222
468.59	40.591
468.94	39.744
469.29	39.652
469.64	40.623
469.99	40.854
470.34	41.275
470.68	41.422
471.03	40.995
471.38	41.138
471.73	39.402
472.08	41.180
472.43	40.638
472.78	40.113
473.13	39.128
473.48	41.269
473.83	40.569
474.17	40.563
474.52	41.191
474.87	39.978
475.22	40.789
475.57	40.135
475.92	41.414
476.27	40.628
476.61	39.616
476.96	40.511
477.31	40.743
477.66	41.448
478.01	40.264
478.36	39.681
478.70	40.443
479.05	40.184
479.40	40.671
479.75	41.595
480.10	40.881
480.45	40.201
480.79	40.726
481.14	39.476
481.49	41.027
481.84	41.079
482.19	40.559
482.53	41.233
482.88	41.028
483.23	40.551
483.58	40.087
483.92	39.805
484.27	40.559
484.62	39.810
484.97	40.202
485.31	39.458
485.66	38.050
486.01	38.393
486.36	39.446
486.70	40.366
487.05	40.491
487.40	39.819
487.75	39.415
488.09	39.222
488.44	38.779
488.79	39.224
489.13	39.573
489.48	39.650
489.83	39.718
490.17	38.842
490.52	40.148
490.87	40.102
491.22	40.555
491.56	40.572
491.91	40.907
492.26	39.680
492.60	40.140
492.95	40.500
493.30	41.192
493.64	40.955
493.99	40.570
494.34	40.549
494.68	40.471
495.03	41.366
495.37	40.568
495.72	40.952
496.07	40.885
496.41	40.197
496.76	40.659
497.11	40.764
497.45	40.872
497.80	40.693
498.14	41.179
498.49	40.717
498.84	40.905
499.18	40.756
499.53	41.076
499.87	40.703
500.22	40.873
500.56	40.621
500.91	39.863
501.26	41.955
501.60	40.035
501.95	40.122
502.29	41.027
502.64	40.840
502.98	40.293
503.33	40.259
503.67	40.602
504.02	41.156
504.36	41.019
504.71	40.928
505.06	40.337
505.40	40.585
505.75	40.938
506.09	41.206
506.44	41.365
506.78	41.560
507.13	40.941
507.47	40.881
507.82	40.246
508.16	40.918
508.51	40.366
508.85	40.812
509.19	40.360
509.54	40.634
509.88	40.991
510.23	41.331
510.57	41.518
510.92	41.026
511.26	40.548
511.61	40.608
511.95	40.605
512.30	41.014
512.64	39.280
512.98	40.970
513.33	41.583
513.67	40.847
514.02	40.981
514.36	41.483
514.70	42.031
515.05	41.658
515.39	41.575
515.74	42.365
516.08	40.940
516.42	42.072
516.77	41.115
517.11	40.588
517.46	42.365
517.80	42.704
518.14	41.567
518.49	41.920
518.83	40.553
519.17	41.842
519.52	40.566
519.86	41.605
520.20	42.066
520.55	40.581
520.89	42.230
521.23	41.764
521.58	41.525
521.92	41.076
522.26	41.695
522.61	41.377
522.95	41.176
523.29	42.356
523.64	41.031
523.98	41.757
524.32	42.350
524.66	42.060
525.01	40.657
525.35	40.839
525.69	40.545
526.04	41.045
526.38	40.977
526.72	41.234
527.06	41.994
527.41	41.341
527.75	41.983
528.09	41.381
528.43	42.155
528.78	42.081
529.12	40.998
529.46	41.315
529.80	42.105
530.15	41.391
530.49	41.340
530.83	41.145
531.17	41.517
531.51	42.058
531.86	41.947
532.20	41.951
532.54	41.352
532.88	40.970
533.22	40.189
533.57	41.431
533.91	41.919
534.25	41.775
534.59	42.069
534.93	40.294
535.27	42.986
535.62	40.421
535.96	41.488
536.30	40.599
536.64	41.502
536.98	40.344
537.32	41.790
537.66	42.483
538.01	40.725
538.35	40.743
538.69	40.685
539.03	40.956
539.37	40.813
539.71	40.120
540.05	40.947
540.39	40.648
540.73	40.801
541.07	42.121
541.42	40.047
541.76	40.807
542.10	40.350
542.44	40.256
542.78	41.058
543.12	39.809
543.46	40.476
543.80	39.149
544.14	41.352
544.48	40.189
544.82	40.934
545.16	40.787
545.50	41.642
545.84	41.335
546.18	41.296
546.52	40.510
546.86	40.314
547.20	41.221
547.54	40.512
547.88	40.325
548.22	40.702
548.56	41.135
548.90	40.478
549.24	40.486
549.58	40.442
549.92	41.454
550.26	41.165
550.60	39.694
550.94	41.074
551.28	40.132
551.62	41.240
551.96	40.906
552.30	40.790
552.64	42.253
552.98	41.609
553.32	41.286
553.66	40.772
554.00	41.551
554.34	41.441
554.68	39.187
555.02	40.604
555.36	42.669
555.69	39.462
556.03	40.416
556.37	41.865
556.71	40.900
557.05	41.214
557.39	40.677
557.73	40.951
558.07	41.126
558.41	42.126
558.75	40.771
559.08	42.450
559.42	40.741
559.76	41.995
560.10	41.192
560.44	41.425
560.78	42.375
561.12	41.195
561.45	40.754
561.79	41.209
562.13	40.542
562.47	40.629
562.81	40.190
563.15	40.530
563.48	41.827
563.82	40.266
564.16	40.884
564.50	40.048
564.84	40.708
565.17	40.882
565.51	40.391
565.85	40.914
566.19	38.710
566.52	40.901
566.86	40.407
567.20	39.260
567.54	40.574
567.88	40.214
568.21	40.613
568.55	39.616
568.89	39.946
569.23	39.544
569.56	38.843
569.90	38.881
570.24	39.258
570.57	38.358
570.91	37.783
571.25	37.807
571.59	38.158
571.92	38.220
572.26	37.718
572.60	37.811
572.93	38.408
573.27	37.848
573.61	37.798
573.95	37.703
574.28	37.608
574.62	36.653
574.96	37.737
575.29	37.894
575.63	36.798
575.97	36.790
576.30	36.319
576.64	37.008
576.98	37.221
577.31	37.451
577.65	37.247
577.98	37.048
578.32	36.753
578.66	36.883
578.99	37.293
579.33	37.217
579.67	36.605
580.00	37.199
580.34	36.715
580.67	36.959
581.01	36.781
581.35	36.821
581.68	36.628
582.02	37.248
582.35	37.340
582.69	37.684
583.02	36.984
583.36	37.297
583.70	36.787
584.03	36.501
584.37	36.806
584.70	37.139
585.04	36.410
585.37	37.251
585.71	37.195
586.04	36.900
586.38	37.465
586.72	37.127
587.05	36.608
587.39	37.023
587.72	37.344
588.06	37.814
588.39	36.744
588.73	37.143
589.06	37.190
589.40	37.738
589.73	37.693
590.07	37.467
590.40	38.404
590.73	37.717
591.07	37.863
591.40	37.908
591.74	38.672
592.07	38.652
592.41	38.013
592.74	37.700
593.08	37.580
593.41	38.262
593.75	37.356
594.08	38.352
594.41	37.981
594.75	36.964
595.08	38.392
595.42	37.500
595.75	37.423
596.09	38.326
596.42	37.872
596.75	38.557
597.09	38.505
597.42	38.061
597.75	37.828
598.09	38.492
598.42	38.440
598.76	37.104
599.09	37.273
599.42	37.714
599.76	37.273
600.09	36.870
600.42	37.504
600.76	38.078
601.09	37.305
601.42	37.590
601.76	37.483
602.09	37.348
602.42	37.077
602.76	37.306
603.09	37.885
603.42	38.042
603.76	37.738
604.09	38.467
604.42	37.835
604.76	37.329
605.09	37.854
605.42	38.915
605.75	37.808
606.09	37.514
606.42	37.359
606.75	37.481
607.09	37.020
607.42	37.457
607.75	37.476
608.08	37.174
608.42	37.364
608.75	38.308
609.08	37.054
609.41	38.244
609.75	37.902
610.08	38.742
610.41	37.596
610.74	37.983
611.07	38.277
611.41	38.296
611.74	38.522
612.07	38.569
612.40	38.878
612.73	39.120
613.07	37.506
613.40	37.825
613.73	38.469
614.06	38.714
614.39	38.192
614.72	37.506
615.06	38.306
615.39	37.941
615.72	38.057
616.05	38.368
616.38	38.194
616.71	38.819
617.05	38.392
617.38	37.239
617.71	38.067
618.04	39.342
618.37	39.235
618.70	38.462
619.03	39.725
619.36	39.642
619.69	38.885
620.03	39.046
620.36	38.834
620.69	38.988
621.02	38.583
621.35	40.711
621.68	39.479
622.01	38.719
622.34	39.749
622.67	39.450
623.00	38.327
623.33	39.881
623.66	39.818
623.99	38.776
624.32	40.611
624.65	38.288
624.99	39.727
625.32	39.843
625.65	38.503
625.98	38.034
626.31	39.972
626.64	40.733
626.97	39.160
627.30	39.104
627.63	37.959
627.96	41.066
628.29	39.844
628.62	39.715
628.95	40.929
629.28	39.592
629.61	40.909
629.94	39.331
630.26	39.407
630.59	40.501
630.92	39.654
631.25	41.860
631.58	41.431
631.91	40.394
632.24	40.730
632.57	40.892
632.90	41.424
633.23	40.102
633.56	41.020
633.89	41.219
634.22	41.996
634.55	40.814
634.88	40.693
635.20	43.811
635.53	42.599
635.86	41.278
636.19	40.827
636.52	42.827
636.85	41.267
637.18	41.788
637.51	40.968
637.83	42.746
638.16	42.972
638.49	41.432
638.82	41.263
639.15	40.893
639.48	43.880
639.81	41.686
640.13	41.461
640.46	40.242
640.79	40.564
641.12	43.975
641.45	41.782
641.77	44.288
642.10	41.601
642.43	43.484
642.76	43.902
643.09	44.384
643.41	42.437
643.74	41.793
644.07	43.310
644.40	42.291
644.73	43.541
645.05	42.584
645.38	40.863
645.71	42.962
646.04	42.324
646.36	43.796
646.69	42.638
647.02	44.801
647.35	45.649
647.67	43.156
648.00	43.153
648.33	44.745
648.66	42.225
648.98	41.497
649.31	43.031
649.64	42.098
649.96	41.247
650.29	41.029
650.62	41.160
650.94	43.093
651.27	39.222
651.60	40.205
651.92	42.249
652.25	39.797
652.58	40.303
652.90	40.116
653.23	38.732
653.56	41.940
653.88	42.556
654.21	41.408
654.54	41.040
654.86	43.626
655.19	38.896
655.52	35.275
655.84	33.059
656.17	41.276
656.49	57.847
656.82	63.579
657.15	48.931
657.47	35.722
657.80	26.455
658.13	20.371
658.45	26.322
658.78	31.803
659.10	30.422
659.43	31.538
659.75	31.982
660.08	32.045
660.41	34.574
660.73	37.172
661.06	41.410
661.38	42.105
661.71	44.138
662.03	41.975
662.36	41.145
662.68	40.901
663.01	42.832
663.33	43.478
663.66	43.590
663.98	44.038
664.31	41.276
664.63	42.197
664.96	43.739
665.28	39.201
665.61	43.357
665.93	39.643
666.26	40.323
666.58	40.775
666.91	42.056
667.23	42.095
667.56	43.195
667.88	44.600
668.21	41.211
668.53	43.050
668.86	42.829
669.18	42.566
669.50	41.551
669.83	41.800
670.15	42.126
670.48	42.063
670.80	39.962
671.13	41.210
671.45	42.520
671.77	43.503
672.10	40.167
672.42	39.806
672.75	39.785
673.07	38.955
673.39	39.137
673.72	41.443
674.04	41.897
674.37	40.250
674.69	41.446
675.01	41.714
675.34	38.168
675.66	37.640
675.98	45.709
676.31	40.625
676.63	42.966
676.95	40.996
677.28	40.121
677.60	38.780
677.92	42.226
678.25	41.865
678.57	39.502
678.89	46.246
679.22	36.934
679.54	39.145
679.86	39.322
680.18	40.299
680.51	38.836
680.83	39.771
681.15	38.793
681.48	37.824
681.80	39.896
682.12	39.860
682.44	37.730
682.77	40.426
683.09	39.394
683.41	40.504
683.73	40.797
684.06	40.959
684.38	38.462
684.70	42.370
685.02	39.587
685.34	38.602
685.67	37.539
685.99	39.724
686.31	37.064
686.63	37.599
686.96	36.751
687.28	40.065
687.60	36.027
687.92	37.299
688.24	39.733
688.56	36.207
688.89	39.201
689.21	40.900
689.53	38.431
689.85	41.026
690.17	38.704
690.49	38.645
690.82	38.218
691.14	37.247
691.46	39.388
691.78	41.989
692.10	39.266
692.42	37.857
692.74	38.657
693.06	36.111
693.39	40.607
693.71	36.278
694.03	38.476
694.35	37.143
694.67	39.630
694.99	38.511
695.31	43.046
695.63	40.909
695.95	38.509
696.27	38.242
696.59	42.920
696.91	38.514
697.23	40.879
697.56	39.715
697.88	36.553
698.20	37.665
698.52	41.856
698.84	40.333
699.16	38.980
699.48	39.749
699.80	39.574
700.12	38.646
700.44	38.710
700.76	38.955
701.08	38.257
701.40	44.560
701.72	39.801
702.04	43.316
702.36	36.649
702.68	39.609
703.00	39.853
703.32	39.655
703.64	41.565
703.96	38.663
704.28	37.346
704.60	40.253
704.91	38.010
705.23	40.548
705.55	42.061
705.87	40.909
706.19	45.399
706.51	36.747
706.83	38.617
707.15	36.772
707.47	40.654
707.79	36.900
708.11	37.924
708.43	35.054
708.74	36.607
709.06	39.907
709.38	37.089
709.70	39.454
710.02	36.693
710.34	38.830
710.66	36.313
710.98	40.984
711.29	38.462
711.61	39.831
711.93	41.311
712.25	39.189
712.57	41.888
712.89	37.941
713.20	38.757
713.52	39.884
713.84	37.604
714.16	38.684
714.48	38.402
714.80	40.000
715.11	35.171
715.43	36.340
715.75	38.684
716.07	37.569
716.39	38.798
716.70	37.952
717.02	39.016
717.34	38.328
717.66	39.262
717.97	38.356
718.29	40.206
718.61	37.500
718.93	39.806
719.24	34.472
719.56	39.571
719.88	39.339
720.20	36.774
720.51	35.714
720.83	36.562
721.15	37.829
721.46	35.959
721.78	38.000
722.10	33.333
722.42	36.242
722.73	37.742
723.05	40.351
723.37	36.111
723.68	40.502
724.00	35.740
724.32	34.859
724.63	37.063
724.95	40.071
725.27	41.463
725.58	39.929
725.90	45.172
726.22	35.737
726.53	39.286
726.85	38.679
727.16	37.160
727.48	33.945
727.80	39.404
728.11	33.569
728.43	40.067
728.74	36.789
729.06	35.430
729.38	39.286
729.69	36.577
730.01	34.524
730.32	32.727
730.64	38.050
730.96	37.267
731.27	39.385
731.59	37.637
731.90	34.026
732.22	36.979
732.53	33.425
732.85	35.143
733.16	33.138
733.48	34.451
733.80	30.919
734.11	37.892
734.43	36.757
734.74	36.456
735.06	32.915
735.37	38.649
735.69	37.568
736.00	39.831
736.32	33.962
736.63	36.389
736.95	32.184
737.26	33.333
737.58	34.545
737.89	37.353
738.21	34.862
738.52	35.082
738.83	38.567
739.15	36.170
739.46	38.776
739.78	34.969
740.09	33.238
740.41	35.860
740.72	41.667
741.04	36.246
741.35	36.842
741.66	36.078
741.98	39.344
742.29	41.423
742.61	41.667
742.92	36.923
743.23	39.711
743.55	40.310
743.86	34.000
744.18	34.711
744.49	35.865
744.80	39.506
745.12	33.333
745.43	39.837
745.74	38.793
746.06	41.525
746.37	37.131
746.68	43.902
747.00	35.000
747.31	34.335
747.62	37.308
747.94	34.818
748.25	38.153
748.56	41.633
748.88	41.453
749.19	43.966
749.50	38.528
749.82	44.578
750.13	40.214
750.44	32.000
750.75	34.769
751.07	38.769
751.38	35.962
751.69	34.505
752.01	35.275
752.32	33.987
752.63	36.735
752.94	33.218
753.26	36.059
753.57	33.333
753.88	37.453
754.19	35.370
754.51	36.656
754.82	34.727
755.13	37.705
755.44	38.567
755.75	34.539
756.07	35.224
756.38	34.906
756.69	37.349
757.00	30.471
757.31	34.153
757.63	29.923
757.94	31.221
758.25	33.183
758.56	31.808
758.87	29.773
759.18	31.467
759.50	34.561
759.81	35.294
760.12	34.771
760.43	33.073
760.74	30.788
761.05	32.750
761.36	31.566
761.67	31.218
761.99	31.081
762.30	32.622
762.61	33.333
762.92	35.821
763.23	32.584
763.54	34.892
763.85	32.990
764.16	33.670
764.47	37.676
764.78	30.671
765.10	32.258
765.41	35.897
765.72	29.365
766.03	35.593
766.34	31.348
766.65	34.495
766.96	32.669
767.27	37.788
767.58	32.836
767.89	40.385
768.20	31.455
768.51	35.185
768.82	30.120
769.13	37.879
769.44	28.077
769.75	34.657
770.06	34.615
770.37	36.614
770.68	30.213
770.99	31.579
771.30	34.815
771.61	36.122
771.92	33.333
772.23	32.389
772.54	33.796
772.85	36.406
773.16	38.571
773.47	34.921
773.78	32.973
774.09	40.909
774.39	39.000
774.70	39.891
775.01	32.927
775.32	31.176
775.63	32.515
775.94	25.478
776.25	38.710
776.56	38.462
776.87	42.857
777.18	36.552
777.48	46.853
777.79	37.838
778.10	32.353
778.41	39.583
778.72	36.552
779.03	38.889
779.34	37.576
779.65	36.788
779.95	34.444
780.26	37.500
780.57	36.129
780.88	41.304
781.19	40.645
781.50	40.000
781.80	36.022
782.11	30.159
782.42	25.758
782.73	31.737
783.04	31.844
783.34	35.152
783.65	33.333
783.96	37.267
784.27	32.143
784.57	38.411
784.88	45.714
785.19	37.795
785.50	44.094
785.81	36.090
786.11	42.308
786.42	29.496
786.73	33.094
787.04	41.353
787.34	36.066
787.65	45.600
787.96	42.537
788.26	37.762
788.57	46.853
788.88	33.553
789.19	36.601
789.49	37.671
789.80	26.950
790.11	35.433
790.41	37.500
790.72	44.915
791.03	29.126
791.33	30.435
791.64	38.596
791.95	40.179
792.25	34.286
792.56	37.500
792.87	35.417
793.17	44.643
793.48	34.375
793.79	19.277
794.09	37.615
794.40	43.119
794.70	35.374
795.01	31.818
795.32	30.822
795.62	40.141
795.93	25.000
796.23	36.885
796.54	28.571
796.85	39.362
797.15	36.957
797.46	35.616
797.76	38.750
798.07	45.652
798.37	28.866
798.68	32.468
798.99	42.529
799.29	33.708
799.60	39.362
799.90	34.940
800.21	49.231
800.51	35.821
800.82	27.941
801.12	26.027
801.43	42.647
801.73	52.542
802.04	34.848
802.34	48.333
802.65	62.712
802.95	41.791
803.26	52.542
803.56	36.986
803.87	51.429
804.17	43.836
804.48	26.316
804.78	45.833
805.09	46.552
805.39	45.946
805.70	30.986
806.00	50.000
806.30	46.988
806.61	31.507
806.91	29.808
807.22	42.222
807.52	28.736
807.83	44.444
808.13	54.217
808.43	33.708
808.74	41.250
809.04	25.000
809.35	33.333
809.65	50.000
809.95	39.726
810.26	21.053
810.56	36.207
810.86	48.529
811.17	38.596
811.47	31.148
811.77	48.889
812.08	42.373
812.38	33.333
812.69	55.172
812.99	41.509
813.29	51.282
813.59	58.000
813.90	49.123
814.20	27.273
814.50	54.930
814.81	48.718
815.11	32.787
815.41	35.821
815.72	37.931
816.02	67.857
816.32	51.111
816.62	34.091
816.93	13.333
817.23	57.407
817.53	59.574
817.84	47.619
818.14	50.000
818.44	40.816
818.74	51.111
819.04	43.590
819.35	68.571
819.65	23.077
819.95	43.396
820.25	66.667
820.56	33.333
820.86	43.750
821.16	58.974
821.46	39.535
821.76	20.000
822.07	44.643
822.37	54.348
822.67	57.447
822.97	43.243
823.27	55.000
823.57	67.347
823.88	62.222
824.18	77.500
824.48	70.000
824.78	68.000
825.08	54.545
825.38	55.556
825.69	44.681
825.99	72.222
826.29	20.000
826.59	74.359
826.89	27.907
827.19	48.000
827.49	61.765
827.79	70.833
828.09	18.919
828.39	53.333
828.70	58.537
829.00	51.163
829.30	75.000
829.60	73.529
829.90	47.826
830.20	45.714
830.50	82.759
830.80	88.889
831.10	96.154
831.40	61.765
831.70	100.000
832.00	100.000
832.30	29.412
832.60	58.333
832.90	-30.769
833.20	89.474
833.50	45.000
833.80	31.579
834.10	0.000
834.40	66.667
834.70	50.000
835.00	40.000
835.30	47.059
835.60	43.333
835.90	112.000
836.20	63.636
836.50	100.000
836.80	27.273
837.10	29.630
837.40	74.074
837.70	75.000
838.00	96.429
838.30	52.174
838.60	48.276
838.90	128.571
839.19	4.348
839.49	83.333
839.79	65.217
840.09	31.250
840.39	85.000
840.69	70.968
840.99	39.286
841.29	66.667
841.59	78.947
841.88	74.359
842.18	76.923
842.48	170.000
842.78	85.000
843.08	73.333
843.38	51.613
843.68	11.111
843.97	50.000
844.27	93.750
844.57	84.211
844.87	80.000
845.17	86.667
845.47	114.286
845.76	71.429
846.06	188.889
846.36	76.471
846.66	50.000
846.96	80.000
847.25	94.118
847.55	56.522
847.85	120.000
848.15	100.000
848.44	72.727
848.74	71.429
849.04	45.833
849.34	93.750
849.63	86.957
849.93	-300.000
850.23	73.333
850.53	100.000
850.82	72.727
851.12	86.364
851.42	163.636
851.71	123.077
852.01	50.000
852.31	215.385
852.61	100.000
852.90	116.667
853.20	61.111
853.50	88.889
853.79	42.857
854.09	72.727
854.39	66.667
854.68	67.742
854.98	15.385
855.28	127.778
855.57	32.143
855.87	48.000
856.17	63.636
856.46	62.963
856.76	61.111
857.05	100.000
857.35	45.833
857.65	100.000
857.94	95.238
858.24	103.704
858.53	47.826
858.83	88.235
859.13	152.941
859.42	82.353
859.72	100.000
860.01	50.000
860.31	44.444
860.60	210.000
860.90	126.667
861.20	44.444
861.49	192.308
861.79	50.000
862.08	53.846
862.38	62.500
862.67	123.529
862.97	125.000
863.26	33.333
863.56	50.000
863.85	136.364
864.15	83.333
864.44	566.667
864.74	121.429
865.03	31.250
865.33	-60.000
865.62	48.387
865.92	72.727
866.21	65.217
866.51	150.000
866.80	160.000
867.10	41.667
867.39	25.000
867.69	600.000
867.98	128.571
868.27	100.000
868.57	600.000
868.86	130.000
869.16	38.095
869.45	54.167
869.75	154.545
870.04	214.286
870.33	91.667
870.63	57.143
870.92	625.000
871.22	87.500
871.51	100.000
871.80	0.000
872.10	150.000
>>>>>End Processed Spectral Data<<<<<
