SpectraSuite Data File
++++++++++++++++++++++++++++++++++++
Date: Thu May 14 15:05:04 PDT 2015
User: schluterlab
Dark Spectrum Present: Yes
Reference Spectrum Present: Yes
Number of Sampled Component Spectra: 1
Spectrometers: USB2E3373
Integration Time (usec): 3000 (USB2E3373)
Spectra Averaged: 3 (USB2E3373)
Boxcar Smoothing: 0 (USB2E3373)
Correct for Electrical Dark: No (USB2E3373)
Strobe/Lamp Enabled: No (USB2E3373)
Correct for Detector Non-linearity: No (USB2E3373)
Correct for Stray Light: No (USB2E3373)
Number of Pixels in Processed Spectrum: 2048
>>>>>Begin Processed Spectral Data<<<<<
178.53	0.000
178.91	242.857
179.29	-3400.000
179.67	-2700.000
180.04	250.000
180.42	280.000
180.80	540.000
181.18	-2800.000
181.56	-1800.000
181.94	825.000
182.31	-350.000
182.69	500.000
183.07	-1000.000
183.45	700.000
183.83	-383.333
184.20	-900.000
184.58	2700.000
184.96	-750.000
185.34	-322.222
185.72	-440.000
186.09	411.111
186.47	1250.000
186.85	740.000
187.23	-277.778
187.61	-3000.000
187.98	440.000
188.36	825.000
188.74	-650.000
189.12	-366.667
189.49	-125.000
189.87	-387.500
190.25	-188.889
190.63	-320.000
191.00	-255.556
191.38	0.000
191.76	-725.000
192.14	-466.667
192.51	1150.000
192.89	-350.000
193.27	0.000
193.65	-371.429
194.02	-3400.000
194.40	-228.571
194.78	357.143
195.15	0.000
195.53	-236.364
195.91	0.000
196.29	-500.000
196.66	-123.077
197.04	-3600.000
197.42	-471.429
197.79	-1400.000
198.17	-312.500
198.55	-457.143
198.92	-244.444
199.30	-375.000
199.68	-227.273
200.05	-128.571
200.43	-1250.000
200.81	442.857
201.18	0.000
201.56	377.778
201.94	0.000
202.31	900.000
202.69	-277.778
203.07	2000.000
203.44	-344.444
203.82	-550.000
204.19	-241.667
204.57	-533.333
204.95	-375.000
205.32	-3000.000
205.70	750.000
206.08	-466.667
206.45	-316.667
206.83	780.000
207.20	-400.000
207.58	-640.000
207.96	-433.333
208.33	-300.000
208.71	183.333
209.08	-400.000
209.46	0.000
209.84	450.000
210.21	1150.000
210.59	1100.000
210.96	1033.333
211.34	-600.000
211.71	-312.500
212.09	-2300.000
212.46	0.000
212.84	1650.000
213.22	-560.000
213.59	-650.000
213.97	-190.000
214.34	-833.333
214.72	483.333
215.09	-575.000
215.47	0.000
215.84	271.429
216.22	1400.000
216.59	-360.000
216.97	-480.000
217.34	-550.000
217.72	-225.000
218.09	-675.000
218.47	-850.000
218.84	0.000
219.22	520.000
219.59	-135.294
219.97	-105.000
220.34	1450.000
220.72	-277.778
221.09	-107.692
221.47	-833.333
221.84	-240.000
222.22	-357.143
222.59	0.000
222.97	-312.500
223.34	-620.000
223.72	-2900.000
224.09	-875.000
224.46	-725.000
224.84	-520.000
225.21	-428.571
225.59	-875.000
225.96	-900.000
226.34	-76.923
226.71	500.000
227.08	-1500.000
227.46	-126.667
227.83	-575.000
228.21	-89.474
228.58	300.000
228.95	1350.000
229.33	-233.333
229.70	-290.000
230.08	-68.421
230.45	300.000
230.82	-600.000
231.20	-150.000
231.57	-225.000
231.95	-154.545
232.32	-245.455
232.69	-115.000
233.07	-675.000
233.44	-105.882
233.81	-320.000
234.19	-122.222
234.56	-118.182
234.93	-75.862
235.31	-110.526
235.68	-100.000
236.05	-175.000
236.43	-42.308
236.80	-28.000
237.17	-55.556
237.55	-60.606
237.92	-220.000
238.29	-41.935
238.67	-34.091
239.04	-52.778
239.41	-54.762
239.79	-58.696
240.16	-35.185
240.53	-39.130
240.91	-47.059
241.28	-26.230
241.65	-13.433
242.02	-13.514
242.40	-35.385
242.77	-21.333
243.14	-25.610
243.51	-23.684
243.89	-26.923
244.26	-1.980
244.63	-2.941
245.00	-12.150
245.38	-15.789
245.75	-14.159
246.12	-5.556
246.49	-11.628
246.87	4.286
247.24	0.000
247.61	-7.895
247.98	-2.013
248.36	-5.556
248.73	-4.294
249.10	-1.093
249.47	6.468
249.84	2.094
250.22	3.627
250.59	0.556
250.96	0.000
251.33	-2.551
251.70	2.991
252.08	6.667
252.45	0.820
252.82	0.000
253.19	3.125
253.56	4.943
253.94	-0.385
254.31	3.788
254.68	5.944
255.05	8.469
255.42	7.143
255.79	3.883
256.16	4.636
256.54	4.305
256.91	5.902
257.28	7.541
257.65	-0.637
258.02	0.000
258.39	6.268
258.76	7.645
259.14	6.322
259.51	9.510
259.88	8.782
260.25	7.222
260.62	7.945
260.99	8.743
261.36	10.456
261.73	7.958
262.10	6.044
262.47	6.971
262.85	11.869
263.22	7.532
263.59	6.316
263.96	6.650
264.33	7.673
264.70	9.383
265.07	10.979
265.44	9.524
265.81	6.019
266.18	11.338
266.55	8.929
266.92	6.378
267.29	9.628
267.66	9.978
268.03	9.825
268.40	7.516
268.77	5.695
269.14	7.269
269.51	5.921
269.88	8.197
270.25	10.060
270.62	11.181
270.99	11.919
271.36	11.287
271.73	9.823
272.10	11.623
272.47	12.024
272.84	10.241
273.21	8.417
273.58	9.476
273.95	9.808
274.32	6.844
274.69	9.091
275.06	9.524
275.43	9.057
275.80	8.113
276.17	8.333
276.54	8.209
276.91	9.302
277.28	7.414
277.65	7.181
278.02	9.375
278.39	8.152
278.76	8.612
279.13	9.397
279.50	10.825
279.87	8.945
280.23	8.451
280.60	9.661
280.97	9.868
281.34	9.508
281.71	10.998
282.08	9.302
282.45	8.674
282.82	9.576
283.19	7.916
283.56	7.705
283.92	11.862
284.29	12.480
284.66	10.181
285.03	8.173
285.40	11.283
285.77	8.669
286.14	8.855
286.51	9.741
286.87	8.689
287.24	10.693
287.61	8.221
287.98	7.100
288.35	9.467
288.72	10.059
289.08	9.810
289.45	8.876
289.82	8.434
290.19	8.477
290.56	8.028
290.93	9.415
291.29	8.127
291.66	8.540
292.03	7.598
292.40	9.252
292.77	7.817
293.13	8.796
293.50	7.753
293.87	8.188
294.24	9.600
294.60	9.735
294.97	7.383
295.34	8.579
295.71	7.188
296.08	8.786
296.44	8.701
296.81	9.013
297.18	7.472
297.55	8.491
297.91	7.236
298.28	7.583
298.65	6.183
299.02	7.438
299.38	8.124
299.75	7.827
300.12	5.903
300.48	7.719
300.85	6.974
301.22	7.606
301.59	6.279
301.95	7.797
302.32	8.111
302.69	7.010
303.05	7.835
303.42	7.761
303.79	6.562
304.15	7.256
304.52	6.765
304.89	7.539
305.25	7.971
305.62	7.524
305.99	7.113
306.35	6.149
306.72	7.032
307.09	6.193
307.45	6.936
307.82	7.164
308.19	6.761
308.55	7.232
308.92	7.205
309.29	7.854
309.65	6.433
310.02	7.030
310.38	6.791
310.75	6.796
311.12	7.287
311.48	6.549
311.85	5.603
312.22	6.641
312.58	6.854
312.95	7.457
313.31	7.588
313.68	7.509
314.05	7.769
314.41	8.925
314.78	7.539
315.14	7.350
315.51	7.664
315.87	7.651
316.24	8.037
316.61	7.726
316.97	7.240
317.34	6.614
317.70	7.424
318.07	9.083
318.43	7.908
318.80	8.528
319.16	7.897
319.53	7.112
319.89	7.800
320.26	8.541
320.62	7.092
320.99	8.680
321.35	8.318
321.72	9.488
322.08	6.853
322.45	7.046
322.81	7.310
323.18	6.283
323.54	7.241
323.91	7.295
324.27	7.057
324.64	8.900
325.00	7.131
325.37	7.781
325.73	7.521
326.10	8.273
326.46	8.632
326.83	8.247
327.19	7.559
327.56	7.589
327.92	8.733
328.29	7.581
328.65	8.375
329.01	7.022
329.38	7.919
329.74	8.048
330.11	8.562
330.47	8.425
330.84	7.580
331.20	8.000
331.56	7.452
331.93	7.866
332.29	7.712
332.66	7.890
333.02	7.789
333.38	7.215
333.75	8.081
334.11	8.007
334.48	8.498
334.84	9.176
335.20	7.473
335.57	7.841
335.93	8.678
336.29	7.321
336.66	6.392
337.02	8.696
337.38	7.228
337.75	7.851
338.11	7.401
338.47	8.850
338.84	6.937
339.20	7.077
339.56	7.002
339.93	8.374
340.29	7.407
340.65	7.380
341.02	7.981
341.38	8.003
341.74	6.538
342.11	8.447
342.47	7.069
342.83	8.776
343.20	8.095
343.56	7.698
343.92	7.686
344.28	7.812
344.65	8.450
345.01	7.956
345.37	7.465
345.73	7.638
346.10	9.048
346.46	7.041
346.82	7.341
347.19	7.639
347.55	7.815
347.91	8.470
348.27	7.436
348.63	8.073
349.00	8.352
349.36	8.178
349.72	7.664
350.08	7.875
350.45	6.996
350.81	7.089
351.17	7.068
351.53	8.112
351.89	8.808
352.26	7.612
352.62	7.985
352.98	6.489
353.34	6.796
353.70	7.242
354.07	7.228
354.43	7.669
354.79	7.479
355.15	7.285
355.51	8.114
355.87	7.255
356.24	7.452
356.60	7.169
356.96	7.413
357.32	7.063
357.68	7.174
358.04	6.811
358.40	8.433
358.77	7.749
359.13	7.533
359.49	6.691
359.85	8.049
360.21	8.034
360.57	7.466
360.93	7.193
361.29	8.211
361.66	7.024
362.02	7.724
362.38	7.519
362.74	8.101
363.10	7.772
363.46	8.241
363.82	7.173
364.18	7.319
364.54	7.469
364.90	8.094
365.26	6.276
365.62	8.933
365.98	7.556
366.35	7.651
366.71	7.483
367.07	7.645
367.43	8.076
367.79	7.167
368.15	7.826
368.51	7.713
368.87	7.773
369.23	7.533
369.59	8.060
369.95	7.708
370.31	7.360
370.67	7.221
371.03	8.518
371.39	6.917
371.75	6.671
372.11	7.995
372.47	8.125
372.83	7.657
373.19	8.672
373.55	7.249
373.91	7.294
374.27	8.021
374.63	7.848
374.99	8.223
375.35	8.312
375.71	8.387
376.07	7.553
376.42	8.753
376.78	9.136
377.14	7.798
377.50	7.780
377.86	8.621
378.22	7.485
378.58	7.848
378.94	8.333
379.30	7.557
379.66	8.466
380.02	7.963
380.38	8.295
380.74	8.169
381.09	7.724
381.45	8.636
381.81	9.251
382.17	8.729
382.53	8.538
382.89	8.070
383.25	8.148
383.61	7.639
383.97	8.363
384.32	7.596
384.68	7.367
385.04	8.791
385.40	8.544
385.76	8.851
386.12	9.396
386.48	9.118
386.83	8.582
387.19	8.459
387.55	8.040
387.91	8.048
388.27	8.949
388.62	8.133
388.98	8.855
389.34	9.664
389.70	8.658
390.06	8.940
390.42	8.373
390.77	8.790
391.13	8.627
391.49	8.998
391.85	7.939
392.20	8.956
392.56	8.919
392.92	9.542
393.28	8.513
393.64	8.603
393.99	9.239
394.35	7.710
394.71	9.042
395.07	7.725
395.42	8.681
395.78	9.080
396.14	8.318
396.50	8.492
396.85	8.348
397.21	8.817
397.57	8.775
397.92	9.336
398.28	7.768
398.64	8.124
399.00	8.429
399.35	8.901
399.71	8.859
400.07	8.815
400.42	9.080
400.78	8.391
401.14	9.163
401.49	7.902
401.85	8.256
402.21	8.691
402.57	9.096
402.92	7.742
403.28	7.670
403.63	7.995
403.99	8.432
404.35	8.641
404.70	8.612
405.06	7.935
405.42	8.489
405.77	9.651
406.13	8.266
406.49	8.052
406.84	8.809
407.20	8.385
407.55	8.904
407.91	7.857
408.27	8.481
408.62	9.133
408.98	8.299
409.34	7.390
409.69	8.158
410.05	8.558
410.40	9.049
410.76	8.469
411.11	9.585
411.47	8.047
411.83	8.818
412.18	8.735
412.54	7.943
412.89	8.207
413.25	7.788
413.60	8.731
413.96	9.033
414.31	8.385
414.67	8.527
415.03	8.554
415.38	8.386
415.74	8.247
416.09	8.883
416.45	8.203
416.80	8.568
417.16	8.812
417.51	8.780
417.87	8.461
418.22	8.982
418.58	8.612
418.93	8.847
419.29	8.261
419.64	8.283
420.00	8.368
420.35	8.703
420.71	8.156
421.06	7.936
421.42	7.339
421.77	8.454
422.12	8.879
422.48	8.756
422.83	8.981
423.19	8.488
423.54	8.739
423.90	8.172
424.25	8.640
424.61	8.381
424.96	9.061
425.31	9.236
425.67	8.535
426.02	8.246
426.38	7.865
426.73	8.594
427.09	9.689
427.44	8.957
427.79	8.900
428.15	8.162
428.50	8.933
428.85	8.840
429.21	9.096
429.56	8.490
429.92	8.845
430.27	8.964
430.62	9.184
430.98	8.952
431.33	9.335
431.68	9.243
432.04	9.345
432.39	8.891
432.74	8.733
433.10	9.194
433.45	9.030
433.80	8.369
434.16	9.246
434.51	9.301
434.86	9.283
435.22	9.458
435.57	9.257
435.92	8.792
436.28	9.329
436.63	9.503
436.98	8.964
437.34	9.132
437.69	8.641
438.04	9.307
438.39	9.018
438.75	8.246
439.10	10.201
439.45	8.664
439.81	8.814
440.16	8.525
440.51	9.365
440.86	8.449
441.22	8.896
441.57	9.015
441.92	9.263
442.27	9.798
442.63	9.091
442.98	9.392
443.33	9.942
443.68	10.010
444.03	10.301
444.39	10.125
444.74	8.831
445.09	8.870
445.44	9.484
445.79	9.626
446.15	9.815
446.50	8.786
446.85	10.117
447.20	9.333
447.55	10.408
447.91	9.005
448.26	9.567
448.61	9.086
448.96	9.871
449.31	9.862
449.66	8.606
450.02	10.127
450.37	9.590
450.72	9.688
451.07	8.371
451.42	10.168
451.77	8.949
452.12	9.424
452.47	8.972
452.83	9.572
453.18	9.282
453.53	9.018
453.88	9.939
454.23	10.339
454.58	9.518
454.93	8.617
455.28	9.633
455.63	8.926
455.98	9.721
456.34	9.364
456.69	8.877
457.04	8.924
457.39	9.368
457.74	9.732
458.09	8.786
458.44	10.291
458.79	9.025
459.14	9.072
459.49	10.130
459.84	9.811
460.19	8.662
460.54	9.370
460.89	9.423
461.24	9.253
461.59	9.297
461.94	7.986
462.29	9.127
462.64	9.294
462.99	9.102
463.34	8.436
463.69	8.968
464.04	10.395
464.39	9.809
464.74	9.008
465.09	9.112
465.44	9.657
465.79	9.413
466.14	9.015
466.49	10.000
466.84	9.421
467.19	9.422
467.54	8.931
467.89	8.736
468.24	9.307
468.59	8.164
468.94	8.974
469.29	8.998
469.64	8.392
469.99	9.305
470.34	9.777
470.68	8.066
471.03	9.430
471.38	8.764
471.73	8.257
472.08	9.518
472.43	9.753
472.78	8.942
473.13	8.786
473.48	8.943
473.83	9.750
474.17	9.672
474.52	9.441
474.87	9.690
475.22	9.408
475.57	8.567
475.92	9.657
476.27	9.904
476.61	9.450
476.96	9.333
477.31	9.257
477.66	9.811
478.01	9.202
478.36	9.272
478.70	9.409
479.05	9.765
479.40	9.773
479.75	10.279
480.10	9.806
480.45	9.708
480.79	9.887
481.14	9.191
481.49	9.405
481.84	9.399
482.19	9.419
482.53	10.013
482.88	10.279
483.23	9.827
483.58	9.301
483.92	9.309
484.27	9.145
484.62	9.282
484.97	9.759
485.31	9.504
485.66	9.317
486.01	9.935
486.36	10.684
486.70	11.256
487.05	11.193
487.40	9.984
487.75	9.924
488.09	9.918
488.44	9.433
488.79	9.781
489.13	9.920
489.48	9.165
489.83	9.054
490.17	9.599
490.52	9.401
490.87	9.560
491.22	10.529
491.56	9.727
491.91	9.507
492.26	9.779
492.60	9.751
492.95	10.180
493.30	9.637
493.64	9.812
493.99	9.342
494.34	9.538
494.68	9.208
495.03	9.868
495.37	9.854
495.72	9.796
496.07	9.597
496.41	9.524
496.76	10.133
497.11	9.809
497.45	9.840
497.80	9.551
498.14	9.569
498.49	9.283
498.84	9.963
499.18	9.807
499.53	9.865
499.87	10.110
500.22	9.216
500.56	9.492
500.91	9.703
501.26	10.045
501.60	10.031
501.95	9.900
502.29	10.004
502.64	9.139
502.98	10.440
503.33	9.460
503.67	9.464
504.02	9.326
504.36	9.920
504.71	9.922
505.06	9.550
505.40	9.324
505.75	10.200
506.09	9.715
506.44	9.749
506.78	9.725
507.13	10.005
507.47	9.711
507.82	10.085
508.16	9.130
508.51	9.048
508.85	9.684
509.19	10.658
509.54	10.279
509.88	10.053
510.23	9.859
510.57	10.343
510.92	9.966
511.26	9.764
511.61	10.188
511.95	9.956
512.30	10.044
512.64	9.295
512.98	10.005
513.33	10.433
513.67	9.689
514.02	10.629
514.36	9.309
514.70	9.427
515.05	10.845
515.39	9.869
515.74	10.180
516.08	10.143
516.42	10.937
516.77	10.095
517.11	10.005
517.46	9.915
517.80	10.262
518.14	10.609
518.49	9.816
518.83	10.538
519.17	9.693
519.52	9.958
519.86	11.035
520.20	10.277
520.55	9.693
520.89	9.741
521.23	9.715
521.58	10.734
521.92	10.482
522.26	9.679
522.61	9.954
522.95	9.862
523.29	10.402
523.64	10.650
523.98	10.439
524.32	10.946
524.66	9.732
525.01	10.023
525.35	9.707
525.69	10.093
526.04	10.390
526.38	10.057
526.72	10.208
527.06	10.381
527.41	10.262
527.75	10.986
528.09	10.980
528.43	10.302
528.78	10.116
529.12	9.920
529.46	10.455
529.80	9.725
530.15	10.435
530.49	9.490
530.83	10.921
531.17	10.036
531.51	10.108
531.86	10.096
532.20	10.915
532.54	10.293
532.88	9.818
533.22	10.194
533.57	10.791
533.91	10.718
534.25	10.175
534.59	10.402
534.93	9.677
535.27	10.028
535.62	10.404
535.96	11.156
536.30	10.282
536.64	10.330
536.98	10.701
537.32	10.802
537.66	10.543
538.01	10.091
538.35	9.927
538.69	10.096
539.03	10.178
539.37	10.071
539.71	9.790
540.05	10.971
540.39	9.230
540.73	10.261
541.07	10.300
541.42	10.514
541.76	9.490
542.10	9.710
542.44	9.196
542.78	10.097
543.12	10.131
543.46	10.501
543.80	9.712
544.14	10.114
544.48	10.757
544.82	10.233
545.16	10.256
545.50	10.006
545.84	9.308
546.18	10.988
546.52	9.236
546.86	10.063
547.20	9.860
547.54	10.112
547.88	9.765
548.22	9.942
548.56	9.830
548.90	10.328
549.24	9.605
549.58	9.779
549.92	10.140
550.26	9.644
550.60	10.211
550.94	9.444
551.28	9.703
551.62	9.973
551.96	10.291
552.30	9.815
552.64	10.268
552.98	10.667
553.32	10.804
553.66	10.161
554.00	10.467
554.34	10.103
554.68	9.490
555.02	9.987
555.36	9.796
555.69	10.186
556.03	9.836
556.37	10.263
556.71	9.639
557.05	10.032
557.39	9.754
557.73	10.700
558.07	10.596
558.41	9.967
558.75	10.074
559.08	9.534
559.42	9.534
559.76	10.380
560.10	10.047
560.44	10.224
560.78	10.500
561.12	10.283
561.45	10.341
561.79	10.134
562.13	10.043
562.47	9.988
562.81	10.063
563.15	9.722
563.48	10.006
563.82	9.492
564.16	9.388
564.50	9.476
564.84	10.206
565.17	10.529
565.51	10.184
565.85	9.917
566.19	10.023
566.52	10.064
566.86	10.300
567.20	9.679
567.54	10.196
567.88	10.092
568.21	10.919
568.55	10.312
568.89	10.622
569.23	10.646
569.56	11.059
569.90	10.941
570.24	10.388
570.57	10.552
570.91	10.533
571.25	10.761
571.59	10.771
571.92	10.314
572.26	10.985
572.60	10.538
572.93	10.493
573.27	10.396
573.61	10.429
573.95	10.634
574.28	10.652
574.62	10.050
574.96	10.322
575.29	10.245
575.63	10.187
575.97	10.419
576.30	10.363
576.64	10.045
576.98	10.456
577.31	10.644
577.65	10.710
577.98	10.693
578.32	10.572
578.66	10.573
578.99	10.506
579.33	10.116
579.67	9.973
580.00	9.980
580.34	10.188
580.67	10.503
581.01	10.039
581.35	10.501
581.68	10.790
582.02	10.863
582.35	10.868
582.69	10.794
583.02	10.297
583.36	10.290
583.70	9.884
584.03	9.527
584.37	10.146
584.70	9.853
585.04	10.091
585.37	10.407
585.71	10.809
586.04	10.634
586.38	10.399
586.72	10.178
587.05	9.747
587.39	10.421
587.72	10.550
588.06	10.397
588.39	10.281
588.73	10.212
589.06	10.045
589.40	10.049
589.73	10.251
590.07	10.511
590.40	10.581
590.73	10.357
591.07	10.015
591.40	9.409
591.74	10.135
592.07	10.516
592.41	9.858
592.74	10.437
593.08	11.051
593.41	11.169
593.75	10.575
594.08	10.270
594.41	10.353
594.75	10.296
595.08	10.061
595.42	10.260
595.75	9.945
596.09	10.640
596.42	10.247
596.75	10.343
597.09	11.071
597.42	10.012
597.75	10.192
598.09	10.476
598.42	10.575
598.76	9.935
599.09	10.644
599.42	10.258
599.76	10.565
600.09	10.844
600.42	10.744
600.76	10.799
601.09	10.455
601.42	9.955
601.76	10.931
602.09	9.971
602.42	10.105
602.76	10.443
603.09	10.536
603.42	10.007
603.76	10.078
604.09	11.036
604.42	10.606
604.76	9.855
605.09	10.371
605.42	10.407
605.75	10.192
606.09	9.630
606.42	9.996
606.75	10.007
607.09	9.908
607.42	9.981
607.75	9.965
608.08	10.063
608.42	10.077
608.75	10.572
609.08	10.059
609.41	9.704
609.75	10.402
610.08	10.070
610.41	10.195
610.74	10.420
611.07	9.813
611.41	10.314
611.74	10.485
612.07	10.379
612.40	9.601
612.73	10.024
613.07	10.122
613.40	10.250
613.73	10.063
614.06	9.764
614.39	9.232
614.72	10.141
615.06	9.625
615.39	10.101
615.72	10.379
616.05	9.616
616.38	10.646
616.71	10.293
617.05	9.638
617.38	10.433
617.71	9.827
618.04	10.146
618.37	9.836
618.70	10.181
619.03	9.498
619.36	8.693
619.69	9.289
620.03	9.730
620.36	9.325
620.69	9.994
621.02	10.171
621.35	10.740
621.68	10.268
622.01	9.537
622.34	8.577
622.67	9.622
623.00	9.177
623.33	9.555
623.66	9.144
623.99	9.019
624.32	11.176
624.65	9.073
624.99	9.623
625.32	10.973
625.65	9.508
625.98	9.492
626.31	9.709
626.64	10.037
626.97	8.927
627.30	9.036
627.63	8.777
627.96	10.135
628.29	9.728
628.62	9.740
628.95	9.378
629.28	8.836
629.61	9.343
629.94	8.703
630.26	8.983
630.59	9.585
630.92	8.831
631.25	9.392
631.58	9.228
631.91	8.810
632.24	8.838
632.57	9.203
632.90	8.325
633.23	9.082
633.56	7.755
633.89	7.955
634.22	9.667
634.55	7.203
634.88	9.199
635.20	9.903
635.53	8.362
635.86	9.859
636.19	9.226
636.52	10.232
636.85	9.091
637.18	9.044
637.51	9.032
637.83	9.081
638.16	8.641
638.49	7.746
638.82	10.710
639.15	8.706
639.48	8.083
639.81	7.621
640.13	9.423
640.46	6.667
640.79	6.005
641.12	9.814
641.45	6.524
641.77	10.270
642.10	8.136
642.43	9.707
642.76	9.621
643.09	7.671
643.41	7.423
643.74	8.138
644.07	11.034
644.40	8.487
644.73	6.386
645.05	8.223
645.38	8.345
645.71	7.771
646.04	9.900
646.36	7.007
646.69	7.362
647.02	8.563
647.35	9.771
647.67	8.052
648.00	6.847
648.33	9.459
648.66	7.703
648.98	6.531
649.31	8.796
649.64	9.429
649.96	9.019
650.29	6.398
650.62	7.638
650.94	7.508
651.27	7.335
651.60	7.895
651.92	7.295
652.25	8.538
652.58	8.666
652.90	8.576
653.23	10.000
653.56	7.133
653.88	10.253
654.21	9.155
654.54	8.237
654.86	9.490
655.19	7.654
655.52	10.615
655.84	12.866
656.17	14.819
656.49	20.244
656.82	20.743
657.15	14.768
657.47	10.584
657.80	7.235
658.13	5.462
658.45	6.897
658.78	8.107
659.10	7.518
659.43	7.271
659.75	6.526
660.08	6.162
660.41	6.782
660.73	7.070
661.06	4.846
661.38	6.539
661.71	6.207
662.03	9.347
662.36	8.945
662.68	7.692
663.01	9.381
663.33	6.994
663.66	10.623
663.98	6.346
664.31	6.191
664.63	4.624
664.96	8.893
665.28	6.534
665.61	8.916
665.93	5.536
666.26	5.197
666.58	5.166
666.91	8.224
667.23	7.048
667.56	7.101
667.88	7.800
668.21	4.492
668.53	3.282
668.86	7.859
669.18	5.703
669.50	7.753
669.83	5.800
670.15	7.480
670.48	7.937
670.80	7.839
671.13	7.183
671.45	5.118
671.77	7.910
672.10	7.000
672.42	9.061
672.75	7.066
673.07	9.552
673.39	6.163
673.72	9.732
674.04	8.276
674.37	8.587
674.69	8.995
675.01	5.333
675.34	6.679
675.66	6.929
675.98	7.836
676.31	8.594
676.63	7.795
676.95	9.195
677.28	7.460
677.60	5.315
677.92	5.950
678.25	6.947
678.57	7.117
678.89	9.727
679.22	7.666
679.54	5.641
679.86	6.271
680.18	8.458
680.51	9.277
680.83	7.365
681.15	7.931
681.48	7.945
681.80	7.599
682.12	6.294
682.44	6.177
682.77	6.383
683.09	7.197
683.41	5.426
683.73	6.262
684.06	8.118
684.38	5.009
684.70	8.259
685.02	6.885
685.34	5.824
685.67	6.625
685.99	7.669
686.31	8.140
686.63	6.161
686.96	6.467
687.28	7.655
687.60	5.051
687.92	5.305
688.24	6.511
688.56	5.862
688.89	5.989
689.21	5.675
689.53	3.725
689.85	5.720
690.17	5.741
690.49	4.781
690.82	6.139
691.14	3.644
691.46	6.501
691.78	8.840
692.10	5.872
692.42	5.714
692.74	6.171
693.06	5.000
693.39	7.400
693.71	6.391
694.03	7.621
694.35	4.952
694.67	5.955
694.99	5.319
695.31	7.506
695.63	7.359
695.95	6.004
696.27	6.813
696.59	5.310
696.91	4.730
697.23	6.813
697.56	5.906
697.88	6.439
698.20	4.520
698.52	8.144
698.84	5.613
699.16	7.755
699.48	7.322
699.80	6.809
700.12	5.240
700.44	4.839
700.76	4.988
701.08	8.717
701.40	4.404
701.72	4.726
702.04	4.011
702.36	3.927
702.68	5.623
703.00	4.401
703.32	6.158
703.64	5.868
703.96	5.012
704.28	3.686
704.60	6.329
704.91	5.357
705.23	5.205
705.55	3.343
705.87	3.030
706.19	5.521
706.51	2.711
706.83	3.170
707.15	6.085
707.47	7.243
707.79	6.769
708.11	3.390
708.43	2.796
708.74	2.679
709.06	3.248
709.38	7.512
709.70	6.452
710.02	2.326
710.34	3.191
710.66	3.631
710.98	5.464
711.29	5.220
711.61	5.650
711.93	5.128
712.25	3.243
712.57	6.785
712.89	6.471
713.20	6.213
713.52	5.780
713.84	5.014
714.16	5.000
714.48	3.866
714.80	6.753
715.11	5.774
715.43	5.305
715.75	6.316
716.07	3.039
716.39	4.372
716.70	0.602
717.02	2.295
717.34	2.091
717.66	3.691
717.97	-0.342
718.29	0.344
718.61	3.289
718.93	0.000
719.24	3.416
719.56	2.761
719.88	1.802
720.20	3.226
720.51	2.795
720.83	2.188
721.15	3.618
721.46	1.712
721.78	2.000
722.10	-0.324
722.42	0.000
722.73	2.258
723.05	4.561
723.37	3.472
723.68	6.452
724.00	3.249
724.32	0.352
724.63	2.098
724.95	6.738
725.27	2.091
725.58	1.413
725.90	4.483
726.22	3.762
726.53	2.273
726.85	2.516
727.16	6.344
727.48	8.257
727.80	4.967
728.11	1.767
728.43	2.694
728.74	4.348
729.06	-0.662
729.38	-0.325
729.69	-0.336
730.01	4.762
730.32	0.000
730.64	1.887
730.96	1.242
731.27	7.542
731.59	0.824
731.90	4.935
732.22	4.427
732.53	3.591
732.85	3.714
733.16	3.519
733.48	2.744
733.80	5.292
734.11	3.704
734.43	5.405
734.74	6.582
735.06	1.759
735.37	3.784
735.69	7.027
736.00	4.237
736.32	4.043
736.63	4.722
736.95	3.448
737.26	2.121
737.58	0.606
737.89	4.118
738.21	3.364
738.52	2.951
738.83	3.072
739.15	0.355
739.46	2.721
739.78	6.135
740.09	2.865
740.41	5.831
740.72	2.667
741.04	3.883
741.35	3.158
741.66	1.176
741.98	0.820
742.29	-2.510
742.61	1.316
742.92	4.231
743.23	5.054
743.55	-1.550
743.86	2.800
744.18	-2.893
744.49	-0.422
744.80	2.881
745.12	3.797
745.43	2.439
745.74	0.431
746.06	2.542
746.37	-0.844
746.68	2.033
747.00	1.667
747.31	-2.575
747.62	3.462
747.94	-0.810
748.25	0.402
748.56	-0.408
748.88	0.855
749.19	0.431
749.50	-0.433
749.82	2.008
750.13	7.117
750.44	2.667
750.75	4.615
751.07	3.077
751.38	0.315
751.69	2.556
752.01	3.236
752.32	2.288
752.63	-2.381
752.94	0.346
753.26	1.487
753.57	-4.074
753.88	0.000
754.19	3.859
754.51	2.251
754.82	3.859
755.13	4.918
755.44	3.072
755.75	4.934
756.07	7.164
756.38	2.516
756.69	6.928
757.00	4.432
757.31	3.552
757.63	2.558
757.94	4.695
758.25	5.643
758.56	4.793
758.87	7.500
759.18	6.667
759.50	5.949
759.81	7.843
760.12	5.930
760.43	4.427
760.74	5.419
761.05	4.750
761.36	4.096
761.67	5.076
761.99	2.973
762.30	2.134
762.61	0.660
762.92	4.478
763.23	0.375
763.54	3.597
763.85	2.405
764.16	3.030
764.47	2.465
764.78	3.834
765.10	1.760
765.41	9.487
765.72	3.175
766.03	5.085
766.34	1.254
766.65	-1.742
766.96	1.594
767.27	0.000
767.58	-4.478
767.89	2.885
768.20	1.408
768.51	1.389
768.82	2.811
769.13	4.545
769.44	-3.462
769.75	1.083
770.06	1.923
770.37	5.906
770.68	-5.957
770.99	-3.239
771.30	6.296
771.61	3.422
771.92	-0.741
772.23	5.263
772.54	-7.407
772.85	0.922
773.16	3.333
773.47	-6.878
773.78	-5.946
774.09	-2.841
774.39	3.500
774.70	-2.732
775.01	-5.488
775.32	-6.471
775.63	-3.681
775.94	-8.280
776.25	-10.968
776.56	-3.846
776.87	-1.361
777.18	-8.966
777.48	-6.993
777.79	-5.405
778.10	-11.029
778.41	-4.167
778.72	-2.759
779.03	-1.235
779.34	-1.818
779.65	-3.627
779.95	5.000
780.26	0.568
780.57	-3.871
780.88	-2.899
781.19	4.516
781.50	1.765
781.80	0.538
782.11	-2.646
782.42	-4.545
782.73	-8.383
783.04	5.587
783.34	-10.909
783.65	-14.379
783.96	-2.484
784.27	-5.952
784.57	-6.623
784.88	-2.857
785.19	-7.087
785.50	-4.724
785.81	-7.519
786.11	-1.538
786.42	-18.705
786.73	-10.791
787.04	-5.263
787.34	-15.574
787.65	-12.000
787.96	-1.493
788.26	-3.497
788.57	4.196
788.88	-5.921
789.19	-3.922
789.49	-4.795
789.80	-7.801
790.11	-5.512
790.41	-13.281
790.72	-13.559
791.03	-32.039
791.33	-6.957
791.64	-7.018
791.95	-16.071
792.25	-12.381
792.56	-5.357
792.87	-7.292
793.17	-7.143
793.48	-28.125
793.79	-26.506
794.09	-13.761
794.40	-8.257
794.70	-0.680
795.01	-5.195
795.32	-10.274
795.62	-2.817
795.93	-9.848
796.23	-13.934
796.54	-12.500
796.85	-26.596
797.15	-20.652
797.46	-31.507
797.76	-30.000
798.07	-7.609
798.37	-23.711
798.68	-32.468
798.99	-17.241
799.29	-23.596
799.60	-11.702
799.90	-27.711
800.21	-29.231
800.51	-38.806
800.82	-39.706
801.12	-38.356
801.43	-36.765
801.73	-38.983
802.04	-19.697
802.34	-28.333
802.65	-40.678
802.95	-14.925
803.26	-32.203
803.56	-19.178
803.87	-15.714
804.17	-13.699
804.48	-42.105
804.78	-26.389
805.09	-44.828
805.39	-14.865
805.70	-16.901
806.00	-10.976
806.30	-24.096
806.61	-31.507
806.91	-7.692
807.22	-23.333
807.52	-22.989
807.83	-23.611
808.13	-13.253
808.43	-20.225
808.74	-22.500
809.04	-48.529
809.35	-22.667
809.65	-24.286
809.95	-20.548
810.26	-43.860
810.56	-34.483
810.86	-22.059
811.17	-33.333
811.47	-32.787
811.77	-51.111
812.08	-22.034
812.38	-35.000
812.69	-32.759
812.99	-60.377
813.29	-71.795
813.59	-22.000
813.90	-28.070
814.20	-30.909
814.50	-8.451
814.81	-12.821
815.11	-29.508
815.41	-38.806
815.72	-13.793
816.02	-23.214
816.32	-42.222
816.62	-45.455
816.93	-48.889
817.23	-11.111
817.53	-29.787
817.84	-61.905
818.14	-67.647
818.44	-42.857
818.74	-51.111
819.04	-82.051
819.35	-88.571
819.65	-134.615
819.95	-52.830
820.25	-40.000
820.56	-64.286
820.86	-59.375
821.16	-51.282
821.46	-60.465
821.76	-80.000
822.07	-23.214
822.37	-60.870
822.67	-57.447
822.97	-86.486
823.27	-57.500
823.57	-20.408
823.88	-33.333
824.18	-57.500
824.48	-70.000
824.78	-104.000
825.08	-60.606
825.38	-17.778
825.69	-8.511
825.99	-27.778
826.29	-97.143
826.59	-61.538
826.89	-51.163
827.19	-40.000
827.49	-55.882
827.79	-29.167
828.09	-83.784
828.39	-110.000
828.70	-63.415
829.00	-48.837
829.30	-121.429
829.60	-61.765
829.90	-36.957
830.20	-40.000
830.50	-68.966
830.80	-111.111
831.10	-88.462
831.40	-58.824
831.70	-114.286
832.00	-54.839
832.30	-217.647
832.60	-125.000
832.90	-238.462
833.20	-89.474
833.50	-110.000
833.80	-110.526
834.10	-161.905
834.40	-36.111
834.70	-34.375
835.00	-80.000
835.30	-85.294
835.60	-96.667
835.90	-112.000
836.20	-131.818
836.50	-72.000
836.80	-75.758
837.10	-70.370
837.40	-74.074
837.70	-193.750
838.00	-82.143
838.30	-126.087
838.60	-75.862
838.90	-235.714
839.19	-173.913
839.49	-250.000
839.79	-95.652
840.09	-112.500
840.39	-150.000
840.69	-38.710
840.99	-92.857
841.29	-126.667
841.59	-126.316
841.88	-43.590
842.18	-76.923
842.48	-260.000
842.78	-120.000
843.08	-60.000
843.38	-45.161
843.68	-183.333
843.97	-61.765
844.27	-156.250
844.57	-121.053
844.87	-290.000
845.17	-173.333
845.47	-76.190
845.76	-114.286
846.06	-300.000
846.36	-170.588
846.66	-92.308
846.96	-100.000
847.25	-182.353
847.55	-91.304
847.85	-125.000
848.15	-117.647
848.44	-245.455
848.74	-119.048
849.04	-125.000
849.34	-150.000
849.63	-56.522
849.93	1850.000
850.23	-126.667
850.53	-38.462
850.82	-263.636
851.12	-72.727
851.42	-236.364
851.71	-115.385
852.01	-80.000
852.31	-184.615
852.61	-147.368
852.90	-175.000
853.20	-161.111
853.50	-400.000
853.79	-142.857
854.09	-100.000
854.39	-308.333
854.68	-61.290
854.98	-84.615
855.28	-83.333
855.57	-103.571
855.87	-120.000
856.17	-100.000
856.46	-77.778
856.76	-155.556
857.05	-86.957
857.35	-100.000
857.65	-169.231
857.94	-109.524
858.24	-48.148
858.53	-82.609
858.83	-88.235
859.13	-111.765
859.42	-82.353
859.72	-150.000
860.01	-155.000
860.31	-255.556
860.60	-230.000
860.90	-126.667
861.20	-133.333
861.49	-146.154
861.79	-83.333
862.08	-269.231
862.38	-40.625
862.67	-117.647
862.97	-137.500
863.26	-266.667
863.56	-240.000
863.85	-154.545
864.15	-88.889
864.44	-933.333
864.74	-164.286
865.03	-193.750
865.33	-310.000
865.62	-58.065
865.92	-109.091
866.21	-82.609
866.51	-185.714
866.80	-600.000
867.10	-291.667
867.39	-233.333
867.69	2800.000
867.98	-328.571
868.27	-100.000
868.57	-3400.000
868.86	-350.000
869.16	-109.524
869.45	-112.500
869.75	-245.455
870.04	-328.571
870.33	-200.000
870.63	-614.286
870.92	-650.000
871.22	-337.500
871.51	-218.182
871.80	-1000.000
872.10	-1300.000
>>>>>End Processed Spectral Data<<<<<
