SpectraSuite Data File
++++++++++++++++++++++++++++++++++++
Date: Thu May 14 15:16:41 PDT 2015
User: schluterlab
Dark Spectrum Present: Yes
Reference Spectrum Present: Yes
Number of Sampled Component Spectra: 1
Spectrometers: USB2E3373
Integration Time (usec): 3000 (USB2E3373)
Spectra Averaged: 3 (USB2E3373)
Boxcar Smoothing: 0 (USB2E3373)
Correct for Electrical Dark: No (USB2E3373)
Strobe/Lamp Enabled: No (USB2E3373)
Correct for Detector Non-linearity: No (USB2E3373)
Correct for Stray Light: No (USB2E3373)
Number of Pixels in Processed Spectrum: 2048
>>>>>Begin Processed Spectral Data<<<<<
178.53	0.000
178.91	514.286
179.29	-5400.000
179.67	-4600.000
180.04	421.429
180.42	420.000
180.80	740.000
181.18	-4000.000
181.56	-2700.000
181.94	975.000
182.31	-875.000
182.69	1100.000
183.07	-2000.000
183.45	1275.000
183.83	-750.000
184.20	-1533.333
184.58	3800.000
184.96	-1000.000
185.34	-511.111
185.72	-780.000
186.09	533.333
186.47	2100.000
186.85	1060.000
187.23	-455.556
187.61	-3700.000
187.98	720.000
188.36	1100.000
188.74	-1000.000
189.12	-1133.333
189.49	-187.500
189.87	-475.000
190.25	-411.111
190.63	-860.000
191.00	-444.444
191.38	0.000
191.76	-1000.000
192.14	-633.333
192.51	2200.000
192.89	-550.000
193.27	0.000
193.65	-600.000
194.02	-4000.000
194.40	-571.429
194.78	614.286
195.15	0.000
195.53	-327.273
195.91	0.000
196.29	-775.000
196.66	-292.308
197.04	-4500.000
197.42	-614.286
197.79	-2250.000
198.17	-500.000
198.55	-485.714
198.92	-422.222
199.30	-500.000
199.68	-300.000
200.05	-228.571
200.43	-2050.000
200.81	714.286
201.18	0.000
201.56	522.222
201.94	0.000
202.31	1533.333
202.69	-433.333
203.07	3800.000
203.44	-444.444
203.82	-1100.000
204.19	-350.000
204.57	-700.000
204.95	-525.000
205.32	-4400.000
205.70	975.000
206.08	-750.000
206.45	-716.667
206.83	1000.000
207.20	-650.000
207.58	-960.000
207.96	-716.667
208.33	-466.667
208.71	383.333
209.08	-650.000
209.46	0.000
209.84	800.000
210.21	1750.000
210.59	1900.000
210.96	1700.000
211.34	-1000.000
211.71	-550.000
212.09	-4300.000
212.46	0.000
212.84	2450.000
213.22	-1020.000
213.59	-900.000
213.97	-350.000
214.34	-1366.667
214.72	766.667
215.09	-1050.000
215.47	0.000
215.84	585.714
216.22	2450.000
216.59	-620.000
216.97	-740.000
217.34	-825.000
217.72	-450.000
218.09	-1075.000
218.47	-1025.000
218.84	0.000
219.22	740.000
219.59	-188.235
219.97	-215.000
220.34	2400.000
220.72	-433.333
221.09	-238.462
221.47	-900.000
221.84	-350.000
222.22	-542.857
222.59	0.000
222.97	-425.000
223.34	-780.000
223.72	-4000.000
224.09	-925.000
224.46	-950.000
224.84	-800.000
225.21	-671.429
225.59	-1150.000
225.96	-1175.000
226.34	-142.308
226.71	800.000
227.08	-2100.000
227.46	-233.333
227.83	-1125.000
228.21	-205.263
228.58	537.500
228.95	2050.000
229.33	-275.000
229.70	-370.000
230.08	-152.632
230.45	420.000
230.82	-1266.667
231.20	-285.714
231.57	-300.000
231.95	-445.455
232.32	-390.909
232.69	-170.000
233.07	-1050.000
233.44	-247.059
233.81	-390.000
234.19	-200.000
234.56	-168.182
234.93	-100.000
235.31	-215.789
235.68	-216.667
236.05	-220.000
236.43	-126.923
236.80	-84.000
237.17	-100.000
237.55	-133.333
237.92	-480.000
238.29	-125.806
238.67	-106.818
239.04	-119.444
239.41	-85.714
239.79	-86.957
240.16	-66.667
240.53	-91.304
240.91	-82.353
241.28	-68.852
241.65	-46.269
242.02	-51.351
242.40	-73.846
242.77	-49.333
243.14	-47.561
243.51	-76.316
243.89	-62.821
244.26	-37.624
244.63	-25.490
245.00	-33.645
245.38	-40.351
245.75	-43.363
246.12	-24.603
246.49	-34.884
246.87	-16.429
247.24	-16.556
247.61	-17.105
247.98	-24.832
248.36	-25.926
248.73	-25.153
249.10	-16.393
249.47	-10.945
249.84	-13.089
250.22	-22.798
250.59	-19.444
250.96	-15.000
251.33	-28.061
251.70	-14.530
252.08	-12.500
252.45	-13.115
252.82	-16.942
253.19	-14.062
253.56	-13.308
253.94	-16.154
254.31	-13.636
254.68	-10.140
255.05	-11.726
255.42	-14.286
255.79	-15.534
256.16	-15.232
256.54	-14.570
256.91	-7.869
257.28	-8.197
257.65	-13.694
258.02	-12.684
258.39	-11.396
258.76	-7.034
259.14	-7.759
259.51	-8.646
259.88	-13.031
260.25	-10.278
260.62	-8.219
260.99	-7.104
261.36	-7.775
261.73	-9.549
262.10	-9.341
262.47	-9.115
262.85	-4.040
263.22	-11.429
263.59	-13.158
263.96	-9.719
264.33	-10.997
264.70	-9.630
265.07	-5.489
265.44	-5.215
265.81	-10.648
266.18	-7.710
266.55	-7.143
266.92	-11.617
267.29	-6.127
267.66	-7.982
268.03	-5.459
268.40	-7.098
268.77	-10.478
269.14	-8.811
269.51	-8.114
269.88	-6.352
270.25	-6.640
270.62	-7.806
270.99	-5.657
271.36	-4.752
271.73	-7.269
272.10	-4.409
272.47	-7.415
272.84	-6.827
273.21	-5.812
273.58	-6.048
273.95	-5.577
274.32	-7.605
274.69	-7.544
275.06	-4.579
275.43	-4.806
275.80	-4.409
276.17	-6.481
276.54	-5.224
276.91	-6.798
277.28	-5.244
277.65	-5.566
278.02	-6.434
278.39	-5.797
278.76	-8.084
279.13	-7.624
279.50	-4.124
279.87	-6.261
280.23	-8.275
280.60	-5.424
280.97	-4.934
281.34	-6.791
281.71	-4.230
282.08	-4.817
282.45	-7.856
282.82	-5.495
283.19	-6.624
283.56	-5.246
283.92	-3.003
284.29	-2.686
284.66	-5.090
285.03	-6.250
285.40	-3.709
285.77	-5.882
286.14	-3.664
286.51	-5.175
286.87	-5.213
287.24	-4.217
287.61	-4.634
287.98	-4.079
288.35	-6.213
288.72	-4.586
289.08	-3.367
289.45	-5.473
289.82	-5.572
290.19	-3.879
290.56	-3.521
290.93	-6.134
291.29	-5.510
291.66	-4.959
292.03	-5.020
292.40	-3.537
292.77	-5.121
293.13	-4.601
293.50	-5.125
293.87	-4.832
294.24	-3.733
294.60	-5.183
294.97	-6.443
295.34	-2.049
295.71	-4.792
296.08	-4.134
296.44	-3.431
296.81	-4.385
297.18	-3.985
297.55	-4.599
297.91	-4.033
298.28	-4.028
298.65	-2.973
299.02	-5.195
299.38	-3.318
299.75	-2.453
300.12	-4.514
300.48	-4.493
300.85	-2.025
301.22	-3.468
301.59	-5.365
301.95	-4.746
302.32	-2.667
302.69	-3.286
303.05	-2.612
303.42	-2.217
303.79	-3.333
304.15	-2.839
304.52	-4.017
304.89	-4.188
305.25	-2.381
305.62	-2.926
305.99	-2.474
306.35	-3.125
306.72	-3.413
307.09	-4.162
307.45	-3.830
307.82	-3.229
308.19	-2.523
308.55	-1.639
308.92	-3.311
309.29	-2.299
309.65	-3.899
310.02	-3.762
310.38	-4.331
310.75	-3.107
311.12	-1.726
311.48	-3.226
311.85	-1.804
312.22	-2.562
312.58	-1.596
312.95	-2.964
313.31	-1.265
313.68	-2.106
314.05	-1.445
314.41	-1.639
314.78	-1.817
315.14	-1.543
315.51	-1.662
315.87	-0.360
316.24	-0.274
316.61	-0.089
316.97	-1.176
317.34	-0.970
317.70	-0.175
318.07	-0.617
318.43	1.105
318.80	1.003
319.16	-0.086
319.53	-0.428
319.89	-0.438
320.26	1.068
320.62	0.709
320.99	0.739
321.35	0.832
321.72	1.395
322.08	0.631
322.45	0.994
322.81	1.173
323.18	1.770
323.54	2.500
323.91	3.381
324.27	2.840
324.64	3.442
325.00	3.483
325.37	5.078
325.73	4.793
326.10	4.623
326.46	5.049
326.83	6.805
327.19	5.276
327.56	6.245
327.92	5.822
328.29	6.452
328.65	5.779
329.01	6.684
329.38	7.835
329.74	8.305
330.11	7.449
330.47	7.582
330.84	7.149
331.20	8.417
331.56	6.846
331.93	8.870
332.29	8.983
332.66	8.056
333.02	7.956
333.38	7.718
333.75	7.997
334.11	8.590
334.48	8.993
334.84	8.411
335.20	7.305
335.57	8.938
335.93	9.008
336.29	9.235
336.66	8.410
337.02	7.943
337.38	9.269
337.75	8.843
338.11	9.251
338.47	8.602
338.84	9.052
339.20	7.835
339.56	8.484
339.93	8.949
340.29	9.501
340.65	9.246
341.02	9.577
341.38	10.024
341.74	9.443
342.11	9.171
342.47	8.340
342.83	8.374
343.20	8.831
343.56	8.581
343.92	10.328
344.28	10.000
344.65	9.922
345.01	8.892
345.37	9.487
345.73	9.041
346.10	9.360
346.46	9.494
346.82	8.839
347.19	9.244
347.55	9.636
347.91	8.990
348.27	9.332
348.63	9.063
349.00	9.694
349.36	9.368
349.72	9.821
350.08	9.212
350.45	9.354
350.81	9.201
351.17	9.699
351.53	9.325
351.89	9.643
352.26	9.403
352.62	8.955
352.98	9.160
353.34	9.261
353.70	9.476
354.07	10.954
354.43	9.339
354.79	9.125
355.15	10.302
355.51	9.357
355.87	9.499
356.24	9.430
356.60	9.387
356.96	9.340
357.32	8.996
357.68	9.078
358.04	8.458
358.40	9.254
358.77	10.307
359.13	8.715
359.49	9.517
359.85	9.427
360.21	9.828
360.57	8.830
360.93	9.450
361.29	10.316
361.66	9.269
362.02	10.578
362.38	10.892
362.74	9.567
363.10	10.385
363.46	9.765
363.82	9.872
364.18	9.641
364.54	10.581
364.90	9.431
365.26	9.862
365.62	11.067
365.98	11.232
366.35	10.000
366.71	10.408
367.07	11.164
367.43	11.228
367.79	11.082
368.15	10.836
368.51	10.690
368.87	11.039
369.23	10.733
369.59	10.997
369.95	10.751
370.31	11.951
370.67	9.629
371.03	11.219
371.39	10.141
371.75	10.523
372.11	10.569
372.47	11.578
372.83	11.846
373.19	11.141
373.55	11.247
373.91	10.634
374.27	11.772
374.63	12.111
374.99	10.743
375.35	12.013
375.71	11.548
376.07	12.524
376.42	12.343
376.78	12.368
377.14	12.227
377.50	11.638
377.86	12.254
378.22	12.455
378.58	13.080
378.94	13.087
379.30	13.005
379.66	13.051
380.02	13.156
380.38	13.940
380.74	13.634
381.09	12.718
381.45	14.091
381.81	13.700
382.17	14.371
382.53	13.099
382.89	14.391
383.25	14.361
383.61	12.963
383.97	13.251
384.32	13.756
384.68	13.573
385.04	14.286
385.40	14.791
385.76	14.654
386.12	13.944
386.48	14.529
386.83	14.779
387.19	14.600
387.55	14.319
387.91	14.897
388.27	15.473
388.62	15.407
388.98	14.326
389.34	15.439
389.70	14.933
390.06	14.802
390.42	15.000
390.77	15.653
391.13	15.082
391.49	16.244
391.85	14.606
392.20	15.006
392.56	15.712
392.92	16.358
393.28	16.363
393.64	15.531
393.99	15.805
394.35	16.530
394.71	16.287
395.07	16.467
395.42	15.762
395.78	16.880
396.14	15.330
396.50	16.271
396.85	16.100
397.21	16.213
397.57	15.253
397.92	16.151
398.28	15.752
398.64	16.133
399.00	16.230
399.35	15.812
399.71	16.359
400.07	17.069
400.42	16.531
400.78	15.220
401.14	15.822
401.49	15.804
401.85	16.395
402.21	17.497
402.57	16.843
402.92	16.608
403.28	15.925
403.63	15.931
403.99	16.033
404.35	16.600
404.70	16.657
405.06	16.250
405.42	16.042
405.77	16.685
406.13	17.288
406.49	16.667
406.84	17.341
407.20	16.657
407.55	16.778
407.91	16.279
408.27	16.078
408.62	17.045
408.98	16.657
409.34	15.836
409.69	17.491
410.05	16.823
410.40	16.473
410.76	16.601
411.11	16.598
411.47	16.462
411.83	16.461
412.18	15.843
412.54	15.471
412.89	16.065
413.25	15.914
413.60	16.198
413.96	16.667
414.31	17.167
414.67	16.339
415.03	15.938
415.38	16.646
415.74	15.699
416.09	16.595
416.45	16.343
416.80	15.789
417.16	16.731
417.51	15.878
417.87	17.045
418.22	16.766
418.58	16.791
418.93	17.229
419.29	15.906
419.64	15.966
420.00	16.320
420.35	16.451
420.71	16.657
421.06	16.274
421.42	17.259
421.77	16.047
422.12	16.860
422.48	16.846
422.83	17.525
423.19	17.294
423.54	17.533
423.90	16.345
424.25	17.440
424.61	16.475
424.96	17.573
425.31	17.144
425.67	16.479
426.02	16.713
426.38	16.820
426.73	16.629
427.09	17.589
427.44	17.368
427.79	16.639
428.15	16.781
428.50	17.472
428.85	17.509
429.21	16.489
429.56	16.979
429.92	17.199
430.27	17.060
430.62	16.463
430.98	17.216
431.33	17.107
431.68	16.954
432.04	17.674
432.39	16.015
432.74	17.123
433.10	17.793
433.45	16.499
433.80	16.524
434.16	17.149
434.51	17.883
434.86	17.807
435.22	17.588
435.57	17.099
435.92	17.084
436.28	17.179
436.63	18.241
436.98	17.445
437.34	18.151
437.69	17.777
438.04	17.451
438.39	16.542
438.75	17.709
439.10	17.653
439.45	17.663
439.81	17.740
440.16	17.212
440.51	17.224
440.86	16.732
441.22	16.827
441.57	17.086
441.92	17.895
442.27	18.283
442.63	17.486
442.98	18.090
443.33	17.622
443.68	17.988
444.03	18.250
444.39	18.354
444.74	18.173
445.09	18.297
445.44	18.388
445.79	18.582
446.15	17.780
446.50	17.158
446.85	17.704
447.20	18.327
447.55	17.730
447.91	16.649
448.26	17.336
448.61	17.481
448.96	18.562
449.31	17.020
449.66	17.102
450.02	18.354
450.37	17.635
450.72	17.600
451.07	18.280
451.42	17.620
451.77	17.788
452.12	17.720
452.47	16.875
452.83	17.849
453.18	17.688
453.53	18.036
453.88	17.394
454.23	18.192
454.58	17.934
454.93	16.505
455.28	18.543
455.63	17.226
455.98	17.654
456.34	17.491
456.69	17.343
457.04	18.144
457.39	17.129
457.74	18.512
458.09	17.298
458.44	18.265
458.79	17.638
459.14	18.091
459.49	18.902
459.84	18.153
460.19	18.379
460.54	18.001
460.89	18.158
461.24	17.586
461.59	18.539
461.94	17.684
462.29	18.477
462.64	17.803
462.99	17.514
463.34	17.651
463.69	17.644
464.04	18.455
464.39	17.321
464.74	18.586
465.09	18.397
465.44	18.240
465.79	17.715
466.14	17.613
466.49	18.474
466.84	18.237
467.19	17.919
467.54	17.098
467.89	18.103
468.24	17.895
468.59	17.197
468.94	18.357
469.29	17.756
469.64	17.610
469.99	17.718
470.34	17.512
470.68	18.865
471.03	17.616
471.38	17.593
471.73	17.295
472.08	17.386
472.43	17.459
472.78	16.751
473.13	18.078
473.48	18.973
473.83	18.456
474.17	18.640
474.52	18.220
474.87	18.217
475.22	18.085
475.57	17.861
475.92	18.118
476.27	18.264
476.61	18.017
476.96	17.518
477.31	18.911
477.66	18.048
478.01	18.302
478.36	17.498
478.70	18.424
479.05	18.200
479.40	17.473
479.75	19.452
480.10	18.001
480.45	19.052
480.79	18.503
481.14	18.336
481.49	18.310
481.84	18.277
482.19	18.366
482.53	19.152
482.88	18.919
483.23	18.097
483.58	18.646
483.92	19.016
484.27	18.120
484.62	18.152
484.97	18.974
485.31	18.444
485.66	17.715
486.01	19.021
486.36	20.542
486.70	21.692
487.05	21.454
487.40	19.898
487.75	19.466
488.09	18.766
488.44	17.848
488.79	17.774
489.13	18.030
489.48	17.476
489.83	18.511
490.17	17.902
490.52	18.227
490.87	18.190
491.22	18.414
491.56	18.942
491.91	18.447
492.26	18.260
492.60	18.627
492.95	18.341
493.30	18.377
493.64	18.441
493.99	18.070
494.34	18.336
494.68	18.373
495.03	19.163
495.37	19.130
495.72	18.912
496.07	18.011
496.41	18.576
496.76	18.974
497.11	18.301
497.45	18.429
497.80	18.703
498.14	18.231
498.49	19.026
498.84	18.144
499.18	19.253
499.53	18.969
499.87	19.121
500.22	18.833
500.56	18.713
500.91	18.581
501.26	18.955
501.60	18.736
501.95	18.845
502.29	19.000
502.64	19.458
502.98	19.198
503.33	19.179
503.67	18.753
504.02	19.046
504.36	19.214
504.71	18.420
505.06	18.827
505.40	19.607
505.75	19.126
506.09	19.245
506.44	19.081
506.78	19.495
507.13	20.240
507.47	19.138
507.82	19.081
508.16	18.451
508.51	18.706
508.85	19.509
509.19	19.422
509.54	19.404
509.88	18.650
510.23	19.670
510.57	20.106
510.92	19.497
511.26	18.615
511.61	18.880
511.95	19.278
512.30	19.892
512.64	18.441
512.98	19.410
513.33	19.556
513.67	19.582
514.02	19.622
514.36	20.512
514.70	19.219
515.05	19.447
515.39	19.318
515.74	20.361
516.08	19.546
516.42	20.147
516.77	19.611
517.11	19.649
517.46	19.512
517.80	20.203
518.14	20.185
518.49	20.553
518.83	19.745
519.17	19.225
519.52	19.811
519.86	20.644
520.20	20.075
520.55	20.263
520.89	19.876
521.23	20.156
521.58	19.944
521.92	20.113
522.26	19.759
522.61	19.792
522.95	19.666
523.29	20.172
523.64	19.843
523.98	20.650
524.32	20.401
524.66	20.148
525.01	19.875
525.35	20.161
525.69	20.882
526.04	19.805
526.38	20.632
526.72	20.415
527.06	20.352
527.41	20.758
527.75	20.428
528.09	19.599
528.43	19.420
528.78	19.538
529.12	20.642
529.46	20.742
529.80	20.423
530.15	21.043
530.49	19.870
530.83	20.897
531.17	20.370
531.51	20.156
531.86	21.214
532.20	20.671
532.54	21.305
532.88	21.576
533.22	21.626
533.57	20.831
533.91	21.886
534.25	20.859
534.59	20.977
534.93	21.109
535.27	20.451
535.62	21.774
535.96	20.918
536.30	20.623
536.64	20.661
536.98	21.095
537.32	20.988
537.66	20.087
538.01	21.027
538.35	20.402
538.69	19.411
539.03	21.766
539.37	21.437
539.71	20.480
540.05	21.043
540.39	20.293
540.73	20.522
541.07	20.785
541.42	20.201
541.76	19.573
542.10	19.964
542.44	20.524
542.78	20.925
543.12	20.262
543.46	20.269
543.80	19.664
544.14	19.330
544.48	21.572
544.82	22.023
545.16	21.109
545.50	20.671
545.84	20.821
546.18	21.543
546.52	20.764
546.86	20.755
547.20	20.293
547.54	20.287
547.88	20.313
548.22	21.345
548.56	20.948
548.90	20.716
549.24	21.216
549.58	20.315
549.92	19.643
550.26	21.424
550.60	22.208
550.94	20.699
551.28	20.396
551.62	21.226
551.96	20.000
552.30	20.969
552.64	21.220
552.98	20.524
553.32	21.222
553.66	20.836
554.00	21.942
554.34	20.142
554.68	19.819
555.02	21.288
555.36	20.316
555.69	20.564
556.03	20.240
556.37	20.651
556.71	20.419
557.05	20.128
557.39	20.504
557.73	20.277
558.07	20.728
558.41	19.402
558.75	20.825
559.08	20.042
559.42	19.890
559.76	21.099
560.10	20.362
560.44	20.515
560.78	21.125
561.12	21.244
561.45	21.472
561.79	21.429
562.13	20.949
562.47	20.530
562.81	20.570
563.15	21.212
563.48	20.447
563.82	20.979
564.16	20.715
564.50	20.381
564.84	20.708
565.17	20.706
565.51	20.541
565.85	20.546
566.19	21.198
566.52	21.006
566.86	21.392
567.20	20.011
567.54	21.243
567.88	21.101
568.21	21.739
568.55	21.583
568.89	21.743
569.23	21.884
569.56	22.313
569.90	22.309
570.24	22.530
570.57	22.899
570.91	22.321
571.25	22.505
571.59	22.544
571.92	22.388
572.26	22.340
572.60	22.250
572.93	22.572
573.27	21.972
573.61	21.890
573.95	22.578
574.28	22.028
574.62	22.260
574.96	22.078
575.29	22.119
575.63	22.245
575.97	22.778
576.30	21.762
576.64	21.976
576.98	22.506
577.31	22.186
577.65	22.596
577.98	22.986
578.32	22.762
578.66	22.239
578.99	22.650
579.33	22.477
579.67	22.099
580.00	22.095
580.34	21.859
580.67	22.109
581.01	21.830
581.35	22.209
581.68	22.555
582.02	23.241
582.35	23.249
582.69	23.247
583.02	22.706
583.36	22.284
583.70	21.404
584.03	21.286
584.37	21.180
584.70	21.247
585.04	21.762
585.37	22.095
585.71	22.006
586.04	22.281
586.38	22.261
586.72	22.161
587.05	21.412
587.39	21.765
587.72	21.746
588.06	21.736
588.39	21.807
588.73	21.164
589.06	21.501
589.40	20.959
589.73	20.887
590.07	20.955
590.40	20.994
590.73	21.386
591.07	21.593
591.40	20.801
591.74	20.588
592.07	20.585
592.41	20.386
592.74	21.548
593.08	22.293
593.41	22.601
593.75	21.839
594.08	21.902
594.41	21.667
594.75	21.322
595.08	21.097
595.42	21.494
595.75	20.956
596.09	21.484
596.42	20.781
596.75	20.996
597.09	21.495
597.42	20.858
597.75	21.090
598.09	20.913
598.42	20.869
598.76	20.176
599.09	21.182
599.42	20.818
599.76	20.832
600.09	21.555
600.42	21.522
600.76	21.037
601.09	20.445
601.42	20.872
601.76	20.966
602.09	20.586
602.42	20.393
602.76	20.111
603.09	20.411
603.42	20.701
603.76	20.719
604.09	21.256
604.42	20.807
604.76	20.472
605.09	20.702
605.42	20.534
605.75	20.308
606.09	20.493
606.42	19.993
606.75	20.465
607.09	19.854
607.42	19.961
607.75	20.320
608.08	21.152
608.42	19.710
608.75	19.900
609.08	19.567
609.41	20.379
609.75	19.464
610.08	21.460
610.41	20.051
610.74	20.042
611.07	19.583
611.41	20.090
611.74	20.323
612.07	19.542
612.40	19.487
612.73	19.364
613.07	19.902
613.40	20.164
613.73	19.596
614.06	19.971
614.39	19.825
614.72	19.214
615.06	19.442
615.39	19.575
615.72	20.047
616.05	20.447
616.38	20.383
616.71	20.063
617.05	18.903
617.38	19.690
617.71	19.600
618.04	19.698
618.37	19.126
618.70	20.079
619.03	19.295
619.36	18.126
619.69	18.258
620.03	18.581
620.36	18.282
620.69	18.260
621.02	18.307
621.35	17.997
621.68	19.450
622.01	18.505
622.34	17.992
622.67	18.832
623.00	18.286
623.33	19.177
623.66	19.650
623.99	17.841
624.32	19.363
624.65	19.241
624.99	20.221
625.32	18.746
625.65	17.060
625.98	17.559
626.31	18.994
626.64	18.168
626.97	18.005
627.30	17.616
627.63	18.380
627.96	18.468
628.29	17.821
628.62	17.632
628.95	16.477
629.28	17.247
629.61	17.677
629.94	17.741
630.26	18.220
630.59	17.444
630.92	16.450
631.25	18.157
631.58	16.667
631.91	16.214
632.24	17.195
632.57	16.698
632.90	15.346
633.23	16.735
633.56	17.347
633.89	15.806
634.22	17.256
634.55	17.954
634.88	15.909
635.20	18.192
635.53	16.158
635.86	16.143
636.19	18.028
636.52	17.827
636.85	16.445
637.18	15.904
637.51	15.914
637.83	18.051
638.16	15.899
638.49	15.610
638.82	15.220
639.15	15.464
639.48	16.628
639.81	15.242
640.13	16.254
640.46	14.424
640.79	13.480
641.12	16.025
641.45	14.931
641.77	18.357
642.10	14.961
642.43	18.085
642.76	15.041
643.09	15.616
643.41	14.566
643.74	15.586
644.07	16.690
644.40	14.993
644.73	14.514
645.05	13.510
645.38	14.964
645.71	15.396
646.04	15.782
646.36	14.161
646.69	13.190
647.02	14.526
647.35	15.878
647.67	14.654
648.00	12.898
648.33	14.264
648.66	15.407
648.98	13.197
649.31	15.562
649.64	15.538
649.96	15.385
650.29	12.517
650.62	13.861
650.94	13.664
651.27	11.976
651.60	14.620
651.92	13.982
652.25	15.485
652.58	14.443
652.90	14.826
653.23	15.493
653.56	15.692
653.88	15.309
654.21	14.930
654.54	15.896
654.86	15.864
655.19	13.676
655.52	20.591
655.84	23.332
656.17	26.584
656.49	36.864
656.82	38.195
657.15	28.382
657.47	20.872
657.80	14.478
658.13	10.737
658.45	13.345
658.78	15.550
659.10	14.262
659.43	13.196
659.75	12.120
660.08	10.700
660.41	10.835
660.73	10.034
661.06	10.132
661.38	10.207
661.71	10.172
662.03	12.698
662.36	11.986
662.68	12.946
663.01	13.274
663.33	13.989
663.66	15.934
663.98	11.923
664.31	11.632
664.63	11.946
664.96	12.160
665.28	9.800
665.61	13.636
665.93	10.536
666.26	12.186
666.58	10.332
666.91	12.150
667.23	11.238
667.56	10.454
667.88	11.400
668.21	11.914
668.53	8.301
668.86	13.163
669.18	10.591
669.50	11.730
669.83	9.800
670.15	9.252
670.48	10.913
670.80	10.516
671.13	10.586
671.45	10.827
671.77	11.864
672.10	11.000
672.42	12.460
672.75	12.903
673.07	13.731
673.39	10.940
673.72	11.242
674.04	11.724
674.37	10.733
674.69	12.698
675.01	11.429
675.34	10.115
675.66	9.176
675.98	10.261
676.31	9.961
676.63	11.977
676.95	14.368
677.28	10.887
677.60	9.449
677.92	12.476
678.25	12.614
678.57	12.456
678.89	13.481
679.22	11.847
679.54	10.940
679.86	8.983
680.18	10.945
680.51	13.050
680.83	10.802
681.15	13.103
681.48	9.672
681.80	11.226
682.12	10.140
682.44	9.182
682.77	9.752
683.09	10.417
683.41	10.659
683.73	7.970
684.06	10.332
684.38	9.302
684.70	12.926
685.02	10.843
685.34	10.649
685.67	9.937
685.99	9.509
686.31	11.192
686.63	10.742
686.96	10.095
687.28	10.423
687.60	9.428
687.92	10.129
688.24	11.853
688.56	10.862
688.89	10.345
689.21	10.176
689.53	5.490
689.85	6.903
690.17	8.889
690.49	10.558
690.82	8.317
691.14	7.895
691.46	12.046
691.78	11.050
692.10	8.991
692.42	8.571
692.74	8.893
693.06	7.778
693.39	11.195
693.71	10.150
694.03	10.595
694.35	8.381
694.67	8.214
694.99	8.298
695.31	7.726
695.63	8.658
695.95	7.867
696.27	7.473
696.59	11.726
696.91	7.658
697.23	10.769
697.56	7.943
697.88	7.008
698.20	9.793
698.52	12.689
698.84	10.395
699.16	10.612
699.48	8.368
699.80	7.447
700.12	8.734
700.44	8.295
700.76	7.363
701.08	7.990
701.40	5.181
701.72	6.716
702.04	6.417
702.36	6.021
702.68	9.535
703.00	9.291
703.32	5.665
703.64	9.535
703.96	8.831
704.28	6.880
704.60	7.595
704.91	3.827
705.23	7.123
705.55	6.407
705.87	4.242
706.19	6.748
706.51	2.711
706.83	6.052
707.15	5.291
707.47	3.972
707.79	7.860
708.11	3.602
708.43	6.452
708.74	6.473
709.06	6.032
709.38	7.277
709.70	5.211
710.02	6.718
710.34	6.649
710.66	6.425
710.98	5.738
711.29	1.923
711.61	5.367
711.93	5.128
712.25	5.405
712.57	6.490
712.89	5.294
713.20	5.325
713.52	6.647
713.84	3.900
714.16	5.789
714.48	6.186
714.80	9.610
715.11	4.987
715.43	3.448
715.75	5.263
716.07	1.381
716.39	7.104
716.70	2.108
717.02	2.951
717.34	-1.394
717.66	3.691
717.97	2.055
718.29	0.687
718.61	0.987
718.93	4.531
719.24	0.621
719.56	3.988
719.88	4.505
720.20	2.258
720.51	4.658
720.83	0.625
721.15	0.987
721.46	1.370
721.78	0.333
722.10	1.942
722.42	0.000
722.73	0.968
723.05	0.000
723.37	1.736
723.68	3.584
724.00	0.000
724.32	1.408
724.63	-1.399
724.95	4.965
725.27	-0.348
725.58	1.060
725.90	4.483
726.22	2.508
726.53	3.247
726.85	5.660
727.16	1.511
727.48	7.034
727.80	2.318
728.11	-0.353
728.43	-0.673
728.74	1.003
729.06	1.656
729.38	1.948
729.69	2.349
730.01	3.274
730.32	-0.303
730.64	-0.314
730.96	-0.311
731.27	7.542
731.59	6.593
731.90	3.117
732.22	5.208
732.53	0.552
732.85	4.571
733.16	2.346
733.48	-2.744
733.80	4.457
734.11	5.413
734.43	5.135
734.74	6.076
735.06	3.266
735.37	3.784
735.69	2.703
736.00	2.825
736.32	1.348
736.63	2.778
736.95	2.299
737.26	3.636
737.58	0.606
737.89	4.118
738.21	1.223
738.52	0.328
738.83	0.000
739.15	-1.064
739.46	-0.340
739.78	4.908
740.09	2.865
740.41	4.082
740.72	-0.667
741.04	1.618
741.35	3.158
741.66	-1.569
741.98	-1.230
742.29	-2.929
742.61	-3.509
742.92	-3.462
743.23	-1.444
743.55	-4.651
743.86	0.000
744.18	-4.959
744.49	-5.063
744.80	-0.412
745.12	-0.422
745.43	2.439
745.74	-6.034
746.06	-1.271
746.37	-0.422
746.68	1.220
747.00	-2.917
747.31	-4.721
747.62	2.692
747.94	-1.619
748.25	-2.811
748.56	-2.857
748.88	0.855
749.19	0.862
749.50	-3.896
749.82	-3.213
750.13	4.982
750.44	-1.000
750.75	0.923
751.07	2.154
751.38	0.000
751.69	2.236
752.01	0.000
752.32	-2.614
752.63	-1.020
752.94	-0.692
753.26	-1.115
753.57	-1.481
753.88	-2.996
754.19	-1.286
754.51	0.965
754.82	1.286
755.13	0.000
755.44	-1.024
755.75	3.618
756.07	3.582
756.38	0.943
756.69	5.422
757.00	0.831
757.31	1.913
757.63	5.627
757.94	4.225
758.25	5.869
758.56	5.664
758.87	6.136
759.18	4.533
759.50	1.983
759.81	2.241
760.12	3.504
760.43	2.865
760.74	5.172
761.05	1.750
761.36	4.096
761.67	1.777
761.99	4.324
762.30	-1.220
762.61	-3.630
762.92	-1.119
763.23	-0.375
763.54	1.439
763.85	-2.749
764.16	1.347
764.47	-1.056
764.78	1.278
765.10	1.466
765.41	7.949
765.72	1.587
766.03	0.847
766.34	-1.567
766.65	0.000
766.96	-3.984
767.27	-5.530
767.58	-8.955
767.89	-1.923
768.20	-7.042
768.51	-7.407
768.82	3.614
769.13	0.379
769.44	-6.154
769.75	3.249
770.06	0.769
770.37	3.150
770.68	-1.702
770.99	-7.692
771.30	2.222
771.61	0.760
771.92	-2.222
772.23	-1.619
772.54	-4.630
772.85	-3.226
773.16	-1.429
773.47	-8.995
773.78	-11.351
774.09	-4.545
774.39	-5.500
774.70	-9.290
775.01	-19.512
775.32	-14.706
775.63	-14.110
775.94	-16.561
776.25	-9.032
776.56	-7.051
776.87	-12.925
777.18	-15.172
777.48	-14.685
777.79	-16.216
778.10	-28.676
778.41	-11.111
778.72	-13.103
779.03	-15.432
779.34	-12.727
779.65	-9.326
779.95	-4.444
780.26	-13.068
780.57	-17.419
780.88	-15.942
781.19	-10.323
781.50	-3.529
781.80	-5.376
782.11	-7.937
782.42	-10.101
782.73	-14.970
783.04	-10.615
783.34	-19.394
783.65	-13.725
783.96	-14.907
784.27	-14.881
784.57	-15.894
784.88	-13.571
785.19	-18.898
785.50	-23.622
785.81	-21.053
786.11	-15.385
786.42	-14.388
786.73	-22.302
787.04	-17.293
787.34	-25.410
787.65	-23.200
787.96	-22.388
788.26	-10.490
788.57	-6.294
788.88	-15.789
789.19	-11.111
789.49	-15.068
789.80	-9.220
790.11	-13.386
790.41	-20.312
790.72	-16.949
791.03	-36.893
791.33	-21.739
791.64	-26.316
791.95	-28.571
792.25	-22.857
792.56	-24.107
792.87	-39.583
793.17	-16.964
793.48	-33.333
793.79	-39.759
794.09	-32.110
794.40	-26.606
794.70	-12.925
795.01	-22.727
795.32	-15.068
795.62	-13.380
795.93	-23.485
796.23	-19.672
796.54	-28.571
796.85	-32.979
797.15	-33.696
797.46	-47.945
797.76	-35.000
798.07	-28.261
798.37	-32.990
798.68	-33.766
798.99	-33.333
799.29	-38.202
799.60	-29.787
799.90	-33.735
800.21	-64.615
800.51	-67.164
800.82	-51.471
801.12	-45.205
801.43	-55.882
801.73	-64.407
802.04	-50.000
802.34	-53.333
802.65	-55.932
802.95	-47.761
803.26	-66.102
803.56	-41.096
803.87	-30.000
804.17	-34.247
804.48	-75.439
804.78	-38.889
805.09	-72.414
805.39	-50.000
805.70	-52.113
806.00	-21.951
806.30	-33.735
806.61	-46.575
806.91	-30.769
807.22	-34.444
807.52	-45.977
807.83	-41.667
808.13	-33.735
808.43	-23.596
808.74	-36.250
809.04	-51.471
809.35	-32.000
809.65	-44.286
809.95	-38.356
810.26	-73.684
810.56	-55.172
810.86	-48.529
811.17	-70.175
811.47	-60.656
811.77	-86.667
812.08	-62.712
812.38	-55.000
812.69	-60.345
812.99	-58.491
813.29	-123.077
813.59	-86.000
813.90	-66.667
814.20	-72.727
814.50	-29.577
814.81	-30.769
815.11	-50.820
815.41	-43.284
815.72	-48.276
816.02	-64.286
816.32	-75.556
816.62	-81.818
816.93	-77.778
817.23	-40.741
817.53	-70.213
817.84	-76.190
818.14	-91.176
818.44	-65.306
818.74	-66.667
819.04	-100.000
819.35	-100.000
819.65	-176.923
819.95	-58.491
820.25	-77.778
820.56	-92.857
820.86	-131.250
821.16	-105.128
821.46	-106.977
821.76	-100.000
822.07	-58.929
822.37	-76.087
822.67	-74.468
822.97	-113.514
823.27	-107.500
823.57	-61.224
823.88	-66.667
824.18	-80.000
824.48	-126.667
824.78	-176.000
825.08	-96.970
825.38	-53.333
825.69	-57.447
825.99	-111.111
826.29	-134.286
826.59	-100.000
826.89	-95.349
827.19	-74.000
827.49	-102.941
827.79	-56.250
828.09	-89.189
828.39	-113.333
828.70	-95.122
829.00	-86.047
829.30	-167.857
829.60	-108.824
829.90	-97.826
830.20	-114.286
830.50	-162.069
830.80	-222.222
831.10	-150.000
831.40	-94.118
831.70	-171.429
832.00	-93.548
832.30	-270.588
832.60	-200.000
832.90	-330.769
833.20	-205.263
833.50	-255.000
833.80	-236.842
834.10	-257.143
834.40	-61.111
834.70	-78.125
835.00	-131.429
835.30	-102.941
835.60	-140.000
835.90	-144.000
836.20	-227.273
836.50	-144.000
836.80	-148.485
837.10	-133.333
837.40	-151.852
837.70	-293.750
838.00	-117.857
838.30	-195.652
838.60	-134.483
838.90	-321.429
839.19	-217.391
839.49	-441.667
839.79	-178.261
840.09	-256.250
840.39	-200.000
840.69	-93.548
840.99	-139.286
841.29	-273.333
841.59	-210.526
841.88	-61.538
842.18	-153.846
842.48	-450.000
842.78	-180.000
843.08	-110.000
843.38	-80.645
843.68	-272.222
843.97	-82.353
844.27	-225.000
844.57	-215.789
844.87	-510.000
845.17	-266.667
845.47	-171.429
845.76	-214.286
846.06	-422.222
846.36	-247.059
846.66	-111.538
846.96	-306.667
847.25	-223.529
847.55	-126.087
847.85	-170.000
848.15	-211.765
848.44	-381.818
848.74	-176.190
849.04	-162.500
849.34	-256.250
849.63	-156.522
849.93	2350.000
850.23	-240.000
850.53	-123.077
850.82	-345.455
851.12	-131.818
851.42	-227.273
851.71	-238.462
852.01	-205.000
852.31	-300.000
852.61	-205.263
852.90	-291.667
853.20	-238.889
853.50	-455.556
853.79	-247.619
854.09	-218.182
854.39	-341.667
854.68	-109.677
854.98	-146.154
855.28	-172.222
855.57	-171.429
855.87	-124.000
856.17	-163.636
856.46	-100.000
856.76	-233.333
857.05	-217.391
857.35	-166.667
857.65	-330.769
857.94	-133.333
858.24	-137.037
858.53	-178.261
858.83	-211.765
859.13	-229.412
859.42	-241.176
859.72	-250.000
860.01	-190.000
860.31	-455.556
860.60	-490.000
860.90	-226.667
861.20	-144.444
861.49	-315.385
861.79	-90.000
862.08	-323.077
862.38	-109.375
862.67	-170.588
862.97	-231.250
863.26	-533.333
863.56	-410.000
863.85	-390.909
864.15	-244.444
864.44	-1200.000
864.74	-300.000
865.03	-281.250
865.33	-410.000
865.62	-132.258
865.92	-177.273
866.21	-169.565
866.51	-300.000
866.80	-940.000
867.10	-341.667
867.39	-333.333
867.69	5700.000
867.98	-542.857
868.27	-229.412
868.57	-5100.000
868.86	-530.000
869.16	-185.714
869.45	-145.833
869.75	-336.364
870.04	-585.714
870.33	-291.667
870.63	-642.857
870.92	-875.000
871.22	-550.000
871.51	-372.727
871.80	-1633.333
872.10	-2250.000
>>>>>End Processed Spectral Data<<<<<
