SpectraSuite Data File
++++++++++++++++++++++++++++++++++++
Date: Thu May 14 14:43:22 PDT 2015
User: schluterlab
Dark Spectrum Present: Yes
Reference Spectrum Present: Yes
Number of Sampled Component Spectra: 1
Spectrometers: USB2E3373
Integration Time (usec): 3000 (USB2E3373)
Spectra Averaged: 3 (USB2E3373)
Boxcar Smoothing: 0 (USB2E3373)
Correct for Electrical Dark: No (USB2E3373)
Strobe/Lamp Enabled: No (USB2E3373)
Correct for Detector Non-linearity: No (USB2E3373)
Correct for Stray Light: No (USB2E3373)
Number of Pixels in Processed Spectrum: 2048
>>>>>Begin Processed Spectral Data<<<<<
178.53	0.000
178.91	-71.429
179.29	300.000
179.67	300.000
180.04	50.000
180.42	-30.000
180.80	20.000
181.18	-200.000
181.56	800.000
181.94	-100.000
182.31	200.000
182.69	33.333
183.07	-350.000
183.45	-50.000
183.83	150.000
184.20	0.000
184.58	-400.000
184.96	50.000
185.34	88.889
185.72	220.000
186.09	133.333
186.47	150.000
186.85	40.000
187.23	-44.444
187.61	-700.000
187.98	-60.000
188.36	75.000
188.74	-275.000
189.12	66.667
189.49	62.500
189.87	-100.000
190.25	166.667
190.63	200.000
191.00	-111.111
191.38	0.000
191.76	-25.000
192.14	66.667
192.51	150.000
192.89	-66.667
193.27	0.000
193.65	128.571
194.02	0.000
194.40	142.857
194.78	-14.286
195.15	0.000
195.53	163.636
195.91	0.000
196.29	75.000
196.66	23.077
197.04	300.000
197.42	-42.857
197.79	-50.000
198.17	62.500
198.55	100.000
198.92	55.556
199.30	-12.500
199.68	9.091
200.05	28.571
200.43	50.000
200.81	-85.714
201.18	0.000
201.56	122.222
201.94	0.000
202.31	-100.000
202.69	-44.444
203.07	-1100.000
203.44	44.444
203.82	75.000
204.19	133.333
204.57	116.667
204.95	75.000
205.32	-300.000
205.70	-100.000
206.08	16.667
206.45	83.333
206.83	-40.000
207.20	116.667
207.58	-40.000
207.96	0.000
208.33	216.667
208.71	8.333
209.08	66.667
209.46	0.000
209.84	50.000
210.21	-650.000
210.59	-50.000
210.96	-0.000
211.34	275.000
211.71	0.000
212.09	1200.000
212.46	0.000
212.84	300.000
213.22	40.000
213.59	125.000
213.97	50.000
214.34	33.333
214.72	116.667
215.09	-25.000
215.47	0.000
215.84	-14.286
216.22	150.000
216.59	60.000
216.97	-40.000
217.34	25.000
217.72	37.500
218.09	200.000
218.47	150.000
218.84	0.000
219.22	100.000
219.59	17.647
219.97	45.000
220.34	350.000
220.72	55.556
221.09	100.000
221.47	300.000
221.84	-50.000
222.22	-128.571
222.59	0.000
222.97	100.000
223.34	-160.000
223.72	-400.000
224.09	-50.000
224.46	0.000
224.84	180.000
225.21	-171.429
225.59	225.000
225.96	50.000
226.34	15.385
226.71	83.333
227.08	750.000
227.46	66.667
227.83	200.000
228.21	84.211
228.58	-0.000
228.95	-0.000
229.33	100.000
229.70	40.000
230.08	89.474
230.45	80.000
230.82	-200.000
231.20	-35.714
231.57	58.333
231.95	45.455
232.32	163.636
232.69	60.000
233.07	100.000
233.44	0.000
233.81	20.000
234.19	61.111
234.56	68.182
234.93	48.276
235.31	42.105
235.68	72.222
236.05	-5.000
236.43	73.077
236.80	64.000
237.17	18.519
237.55	30.303
237.92	-50.000
238.29	29.032
238.67	25.000
239.04	22.222
239.41	40.476
239.79	34.783
240.16	24.074
240.53	28.261
240.91	19.608
241.28	27.869
241.65	38.806
242.02	36.486
242.40	24.615
242.77	14.667
243.14	10.976
243.51	11.842
243.89	23.077
244.26	25.743
244.63	29.412
245.00	21.495
245.38	23.684
245.75	7.965
246.12	22.222
246.49	19.380
246.87	24.286
247.24	27.815
247.61	23.684
247.98	25.503
248.36	19.753
248.73	20.245
249.10	19.126
249.47	23.881
249.84	23.560
250.22	17.098
250.59	27.778
250.96	24.545
251.33	13.776
251.70	25.641
252.08	23.333
252.45	24.180
252.82	21.488
253.19	17.969
253.56	22.814
253.94	16.538
254.31	19.697
254.68	21.678
255.05	21.824
255.42	19.388
255.79	15.534
256.16	20.861
256.54	18.212
256.91	20.000
257.28	20.328
257.65	20.701
258.02	16.519
258.39	19.088
258.76	24.771
259.14	24.138
259.51	19.597
259.88	18.130
260.25	21.111
260.62	19.452
260.99	21.858
261.36	21.180
261.73	19.894
262.10	21.978
262.47	21.716
262.85	23.232
263.22	18.961
263.59	18.421
263.96	21.739
264.33	19.437
264.70	21.481
265.07	21.480
265.44	22.902
265.81	19.907
266.18	20.408
266.55	19.420
266.92	18.679
267.29	21.225
267.66	21.729
268.03	21.179
268.40	20.668
268.77	22.096
269.14	20.705
269.51	21.272
269.88	19.467
270.25	21.529
270.62	18.987
270.99	20.404
271.36	20.990
271.73	20.629
272.10	19.439
272.47	20.641
272.84	19.478
273.21	19.038
273.58	20.161
273.95	20.000
274.32	19.772
274.69	19.923
275.06	21.062
275.43	17.190
275.80	19.224
276.17	18.333
276.54	19.776
276.91	19.499
277.28	18.445
277.65	19.390
278.02	18.934
278.39	20.833
278.76	19.508
279.13	17.908
279.50	20.103
279.87	18.784
280.23	15.669
280.60	17.458
280.97	19.901
281.34	17.487
281.71	20.305
282.08	20.930
282.45	18.167
282.82	20.722
283.19	17.286
283.56	18.197
283.92	19.820
284.29	21.643
284.66	18.227
285.03	16.186
285.40	18.547
285.77	15.944
286.14	17.863
286.51	17.960
286.87	18.325
287.24	21.084
287.61	17.788
287.98	17.221
288.35	16.420
288.72	16.864
289.08	17.570
289.45	19.527
289.82	17.620
290.19	17.529
290.56	17.465
290.93	17.404
291.29	15.840
291.66	15.840
292.03	15.739
292.40	17.823
292.77	14.555
293.13	16.373
293.50	14.586
293.87	15.705
294.24	18.400
294.60	15.550
294.97	15.436
295.34	17.670
295.71	14.376
296.08	15.375
296.44	14.583
296.81	16.322
297.18	15.940
297.55	15.330
297.91	14.116
298.28	14.100
298.65	14.982
299.02	15.584
299.38	14.188
299.75	15.070
300.12	14.352
300.48	14.747
300.85	15.748
301.22	14.430
301.59	14.269
301.95	13.898
302.32	14.556
302.69	14.020
303.05	14.037
303.42	14.302
303.79	15.104
304.15	14.511
304.52	13.002
304.89	14.555
305.25	13.251
305.62	14.002
305.99	13.402
306.35	13.810
306.72	13.857
307.09	12.589
307.45	14.079
307.82	13.724
308.19	13.118
308.55	14.851
308.92	12.658
309.29	13.602
309.65	13.840
310.02	12.475
310.38	13.091
310.75	13.398
311.12	14.286
311.48	13.978
311.85	13.295
312.22	13.757
312.58	13.615
312.95	12.715
313.31	11.924
313.68	13.370
314.05	14.002
314.41	14.026
314.78	13.533
315.14	13.702
315.51	14.681
315.87	14.041
316.24	12.603
316.61	13.233
316.97	12.036
317.34	12.698
317.70	13.799
318.07	14.286
318.43	13.861
318.80	15.301
319.16	13.820
319.53	12.339
319.89	12.621
320.26	14.413
320.62	13.121
320.99	13.019
321.35	12.662
321.72	14.977
322.08	13.886
322.45	15.176
322.81	14.079
323.18	13.097
323.54	12.845
323.91	13.968
324.27	14.372
324.64	15.365
325.00	12.935
325.37	14.251
325.73	13.884
326.10	14.031
326.46	14.251
326.83	13.851
327.19	14.646
327.56	13.518
327.92	12.903
328.29	14.758
328.65	12.898
329.01	13.029
329.38	14.659
329.74	14.384
330.11	14.897
330.47	13.901
330.84	13.178
331.20	13.417
331.56	13.518
331.93	14.477
332.29	13.983
332.66	13.621
333.02	13.903
333.38	14.346
333.75	12.626
334.11	14.095
334.48	14.191
334.84	15.293
335.20	13.686
335.57	14.418
335.93	13.884
336.29	12.978
336.66	13.961
337.02	14.130
337.38	14.201
337.75	13.223
338.11	14.382
338.47	14.227
338.84	13.283
339.20	13.142
339.56	14.168
339.93	13.218
340.29	13.849
340.65	12.571
341.02	13.807
341.38	14.309
341.74	14.205
342.11	13.757
342.47	12.311
342.83	13.205
343.20	13.410
343.56	14.194
343.92	13.691
344.28	13.203
344.65	13.488
345.01	14.041
345.37	15.319
345.73	12.627
346.10	14.119
346.46	13.528
346.82	13.333
347.19	14.057
347.55	14.492
347.91	13.522
348.27	12.064
348.63	13.861
349.00	13.348
349.36	12.565
349.72	13.690
350.08	13.596
350.45	12.167
350.81	13.348
351.17	12.932
351.53	13.268
351.89	13.060
352.26	12.836
352.62	13.209
352.98	13.282
353.34	12.024
353.70	12.943
354.07	14.083
354.43	13.667
354.79	12.341
355.15	12.877
355.51	13.816
355.87	13.164
356.24	13.612
356.60	12.639
356.96	12.676
357.32	13.011
357.68	12.738
358.04	12.575
358.40	12.313
358.77	12.939
359.13	12.777
359.49	11.599
359.85	12.473
360.21	12.554
360.57	12.778
360.93	13.188
361.29	12.561
361.66	13.179
362.02	14.335
362.38	12.860
362.74	11.941
363.10	13.136
363.46	13.227
363.82	12.358
364.18	12.526
364.54	13.693
364.90	12.910
365.26	12.414
365.62	13.067
365.98	12.594
366.35	12.416
366.71	11.565
367.07	13.870
367.43	12.344
367.79	13.470
368.15	12.575
368.51	12.585
368.87	11.757
369.23	13.133
369.59	12.978
369.95	12.644
370.31	12.559
370.67	12.655
371.03	12.604
371.39	12.559
371.75	12.586
372.11	13.008
372.47	13.202
372.83	12.762
373.19	12.942
373.55	12.805
373.91	11.384
374.27	12.872
374.63	12.111
374.99	12.798
375.35	12.208
375.71	12.516
376.07	12.395
376.42	11.587
376.78	12.927
377.14	13.350
377.50	13.093
377.86	13.300
378.22	12.814
378.58	12.782
378.94	13.263
379.30	12.478
379.66	12.522
380.02	12.579
380.38	12.558
380.74	12.732
381.09	13.008
381.45	12.159
381.81	13.583
382.17	13.005
382.53	12.749
382.89	12.980
383.25	12.485
383.61	12.558
383.97	13.015
384.32	13.158
384.68	12.761
385.04	12.608
385.40	12.905
385.76	12.544
386.12	13.046
386.48	12.941
386.83	13.945
387.19	12.399
387.55	12.500
387.91	13.014
388.27	13.453
388.62	13.345
388.98	12.465
389.34	13.966
389.70	12.783
390.06	13.144
390.42	13.193
390.77	13.847
391.13	13.439
391.49	13.225
391.85	12.667
392.20	13.286
392.56	13.644
392.92	13.250
393.28	13.709
393.64	13.073
393.99	13.364
394.35	13.493
394.71	13.293
395.07	12.814
395.42	13.592
395.78	13.772
396.14	14.023
396.50	13.599
396.85	12.343
397.21	13.136
397.57	14.075
397.92	13.402
398.28	12.819
398.64	12.643
399.00	13.455
399.35	12.984
399.71	12.880
400.07	13.644
400.42	13.271
400.78	12.905
401.14	14.058
401.49	13.758
401.85	13.953
402.21	14.311
402.57	12.969
402.92	12.766
403.28	12.237
403.63	12.768
403.99	13.183
404.35	13.303
404.70	13.201
405.06	13.424
405.42	13.583
405.77	14.231
406.13	12.642
406.49	12.669
406.84	13.850
407.20	13.918
407.55	12.659
407.91	13.325
408.27	13.310
408.62	12.740
408.98	13.639
409.34	12.727
409.69	13.473
410.05	13.130
410.40	13.341
410.76	13.124
411.11	14.261
411.47	13.943
411.83	13.639
412.18	13.494
412.54	13.871
412.89	13.620
413.25	13.883
413.60	12.751
413.96	12.238
414.31	12.861
414.67	13.357
415.03	13.538
415.38	13.556
415.74	13.622
416.09	13.510
416.45	13.275
416.80	13.464
417.16	13.729
417.51	14.010
417.87	13.550
418.22	13.533
418.58	12.949
418.93	13.737
419.29	12.885
419.64	13.205
420.00	13.175
420.35	14.318
420.71	12.809
421.06	12.823
421.42	13.589
421.77	12.978
422.12	13.584
422.48	12.903
422.83	13.417
423.19	12.679
423.54	12.832
423.90	12.866
424.25	13.653
424.61	12.285
424.96	12.740
425.31	13.482
425.67	13.741
426.02	13.226
426.38	12.687
426.73	12.612
427.09	13.783
427.44	12.671
427.79	13.101
428.15	12.842
428.50	11.854
428.85	12.744
429.21	13.723
429.56	12.636
429.92	13.612
430.27	13.060
430.62	12.897
430.98	13.281
431.33	12.952
431.68	12.835
432.04	13.357
432.39	12.855
432.74	13.242
433.10	13.791
433.45	12.486
433.80	12.715
434.16	13.843
434.51	13.052
434.86	13.084
435.22	13.124
435.57	13.325
435.92	14.246
436.28	12.856
436.63	13.435
436.98	13.312
437.34	12.965
437.69	13.209
438.04	13.326
438.39	13.613
438.75	12.507
439.10	13.689
439.45	14.198
439.81	12.938
440.16	13.083
440.51	13.099
440.86	12.563
441.22	12.969
441.57	12.631
441.92	13.676
442.27	13.283
442.63	13.612
442.98	13.394
443.33	12.888
443.68	13.528
444.03	13.688
444.39	13.916
444.74	13.629
445.09	13.381
445.44	13.330
445.79	13.937
446.15	13.412
446.50	13.798
446.85	13.862
447.20	13.540
447.55	13.180
447.91	13.246
448.26	13.055
448.61	12.806
448.96	14.002
449.31	13.309
449.66	12.745
450.02	13.238
450.37	13.692
450.72	13.617
451.07	14.237
451.42	12.478
451.77	13.285
452.12	13.600
452.47	12.894
452.83	14.189
453.18	12.960
453.53	13.153
453.88	13.308
454.23	13.107
454.58	13.929
454.93	13.592
455.28	13.666
455.63	13.701
455.98	14.134
456.34	13.369
456.69	13.169
457.04	13.534
457.39	13.304
457.74	13.647
458.09	12.905
458.44	13.093
458.79	13.667
459.14	13.057
459.49	13.639
459.84	12.854
460.19	12.660
460.54	14.140
460.89	13.870
461.24	13.046
461.59	13.614
461.94	12.835
462.29	14.110
462.64	13.639
462.99	13.685
463.34	13.498
463.69	13.658
464.04	13.841
464.39	13.229
464.74	13.284
465.09	12.687
465.44	13.680
465.79	13.326
466.14	13.132
466.49	13.368
466.84	14.050
467.19	13.526
467.54	13.455
467.89	13.046
468.24	13.740
468.59	13.260
468.94	12.995
469.29	13.137
469.64	13.414
469.99	13.958
470.34	13.676
470.68	13.534
471.03	13.883
471.38	14.061
471.73	13.784
472.08	13.579
472.43	14.088
472.78	13.665
473.13	12.642
473.48	13.897
473.83	13.175
474.17	12.837
474.52	13.109
474.87	13.677
475.22	13.352
475.57	13.707
475.92	13.290
476.27	13.419
476.61	13.603
476.96	13.295
477.31	13.614
477.66	13.379
478.01	13.371
478.36	13.659
478.70	13.547
479.05	13.753
479.40	13.031
479.75	13.929
480.10	13.927
480.45	14.084
480.79	13.560
481.14	13.281
481.49	13.221
481.84	13.925
482.19	13.505
482.53	13.599
482.88	14.045
483.23	13.384
483.58	12.707
483.92	13.209
484.27	13.336
484.62	12.995
484.97	13.841
485.31	12.918
485.66	12.449
486.01	12.465
486.36	13.072
486.70	13.680
487.05	13.689
487.40	13.420
487.75	13.511
488.09	13.497
488.44	13.409
488.79	13.963
489.13	14.193
489.48	12.854
489.83	12.837
490.17	13.528
490.52	13.259
490.87	13.579
491.22	13.648
491.56	13.396
491.91	13.912
492.26	13.457
492.60	13.118
492.95	13.339
493.30	13.671
493.64	13.622
493.99	14.167
494.34	12.805
494.68	13.448
495.03	14.009
495.37	13.449
495.72	13.605
496.07	14.330
496.41	13.213
496.76	13.761
497.11	13.163
497.45	13.768
497.80	13.505
498.14	13.469
498.49	13.603
498.84	13.437
499.18	14.035
499.53	13.812
499.87	13.626
500.22	12.956
500.56	13.360
500.91	14.233
501.26	13.818
501.60	12.992
501.95	13.591
502.29	13.646
502.64	13.555
502.98	13.072
503.33	13.391
503.67	12.909
504.02	13.792
504.36	13.628
504.71	13.137
505.06	13.233
505.40	13.665
505.75	14.071
506.09	14.411
506.44	13.417
506.78	13.670
507.13	13.555
507.47	13.974
507.82	13.400
508.16	13.098
508.51	12.752
508.85	13.793
509.19	13.643
509.54	14.217
509.88	13.259
510.23	12.967
510.57	14.016
510.92	13.740
511.26	13.083
511.61	13.134
511.95	13.177
512.30	13.737
512.64	13.943
512.98	13.657
513.33	14.466
513.67	14.074
514.02	14.205
514.36	13.350
514.70	13.646
515.05	14.338
515.39	14.278
515.74	14.687
516.08	13.735
516.42	14.286
516.77	13.565
517.11	13.976
517.46	13.998
517.80	14.057
518.14	14.363
518.49	13.991
518.83	14.210
519.17	13.570
519.52	14.361
519.86	14.572
520.20	14.217
520.55	13.910
520.89	14.133
521.23	13.959
521.58	14.068
521.92	14.108
522.26	13.918
522.61	14.815
522.95	13.899
523.29	14.080
523.64	14.350
523.98	15.060
524.32	14.785
524.66	14.286
525.01	14.213
525.35	13.211
525.69	14.211
526.04	13.949
526.38	14.713
526.72	14.821
527.06	14.487
527.41	13.936
527.75	14.192
528.09	14.345
528.43	13.854
528.78	13.468
529.12	14.278
529.46	13.378
529.80	13.959
530.15	14.609
530.49	13.642
530.83	15.053
531.17	13.620
531.51	14.440
531.86	14.844
532.20	14.207
532.54	14.063
532.88	13.758
533.22	14.143
533.57	13.791
533.91	13.749
534.25	13.284
534.59	13.793
534.93	13.752
535.27	13.465
535.62	14.781
535.96	14.003
536.30	14.924
536.64	14.655
536.98	14.453
537.32	15.185
537.66	14.473
538.01	14.502
538.35	14.373
538.69	13.942
539.03	15.573
539.37	14.252
539.71	14.294
540.05	14.628
540.39	14.487
540.73	13.783
541.07	14.960
541.42	14.117
541.76	13.701
542.10	13.571
542.44	13.398
542.78	14.051
543.12	14.184
543.46	14.164
543.80	13.369
544.14	13.884
544.48	14.480
544.82	13.764
545.16	14.490
545.50	12.762
545.84	13.166
546.18	14.444
546.52	13.503
546.86	14.340
547.20	14.186
547.54	13.858
547.88	13.502
548.22	13.684
548.56	14.511
548.90	14.448
549.24	13.921
549.58	14.700
549.92	13.712
550.26	14.693
550.60	14.295
550.94	14.554
551.28	14.587
551.62	14.353
551.96	13.916
552.30	14.595
552.64	14.375
552.98	14.223
553.32	14.405
553.66	14.598
554.00	14.817
554.34	14.221
554.68	13.428
555.02	14.652
555.36	15.122
555.69	13.389
556.03	13.241
556.37	15.081
556.71	14.077
557.05	14.633
557.39	14.599
557.73	14.069
558.07	13.576
558.41	13.953
558.75	14.131
559.08	14.683
559.42	13.855
559.76	14.858
560.10	14.869
560.44	14.644
560.78	15.438
561.12	14.286
561.45	14.720
561.79	14.164
562.13	14.849
562.47	13.748
562.81	14.494
563.15	13.889
563.48	13.362
563.82	14.027
564.16	14.355
564.50	14.184
564.84	14.100
565.17	14.588
565.51	13.809
565.85	13.658
566.19	13.594
566.52	13.517
566.86	14.658
567.20	13.377
567.54	13.755
567.88	14.373
568.21	13.883
568.55	14.149
568.89	13.981
569.23	14.068
569.56	13.912
569.90	13.685
570.24	12.951
570.57	13.438
570.91	13.135
571.25	13.885
571.59	13.832
571.92	13.220
572.26	13.182
572.60	13.514
572.93	13.805
573.27	13.627
573.61	13.526
573.95	13.207
574.28	13.245
574.62	13.392
574.96	12.903
575.29	13.241
575.63	13.167
575.97	13.581
576.30	13.003
576.64	13.243
576.98	13.303
577.31	13.579
577.65	13.372
577.98	12.782
578.32	13.219
578.66	13.230
578.99	13.148
579.33	13.473
579.67	12.897
580.00	13.284
580.34	13.198
580.67	13.151
581.01	13.414
581.35	12.955
581.68	13.185
582.02	13.160
582.35	13.548
582.69	13.154
583.02	13.493
583.36	13.329
583.70	13.224
584.03	13.487
584.37	13.824
584.70	12.934
585.04	12.950
585.37	13.124
585.71	13.269
586.04	13.364
586.38	13.162
586.72	12.936
587.05	12.842
587.39	13.588
587.72	13.158
588.06	13.395
588.39	13.318
588.73	13.413
589.06	13.600
589.40	13.706
589.73	13.303
590.07	13.959
590.40	13.624
590.73	13.856
591.07	14.110
591.40	13.453
591.74	12.997
592.07	13.926
592.41	13.762
592.74	13.383
593.08	13.599
593.41	13.794
593.75	13.621
594.08	13.663
594.41	13.686
594.75	13.517
595.08	13.156
595.42	13.701
595.75	13.949
596.09	13.385
596.42	13.651
596.75	13.933
597.09	14.101
597.42	13.309
597.75	13.054
598.09	13.889
598.42	13.631
598.76	13.336
599.09	13.421
599.42	13.309
599.76	13.305
600.09	13.313
600.42	13.380
600.76	13.375
601.09	13.342
601.42	13.079
601.76	13.586
602.09	13.259
602.42	13.304
602.76	13.616
603.09	13.363
603.42	13.548
603.76	13.002
604.09	14.088
604.42	13.688
604.76	13.584
605.09	14.001
605.42	13.995
605.75	13.192
606.09	13.326
606.42	13.353
606.75	13.306
607.09	13.095
607.42	13.873
607.75	13.365
608.08	13.299
608.42	13.301
608.75	13.350
609.08	13.625
609.41	14.248
609.75	13.616
610.08	13.500
610.41	13.679
610.74	13.193
611.07	13.588
611.41	13.004
611.74	13.256
612.07	13.885
612.40	13.973
612.73	13.692
613.07	12.958
613.40	13.090
613.73	14.059
614.06	13.248
614.39	13.120
614.72	12.955
615.06	13.090
615.39	13.195
615.72	13.507
616.05	13.356
616.38	14.127
616.71	14.054
617.05	13.365
617.38	14.393
617.71	13.769
618.04	13.600
618.37	14.317
618.70	13.235
619.03	13.142
619.36	13.502
619.69	14.478
620.03	13.685
620.36	13.374
620.69	13.572
621.02	13.517
621.35	14.659
621.68	14.027
622.01	13.452
622.34	13.180
622.67	12.990
623.00	12.888
623.33	13.404
623.66	14.202
623.99	13.101
624.32	14.945
624.65	13.192
624.99	13.589
625.32	14.762
625.65	14.767
625.98	13.695
626.31	14.458
626.64	13.700
626.97	14.104
627.30	12.149
627.63	13.203
627.96	15.165
628.29	14.475
628.62	14.106
628.95	13.935
629.28	14.019
629.61	14.141
629.94	12.385
630.26	12.458
630.59	13.817
630.92	13.853
631.25	15.116
631.58	14.313
631.91	13.683
632.24	14.313
632.57	13.757
632.90	13.641
633.23	12.959
633.56	13.878
633.89	12.810
634.22	15.385
634.55	13.257
634.88	13.745
635.20	14.639
635.53	13.672
635.86	14.735
636.19	15.376
636.52	13.397
636.85	12.155
637.18	13.306
637.51	14.731
637.83	14.064
638.16	14.631
638.49	14.319
638.82	14.092
639.15	12.715
639.48	15.127
639.81	14.896
640.13	14.723
640.46	13.818
640.79	14.093
641.12	14.783
641.45	13.802
641.77	16.431
642.10	14.436
642.43	15.691
642.76	15.583
643.09	13.425
643.41	14.006
643.74	15.310
644.07	15.034
644.40	12.588
644.73	13.933
645.05	14.978
645.38	14.820
645.71	13.196
646.04	14.778
646.36	14.307
646.69	13.037
647.02	16.055
647.35	14.656
647.67	13.849
648.00	15.446
648.33	15.015
648.66	14.408
648.98	14.422
649.31	14.614
649.64	16.467
649.96	14.058
650.29	12.517
650.62	12.730
650.94	12.763
651.27	13.174
651.60	13.012
651.92	12.006
652.25	14.761
652.58	13.480
652.90	12.936
653.23	15.352
653.56	14.265
653.88	16.433
654.21	14.648
654.54	15.173
654.86	13.881
655.19	12.171
655.52	12.530
655.84	12.044
656.17	14.861
656.49	21.501
656.82	24.018
657.15	18.800
657.47	14.257
657.80	10.382
658.13	8.082
658.45	10.728
658.78	13.108
659.10	12.482
659.43	13.196
659.75	11.998
660.08	12.437
660.41	12.738
660.73	13.341
661.06	12.775
661.38	14.673
661.71	14.310
662.03	13.757
662.36	15.027
662.68	14.071
663.01	13.628
663.33	15.123
663.66	14.469
663.98	17.115
664.31	14.071
664.63	11.753
664.96	14.701
665.28	10.708
665.61	15.734
665.93	13.214
666.26	15.771
666.58	14.022
666.91	14.579
667.23	14.286
667.56	14.004
667.88	15.000
668.21	15.039
668.53	12.934
668.86	14.538
669.18	13.238
669.50	14.513
669.83	12.600
670.15	14.961
670.48	16.071
670.80	12.811
671.13	13.043
671.45	12.598
671.77	13.183
672.10	13.333
672.42	13.269
672.75	10.906
673.07	13.881
673.39	10.324
673.72	13.926
674.04	14.138
674.37	15.027
674.69	15.520
675.01	13.524
675.34	13.931
675.66	12.360
675.98	14.179
676.31	13.867
676.63	17.300
676.95	15.709
677.28	15.121
677.60	12.008
677.92	11.900
678.25	14.260
678.57	14.947
678.89	13.652
679.22	12.892
679.54	13.504
679.86	13.220
680.18	13.267
680.51	14.623
680.83	15.712
681.15	13.621
681.48	13.644
681.80	15.199
682.12	14.336
682.44	14.190
682.77	14.539
683.09	14.205
683.41	15.891
683.73	15.370
684.06	14.391
684.38	12.880
684.70	15.081
685.02	13.425
685.34	11.481
685.67	11.987
685.99	13.190
686.31	12.645
686.63	13.270
686.96	12.145
687.28	12.215
687.60	11.448
687.92	14.791
688.24	14.858
688.56	11.552
688.89	13.793
689.21	13.503
689.53	13.333
689.85	13.807
690.17	12.593
690.49	14.741
690.82	12.871
691.14	13.158
691.46	11.281
691.78	16.022
692.10	13.394
692.42	13.036
692.74	13.249
693.06	11.852
693.39	14.801
693.71	12.218
694.03	13.011
694.35	11.810
694.67	15.195
694.99	13.404
695.31	15.011
695.63	13.636
695.95	14.493
696.27	13.626
696.59	13.717
696.91	13.514
697.23	14.725
697.56	12.220
697.88	13.636
698.20	15.066
698.52	16.477
698.84	13.098
699.16	14.490
699.48	12.552
699.80	12.340
700.12	11.572
700.44	16.820
700.76	16.390
701.08	16.465
701.40	14.767
701.72	16.169
702.04	14.973
702.36	12.304
702.68	16.626
703.00	12.469
703.32	14.039
703.64	13.203
703.96	14.797
704.28	13.268
704.60	13.671
704.91	14.541
705.23	14.247
705.55	14.485
705.87	13.333
706.19	11.656
706.51	12.349
706.83	13.833
707.15	9.524
707.47	13.318
707.79	12.882
708.11	8.686
708.43	10.108
708.74	11.384
709.06	15.081
709.38	16.667
709.70	16.625
710.02	13.178
710.34	15.426
710.66	12.291
710.98	13.934
711.29	14.835
711.61	17.232
711.93	14.530
712.25	12.973
712.57	16.814
712.89	15.882
713.20	14.497
713.52	15.029
713.84	12.535
714.16	16.053
714.48	14.433
714.80	18.442
715.11	11.286
715.43	13.263
715.75	13.947
716.07	12.707
716.39	15.301
716.70	12.349
717.02	15.082
717.34	10.801
717.66	15.101
717.97	14.041
718.29	14.433
718.61	10.855
718.93	13.916
719.24	14.286
719.56	12.577
719.88	12.312
720.20	13.226
720.51	13.043
720.83	11.563
721.15	12.829
721.46	12.671
721.78	10.333
722.10	8.091
722.42	12.081
722.73	12.903
723.05	14.386
723.37	12.500
723.68	12.186
724.00	18.412
724.32	13.380
724.63	15.035
724.95	15.603
725.27	15.331
725.58	15.194
725.90	15.172
726.22	12.853
726.53	17.532
726.85	12.893
727.16	11.782
727.48	16.514
727.80	15.563
728.11	13.781
728.43	15.488
728.74	12.375
729.06	15.232
729.38	16.558
729.69	15.436
730.01	15.179
730.32	9.394
730.64	12.579
730.96	9.627
731.27	13.408
731.59	15.659
731.90	14.026
732.22	12.240
732.53	9.116
732.85	13.714
733.16	13.490
733.48	11.280
733.80	13.092
734.11	12.821
734.43	12.973
734.74	15.949
735.06	11.307
735.37	12.973
735.69	12.703
736.00	14.124
736.32	14.286
736.63	13.333
736.95	11.207
737.26	14.242
737.58	11.818
737.89	17.647
738.21	12.232
738.52	13.770
738.83	12.628
739.15	10.284
739.46	12.585
739.78	15.337
740.09	12.321
740.41	15.160
740.72	12.000
741.04	14.239
741.35	13.333
741.66	12.941
741.98	14.754
742.29	14.644
742.61	10.965
742.92	14.231
743.23	18.412
743.55	18.605
743.86	16.000
744.18	13.223
744.49	14.346
744.80	12.757
745.12	13.924
745.43	13.008
745.74	12.069
746.06	16.102
746.37	14.768
746.68	19.512
747.00	16.667
747.31	12.017
747.62	15.385
747.94	14.980
748.25	10.040
748.56	8.571
748.88	13.248
749.19	18.103
749.50	14.719
749.82	16.064
750.13	17.082
750.44	12.667
750.75	12.000
751.07	12.615
751.38	14.196
751.69	14.058
752.01	14.239
752.32	13.072
752.63	11.905
752.94	13.495
753.26	13.755
753.57	12.593
753.88	11.985
754.19	15.113
754.51	12.219
754.82	14.148
755.13	13.443
755.44	15.700
755.75	15.132
756.07	15.522
756.38	14.780
756.69	14.759
757.00	12.188
757.31	13.115
757.63	12.020
757.94	11.268
758.25	15.124
758.56	14.161
758.87	14.318
759.18	17.333
759.50	17.564
759.81	15.126
760.12	14.555
760.43	14.844
760.74	14.286
761.05	12.000
761.36	9.157
761.67	10.914
761.99	13.243
762.30	15.854
762.61	12.541
762.92	11.940
763.23	12.360
763.54	14.748
763.85	11.684
764.16	15.152
764.47	13.732
764.78	15.016
765.10	11.730
765.41	15.128
765.72	11.905
766.03	12.147
766.34	13.480
766.65	11.498
766.96	11.952
767.27	11.982
767.58	14.925
767.89	18.269
768.20	15.962
768.51	15.278
768.82	16.466
769.13	17.803
769.44	11.538
769.75	14.801
770.06	11.923
770.37	20.079
770.68	13.191
770.99	8.502
771.30	17.407
771.61	16.350
771.92	12.222
772.23	13.765
772.54	11.574
772.85	16.590
773.16	14.286
773.47	11.640
773.78	10.811
774.09	16.477
774.39	18.500
774.70	19.126
775.01	11.585
775.32	12.353
775.63	19.018
775.94	10.828
776.25	14.839
776.56	22.436
776.87	20.408
777.18	15.862
777.48	11.189
777.79	9.459
778.10	5.882
778.41	20.139
778.72	15.172
779.03	15.432
779.34	15.758
779.65	18.653
779.95	16.667
780.26	11.932
780.57	18.065
780.88	18.116
781.19	23.226
781.50	20.588
781.80	12.903
782.11	14.286
782.42	9.091
782.73	11.377
783.04	16.760
783.34	14.545
783.65	12.418
783.96	12.422
784.27	13.690
784.57	11.921
784.88	15.714
785.19	9.449
785.50	7.087
785.81	12.782
786.11	17.692
786.42	15.108
786.73	14.388
787.04	13.534
787.34	14.754
787.65	18.400
787.96	18.657
788.26	15.385
788.57	15.385
788.88	11.184
789.19	20.915
789.49	21.233
789.80	13.475
790.11	18.898
790.41	13.281
790.72	16.949
791.03	21.359
791.33	22.609
791.64	21.930
791.95	18.750
792.25	20.000
792.56	16.964
792.87	19.792
793.17	23.214
793.48	15.625
793.79	10.843
794.09	15.596
794.40	20.183
794.70	13.605
795.01	17.532
795.32	10.959
795.62	14.789
795.93	12.879
796.23	21.311
796.54	16.964
796.85	14.894
797.15	10.870
797.46	6.849
797.76	13.750
798.07	14.130
798.37	13.402
798.68	10.390
798.99	14.943
799.29	11.236
799.60	35.106
799.90	12.048
800.21	6.154
800.51	7.463
800.82	8.824
801.12	-5.479
801.43	4.412
801.73	11.864
802.04	7.576
802.34	5.000
802.65	33.898
802.95	13.433
803.26	16.949
803.56	13.699
803.87	12.857
804.17	27.397
804.48	1.754
804.78	12.500
805.09	18.966
805.39	20.270
805.70	0.000
806.00	14.634
806.30	26.506
806.61	9.589
806.91	15.385
807.22	17.778
807.52	6.897
807.83	25.000
808.13	15.663
808.43	23.596
808.74	17.500
809.04	4.412
809.35	17.333
809.65	10.000
809.95	6.849
810.26	-7.018
810.56	22.414
810.86	19.118
811.17	14.035
811.47	0.000
811.77	2.222
812.08	10.169
812.38	13.333
812.69	32.759
812.99	-7.547
813.29	0.000
813.59	14.000
813.90	17.544
814.20	9.091
814.50	26.761
814.81	11.538
815.11	18.033
815.41	13.433
815.72	29.310
816.02	16.071
816.32	31.111
816.62	20.455
816.93	20.000
817.23	24.074
817.53	34.043
817.84	11.905
818.14	8.824
818.44	18.367
818.74	26.667
819.04	17.949
819.35	5.714
819.65	7.692
819.95	11.321
820.25	31.111
820.56	9.524
820.86	15.625
821.16	17.949
821.46	4.651
821.76	-2.000
822.07	12.500
822.37	4.348
822.67	8.511
822.97	2.703
823.27	17.500
823.57	51.020
823.88	33.333
824.18	17.500
824.48	13.333
824.78	28.000
825.08	3.030
825.38	40.000
825.69	8.511
825.99	11.111
826.29	-28.571
826.59	28.205
826.89	-2.326
827.19	12.000
827.49	50.000
827.79	45.833
828.09	5.405
828.39	0.000
828.70	7.317
829.00	16.279
829.30	-17.857
829.60	41.176
829.90	23.913
830.20	-2.857
830.50	27.586
830.80	50.000
831.10	-3.846
831.40	5.882
831.70	52.381
832.00	19.355
832.30	-111.765
832.60	12.500
832.90	7.692
833.20	-10.526
833.50	-55.000
833.80	5.263
834.10	-71.429
834.40	38.889
834.70	46.875
835.00	11.429
835.30	26.471
835.60	-6.667
835.90	-8.000
836.20	-13.636
836.50	60.000
836.80	-3.030
837.10	44.444
837.40	14.815
837.70	6.250
838.00	35.714
838.30	-21.739
838.60	24.138
838.90	21.429
839.19	-82.609
839.49	-50.000
839.79	13.043
840.09	0.000
840.39	-20.000
840.69	38.710
840.99	-32.143
841.29	-20.000
841.59	21.053
841.88	12.821
842.18	38.462
842.48	0.000
842.78	5.000
843.08	43.333
843.38	35.484
843.68	33.333
843.97	23.529
844.27	31.250
844.57	-5.263
844.87	40.000
845.17	6.667
845.47	-4.762
845.76	33.333
846.06	100.000
846.36	-88.235
846.66	23.077
846.96	33.333
847.25	-5.882
847.55	86.957
847.85	20.000
848.15	-5.882
848.44	36.364
848.74	80.952
849.04	8.333
849.34	-31.250
849.63	-8.696
849.93	100.000
850.23	-6.667
850.53	50.000
850.82	-9.091
851.12	68.182
851.42	-36.364
851.71	100.000
852.01	10.000
852.31	53.846
852.61	47.368
852.90	83.333
853.20	77.778
853.50	-11.111
853.79	-4.762
854.09	-40.909
854.39	-33.333
854.68	9.677
854.98	0.000
855.28	66.667
855.57	-3.571
855.87	44.000
856.17	31.818
856.46	51.852
856.76	22.222
857.05	34.783
857.35	-16.667
857.65	30.769
857.94	38.095
858.24	51.852
858.53	43.478
858.83	88.235
859.13	23.529
859.42	47.059
859.72	21.429
860.01	5.000
860.31	-33.333
860.60	80.000
860.90	86.667
861.20	16.667
861.49	7.692
861.79	0.000
862.08	-7.692
862.38	31.250
862.67	29.412
862.97	25.000
863.26	77.778
863.56	150.000
863.85	36.364
864.15	16.667
864.44	-33.333
864.74	28.571
865.03	-25.000
865.33	-20.000
865.62	29.032
865.92	68.182
866.21	52.174
866.51	-7.143
866.80	-100.000
867.10	-50.000
867.39	-50.000
867.69	100.000
867.98	128.571
868.27	41.176
868.57	-600.000
868.86	-10.000
869.16	14.286
869.45	12.500
869.75	72.727
870.04	14.286
870.33	58.333
870.63	-114.286
870.92	75.000
871.22	-187.500
871.51	-18.182
871.80	-33.333
872.10	-350.000
>>>>>End Processed Spectral Data<<<<<
