SpectraSuite Data File
++++++++++++++++++++++++++++++++++++
Date: Thu May 14 15:16:43 PDT 2015
User: schluterlab
Dark Spectrum Present: Yes
Reference Spectrum Present: Yes
Number of Sampled Component Spectra: 1
Spectrometers: USB2E3373
Integration Time (usec): 3000 (USB2E3373)
Spectra Averaged: 3 (USB2E3373)
Boxcar Smoothing: 0 (USB2E3373)
Correct for Electrical Dark: No (USB2E3373)
Strobe/Lamp Enabled: No (USB2E3373)
Correct for Detector Non-linearity: No (USB2E3373)
Correct for Stray Light: No (USB2E3373)
Number of Pixels in Processed Spectrum: 2048
>>>>>Begin Processed Spectral Data<<<<<
178.53	0.000
178.91	585.714
179.29	-5100.000
179.67	-4500.000
180.04	371.429
180.42	370.000
180.80	860.000
181.18	-4300.000
181.56	-3300.000
181.94	875.000
182.31	-975.000
182.69	1433.333
183.07	-1900.000
183.45	1075.000
183.83	-450.000
184.20	-1166.667
184.58	3000.000
184.96	-900.000
185.34	-400.000
185.72	-700.000
186.09	477.778
186.47	2300.000
186.85	900.000
187.23	-544.444
187.61	-4400.000
187.98	780.000
188.36	1150.000
188.74	-850.000
189.12	-1133.333
189.49	-225.000
189.87	-575.000
190.25	-411.111
190.63	-680.000
191.00	-522.222
191.38	0.000
191.76	-1000.000
192.14	-666.667
192.51	2200.000
192.89	-550.000
193.27	0.000
193.65	-571.429
194.02	-4900.000
194.40	-528.571
194.78	657.143
195.15	0.000
195.53	-345.455
195.91	0.000
196.29	-825.000
196.66	-284.615
197.04	-3700.000
197.42	-642.857
197.79	-1950.000
198.17	-500.000
198.55	-571.429
198.92	-288.889
199.30	-512.500
199.68	-381.818
200.05	-285.714
200.43	-2050.000
200.81	642.857
201.18	0.000
201.56	488.889
201.94	0.000
202.31	1466.667
202.69	-466.667
203.07	3800.000
203.44	-366.667
203.82	-875.000
204.19	-283.333
204.57	-766.667
204.95	-500.000
205.32	-3800.000
205.70	925.000
206.08	-566.667
206.45	-600.000
206.83	980.000
207.20	-683.333
207.58	-860.000
207.96	-666.667
208.33	-583.333
208.71	425.000
209.08	-466.667
209.46	0.000
209.84	700.000
210.21	1950.000
210.59	2000.000
210.96	1300.000
211.34	-775.000
211.71	-500.000
212.09	-4100.000
212.46	0.000
212.84	2300.000
213.22	-700.000
213.59	-925.000
213.97	-400.000
214.34	-1333.333
214.72	716.667
215.09	-1025.000
215.47	0.000
215.84	600.000
216.22	2450.000
216.59	-740.000
216.97	-760.000
217.34	-825.000
217.72	-387.500
218.09	-1000.000
218.47	-1075.000
218.84	0.000
219.22	560.000
219.59	-217.647
219.97	-120.000
220.34	2000.000
220.72	-466.667
221.09	-230.769
221.47	-1433.333
221.84	-450.000
222.22	-685.714
222.59	0.000
222.97	-437.500
223.34	-940.000
223.72	-3700.000
224.09	-1150.000
224.46	-1200.000
224.84	-640.000
225.21	-671.429
225.59	-1200.000
225.96	-825.000
226.34	-126.923
226.71	783.333
227.08	-2400.000
227.46	-220.000
227.83	-850.000
228.21	-173.684
228.58	575.000
228.95	1900.000
229.33	-291.667
229.70	-340.000
230.08	-131.579
230.45	530.000
230.82	-1200.000
231.20	-235.714
231.57	-341.667
231.95	-336.364
232.32	-272.727
232.69	-215.000
233.07	-1025.000
233.44	-188.235
233.81	-400.000
234.19	-177.778
234.56	-140.909
234.93	-96.552
235.31	-168.421
235.68	-227.778
236.05	-205.000
236.43	-103.846
236.80	-76.000
237.17	-103.704
237.55	-87.879
237.92	-420.000
238.29	-100.000
238.67	-72.727
239.04	-94.444
239.41	-64.286
239.79	-65.217
240.16	-44.444
240.53	-67.391
240.91	-76.471
241.28	-45.902
241.65	-43.284
242.02	-27.027
242.40	-44.615
242.77	-42.667
243.14	-36.585
243.51	-43.421
243.89	-26.923
244.26	-9.901
244.63	-15.686
245.00	-22.430
245.38	-16.667
245.75	-34.513
246.12	-15.873
246.49	-18.605
246.87	-18.571
247.24	-7.285
247.61	-7.895
247.98	-14.094
248.36	-8.025
248.73	-6.135
249.10	-7.104
249.47	2.985
249.84	1.047
250.22	-7.772
250.59	-11.667
250.96	-1.364
251.33	-7.653
251.70	3.419
252.08	0.833
252.45	-2.869
252.82	6.198
253.19	1.563
253.56	5.703
253.94	0.385
254.31	3.409
254.68	4.196
255.05	3.909
255.42	1.701
255.79	-0.324
256.16	3.311
256.54	0.993
256.91	4.262
257.28	4.590
257.65	3.822
258.02	0.590
258.39	5.128
258.76	7.339
259.14	5.747
259.51	6.052
259.88	2.833
260.25	3.889
260.62	7.397
260.99	9.290
261.36	6.702
261.73	6.897
262.10	4.945
262.47	4.826
262.85	9.091
263.22	3.377
263.59	5.526
263.96	7.928
264.33	7.161
264.70	8.889
265.07	9.785
265.44	7.483
265.81	6.019
266.18	8.617
266.55	6.696
266.92	6.834
267.29	8.534
267.66	7.317
268.03	8.079
268.40	8.142
268.77	5.923
269.14	4.185
269.51	5.702
269.88	8.607
270.25	8.853
270.62	7.806
270.99	6.869
271.36	8.911
271.73	7.466
272.10	8.016
272.47	7.415
272.84	8.032
273.21	5.411
273.58	10.081
273.95	6.538
274.32	8.365
274.69	7.930
275.06	8.059
275.43	6.654
275.80	8.995
276.17	7.593
276.54	7.649
276.91	7.335
277.28	9.584
277.65	8.797
278.02	7.169
278.39	7.065
278.76	8.436
279.13	8.511
279.50	9.794
279.87	10.376
280.23	6.162
280.60	8.475
280.97	8.882
281.34	6.621
281.71	9.475
282.08	9.302
282.45	7.856
282.82	10.047
283.19	6.462
283.56	9.344
283.92	10.811
284.29	9.637
284.66	9.360
285.03	7.372
285.40	7.883
285.77	8.050
286.14	9.618
286.51	7.610
286.87	7.741
287.24	9.337
287.61	8.221
287.98	6.344
288.35	9.615
288.72	8.728
289.08	8.492
289.45	7.544
289.82	9.639
290.19	9.914
290.56	7.887
290.93	8.274
291.29	9.504
291.66	8.678
292.03	7.463
292.40	9.796
292.77	8.625
293.13	8.119
293.50	8.016
293.87	9.396
294.24	9.333
294.60	9.861
294.97	6.040
295.34	9.731
295.71	8.827
296.08	9.302
296.44	7.843
296.81	8.283
297.18	7.472
297.55	7.075
297.91	7.117
298.28	7.109
298.65	8.323
299.02	8.264
299.38	8.009
299.75	7.944
300.12	7.176
300.48	8.180
300.85	9.224
301.22	8.054
301.59	8.219
301.95	6.328
302.32	8.667
302.69	6.572
303.05	8.052
303.42	8.093
303.79	8.333
304.15	8.833
304.52	8.457
304.89	7.958
305.25	9.317
305.62	9.300
305.99	8.144
306.35	8.871
306.72	9.204
307.09	8.325
307.45	8.903
307.82	8.678
308.19	9.082
308.55	10.511
308.92	8.861
309.29	9.770
309.65	8.967
310.02	9.802
310.38	9.547
310.75	9.515
311.12	10.451
311.48	10.264
311.85	11.681
312.22	9.962
312.58	10.423
312.95	9.847
313.31	10.569
313.68	11.447
314.05	11.924
314.41	11.384
314.78	11.081
315.14	11.434
315.51	11.911
315.87	12.781
316.24	11.963
316.61	12.966
316.97	12.398
317.34	12.169
317.70	13.275
318.07	12.787
318.43	13.776
318.80	14.214
319.16	12.446
319.53	13.282
319.89	12.883
320.26	14.680
320.62	13.209
320.99	14.589
321.35	14.787
321.72	15.535
322.08	14.337
322.45	14.995
322.81	14.350
323.18	15.133
323.54	15.862
323.91	15.747
324.27	15.491
324.64	16.541
325.00	16.086
325.37	17.281
325.73	16.942
326.10	17.680
326.46	16.612
326.83	18.014
327.19	18.740
327.56	18.340
327.92	18.804
328.29	19.032
328.65	18.007
329.01	19.120
329.38	20.725
329.74	20.719
330.11	20.548
330.47	21.061
330.84	20.758
331.20	22.500
331.56	22.964
331.93	21.255
332.29	22.288
332.66	20.847
333.02	21.608
333.38	21.644
333.75	21.717
334.11	21.852
334.48	21.617
334.84	22.005
335.20	21.327
335.57	23.019
335.93	22.810
336.29	22.546
336.66	22.960
337.02	22.659
337.38	23.299
337.75	22.314
338.11	23.045
338.47	22.829
338.84	23.012
339.20	21.988
339.56	23.064
339.93	21.675
340.29	22.061
340.65	22.466
341.02	22.426
341.38	23.605
341.74	22.115
342.11	23.250
342.47	21.128
342.83	24.316
343.20	22.486
343.56	23.897
343.92	21.297
344.28	22.813
344.65	23.411
345.01	23.635
345.37	23.639
345.73	22.837
346.10	22.153
346.46	23.813
346.82	23.296
347.19	23.682
347.55	23.596
347.91	22.437
348.27	22.914
348.63	23.839
349.00	22.148
349.36	23.792
349.72	23.512
350.08	25.186
350.45	23.194
350.81	23.152
351.17	23.158
351.53	24.564
351.89	23.311
352.26	22.463
352.62	23.358
352.98	24.427
353.34	22.255
353.70	23.883
354.07	24.069
354.43	24.677
354.79	23.411
355.15	24.135
355.51	24.269
355.87	23.560
356.24	23.954
356.60	23.799
356.96	24.611
357.32	23.494
357.68	23.792
358.04	23.353
358.40	23.731
358.77	23.538
359.13	24.372
359.49	23.941
359.85	23.713
360.21	24.534
360.57	23.905
360.93	23.907
361.29	25.614
361.66	25.054
362.02	26.166
362.38	25.580
362.74	25.000
363.10	25.791
363.46	25.762
363.82	25.142
364.18	24.701
364.54	25.380
364.90	25.552
365.26	25.517
365.62	26.933
365.98	26.413
366.35	25.839
366.71	26.871
367.07	26.590
367.43	25.345
367.79	26.344
368.15	26.221
368.51	26.590
368.87	26.323
369.23	26.400
369.59	26.503
369.95	27.721
370.31	27.819
370.67	26.891
371.03	27.008
371.39	26.729
371.75	27.304
372.11	27.981
372.47	28.301
372.83	28.403
373.19	27.151
373.55	27.236
373.91	27.880
374.27	27.361
374.63	28.417
374.99	28.249
375.35	28.766
375.71	27.806
376.07	28.922
376.42	29.408
376.78	30.329
377.14	29.445
377.50	29.285
377.86	28.941
378.22	30.479
378.58	30.202
378.94	30.927
379.30	29.643
379.66	31.452
380.02	30.467
380.38	30.991
380.74	31.155
381.09	31.243
381.45	31.818
381.81	32.494
382.17	31.710
382.53	31.287
382.89	31.941
383.25	33.060
383.61	32.465
383.97	33.098
384.32	33.553
384.68	32.425
385.04	33.141
385.40	34.119
385.76	34.525
386.12	33.872
386.48	32.706
386.83	35.161
387.19	33.951
387.55	34.096
387.91	34.646
388.27	34.238
388.62	34.937
388.98	34.518
389.34	36.181
389.70	36.955
390.06	35.702
390.42	36.867
390.77	35.701
391.13	37.383
391.49	36.896
391.85	36.667
392.20	36.299
392.56	35.794
392.92	36.805
393.28	37.313
393.64	36.704
393.99	38.292
394.35	37.266
394.71	37.186
395.07	37.485
395.42	37.978
395.78	39.305
396.14	38.919
396.50	37.352
396.85	36.971
397.21	37.633
397.57	37.515
397.92	39.347
398.28	38.294
398.64	38.158
399.00	37.958
399.35	38.796
399.71	39.130
400.07	39.697
400.42	38.941
400.78	39.410
401.14	39.044
401.49	39.966
401.85	39.884
402.21	40.267
402.57	40.962
402.92	40.130
403.28	39.461
403.63	39.260
403.99	39.846
404.35	38.772
404.70	39.660
405.06	39.511
405.42	39.871
405.77	39.313
406.13	39.330
406.49	40.597
406.84	38.560
407.20	39.966
407.55	39.612
407.91	39.786
408.27	39.694
408.62	40.605
408.98	40.453
409.34	40.000
409.69	41.100
410.05	40.563
410.40	41.009
410.76	39.989
411.11	41.087
411.47	40.971
411.83	40.741
412.18	41.446
412.54	40.368
412.89	40.163
413.25	40.576
413.60	41.815
413.96	40.793
414.31	40.567
414.67	41.562
415.03	40.800
415.38	41.362
415.74	41.723
416.09	40.531
416.45	40.263
416.80	40.575
417.16	42.146
417.51	40.909
417.87	41.018
418.22	42.455
418.58	42.069
418.93	41.385
419.29	41.862
419.64	41.957
420.00	41.246
420.35	41.606
420.71	41.758
421.06	41.288
421.42	41.800
421.77	41.249
422.12	41.702
422.48	42.089
422.83	43.264
423.19	42.706
423.54	43.142
423.90	41.745
424.25	43.307
424.61	41.676
424.96	42.834
425.31	42.675
425.67	41.975
426.02	45.268
426.38	43.054
426.73	42.467
427.09	43.829
427.44	42.490
427.79	42.399
428.15	42.409
428.50	42.809
428.85	42.767
429.21	43.351
429.56	43.090
429.92	43.145
430.27	43.711
430.62	44.895
430.98	43.827
431.33	44.624
431.68	43.870
432.04	44.947
432.39	43.867
432.74	42.922
433.10	43.375
433.45	43.144
433.80	43.723
434.16	44.215
434.51	44.245
434.86	45.548
435.22	45.696
435.57	44.988
435.92	44.240
436.28	44.596
436.63	44.948
436.98	43.317
437.34	45.152
437.69	45.349
438.04	44.315
438.39	44.802
438.75	44.272
439.10	46.195
439.45	43.935
439.81	43.503
440.16	44.182
440.51	44.649
440.86	45.192
441.22	44.748
441.57	45.545
441.92	44.132
442.27	45.556
442.63	46.051
442.98	46.265
443.33	44.819
443.68	46.234
444.03	46.049
444.39	45.908
444.74	46.503
445.09	46.427
445.44	45.522
445.79	45.594
446.15	45.529
446.50	46.253
446.85	46.012
447.20	45.841
447.55	46.862
447.91	46.387
448.26	46.300
448.61	45.909
448.96	47.586
449.31	46.872
449.66	44.989
450.02	46.414
450.37	46.723
450.72	46.071
451.07	45.957
451.42	46.101
451.77	45.081
452.12	46.727
452.47	46.168
452.83	47.635
453.18	46.293
453.53	47.214
453.88	46.328
454.23	47.175
454.58	47.301
454.93	46.784
455.28	47.261
455.63	46.163
455.98	46.480
456.34	47.939
456.69	46.914
457.04	47.754
457.39	46.785
457.74	46.812
458.09	46.513
458.44	46.121
458.79	46.725
459.14	46.827
459.49	46.916
459.84	48.426
460.19	46.308
460.54	49.120
460.89	47.644
461.24	46.954
461.59	46.320
461.94	45.921
462.29	48.152
462.64	46.530
462.99	47.207
463.34	47.696
463.69	45.838
464.04	46.971
464.39	47.365
464.74	46.864
465.09	47.751
465.44	47.210
465.79	47.700
466.14	46.326
466.49	47.474
466.84	48.430
467.19	46.821
467.54	46.005
467.89	46.839
468.24	45.928
468.59	46.786
468.94	46.678
469.29	46.971
469.64	46.662
469.99	45.634
470.34	46.782
470.68	47.847
471.03	47.348
471.38	47.417
471.73	46.359
472.08	48.096
472.43	46.297
472.78	47.985
473.13	47.598
473.48	47.069
473.83	47.127
474.17	47.011
474.52	48.226
474.87	46.844
475.22	48.282
475.57	47.352
475.92	47.984
476.27	47.391
476.61	47.300
476.96	47.914
477.31	47.970
477.66	48.321
478.01	47.178
478.36	45.663
478.70	47.734
479.05	48.671
479.40	48.717
479.75	47.935
480.10	46.945
480.45	47.493
480.79	48.209
481.14	48.208
481.49	48.114
481.84	47.781
482.19	48.301
482.53	48.054
482.88	49.003
483.23	47.577
483.58	47.773
483.92	47.739
484.27	47.756
484.62	48.267
484.97	47.123
485.31	46.850
485.66	44.910
486.01	45.780
486.36	47.712
486.70	51.076
487.05	52.674
487.40	50.778
487.75	48.931
488.09	48.154
488.44	47.287
488.79	46.509
489.13	47.321
489.48	46.214
489.83	47.163
490.17	46.335
490.52	47.126
490.87	48.181
491.22	47.704
491.56	47.099
491.91	47.972
492.26	47.382
492.60	47.923
492.95	48.398
493.30	49.081
493.64	49.496
493.99	49.035
494.34	48.737
494.68	48.351
495.03	48.590
495.37	49.090
495.72	48.118
496.07	47.152
496.41	47.791
496.76	48.666
497.11	47.898
497.45	48.597
497.80	47.845
498.14	48.980
498.49	47.840
498.84	49.040
499.18	48.178
499.53	48.206
499.87	48.659
500.22	47.551
500.56	48.133
500.91	49.062
501.26	48.773
501.60	48.122
501.95	48.502
502.29	48.486
502.64	48.666
502.98	48.102
503.33	47.905
503.67	48.757
504.02	48.161
504.36	48.972
504.71	48.002
505.06	49.022
505.40	47.898
505.75	48.315
506.09	48.020
506.44	48.236
506.78	49.128
507.13	48.502
507.47	49.550
507.82	48.674
508.16	48.662
508.51	47.914
508.85	49.410
509.19	48.697
509.54	49.039
509.88	48.616
510.23	49.199
510.57	49.203
510.92	50.024
511.26	48.437
511.61	48.334
511.95	48.755
512.30	49.385
512.64	47.876
512.98	48.274
513.33	48.740
513.67	49.669
514.02	49.106
514.36	49.309
514.70	49.479
515.05	50.104
515.39	49.501
515.74	49.947
516.08	48.864
516.42	49.869
516.77	50.473
517.11	49.562
517.46	49.947
517.80	50.722
518.14	50.762
518.49	50.000
518.83	48.803
519.17	49.381
519.52	49.476
519.86	50.317
520.20	50.213
520.55	49.014
520.89	50.394
521.23	49.135
521.58	50.169
521.92	49.745
522.26	49.885
522.61	50.694
522.95	49.712
523.29	50.575
523.64	49.383
523.98	51.112
524.32	51.175
524.66	49.744
525.01	49.094
525.35	49.454
525.69	50.522
526.04	49.082
526.38	50.000
526.72	50.519
527.06	50.968
527.41	49.329
527.75	50.594
528.09	50.885
528.43	50.089
528.78	49.306
529.12	50.172
529.46	49.972
529.80	50.515
530.15	50.203
530.49	50.297
530.83	49.174
531.17	50.239
531.51	50.602
531.86	51.623
532.20	52.012
532.54	49.491
532.88	49.455
533.22	49.204
533.57	49.221
533.91	49.158
534.25	50.876
534.59	51.207
534.93	50.311
535.27	50.366
535.62	51.620
535.96	51.424
536.30	50.118
536.64	51.652
536.98	51.599
537.32	50.926
537.66	51.716
538.01	48.640
538.35	50.000
538.69	51.022
539.03	50.950
539.37	49.470
539.71	50.691
540.05	50.480
540.39	51.039
540.73	50.334
541.07	49.601
541.42	49.793
541.76	50.059
542.10	50.241
542.44	49.269
542.78	51.521
543.12	50.298
543.46	49.451
543.80	49.101
544.14	49.551
544.48	49.764
544.82	51.945
545.16	50.149
545.50	49.670
545.84	49.296
546.18	50.556
546.52	49.618
546.86	50.126
547.20	50.700
547.54	49.064
547.88	48.885
548.22	49.532
548.56	50.088
548.90	51.164
549.24	50.638
549.58	49.716
549.92	48.916
550.26	50.162
550.60	48.883
550.94	49.483
551.28	50.033
551.62	50.539
551.96	49.256
552.30	50.669
552.64	50.280
552.98	50.468
553.32	51.576
553.66	51.190
554.00	50.820
554.34	50.644
554.68	49.387
555.02	50.263
555.36	51.282
555.69	48.366
556.03	50.504
556.37	51.189
556.71	48.637
557.05	49.712
557.39	50.896
557.73	50.132
558.07	50.265
558.41	49.834
558.75	50.237
559.08	51.009
559.42	50.412
559.76	50.068
560.10	49.297
560.44	50.330
560.78	50.750
561.12	50.493
561.45	51.582
561.79	50.794
562.13	51.510
562.47	50.123
562.81	51.266
563.15	51.894
563.48	50.404
563.82	50.544
564.16	50.212
564.50	49.940
564.84	49.912
565.17	50.059
565.51	49.137
565.85	50.891
566.19	49.827
566.52	49.854
566.86	51.104
567.20	49.483
567.54	51.036
567.88	50.561
568.21	49.802
568.55	50.408
568.89	50.386
569.23	50.021
569.56	50.449
569.90	50.143
570.24	51.062
570.57	49.808
570.91	49.418
571.25	49.696
571.59	50.877
571.92	49.920
572.26	50.079
572.60	50.123
572.93	49.763
573.27	49.564
573.61	49.206
573.95	49.332
574.28	49.521
574.62	49.773
574.96	48.699
575.29	48.821
575.63	49.365
575.97	49.461
576.30	48.014
576.64	48.294
576.98	49.590
577.31	49.737
577.65	50.103
577.98	49.868
578.32	49.072
578.66	49.133
578.99	49.539
579.33	49.733
579.67	49.796
580.00	49.180
580.34	48.168
580.67	49.139
581.01	49.091
581.35	49.114
581.68	49.476
582.02	49.756
582.35	51.102
582.69	51.095
583.02	50.215
583.36	49.805
583.70	49.671
584.03	48.764
584.37	48.284
584.70	47.702
585.04	47.733
585.37	48.984
585.71	49.644
586.04	48.547
586.38	49.768
586.72	49.085
587.05	48.836
587.39	50.037
587.72	49.689
588.06	49.662
588.39	49.315
588.73	48.810
589.06	48.533
589.40	49.785
589.73	48.972
590.07	48.740
590.40	49.527
590.73	49.169
591.07	49.702
591.40	48.289
591.74	48.768
592.07	49.452
592.41	49.014
592.74	47.959
593.08	49.554
593.41	50.335
593.75	50.172
594.08	50.591
594.41	50.481
594.75	49.452
595.08	49.596
595.42	49.513
595.75	49.758
596.09	49.509
596.42	49.265
596.75	49.440
597.09	49.495
597.42	49.424
597.75	48.334
598.09	49.008
598.42	48.774
598.76	48.796
599.09	49.128
599.42	49.246
599.76	48.993
600.09	49.816
600.42	49.550
600.76	49.373
601.09	48.921
601.42	48.781
601.76	49.000
602.09	49.357
602.42	48.637
602.76	49.594
603.09	49.266
603.42	49.530
603.76	49.331
604.09	50.000
604.42	48.807
604.76	48.744
605.09	49.142
605.42	49.003
605.75	49.385
606.09	48.787
606.42	49.252
606.75	49.175
607.09	48.349
607.42	49.210
607.75	49.394
608.08	48.737
608.42	47.924
608.75	50.622
609.08	48.090
609.41	49.890
609.75	49.554
610.08	49.252
610.41	48.598
610.74	49.034
611.07	49.512
611.41	50.359
611.74	49.192
612.07	50.070
612.40	48.717
612.73	49.535
613.07	49.780
613.40	49.711
613.73	50.072
614.06	50.393
614.39	49.320
614.72	49.005
615.06	49.808
615.39	49.251
615.72	48.578
616.05	49.636
616.38	50.605
616.71	49.007
617.05	48.456
617.38	48.047
617.71	49.622
618.04	49.379
618.37	50.000
618.70	49.548
619.03	49.223
619.36	48.829
619.69	48.751
620.03	49.341
620.36	50.184
620.69	48.735
621.02	49.409
621.35	52.032
621.68	49.168
622.01	47.687
622.34	49.163
622.67	49.759
623.00	49.460
623.33	50.166
623.66	50.324
623.99	50.560
624.32	49.838
624.65	50.000
624.99	50.260
625.32	51.535
625.65	50.978
625.98	48.136
626.31	50.744
626.64	49.670
626.97	49.437
627.30	49.051
627.63	49.962
627.96	50.150
628.29	49.728
628.62	49.538
628.95	49.606
629.28	49.363
629.61	50.589
629.94	50.293
630.26	50.339
630.59	50.432
630.92	49.091
631.25	50.716
631.58	52.260
631.91	51.359
632.24	50.817
632.57	50.380
632.90	50.150
633.23	49.898
633.56	50.000
633.89	51.860
634.22	51.351
634.55	50.209
634.88	50.216
635.20	49.946
635.53	50.395
635.86	49.729
636.19	50.477
636.52	50.738
636.85	50.868
637.18	50.416
637.51	51.290
637.83	50.388
638.16	49.309
638.49	49.883
638.82	49.380
639.15	50.745
639.48	51.270
639.81	49.307
640.13	49.117
640.46	48.242
640.79	48.162
641.12	47.950
641.45	48.683
641.77	49.679
642.10	50.656
642.43	50.665
642.76	49.593
643.09	49.589
643.41	49.580
643.74	50.759
644.07	50.069
644.40	50.071
644.73	52.104
645.05	50.073
645.38	50.360
645.71	49.707
646.04	49.928
646.36	47.445
646.69	52.914
647.02	53.517
647.35	49.313
647.67	49.919
648.00	52.229
648.33	49.249
648.66	47.646
648.98	49.388
649.31	48.850
649.64	49.934
649.96	50.531
650.29	47.149
650.62	48.656
650.94	47.297
651.27	47.904
651.60	45.468
651.92	47.568
652.25	48.191
652.58	47.318
652.90	47.384
653.23	50.000
653.56	48.787
653.88	50.281
654.21	46.620
654.54	47.399
654.86	49.858
655.19	48.934
655.52	54.350
655.84	55.734
656.17	62.117
656.49	85.281
656.82	90.405
657.15	69.674
657.47	52.404
657.80	38.210
658.13	29.268
658.45	37.432
658.78	44.032
659.10	40.632
659.43	39.408
659.75	38.143
660.08	36.078
660.41	37.055
660.73	40.251
661.06	44.200
661.38	44.179
661.71	46.552
662.03	48.501
662.36	48.122
662.68	46.717
663.01	49.381
663.33	51.040
663.66	48.535
663.98	49.423
664.31	46.717
664.63	47.784
664.96	48.276
665.28	48.820
665.61	48.077
665.93	46.964
666.26	47.670
666.58	47.232
666.91	48.037
667.23	46.095
667.56	46.154
667.88	48.400
668.21	46.289
668.53	44.981
668.86	47.937
669.18	46.436
669.50	46.918
669.83	47.600
670.15	47.047
670.48	47.024
670.80	47.228
671.13	48.771
671.45	48.228
671.77	49.718
672.10	48.167
672.42	48.382
672.75	47.312
673.07	46.269
673.39	46.379
673.72	48.322
674.04	48.103
674.37	49.374
674.69	49.735
675.01	46.857
675.34	48.664
675.66	47.940
675.98	47.575
676.31	47.070
676.63	46.958
676.95	46.169
677.28	46.976
677.60	43.898
677.92	47.793
678.25	47.166
678.57	51.246
678.89	47.270
679.22	46.341
679.54	45.983
679.86	46.271
680.18	45.274
680.51	46.069
680.83	46.972
681.15	45.000
681.48	48.359
681.80	47.323
682.12	47.203
682.44	43.406
682.77	43.794
683.09	47.348
683.41	48.062
683.73	46.300
684.06	47.232
684.38	45.796
684.70	46.320
685.02	48.709
685.34	46.589
685.67	46.530
685.99	45.706
686.31	44.331
686.63	45.656
686.96	44.637
687.28	46.417
687.60	44.781
687.92	42.605
688.24	47.913
688.56	43.276
688.89	47.187
689.21	46.967
689.53	44.706
689.85	45.168
690.17	43.519
690.49	43.028
690.82	45.941
691.14	45.344
691.46	45.507
691.78	46.593
692.10	44.587
692.42	43.929
692.74	44.102
693.06	43.519
693.39	46.110
693.71	42.857
694.03	45.539
694.35	43.238
694.67	43.532
694.99	43.830
695.31	45.916
695.63	44.372
695.95	42.857
696.27	41.758
696.59	43.142
696.91	43.018
697.23	48.791
697.56	43.992
697.88	42.424
698.20	46.516
698.52	46.212
698.84	45.114
699.16	44.898
699.48	42.259
699.80	42.553
700.12	41.703
700.44	39.401
700.76	41.330
701.08	40.194
701.40	42.746
701.72	44.030
702.04	45.989
702.36	43.455
702.68	39.609
703.00	43.032
703.32	40.887
703.64	44.010
703.96	45.585
704.28	42.015
704.60	44.557
704.91	42.347
705.23	41.644
705.55	39.833
705.87	44.545
706.19	45.399
706.51	40.361
706.83	41.787
707.15	41.005
707.47	44.626
707.79	43.231
708.11	41.314
708.43	41.935
708.74	40.625
709.06	40.139
709.38	40.376
709.70	43.176
710.02	39.018
710.34	43.085
710.66	37.709
710.98	42.623
711.29	43.407
711.61	38.983
711.93	46.724
712.25	39.730
712.57	43.953
712.89	43.529
713.20	37.278
713.52	44.220
713.84	40.390
714.16	39.474
714.48	42.526
714.80	46.234
715.11	42.782
715.43	39.788
715.75	40.000
716.07	38.674
716.39	38.798
716.70	40.663
717.02	40.328
717.34	36.585
717.66	36.577
717.97	34.589
718.29	39.175
718.61	37.829
718.93	40.129
719.24	39.752
719.56	34.356
719.88	40.541
720.20	39.355
720.51	40.062
720.83	39.688
721.15	38.487
721.46	35.959
721.78	37.667
722.10	36.246
722.42	36.577
722.73	36.129
723.05	40.351
723.37	36.806
723.68	40.860
724.00	36.823
724.32	35.211
724.63	38.112
724.95	39.007
725.27	34.495
725.58	36.396
725.90	40.690
726.22	35.423
726.53	39.935
726.85	40.252
727.16	35.045
727.48	35.780
727.80	38.742
728.11	34.629
728.43	33.670
728.74	37.124
729.06	35.099
729.38	38.312
729.69	41.275
730.01	37.500
730.32	37.879
730.64	36.478
730.96	37.578
731.27	38.547
731.59	41.484
731.90	37.143
732.22	37.500
732.53	35.359
732.85	36.286
733.16	38.710
733.48	36.585
733.80	40.669
734.11	40.741
734.43	42.432
734.74	39.494
735.06	38.442
735.37	42.703
735.69	35.676
736.00	35.311
736.32	33.962
736.63	36.111
736.95	36.494
737.26	36.970
737.58	33.636
737.89	40.000
738.21	34.862
738.52	37.049
738.83	37.884
739.15	36.170
739.46	39.116
739.78	38.037
740.09	37.822
740.41	37.026
740.72	32.667
741.04	33.981
741.35	38.246
741.66	30.980
741.98	35.656
742.29	31.799
742.61	40.789
742.92	34.615
743.23	35.379
743.55	36.047
743.86	33.200
744.18	31.818
744.49	33.755
744.80	35.802
745.12	41.772
745.43	31.707
745.74	32.328
746.06	33.475
746.37	35.021
746.68	39.837
747.00	35.417
747.31	34.764
747.62	38.077
747.94	35.223
748.25	29.719
748.56	37.551
748.88	28.205
749.19	32.759
749.50	34.632
749.82	40.161
750.13	36.299
750.44	37.667
750.75	37.538
751.07	36.923
751.38	37.539
751.69	31.629
752.01	34.304
752.32	36.928
752.63	37.415
752.94	36.332
753.26	34.572
753.57	29.630
753.88	38.577
754.19	37.621
754.51	32.797
754.82	38.907
755.13	37.377
755.44	36.860
755.75	38.158
756.07	35.224
756.38	34.591
756.69	35.843
757.00	35.180
757.31	35.519
757.63	36.317
757.94	36.385
758.25	37.246
758.56	34.858
758.87	36.591
759.18	35.467
759.50	37.960
759.81	37.535
760.12	39.892
760.43	36.458
760.74	36.453
761.05	37.750
761.36	36.145
761.67	39.848
761.99	35.676
762.30	30.793
762.61	32.343
762.92	35.075
763.23	32.959
763.54	34.173
763.85	34.364
764.16	31.313
764.47	38.028
764.78	36.422
765.10	36.364
765.41	35.128
765.72	30.952
766.03	33.051
766.34	30.408
766.65	29.268
766.96	28.685
767.27	32.258
767.58	29.353
767.89	33.654
768.20	25.352
768.51	33.333
768.82	29.719
769.13	35.227
769.44	27.692
769.75	34.657
770.06	28.462
770.37	36.614
770.68	27.234
770.99	29.960
771.30	36.667
771.61	29.278
771.92	28.519
772.23	33.198
772.54	27.778
772.85	31.797
773.16	32.857
773.47	24.868
773.78	29.189
774.09	26.136
774.39	30.000
774.70	19.126
775.01	21.951
775.32	25.294
775.63	18.405
775.94	20.382
776.25	23.871
776.56	28.205
776.87	26.531
777.18	20.690
777.48	17.483
777.79	22.973
778.10	15.441
778.41	25.000
778.72	27.586
779.03	25.926
779.34	24.242
779.65	26.425
779.95	29.444
780.26	25.000
780.57	17.419
780.88	25.362
781.19	30.323
781.50	22.941
781.80	27.419
782.11	22.751
782.42	21.212
782.73	24.551
783.04	23.464
783.34	14.545
783.65	13.072
783.96	24.224
784.27	21.429
784.57	24.503
784.88	18.571
785.19	19.685
785.50	23.622
785.81	20.301
786.11	18.462
786.42	17.266
786.73	13.669
787.04	24.812
787.34	16.393
787.65	19.200
787.96	15.672
788.26	16.783
788.57	27.273
788.88	18.421
789.19	26.144
789.49	18.493
789.80	12.766
790.11	17.323
790.41	8.594
790.72	9.322
791.03	0.000
791.33	2.609
791.64	16.667
791.95	0.893
792.25	5.714
792.56	0.893
792.87	13.542
793.17	9.821
793.48	5.208
793.79	-7.229
794.09	0.000
794.40	11.927
794.70	15.646
795.01	14.286
795.32	17.808
795.62	14.085
795.93	9.091
796.23	9.016
796.54	2.679
796.85	4.255
797.15	8.696
797.46	-13.699
797.76	-1.250
798.07	1.087
798.37	-9.278
798.68	-2.597
798.99	2.299
799.29	-10.112
799.60	3.191
799.90	-8.434
800.21	-9.231
800.51	-25.373
800.82	-27.941
801.12	-26.027
801.43	-11.765
801.73	-18.644
802.04	-21.212
802.34	-33.333
802.65	-20.339
802.95	-11.940
803.26	-20.339
803.56	-20.548
803.87	-2.857
804.17	-10.959
804.48	-38.596
804.78	-13.889
805.09	-39.655
805.39	-9.459
805.70	-21.127
806.00	-1.220
806.30	-8.434
806.61	-8.219
806.91	11.538
807.22	6.667
807.52	-10.345
807.83	-4.167
808.13	12.048
808.43	1.124
808.74	-2.500
809.04	-20.588
809.35	-17.333
809.65	-11.429
809.95	-19.178
810.26	-40.351
810.56	-22.414
810.86	-13.235
811.17	-12.281
811.47	-47.541
811.77	-57.778
812.08	-35.593
812.38	-18.333
812.69	-22.414
812.99	-28.302
813.29	-58.974
813.59	-40.000
813.90	-26.316
814.20	-40.000
814.50	-11.268
814.81	-7.692
815.11	-13.115
815.41	-16.418
815.72	-18.966
816.02	-42.857
816.32	-51.111
816.62	-43.182
816.93	-44.444
817.23	-16.667
817.53	-48.936
817.84	-38.095
818.14	-58.824
818.44	-24.490
818.74	-46.667
819.04	-87.179
819.35	-82.857
819.65	-134.615
819.95	-52.830
820.25	-35.556
820.56	-47.619
820.86	-81.250
821.16	-41.026
821.46	-44.186
821.76	-54.000
822.07	-32.143
822.37	-69.565
822.67	-57.447
822.97	-102.703
823.27	-65.000
823.57	-28.571
823.88	-35.556
824.18	-32.500
824.48	-60.000
824.78	-116.000
825.08	-87.879
825.38	-42.222
825.69	-42.553
825.99	-58.333
826.29	-82.857
826.59	-66.667
826.89	-55.814
827.19	-38.000
827.49	-94.118
827.79	-50.000
828.09	-78.378
828.39	-60.000
828.70	-43.902
829.00	-65.116
829.30	-117.857
829.60	-61.765
829.90	-54.348
830.20	-91.429
830.50	-144.828
830.80	-133.333
831.10	-111.538
831.40	-105.882
831.70	-142.857
832.00	-67.742
832.30	-311.765
832.60	-129.167
832.90	-338.462
833.20	-147.368
833.50	-155.000
833.80	-189.474
834.10	-180.952
834.40	-63.889
834.70	-43.750
835.00	-97.143
835.30	-79.412
835.60	-123.333
835.90	-120.000
836.20	-190.909
836.50	-116.000
836.80	-109.091
837.10	-122.222
837.40	-133.333
837.70	-262.500
838.00	-103.571
838.30	-165.217
838.60	-82.759
838.90	-164.286
839.19	-213.043
839.49	-358.333
839.79	-121.739
840.09	-275.000
840.39	-170.000
840.69	-100.000
840.99	-160.714
841.29	-200.000
841.59	-157.895
841.88	-53.846
842.18	-119.231
842.48	-340.000
842.78	-205.000
843.08	-103.333
843.38	-80.645
843.68	-211.111
843.97	-73.529
844.27	-231.250
844.57	-215.789
844.87	-430.000
845.17	-260.000
845.47	-195.238
845.76	-171.429
846.06	-511.111
846.36	-205.882
846.66	-126.923
846.96	-300.000
847.25	-182.353
847.55	-100.000
847.85	-160.000
848.15	-188.235
848.44	-318.182
848.74	-142.857
849.04	-150.000
849.34	-187.500
849.63	-100.000
849.93	2100.000
850.23	-200.000
850.53	-100.000
850.82	-327.273
851.12	-122.727
851.42	-327.273
851.71	-192.308
852.01	-195.000
852.31	-346.154
852.61	-142.105
852.90	-233.333
853.20	-188.889
853.50	-466.667
853.79	-176.190
854.09	-177.273
854.39	-291.667
854.68	-93.548
854.98	-126.923
855.28	-144.444
855.57	-85.714
855.87	-136.000
856.17	-172.727
856.46	-107.407
856.76	-227.778
857.05	-156.522
857.35	-154.167
857.65	-230.769
857.94	-128.571
858.24	-100.000
858.53	-121.739
858.83	-176.471
859.13	-211.765
859.42	-158.824
859.72	-178.571
860.01	-190.000
860.31	-433.333
860.60	-330.000
860.90	-253.333
861.20	-183.333
861.49	-253.846
861.79	-116.667
862.08	-323.077
862.38	-109.375
862.67	-194.118
862.97	-193.750
863.26	-400.000
863.56	-310.000
863.85	-354.545
864.15	-161.111
864.44	-1133.333
864.74	-228.571
865.03	-231.250
865.33	-490.000
865.62	-122.581
865.92	-109.091
866.21	-117.391
866.51	-214.286
866.80	-800.000
867.10	-316.667
867.39	-283.333
867.69	5100.000
867.98	-457.143
868.27	-194.118
868.57	-5200.000
868.86	-430.000
869.16	-204.762
869.45	-145.833
869.75	-336.364
870.04	-571.429
870.33	-258.333
870.63	-571.429
870.92	-875.000
871.22	-625.000
871.51	-363.636
871.80	-1300.000
872.10	-2450.000
>>>>>End Processed Spectral Data<<<<<
