SpectraSuite Data File
++++++++++++++++++++++++++++++++++++
Date: Thu May 14 14:41:20 PDT 2015
User: schluterlab
Dark Spectrum Present: Yes
Reference Spectrum Present: Yes
Number of Sampled Component Spectra: 1
Spectrometers: USB2E3373
Integration Time (usec): 3000 (USB2E3373)
Spectra Averaged: 3 (USB2E3373)
Boxcar Smoothing: 0 (USB2E3373)
Correct for Electrical Dark: No (USB2E3373)
Strobe/Lamp Enabled: No (USB2E3373)
Correct for Detector Non-linearity: No (USB2E3373)
Correct for Stray Light: No (USB2E3373)
Number of Pixels in Processed Spectrum: 2048
>>>>>Begin Processed Spectral Data<<<<<
178.53	0.000
178.91	-100.000
179.29	-600.000
179.67	-200.000
180.04	92.857
180.42	-70.000
180.80	-220.000
181.18	200.000
181.56	2000.000
181.94	-275.000
182.31	575.000
182.69	-233.333
183.07	550.000
183.45	-300.000
183.83	133.333
184.20	466.667
184.58	-700.000
184.96	250.000
185.34	166.667
185.72	140.000
186.09	33.333
186.47	-250.000
186.85	60.000
187.23	-22.222
187.61	600.000
187.98	-200.000
188.36	-275.000
188.74	175.000
189.12	300.000
189.49	62.500
189.87	50.000
190.25	166.667
190.63	-40.000
191.00	22.222
191.38	0.000
191.76	-25.000
192.14	16.667
192.51	-300.000
192.89	283.333
193.27	0.000
193.65	14.286
194.02	100.000
194.40	157.143
194.78	-171.429
195.15	0.000
195.53	90.909
195.91	0.000
196.29	375.000
196.66	76.923
197.04	-600.000
197.42	171.429
197.79	650.000
198.17	112.500
198.55	71.429
198.92	0.000
199.30	62.500
199.68	236.364
200.05	135.714
200.43	550.000
200.81	-128.571
201.18	0.000
201.56	55.556
201.94	0.000
202.31	-0.000
202.69	33.333
203.07	-1300.000
203.44	100.000
203.82	275.000
204.19	166.667
204.57	150.000
204.95	100.000
205.32	300.000
205.70	-200.000
206.08	183.333
206.45	183.333
206.83	-0.000
207.20	33.333
207.58	20.000
207.96	183.333
208.33	350.000
208.71	-58.333
209.08	166.667
209.46	0.000
209.84	-116.667
210.21	-200.000
210.59	-200.000
210.96	-300.000
211.34	375.000
211.71	125.000
212.09	1000.000
212.46	0.000
212.84	-50.000
213.22	40.000
213.59	200.000
213.97	200.000
214.34	400.000
214.72	-66.667
215.09	-50.000
215.47	0.000
215.84	-171.429
216.22	150.000
216.59	80.000
216.97	80.000
217.34	50.000
217.72	162.500
218.09	300.000
218.47	325.000
218.84	0.000
219.22	-220.000
219.59	11.765
219.97	70.000
220.34	400.000
220.72	122.222
221.09	84.615
221.47	500.000
221.84	80.000
222.22	42.857
222.59	0.000
222.97	87.500
223.34	120.000
223.72	1000.000
224.09	225.000
224.46	-225.000
224.84	160.000
225.21	42.857
225.59	75.000
225.96	325.000
226.34	53.846
226.71	-66.667
227.08	200.000
227.46	106.667
227.83	225.000
228.21	36.842
228.58	-87.500
228.95	-150.000
229.33	133.333
229.70	130.000
230.08	47.368
230.45	-20.000
230.82	433.333
231.20	128.571
231.57	100.000
231.95	127.273
232.32	136.364
232.69	130.000
233.07	225.000
233.44	64.706
233.81	120.000
234.19	94.444
234.56	72.727
234.93	58.621
235.31	68.421
235.68	77.778
236.05	50.000
236.43	115.385
236.80	100.000
237.17	55.556
237.55	100.000
237.92	130.000
238.29	74.194
238.67	43.182
239.04	77.778
239.41	66.667
239.79	56.522
240.16	53.704
240.53	52.174
240.91	33.333
241.28	60.656
241.65	76.119
242.02	67.568
242.40	40.000
242.77	57.333
243.14	54.878
243.51	48.684
243.89	56.410
244.26	56.436
244.63	56.863
245.00	51.402
245.38	50.000
245.75	46.018
246.12	54.762
246.49	43.411
246.87	46.429
247.24	47.682
247.61	50.000
247.98	48.322
248.36	51.852
248.73	45.399
249.10	44.809
249.47	47.264
249.84	56.021
250.22	49.223
250.59	56.667
250.96	50.455
251.33	47.449
251.70	49.573
252.08	53.750
252.45	50.820
252.82	47.107
253.19	45.312
253.56	52.852
253.94	44.615
254.31	50.758
254.68	51.399
255.05	50.814
255.42	48.980
255.79	46.602
256.16	45.364
256.54	48.675
256.91	50.164
257.28	49.508
257.65	42.994
258.02	46.903
258.39	43.875
258.76	49.541
259.14	49.138
259.51	48.127
259.88	48.725
260.25	48.056
260.62	46.575
260.99	48.087
261.36	48.525
261.73	44.032
262.10	48.352
262.47	48.257
262.85	48.485
263.22	48.312
263.59	45.263
263.96	47.315
264.33	49.105
264.70	48.395
265.07	49.642
265.44	48.526
265.81	43.519
266.18	47.166
266.55	43.750
266.92	46.241
267.29	48.140
267.66	45.898
268.03	46.070
268.40	43.633
268.77	45.330
269.14	45.595
269.51	46.930
269.88	47.541
270.25	45.473
270.62	44.515
270.99	46.061
271.36	45.347
271.73	45.187
272.10	47.295
272.47	47.695
272.84	43.775
273.21	43.287
273.58	42.339
273.95	45.000
274.32	44.106
274.69	40.232
275.06	44.505
275.43	42.144
275.80	44.621
276.17	42.222
276.54	41.604
276.91	43.113
277.28	44.123
277.65	46.320
278.02	43.750
278.39	43.841
278.76	43.585
279.13	45.567
279.50	43.643
279.87	43.292
280.23	38.556
280.60	42.881
280.97	43.586
281.34	43.973
281.71	43.824
282.08	41.528
282.45	41.408
282.82	42.072
283.19	42.811
283.56	41.967
283.92	42.943
284.29	43.286
284.66	44.171
285.03	39.744
285.40	40.185
285.77	41.176
286.14	42.290
286.51	40.791
286.87	41.864
287.24	42.470
287.61	41.555
287.98	39.577
288.35	40.828
288.72	40.533
289.08	41.288
289.45	38.905
289.82	38.253
290.19	39.799
290.56	40.141
290.93	38.231
291.29	37.741
291.66	38.292
292.03	37.313
292.40	38.776
292.77	36.792
293.13	37.212
293.50	35.611
293.87	35.839
294.24	39.200
294.60	35.777
294.97	35.839
295.34	37.900
295.71	33.291
296.08	33.204
296.44	34.559
296.81	35.079
297.18	34.620
297.55	33.726
297.91	33.333
298.28	32.109
298.65	32.937
299.02	33.176
299.38	32.723
299.75	33.178
300.12	32.986
300.48	33.065
300.85	33.858
301.22	32.998
301.59	33.562
301.95	32.429
302.32	32.333
302.69	33.187
303.05	32.644
303.42	32.040
303.79	31.458
304.15	34.069
304.52	31.607
304.89	33.298
305.25	33.023
305.62	30.512
305.99	32.474
306.35	31.250
306.72	33.609
307.09	31.878
307.45	33.333
307.82	31.282
308.19	31.685
308.55	31.919
308.92	32.132
309.29	32.088
309.65	31.871
310.02	30.990
310.38	32.087
310.75	32.913
311.12	33.749
311.48	33.627
311.85	32.574
312.22	32.448
312.58	32.958
312.95	32.983
313.31	32.430
313.68	32.692
314.05	33.153
314.41	34.517
314.78	33.878
315.14	33.575
315.51	33.980
315.87	35.374
316.24	35.799
316.61	35.524
316.97	34.842
317.34	35.009
317.70	36.943
318.07	36.420
318.43	36.310
318.80	36.706
319.16	36.395
319.53	34.961
319.89	35.232
320.26	37.900
320.62	36.879
320.99	36.196
321.35	37.893
321.72	39.721
322.08	37.241
322.45	38.663
322.81	38.267
323.18	38.053
323.54	38.534
323.91	39.769
324.27	38.554
324.64	38.959
325.00	37.894
325.37	39.476
325.73	40.083
326.10	40.633
326.46	37.785
326.83	39.872
327.19	40.630
327.56	41.028
327.92	39.575
328.29	39.919
328.65	39.280
329.01	39.425
329.38	39.511
329.74	41.438
330.11	41.353
330.47	41.112
330.84	41.171
331.20	41.250
331.56	40.815
331.93	42.176
332.29	40.763
332.66	42.359
333.02	40.201
333.38	41.527
333.75	41.498
334.11	42.035
334.48	39.521
334.84	41.461
335.20	40.134
335.57	41.484
335.93	41.653
336.29	40.765
336.66	40.286
337.02	41.639
337.38	40.986
337.75	39.917
338.11	41.884
338.47	41.605
338.84	42.217
339.20	39.680
339.56	41.351
339.93	40.312
340.29	39.694
340.65	39.578
341.02	40.303
341.38	41.390
341.74	40.113
342.11	40.708
342.47	39.317
342.83	41.063
343.20	40.147
343.56	40.577
343.92	39.472
344.28	40.938
344.65	41.705
345.01	39.158
345.37	41.058
345.73	39.439
346.10	40.328
346.46	39.953
346.82	40.599
347.19	39.343
347.55	40.288
347.91	40.416
348.27	40.288
348.63	40.594
349.00	40.268
349.36	39.628
349.72	39.286
350.08	40.639
350.45	40.608
350.81	39.517
351.17	40.602
351.53	40.106
351.89	39.180
352.26	39.701
352.62	39.627
352.98	40.305
353.34	39.806
353.70	40.678
354.07	40.238
354.43	40.243
354.79	39.566
355.15	38.263
355.51	40.497
355.87	39.043
356.24	40.532
356.60	39.320
356.96	40.771
357.32	38.513
357.68	39.165
358.04	39.072
358.40	39.776
358.77	40.570
359.13	38.626
359.49	39.108
359.85	39.956
360.21	38.809
360.57	39.914
360.93	39.422
361.29	41.053
361.66	40.261
362.02	40.849
362.38	40.548
362.74	39.316
363.10	40.028
363.46	40.443
363.82	40.625
364.18	40.816
364.54	40.941
364.90	41.338
365.26	39.586
365.62	40.467
365.98	39.619
366.35	40.403
366.71	41.156
367.07	41.204
367.43	40.184
367.79	41.208
368.15	40.602
368.51	39.716
368.87	40.562
369.23	40.867
369.59	42.145
369.95	40.433
370.31	42.336
370.67	40.715
371.03	41.274
371.39	40.497
371.75	42.091
372.11	41.802
372.47	41.638
372.83	40.969
373.19	41.027
373.55	40.921
373.91	41.786
374.27	41.074
374.63	42.693
374.99	41.844
375.35	42.013
375.71	42.129
376.07	43.060
376.42	41.499
376.78	42.635
377.14	42.795
377.50	44.782
377.86	43.227
378.22	43.593
378.58	44.530
378.94	43.838
379.30	44.054
379.66	44.974
380.02	43.739
380.38	45.449
380.74	45.239
381.09	45.703
381.45	44.886
381.81	46.780
382.17	46.318
382.53	46.433
382.89	45.767
383.25	46.483
383.61	46.123
383.97	46.231
384.32	47.488
384.68	46.810
385.04	47.079
385.40	47.083
385.76	48.945
386.12	48.534
386.48	48.588
386.83	49.285
387.19	49.247
387.55	48.239
387.91	49.258
388.27	49.596
388.62	49.943
388.98	50.254
389.34	50.265
389.70	50.901
390.06	50.858
390.42	51.265
390.77	51.716
391.13	50.704
391.49	51.268
391.85	52.545
392.20	52.135
392.56	51.624
392.92	52.617
393.28	53.344
393.64	52.905
393.99	53.806
394.35	53.388
394.71	53.713
395.07	53.054
395.42	53.055
395.78	55.881
396.14	53.892
396.50	54.394
396.85	53.667
397.21	54.438
397.57	54.299
397.92	55.326
398.28	55.296
398.64	54.748
399.00	54.607
399.35	54.869
399.71	55.815
400.07	56.597
400.42	55.064
400.78	56.308
401.14	56.118
401.49	55.372
401.85	57.442
402.21	56.952
402.57	57.629
402.92	57.092
403.28	55.972
403.63	57.876
403.99	56.591
404.35	57.646
404.70	58.130
405.06	56.522
405.42	57.494
405.77	58.451
406.13	57.428
406.49	57.827
406.84	58.726
407.20	58.804
407.55	57.723
407.91	58.014
408.27	58.363
408.62	60.093
408.98	58.387
409.34	59.003
409.69	60.136
410.05	60.727
410.40	60.093
410.76	59.506
411.11	59.731
411.47	59.398
411.83	59.906
412.18	60.361
412.54	59.514
412.89	60.710
413.25	60.497
413.60	59.851
413.96	60.023
414.31	59.263
414.67	61.777
415.03	60.308
415.38	63.178
415.74	61.210
416.09	61.567
416.45	60.614
416.80	60.404
417.16	63.027
417.51	61.893
417.87	61.619
418.22	61.796
418.58	61.710
418.93	63.446
419.29	63.687
419.64	62.305
420.00	64.095
420.35	61.819
420.71	62.723
421.06	62.335
421.42	62.787
421.77	62.789
422.12	62.421
422.48	64.311
422.83	64.786
423.19	62.759
423.54	64.712
423.90	63.004
424.25	64.053
424.61	62.974
424.96	64.250
425.31	63.907
425.67	63.446
426.02	64.693
426.38	64.696
426.73	63.895
427.09	65.917
427.44	64.173
427.79	64.400
428.15	64.441
428.50	64.831
428.85	65.614
429.21	66.064
429.56	64.956
429.92	65.160
430.27	65.880
430.62	65.266
430.98	66.208
431.33	64.956
431.68	65.230
432.04	65.566
432.39	66.095
432.74	64.840
433.10	65.711
433.45	65.440
433.80	66.899
434.16	66.477
434.51	68.088
434.86	68.350
435.22	67.056
435.57	67.512
435.92	67.613
436.28	67.520
436.63	68.815
436.98	66.559
437.34	68.940
437.69	66.648
438.04	65.574
438.39	68.064
438.75	66.740
439.10	68.552
439.45	67.691
439.81	68.079
440.16	67.078
440.51	68.896
440.86	68.427
441.22	67.095
441.57	68.920
441.92	67.895
442.27	69.343
442.63	68.505
442.98	68.783
443.33	67.649
443.68	68.781
444.03	69.944
444.39	69.256
444.74	68.760
445.09	68.322
445.44	70.811
445.79	69.971
446.15	68.397
446.50	69.509
446.85	69.261
447.20	69.439
447.55	69.299
447.91	69.319
448.26	70.137
448.61	69.288
448.96	70.225
449.31	69.830
449.66	68.410
450.02	69.146
450.37	68.727
450.72	70.075
451.07	70.159
451.42	69.440
451.77	69.594
452.12	71.050
452.47	69.756
452.83	71.227
453.18	69.586
453.53	70.132
453.88	69.575
454.23	69.266
454.58	70.981
454.93	69.600
455.28	70.439
455.63	70.551
455.98	70.223
456.34	70.848
456.69	68.783
457.04	70.981
457.39	69.346
457.74	72.092
458.09	69.907
458.44	71.282
458.79	69.881
459.14	70.792
459.49	71.817
459.84	72.141
460.19	69.461
460.54	72.232
460.89	71.572
461.24	70.287
461.59	71.168
461.94	70.337
462.29	70.269
462.64	70.308
462.99	71.814
463.34	72.421
463.69	69.578
464.04	70.928
464.39	70.740
464.74	69.669
465.09	70.127
465.44	71.727
465.79	71.655
466.14	71.027
466.49	71.579
466.84	70.579
467.19	71.561
467.54	70.035
467.89	70.287
468.24	70.249
468.59	71.627
468.94	70.396
469.29	70.126
469.64	71.011
469.99	70.618
470.34	70.792
470.68	74.231
471.03	71.840
471.38	72.466
471.73	72.237
472.08	72.589
472.43	70.680
472.78	70.844
473.13	72.377
473.48	72.266
473.83	73.244
474.17	72.626
474.52	73.782
474.87	71.318
475.22	72.056
475.57	70.509
475.92	71.877
476.27	71.832
476.61	71.807
476.96	70.959
477.31	71.881
477.66	72.613
478.01	72.089
478.36	71.884
478.70	72.118
479.05	73.875
479.40	73.593
479.75	72.622
480.10	72.904
480.45	72.972
480.79	71.882
481.14	71.461
481.49	72.785
481.84	72.846
482.19	72.645
482.53	72.191
482.88	73.682
483.23	72.877
483.58	72.227
483.92	70.390
484.27	72.354
484.62	71.163
484.97	72.395
485.31	71.806
485.66	70.591
486.01	71.228
486.36	73.045
486.70	74.518
487.05	74.782
487.40	73.114
487.75	71.908
488.09	71.851
488.44	70.777
488.79	70.961
489.13	71.579
489.48	70.252
489.83	70.744
490.17	70.393
490.52	71.470
490.87	72.970
491.22	72.444
491.56	71.928
491.91	72.002
492.26	70.792
492.60	71.885
492.95	71.742
493.30	72.703
493.64	72.405
493.99	72.588
494.34	71.167
494.68	71.478
495.03	72.115
495.37	73.058
495.72	71.701
496.07	73.225
496.41	71.000
496.76	73.144
497.11	72.739
497.45	73.500
497.80	71.968
498.14	71.701
498.49	72.518
498.84	73.126
499.18	71.885
499.53	72.511
499.87	72.967
500.22	72.262
500.56	72.110
500.91	74.188
501.26	74.045
501.60	72.824
501.95	71.298
502.29	73.322
502.64	74.115
502.98	72.347
503.33	72.095
503.67	72.918
504.02	73.511
504.36	74.129
504.71	72.898
505.06	73.079
505.40	73.583
505.75	72.678
506.09	73.112
506.44	74.188
506.78	73.624
507.13	73.352
507.47	74.988
507.82	73.485
508.16	73.088
508.51	72.105
508.85	74.634
509.19	73.899
509.54	74.400
509.88	74.794
510.23	75.425
510.57	74.335
510.92	74.649
511.26	73.353
511.61	73.105
511.95	74.280
512.30	73.954
512.64	72.214
512.98	74.537
513.33	75.454
513.67	75.676
514.02	75.319
514.36	75.754
514.70	76.562
515.05	75.130
515.39	75.276
515.74	75.239
516.08	74.696
516.42	76.086
516.77	75.710
517.11	74.884
517.46	74.708
517.80	77.338
518.14	76.823
518.49	77.549
518.83	74.295
519.17	74.529
519.52	75.524
519.86	74.974
520.20	76.145
520.55	75.575
520.89	77.083
521.23	75.600
521.58	77.571
521.92	76.034
522.26	75.659
522.61	77.199
522.95	75.490
523.29	77.644
523.64	76.570
523.98	75.813
524.32	78.166
524.66	78.031
525.01	75.368
525.35	76.623
525.69	76.566
526.04	76.579
526.38	76.494
526.72	77.047
527.06	77.302
527.41	76.501
527.75	77.910
528.09	76.446
528.43	76.791
528.78	75.954
529.12	76.892
529.46	77.066
529.80	77.803
530.15	77.101
530.49	77.402
530.83	77.037
531.17	76.882
531.51	76.835
531.86	77.103
532.20	78.415
532.54	76.541
532.88	77.212
533.22	76.193
533.57	77.149
533.91	77.160
534.25	77.388
534.59	79.483
534.93	77.193
535.27	78.535
535.62	77.430
535.96	77.223
536.30	78.261
536.64	78.318
536.98	76.814
537.32	78.272
537.66	77.105
538.01	75.710
538.35	78.136
538.69	77.885
539.03	79.644
539.37	76.796
539.71	78.619
540.05	77.158
540.39	78.117
540.73	75.956
541.07	76.763
541.42	76.491
541.76	76.038
542.10	76.417
542.44	76.614
542.78	77.981
543.12	76.758
543.46	77.167
543.80	76.379
544.14	76.960
544.48	78.073
544.82	77.499
545.16	78.175
545.50	78.969
545.84	77.220
546.18	78.395
546.52	78.025
546.86	77.044
547.20	78.817
547.54	78.090
547.88	77.155
548.22	76.140
548.56	77.121
548.90	77.791
549.24	77.629
549.58	77.603
549.92	78.061
550.26	77.864
550.60	77.026
550.94	78.784
551.28	77.624
551.62	78.302
551.96	76.570
552.30	77.502
552.64	77.100
552.98	77.480
553.32	79.228
553.66	77.556
554.00	76.293
554.34	78.443
554.68	78.373
555.02	76.741
555.36	78.041
555.69	76.746
556.03	77.175
556.37	78.411
556.71	77.679
557.05	76.230
557.39	78.832
557.73	78.666
558.07	78.079
558.41	78.605
558.75	78.634
559.08	78.706
559.42	77.229
559.76	76.391
560.10	76.959
560.44	78.364
560.78	79.375
561.12	78.079
561.45	77.920
561.79	78.144
562.13	77.449
562.47	76.202
562.81	77.722
563.15	78.030
563.48	77.874
563.82	78.053
564.16	76.802
564.50	76.400
564.84	77.345
565.17	78.941
565.51	77.215
565.85	78.860
566.19	76.671
566.52	77.706
566.86	78.381
567.20	77.542
567.54	78.492
567.88	77.880
568.21	78.706
568.55	79.760
568.89	79.074
569.23	77.524
569.56	78.273
569.90	77.406
570.24	78.820
570.57	77.486
570.91	76.332
571.25	76.801
571.59	77.345
571.92	77.106
572.26	76.204
572.60	77.177
572.93	76.621
573.27	76.595
573.61	76.204
573.95	76.621
574.28	76.221
574.62	77.126
574.96	76.004
575.29	75.699
575.63	75.121
575.97	76.383
576.30	75.574
576.64	76.044
576.98	75.945
577.31	76.566
577.65	77.775
577.98	76.864
578.32	76.577
578.66	76.536
578.99	76.326
579.33	76.434
579.67	76.519
580.00	75.410
580.34	75.611
580.67	75.728
581.01	75.552
581.35	75.609
581.68	75.759
582.02	76.629
582.35	78.379
582.69	77.267
583.02	77.014
583.36	76.504
583.70	76.074
584.03	75.474
584.37	75.019
584.70	74.645
585.04	75.029
585.37	75.829
585.71	76.591
586.04	76.068
586.38	76.277
586.72	75.533
587.05	77.360
587.39	76.265
587.72	77.536
588.06	75.774
588.39	76.251
588.73	76.190
589.06	76.862
589.40	77.167
589.73	76.510
590.07	77.288
590.40	76.606
590.73	76.034
591.07	77.401
591.40	76.011
591.74	75.994
592.07	76.573
592.41	75.789
592.74	76.109
593.08	77.038
593.41	77.253
593.75	77.011
594.08	76.674
594.41	76.955
594.75	76.619
595.08	77.120
595.42	76.526
595.75	76.978
596.09	77.194
596.42	76.424
596.75	76.611
597.09	76.727
597.42	76.242
597.75	75.735
598.09	75.595
598.42	76.357
598.76	76.118
599.09	76.433
599.42	75.595
599.76	76.362
600.09	77.077
600.42	76.109
600.76	76.618
601.09	75.705
601.42	76.244
601.76	75.690
602.09	75.733
602.42	74.809
602.76	75.055
603.09	76.322
603.42	76.228
603.76	76.568
604.09	77.999
604.42	76.917
604.76	74.429
605.09	75.389
605.42	77.233
605.75	75.615
606.09	75.551
606.42	76.541
606.75	74.700
607.09	74.155
607.42	75.645
607.75	75.967
608.08	75.848
608.42	75.333
608.75	74.668
609.08	75.297
609.41	75.827
609.75	75.848
610.08	76.473
610.41	75.956
610.74	76.134
611.07	76.776
611.41	76.368
611.74	76.490
612.07	76.344
612.40	76.331
612.73	76.577
613.07	75.795
613.40	75.650
613.73	76.264
614.06	76.497
614.39	76.336
614.72	74.964
615.06	75.313
615.39	74.770
615.72	76.919
616.05	75.959
616.38	75.832
616.71	75.810
617.05	75.027
617.38	75.976
617.71	76.296
618.04	75.067
618.37	77.705
618.70	76.640
619.03	76.464
619.36	77.127
619.69	74.952
620.03	76.397
620.36	75.951
620.69	77.730
621.02	78.806
621.35	80.116
621.68	78.380
622.01	76.014
622.34	76.918
622.67	77.045
623.00	76.248
623.33	78.169
623.66	76.005
623.99	77.354
624.32	76.738
624.65	75.676
624.99	78.153
625.32	77.400
625.65	76.939
625.98	75.322
626.31	76.116
626.64	77.656
626.97	76.819
627.30	76.689
627.63	75.244
627.96	78.303
628.29	76.732
628.62	76.994
628.95	78.352
629.28	77.060
629.61	78.451
629.94	76.820
630.26	76.525
630.59	75.648
630.92	77.229
631.25	78.444
631.58	78.437
631.91	79.944
632.24	77.906
632.57	77.704
632.90	79.840
633.23	77.755
633.56	77.857
633.89	77.273
634.22	80.042
634.55	80.167
634.88	78.030
635.20	80.194
635.53	80.113
635.86	77.898
636.19	75.928
636.52	79.641
636.85	77.630
637.18	75.676
637.51	77.312
637.83	77.962
638.16	78.456
638.49	78.169
638.82	77.339
639.15	78.694
639.48	79.561
639.81	77.252
640.13	79.505
640.46	74.788
640.79	79.044
641.12	79.876
641.45	78.670
641.77	79.589
642.10	79.134
642.43	77.793
642.76	77.507
643.09	77.808
643.41	79.412
643.74	78.759
644.07	79.586
644.40	79.915
644.73	78.810
645.05	78.855
645.38	78.417
645.71	77.419
646.04	77.475
646.36	79.416
646.69	80.521
647.02	80.122
647.35	77.863
647.67	81.804
648.00	81.529
648.33	80.180
648.66	78.031
648.98	79.048
649.31	79.973
649.64	80.345
649.96	76.393
650.29	73.992
650.62	75.530
650.94	78.078
651.27	76.497
651.60	75.439
651.92	77.508
652.25	80.029
652.58	77.579
652.90	79.215
653.23	78.592
653.56	77.889
653.88	77.809
654.21	75.915
654.54	75.578
654.86	80.453
655.19	73.902
655.52	73.583
655.84	74.367
656.17	90.279
656.49	100.042
656.82	100.008
657.15	100.000
657.47	100.000
657.80	98.736
658.13	44.424
658.45	57.279
658.78	67.689
659.10	65.386
659.43	63.794
659.75	63.883
660.08	63.193
660.41	64.268
660.73	67.731
661.06	71.953
661.38	71.292
661.71	75.000
662.03	78.660
662.36	78.533
662.68	79.737
663.01	77.522
663.33	79.584
663.66	79.853
663.98	79.231
664.31	79.174
664.63	76.301
664.96	77.132
665.28	73.503
665.61	76.748
665.93	76.250
666.26	79.928
666.58	76.568
666.91	79.813
667.23	79.429
667.56	80.473
667.88	80.200
668.21	76.367
668.53	77.220
668.86	81.532
669.18	82.688
669.50	78.728
669.83	79.400
670.15	76.969
670.48	82.143
670.80	75.143
671.13	75.047
671.45	77.953
671.77	78.719
672.10	75.833
672.42	77.184
672.75	74.347
673.07	76.119
673.39	75.039
673.72	78.691
674.04	77.241
674.37	76.029
674.69	75.661
675.01	75.810
675.34	76.145
675.66	76.966
675.98	77.239
676.31	77.344
676.63	77.947
676.95	77.969
677.28	78.831
677.60	73.622
677.92	76.583
678.25	76.417
678.57	76.690
678.89	75.427
679.22	75.610
679.54	75.726
679.86	74.576
680.18	76.783
680.51	76.730
680.83	76.759
681.15	76.034
681.48	76.339
681.80	75.130
682.12	77.972
682.44	73.957
682.77	74.468
683.09	76.705
683.41	75.775
683.73	73.245
684.06	73.247
684.38	73.524
684.70	78.456
685.02	75.731
685.34	77.038
685.67	74.763
685.99	73.926
686.31	70.930
686.63	75.355
686.96	72.555
687.28	71.173
687.60	75.926
687.92	73.955
688.24	75.459
688.56	71.724
688.89	72.777
689.21	75.930
689.53	76.863
689.85	77.120
690.17	72.407
690.49	73.307
690.82	74.653
691.14	75.304
691.46	76.482
691.78	74.401
692.10	75.780
692.42	72.857
692.74	75.499
693.06	70.926
693.39	77.040
693.71	74.060
694.03	75.465
694.35	73.714
694.67	75.565
694.99	72.979
695.31	73.510
695.63	75.974
695.95	69.565
696.27	76.044
696.59	73.451
696.91	72.297
697.23	76.264
697.56	72.912
697.88	74.242
698.20	77.589
698.52	75.758
698.84	78.170
699.16	76.735
699.48	71.967
699.80	72.979
700.12	76.419
700.44	74.424
700.76	74.822
701.08	75.303
701.40	77.202
701.72	75.124
702.04	79.144
702.36	74.607
702.68	73.839
703.00	71.883
703.32	74.138
703.64	74.572
703.96	74.940
704.28	70.516
704.60	72.911
704.91	73.724
705.23	72.877
705.55	74.373
705.87	79.697
706.19	79.141
706.51	71.084
706.83	77.233
707.15	76.455
707.47	72.897
707.79	72.926
708.11	69.915
708.43	71.183
708.74	72.098
709.06	74.246
709.38	74.648
709.70	79.653
710.02	70.801
710.34	72.340
710.66	71.229
710.98	72.678
711.29	72.802
711.61	74.011
711.93	81.197
712.25	69.189
712.57	77.286
712.89	76.765
713.20	69.527
713.52	70.520
713.84	71.031
714.16	71.316
714.48	71.392
714.80	77.143
715.11	73.491
715.43	74.005
715.75	75.000
716.07	70.718
716.39	70.765
716.70	69.578
717.02	73.770
717.34	73.171
717.66	76.510
717.97	69.521
718.29	76.976
718.61	74.671
718.93	76.375
719.24	75.776
719.56	73.620
719.88	67.267
720.20	76.129
720.51	73.913
720.83	72.500
721.15	74.013
721.46	75.000
721.78	74.000
722.10	69.903
722.42	70.805
722.73	71.935
723.05	77.193
723.37	70.139
723.68	73.118
724.00	76.534
724.32	69.366
724.63	68.531
724.95	76.596
725.27	71.080
725.58	72.438
725.90	75.862
726.22	68.339
726.53	75.974
726.85	77.358
727.16	70.997
727.48	69.113
727.80	73.179
728.11	72.792
728.43	75.421
728.74	72.910
729.06	65.894
729.38	70.130
729.69	72.819
730.01	68.452
730.32	66.970
730.64	74.214
730.96	72.671
731.27	69.553
731.59	70.055
731.90	65.195
732.22	72.656
732.53	65.193
732.85	72.857
733.16	71.261
733.48	75.305
733.80	70.195
734.11	68.376
734.43	69.730
734.74	72.658
735.06	68.342
735.37	69.730
735.69	68.919
736.00	70.621
736.32	64.420
736.63	70.278
736.95	72.989
737.26	71.515
737.58	72.727
737.89	72.353
738.21	68.196
738.52	71.148
738.83	70.307
739.15	69.504
739.46	73.129
739.78	73.313
740.09	67.908
740.41	69.388
740.72	74.000
741.04	72.816
741.35	72.982
741.66	69.804
741.98	75.000
742.29	75.314
742.61	75.877
742.92	75.385
743.23	67.509
743.55	74.419
743.86	77.200
744.18	65.702
744.49	69.198
744.80	75.309
745.12	81.435
745.43	73.577
745.74	76.724
746.06	80.085
746.37	74.262
746.68	76.829
747.00	73.750
747.31	71.245
747.62	76.538
747.94	70.850
748.25	71.084
748.56	67.755
748.88	74.786
749.19	74.138
749.50	74.026
749.82	75.904
750.13	74.377
750.44	71.333
750.75	72.923
751.07	72.000
751.38	71.609
751.69	66.773
752.01	65.696
752.32	71.242
752.63	75.170
752.94	69.550
753.26	69.517
753.57	63.704
753.88	69.288
754.19	66.881
754.51	67.846
754.82	70.418
755.13	67.541
755.44	69.625
755.75	68.092
756.07	68.657
756.38	64.465
756.69	68.976
757.00	65.374
757.31	66.120
757.63	68.286
757.94	65.962
758.25	65.011
758.56	64.706
758.87	61.364
759.18	65.600
759.50	71.105
759.81	68.627
760.12	66.038
760.43	67.969
760.74	67.241
761.05	66.000
761.36	67.229
761.67	67.766
761.99	63.514
762.30	65.549
762.61	66.007
762.92	73.507
763.23	69.663
763.54	68.705
763.85	70.790
764.16	67.003
764.47	67.254
764.78	69.649
765.10	69.501
765.41	68.974
765.72	66.931
766.03	69.209
766.34	65.831
766.65	66.202
766.96	66.932
767.27	74.654
767.58	70.149
767.89	67.308
768.20	65.728
768.51	70.370
768.82	69.478
769.13	71.591
769.44	65.385
769.75	68.592
770.06	63.077
770.37	69.291
770.68	68.511
770.99	70.040
771.30	67.778
771.61	73.004
771.92	65.926
772.23	67.206
772.54	64.352
772.85	70.968
773.16	63.333
773.47	67.196
773.78	73.514
774.09	76.705
774.39	72.000
774.70	68.852
775.01	67.073
775.32	62.353
775.63	66.258
775.94	71.338
776.25	58.710
776.56	71.154
776.87	63.946
777.18	70.345
777.48	81.119
777.79	72.973
778.10	64.706
778.41	64.583
778.72	71.724
779.03	67.901
779.34	75.152
779.65	61.658
779.95	72.778
780.26	66.477
780.57	76.774
780.88	75.362
781.19	63.871
781.50	70.000
781.80	70.430
782.11	65.608
782.42	54.545
782.73	69.461
783.04	66.480
783.34	61.818
783.65	64.706
783.96	67.702
784.27	64.286
784.57	72.185
784.88	74.286
785.19	66.142
785.50	66.929
785.81	66.917
786.11	85.385
786.42	59.712
786.73	61.871
787.04	67.669
787.34	71.311
787.65	70.400
787.96	72.388
788.26	69.930
788.57	76.224
788.88	65.789
789.19	72.549
789.49	69.178
789.80	63.830
790.11	67.717
790.41	70.312
790.72	66.949
791.03	64.078
791.33	64.348
791.64	74.561
791.95	67.857
792.25	76.190
792.56	62.500
792.87	70.833
793.17	70.536
793.48	65.625
793.79	69.880
794.09	63.303
794.40	69.725
794.70	70.748
795.01	61.688
795.32	60.274
795.62	69.014
795.93	66.667
796.23	63.934
796.54	66.964
796.85	72.340
797.15	65.217
797.46	83.562
797.76	73.750
798.07	64.130
798.37	58.763
798.68	75.325
798.99	62.069
799.29	66.292
799.60	72.340
799.90	67.470
800.21	81.538
800.51	77.612
800.82	85.294
801.12	57.534
801.43	76.471
801.73	71.186
802.04	74.242
802.34	91.667
802.65	72.881
802.95	61.194
803.26	76.271
803.56	78.082
803.87	82.857
804.17	76.712
804.48	77.193
804.78	70.833
805.09	56.897
805.39	68.919
805.70	59.155
806.00	58.537
806.30	61.446
806.61	61.644
806.91	67.308
807.22	70.000
807.52	51.724
807.83	73.611
808.13	68.675
808.43	65.169
808.74	58.750
809.04	70.588
809.35	72.000
809.65	67.143
809.95	69.863
810.26	64.912
810.56	79.310
810.86	76.471
811.17	59.649
811.47	63.934
811.77	84.444
812.08	81.356
812.38	66.667
812.69	68.966
812.99	58.491
813.29	53.846
813.59	88.000
813.90	70.175
814.20	74.545
814.50	73.239
814.81	70.513
815.11	50.820
815.41	62.687
815.72	74.138
816.02	71.429
816.32	93.333
816.62	104.545
816.93	62.222
817.23	79.630
817.53	80.851
817.84	90.476
818.14	135.294
818.44	81.633
818.74	75.556
819.04	66.667
819.35	102.857
819.65	84.615
819.95	62.264
820.25	86.667
820.56	71.429
820.86	96.875
821.16	79.487
821.46	81.395
821.76	64.000
822.07	75.000
822.37	63.043
822.67	57.447
822.97	83.784
823.27	55.000
823.57	87.755
823.88	77.778
824.18	92.500
824.48	73.333
824.78	84.000
825.08	72.727
825.38	100.000
825.69	68.085
825.99	75.000
826.29	48.571
826.59	66.667
826.89	53.488
827.19	46.000
827.49	114.706
827.79	77.083
828.09	91.892
828.39	43.333
828.70	51.220
829.00	58.140
829.30	78.571
829.60	108.824
829.90	65.217
830.20	68.571
830.50	96.552
830.80	105.556
831.10	92.308
831.40	67.647
831.70	109.524
832.00	100.000
832.30	52.941
832.60	79.167
832.90	130.769
833.20	94.737
833.50	100.000
833.80	105.263
834.10	-19.048
834.40	77.778
834.70	75.000
835.00	51.429
835.30	73.529
835.60	56.667
835.90	84.000
836.20	40.909
836.50	140.000
836.80	54.545
837.10	85.185
837.40	70.370
837.70	68.750
838.00	50.000
838.30	69.565
838.60	86.207
838.90	85.714
839.19	13.043
839.49	116.667
839.79	91.304
840.09	87.500
840.39	100.000
840.69	51.613
840.99	39.286
841.29	106.667
841.59	94.737
841.88	48.718
842.18	76.923
842.48	80.000
842.78	40.000
843.08	93.333
843.38	74.194
843.68	55.556
843.97	41.176
844.27	118.750
844.57	78.947
844.87	50.000
845.17	26.667
845.47	142.857
845.76	19.048
846.06	100.000
846.36	82.353
846.66	69.231
846.96	93.333
847.25	70.588
847.55	86.957
847.85	80.000
848.15	135.294
848.44	145.455
848.74	119.048
849.04	50.000
849.34	75.000
849.63	21.739
849.93	-100.000
850.23	106.667
850.53	80.769
850.82	81.818
851.12	104.545
851.42	90.909
851.71	169.231
852.01	105.000
852.31	53.846
852.61	73.684
852.90	150.000
853.20	50.000
853.50	88.889
853.79	52.381
854.09	90.909
854.39	-41.667
854.68	67.742
854.98	61.538
855.28	66.667
855.57	57.143
855.87	100.000
856.17	63.636
856.46	85.185
856.76	72.222
857.05	69.565
857.35	79.167
857.65	100.000
857.94	76.190
858.24	66.667
858.53	78.261
858.83	123.529
859.13	100.000
859.42	129.412
859.72	164.286
860.01	40.000
860.31	55.556
860.60	100.000
860.90	153.333
861.20	116.667
861.49	115.385
861.79	83.333
862.08	76.923
862.38	56.250
862.67	111.765
862.97	56.250
863.26	155.556
863.56	30.000
863.85	109.091
864.15	94.444
864.44	366.667
864.74	157.143
865.03	87.500
865.33	20.000
865.62	41.935
865.92	86.364
866.21	47.826
866.51	85.714
866.80	100.000
867.10	58.333
867.39	91.667
867.69	-0.000
867.98	200.000
868.27	117.647
868.57	500.000
868.86	60.000
869.16	76.190
869.45	83.333
869.75	154.545
870.04	85.714
870.33	125.000
870.63	14.286
870.92	325.000
871.22	100.000
871.51	36.364
871.80	100.000
872.10	500.000
>>>>>End Processed Spectral Data<<<<<
