SpectraSuite Data File
++++++++++++++++++++++++++++++++++++
Date: Thu May 14 14:48:59 PDT 2015
User: schluterlab
Dark Spectrum Present: Yes
Reference Spectrum Present: Yes
Number of Sampled Component Spectra: 1
Spectrometers: USB2E3373
Integration Time (usec): 3000 (USB2E3373)
Spectra Averaged: 3 (USB2E3373)
Boxcar Smoothing: 0 (USB2E3373)
Correct for Electrical Dark: No (USB2E3373)
Strobe/Lamp Enabled: No (USB2E3373)
Correct for Detector Non-linearity: No (USB2E3373)
Correct for Stray Light: No (USB2E3373)
Number of Pixels in Processed Spectrum: 2048
>>>>>Begin Processed Spectral Data<<<<<
178.53	0.000
178.91	28.571
179.29	-700.000
179.67	-800.000
180.04	107.143
180.42	-50.000
180.80	180.000
181.18	-700.000
181.56	200.000
181.94	50.000
182.31	50.000
182.69	-166.667
183.07	-400.000
183.45	250.000
183.83	166.667
184.20	33.333
184.58	600.000
184.96	-225.000
185.34	0.000
185.72	40.000
186.09	122.222
186.47	150.000
186.85	280.000
187.23	-88.889
187.61	-600.000
187.98	200.000
188.36	200.000
188.74	-125.000
189.12	-66.667
189.49	31.250
189.87	-75.000
190.25	11.111
190.63	-60.000
191.00	-144.444
191.38	0.000
191.76	-50.000
192.14	33.333
192.51	50.000
192.89	116.667
193.27	0.000
193.65	-85.714
194.02	-200.000
194.40	-42.857
194.78	-57.143
195.15	0.000
195.53	0.000
195.91	0.000
196.29	-150.000
196.66	-53.846
197.04	-700.000
197.42	-185.714
197.79	-50.000
198.17	-37.500
198.55	-114.286
198.92	-22.222
199.30	-37.500
199.68	63.636
200.05	7.143
200.43	-50.000
200.81	71.429
201.18	0.000
201.56	122.222
201.94	0.000
202.31	66.667
202.69	-133.333
203.07	-600.000
203.44	-33.333
203.82	-125.000
204.19	8.333
204.57	116.667
204.95	-62.500
205.32	300.000
205.70	175.000
206.08	-150.000
206.45	-66.667
206.83	240.000
207.20	50.000
207.58	-180.000
207.96	-83.333
208.33	66.667
208.71	16.667
209.08	100.000
209.46	0.000
209.84	283.333
210.21	150.000
210.59	-50.000
210.96	66.667
211.34	-125.000
211.71	-62.500
212.09	-1200.000
212.46	0.000
212.84	550.000
213.22	-140.000
213.59	-75.000
213.97	90.000
214.34	-233.333
214.72	150.000
215.09	50.000
215.47	0.000
215.84	42.857
216.22	-0.000
216.59	-100.000
216.97	-160.000
217.34	-350.000
217.72	-62.500
218.09	-275.000
218.47	-75.000
218.84	0.000
219.22	-20.000
219.59	-17.647
219.97	-20.000
220.34	500.000
220.72	-77.778
221.09	7.692
221.47	-333.333
221.84	-10.000
222.22	-28.571
222.59	0.000
222.97	25.000
223.34	-140.000
223.72	-600.000
224.09	-125.000
224.46	-350.000
224.84	60.000
225.21	-100.000
225.59	-425.000
225.96	-150.000
226.34	19.231
226.71	250.000
227.08	-150.000
227.46	-13.333
227.83	100.000
228.21	15.789
228.58	87.500
228.95	750.000
229.33	8.333
229.70	-10.000
230.08	73.684
230.45	150.000
230.82	133.333
231.20	50.000
231.57	-25.000
231.95	-63.636
232.32	18.182
232.69	0.000
233.07	-275.000
233.44	-35.294
233.81	-30.000
234.19	22.222
234.56	-31.818
234.93	31.034
235.31	-21.053
235.68	5.556
236.05	-50.000
236.43	19.231
236.80	20.000
237.17	14.815
237.55	0.000
237.92	-90.000
238.29	-3.226
238.67	-13.636
239.04	2.778
239.41	-14.286
239.79	2.174
240.16	-12.963
240.53	-8.696
240.91	-21.569
241.28	-1.639
241.65	13.433
242.02	4.054
242.40	-13.846
242.77	-13.333
243.14	-6.098
243.51	-5.263
243.89	-17.949
244.26	1.980
244.63	3.922
245.00	-1.869
245.38	-1.754
245.75	-8.850
246.12	1.587
246.49	0.000
246.87	0.714
247.24	2.649
247.61	3.289
247.98	2.685
248.36	0.000
248.73	-3.681
249.10	-5.464
249.47	6.965
249.84	4.712
250.22	1.554
250.59	-2.222
250.96	0.455
251.33	-3.061
251.70	1.709
252.08	2.083
252.45	4.918
252.82	-0.413
253.19	0.391
253.56	3.422
253.94	3.077
254.31	2.652
254.68	3.846
255.05	4.560
255.42	1.020
255.79	1.942
256.16	1.325
256.54	2.649
256.91	2.295
257.28	0.984
257.65	0.000
258.02	-0.590
258.39	3.419
258.76	7.339
259.14	4.023
259.51	2.017
259.88	2.266
260.25	0.278
260.62	3.288
260.99	4.372
261.36	4.021
261.73	0.796
262.10	2.198
262.47	0.268
262.85	5.051
263.22	1.039
263.59	-0.789
263.96	2.558
264.33	2.046
264.70	2.716
265.07	3.819
265.44	4.082
265.81	1.852
266.18	4.308
266.55	2.232
266.92	-0.911
267.29	3.720
267.66	3.104
268.03	1.965
268.40	2.505
268.77	0.911
269.14	1.101
269.51	2.193
269.88	4.098
270.25	2.414
270.62	2.532
270.99	3.838
271.36	4.554
271.73	0.000
272.10	4.008
272.47	4.208
272.84	2.811
273.21	3.006
273.58	3.629
273.95	1.923
274.32	1.521
274.69	1.161
275.06	3.480
275.43	2.403
275.80	2.998
276.17	2.037
276.54	1.866
276.91	2.504
277.28	3.074
277.65	1.975
278.02	3.676
278.39	0.181
278.76	2.285
279.13	3.546
279.50	3.265
279.87	1.968
280.23	0.000
280.60	3.559
280.97	2.961
281.34	2.207
281.71	4.569
282.08	3.156
282.45	2.455
282.82	2.512
283.19	0.000
283.56	1.967
283.92	3.003
284.29	4.107
284.66	4.105
285.03	0.641
285.40	4.019
285.77	2.477
286.14	4.427
286.51	3.501
286.87	3.002
287.24	1.506
287.61	2.541
287.98	0.755
288.35	3.107
288.72	3.254
289.08	3.514
289.45	3.550
289.82	1.355
290.19	3.017
290.56	3.803
290.93	1.712
291.29	2.342
291.66	1.515
292.03	1.900
292.40	2.449
292.77	2.695
293.13	1.894
293.50	1.708
293.87	2.550
294.24	4.133
294.60	3.287
294.97	0.000
295.34	3.969
295.71	2.144
296.08	1.938
296.44	2.574
296.81	2.436
297.18	1.993
297.55	1.651
297.91	2.254
298.28	1.896
298.65	2.497
299.02	0.826
299.38	3.204
299.75	3.271
300.12	3.009
300.48	1.498
300.85	1.687
301.22	2.013
301.59	1.256
301.95	2.486
302.32	2.778
302.69	2.738
303.05	3.700
303.42	2.882
303.79	1.458
304.15	2.208
304.52	1.691
304.89	2.513
305.25	2.588
305.62	2.403
305.99	2.784
306.35	2.016
306.72	2.172
307.09	2.741
307.45	2.277
307.82	2.523
308.19	2.018
308.55	4.436
308.92	2.532
309.29	2.969
309.65	2.144
310.02	2.178
310.38	2.657
310.75	2.427
311.12	3.260
311.48	3.030
311.85	3.799
312.22	3.131
312.58	2.629
312.95	2.964
313.31	3.613
313.68	4.212
314.05	5.059
314.41	4.736
314.78	4.541
315.14	4.900
315.51	6.279
315.87	5.221
316.24	4.840
316.61	6.128
316.97	4.615
317.34	6.173
317.70	6.201
318.07	6.173
318.43	6.888
318.80	8.110
319.16	7.296
319.53	5.056
319.89	6.310
320.26	8.274
320.62	6.826
320.99	7.295
321.35	7.486
321.72	9.674
322.08	7.935
322.45	9.124
322.81	8.394
323.18	10.885
323.54	10.431
323.91	10.053
324.27	10.241
324.64	11.419
325.00	11.194
325.37	12.121
325.73	12.810
326.10	12.409
326.46	14.414
326.83	14.972
327.19	14.094
327.56	15.336
327.92	14.083
328.29	14.355
328.65	15.494
329.01	15.821
329.38	16.596
329.74	17.979
330.11	16.610
330.47	17.355
330.84	17.054
331.20	17.833
331.56	17.158
331.93	18.828
332.29	18.136
332.66	18.854
333.02	17.504
333.38	18.624
333.75	18.434
334.11	19.183
334.48	18.894
334.84	19.966
335.20	18.052
335.57	19.562
335.93	19.421
336.29	17.804
336.66	19.680
337.02	19.649
337.38	21.088
337.75	18.760
338.11	21.026
338.47	19.438
338.84	19.036
339.20	18.366
339.56	18.287
339.93	19.951
340.29	19.324
340.65	18.978
341.02	19.473
341.38	19.644
341.74	18.805
342.11	19.469
342.47	19.301
342.83	20.290
343.20	19.706
343.56	19.246
343.92	20.016
344.28	19.844
344.65	20.465
345.01	19.189
345.37	20.218
345.73	18.550
346.10	19.813
346.46	19.304
346.82	20.075
347.19	19.939
347.55	19.803
347.91	19.762
348.27	19.499
348.63	20.564
349.00	20.433
349.36	20.669
349.72	19.271
350.08	19.614
350.45	19.163
350.81	18.703
351.17	19.398
351.53	21.152
351.89	19.362
352.26	19.328
352.62	19.552
352.98	19.771
353.34	19.119
353.70	19.646
354.07	19.672
354.43	20.121
354.79	18.848
355.15	20.162
355.51	20.906
355.87	19.297
356.24	19.316
356.60	18.921
356.96	19.941
357.32	18.736
357.68	19.400
358.04	19.237
358.40	19.179
358.77	20.322
359.13	19.350
359.49	18.810
359.85	20.377
360.21	19.512
360.57	19.957
360.93	19.817
361.29	20.070
361.66	20.058
362.02	20.320
362.38	20.098
362.74	19.763
363.10	20.358
363.46	19.460
363.82	20.099
364.18	19.704
364.54	20.816
364.90	20.602
365.26	20.000
365.62	20.467
365.98	19.401
366.35	21.208
366.71	20.204
367.07	21.110
367.43	20.420
367.79	22.163
368.15	21.070
368.51	21.177
368.87	20.967
369.23	20.533
369.59	20.150
369.95	21.298
370.31	21.472
370.67	21.045
371.03	20.637
371.39	20.618
371.75	21.045
372.11	20.190
372.47	20.988
372.83	21.335
373.19	20.414
373.55	21.138
373.91	22.631
374.27	21.345
374.63	21.516
374.99	22.149
375.35	22.273
375.71	21.613
376.07	21.562
376.42	21.537
376.78	22.561
377.14	21.772
377.50	21.252
377.86	22.906
378.22	23.593
378.58	22.711
378.94	23.357
379.30	21.793
379.66	23.810
380.02	22.735
380.38	23.675
380.74	22.817
381.09	23.345
381.45	22.784
381.81	23.536
382.17	23.515
382.53	23.041
382.89	23.363
383.25	23.740
383.61	22.859
383.97	23.557
384.32	24.222
384.68	23.028
385.04	24.639
385.40	23.807
385.76	24.560
386.12	24.117
386.48	24.235
386.83	24.970
387.19	24.450
387.55	24.296
387.91	24.886
388.27	25.346
388.62	24.513
388.98	24.422
389.34	25.869
389.70	25.218
390.06	24.512
390.42	25.241
390.77	25.346
391.13	24.354
391.49	25.785
391.85	25.273
392.20	26.097
392.56	26.108
392.92	26.063
393.28	25.207
393.64	25.363
393.99	26.671
394.35	26.694
394.71	26.826
395.07	25.988
395.42	26.442
395.78	27.544
396.14	26.619
396.50	26.663
396.85	27.370
397.21	26.627
397.57	27.385
397.92	27.778
398.28	26.942
398.64	26.487
399.00	26.649
399.35	27.120
399.71	27.391
400.07	28.523
400.42	27.474
400.78	27.315
401.14	27.888
401.49	27.857
401.85	27.965
402.21	28.158
402.57	28.521
402.92	28.428
403.28	27.927
403.63	28.819
403.99	28.207
404.35	28.368
404.70	28.669
405.06	28.587
405.42	28.571
405.77	29.335
406.13	28.039
406.49	28.773
406.84	28.809
407.20	27.893
407.55	29.073
407.91	28.787
408.27	29.388
408.62	29.145
408.98	29.541
409.34	29.326
409.69	30.470
410.05	30.950
410.40	30.336
410.76	30.623
411.11	30.742
411.47	30.651
411.83	30.923
412.18	31.506
412.54	30.290
412.89	30.966
413.25	31.433
413.60	31.304
413.96	31.352
414.31	31.161
414.67	31.067
415.03	31.692
415.38	32.030
415.74	32.132
416.09	31.585
416.45	31.872
416.80	31.640
417.16	32.439
417.51	33.499
417.87	32.863
418.22	32.275
418.58	32.466
418.93	33.527
419.29	33.724
419.64	33.073
420.00	33.353
420.35	32.734
420.71	33.429
421.06	33.180
421.42	33.544
421.77	33.818
422.12	33.879
422.48	34.460
422.83	34.940
423.19	34.536
423.54	34.403
423.90	33.793
424.25	34.560
424.61	35.591
424.96	36.299
425.31	35.563
425.67	35.105
426.02	35.529
426.38	35.304
426.73	35.714
427.09	36.217
427.44	35.718
427.79	36.484
428.15	35.959
428.50	35.674
428.85	36.854
429.21	37.553
429.56	36.723
429.92	37.396
430.27	38.265
430.62	37.567
430.98	37.383
431.33	37.781
431.68	37.692
432.04	37.887
432.39	37.761
432.74	37.614
433.10	38.021
433.45	37.068
433.80	38.090
434.16	38.843
434.51	39.311
434.86	39.957
435.22	39.798
435.57	39.328
435.92	38.898
436.28	40.444
436.63	40.524
436.98	39.291
437.34	40.079
437.69	39.956
438.04	40.137
438.39	40.839
438.75	39.956
439.10	41.490
439.45	39.352
439.81	40.169
440.16	40.322
440.51	40.524
440.86	40.856
441.22	40.997
441.57	41.667
441.92	41.416
442.27	41.616
442.63	40.735
442.98	41.942
443.33	40.978
443.68	41.824
444.03	40.969
444.39	41.331
444.74	40.888
445.09	41.967
445.44	41.412
445.79	41.906
446.15	41.470
446.50	41.602
446.85	42.412
447.20	42.602
447.55	41.475
447.91	42.199
448.26	41.279
448.61	41.498
448.96	42.972
449.31	42.100
449.66	41.449
450.02	42.932
450.37	42.515
450.72	42.573
451.07	42.141
451.42	41.421
451.77	42.468
452.12	42.551
452.47	42.424
452.83	43.300
453.18	42.907
453.53	42.619
453.88	42.794
454.23	43.616
454.58	43.413
454.93	43.568
455.28	43.769
455.63	44.002
455.98	43.855
456.34	42.992
456.69	44.386
457.04	43.558
457.39	43.016
457.74	44.407
458.09	42.394
458.44	44.019
458.79	43.992
459.14	43.996
459.49	44.143
459.84	43.389
460.19	42.643
460.54	44.407
460.89	45.050
461.24	43.333
461.59	44.328
461.94	43.126
462.29	44.401
462.64	44.056
462.99	44.319
463.34	44.322
463.69	43.962
464.04	43.913
464.39	43.498
464.74	43.957
465.09	43.022
465.44	44.260
465.79	43.892
466.14	43.460
466.49	44.263
466.84	44.904
467.19	44.798
467.54	42.597
467.89	43.103
468.24	44.100
468.59	43.602
468.94	43.124
469.29	42.591
469.64	44.565
469.99	43.850
470.34	43.936
470.68	43.951
471.03	44.073
471.38	44.277
471.73	45.319
472.08	45.178
472.43	43.468
472.78	44.584
473.13	44.627
473.48	44.653
473.83	44.689
474.17	43.728
474.52	44.257
474.87	43.245
475.22	44.958
475.57	42.939
475.92	43.703
476.27	44.036
476.61	42.835
476.96	43.326
477.31	43.960
477.66	44.648
478.01	43.366
478.36	43.071
478.70	44.532
479.05	44.990
479.40	43.929
479.75	44.188
480.10	43.250
480.45	43.391
480.79	43.900
481.14	43.566
481.49	43.617
481.84	42.689
482.19	43.398
482.53	43.419
482.88	43.952
483.23	43.975
483.58	44.541
483.92	42.908
484.27	43.776
484.62	42.120
484.97	42.963
485.31	41.781
485.66	39.644
486.01	39.243
486.36	39.951
486.70	42.068
487.05	43.185
487.40	41.862
487.75	42.570
488.09	42.237
488.44	41.646
488.79	42.968
489.13	42.252
489.48	41.981
489.83	41.811
490.17	42.487
490.52	42.898
490.87	43.190
491.22	43.068
491.56	42.833
491.91	43.437
492.26	43.012
492.60	43.244
492.95	43.440
493.30	43.478
493.64	42.882
493.99	43.421
494.34	42.204
494.68	41.884
495.03	42.599
495.37	43.142
495.72	43.265
496.07	42.638
496.41	42.342
496.76	42.994
497.11	43.100
497.45	42.987
497.80	43.359
498.14	42.721
498.49	42.923
498.84	42.779
499.18	42.915
499.53	42.646
499.87	42.066
500.22	42.030
500.56	41.925
500.91	42.288
501.26	43.636
501.60	42.466
501.95	41.511
502.29	42.563
502.64	42.807
502.98	41.588
503.33	41.641
503.67	41.256
504.02	42.338
504.36	42.940
504.71	42.260
505.06	42.019
505.40	42.276
505.75	41.940
506.09	42.680
506.44	42.479
506.78	42.156
507.13	42.923
507.47	42.113
507.82	42.140
508.16	42.113
508.51	41.585
508.85	41.474
509.19	42.065
509.54	42.411
509.88	42.156
510.23	41.816
510.57	42.049
510.92	42.574
511.26	42.136
511.61	41.333
511.95	41.630
512.30	42.245
512.64	41.879
512.98	42.621
513.33	42.238
513.67	42.376
514.02	42.259
514.36	40.870
514.70	41.250
515.05	42.023
515.39	41.680
515.74	43.054
516.08	42.314
516.42	42.020
516.77	41.851
517.11	41.465
517.46	43.054
517.80	42.063
518.14	42.601
518.49	43.547
518.83	41.299
519.17	41.519
519.52	42.138
519.86	41.288
520.20	41.693
520.55	41.950
520.89	41.836
521.23	42.434
521.58	42.938
521.92	41.926
522.26	40.722
522.61	42.708
522.95	41.811
523.29	42.069
523.64	41.648
523.98	41.928
524.32	42.178
524.66	40.581
525.01	41.110
525.35	40.781
525.69	41.241
526.04	40.413
526.38	42.011
526.72	40.830
527.06	42.229
527.41	41.050
527.75	42.280
528.09	41.499
528.43	41.208
528.78	39.942
529.12	39.679
529.46	40.416
529.80	40.789
530.15	39.826
530.49	40.688
530.83	40.083
531.17	40.203
531.51	40.193
531.86	40.385
532.20	40.183
532.54	40.036
532.88	40.000
533.22	39.717
533.57	39.988
533.91	38.833
534.25	39.005
534.59	39.195
534.93	39.219
535.27	38.028
535.62	39.397
535.96	37.478
536.30	39.483
536.64	39.760
536.98	39.176
537.32	38.951
537.66	38.989
538.01	38.308
538.35	39.281
538.69	38.341
539.03	38.994
539.37	37.279
539.71	38.198
540.05	38.010
540.39	38.142
540.73	37.766
541.07	38.136
541.42	36.976
541.76	37.070
542.10	37.033
542.44	37.393
542.78	37.105
543.12	37.366
543.46	37.729
543.80	36.990
544.14	36.984
544.48	35.343
544.82	37.822
545.16	36.852
545.50	37.867
545.84	35.946
546.18	37.778
546.52	36.624
546.86	36.667
547.20	36.514
547.54	36.392
547.88	35.805
548.22	35.263
548.56	35.635
548.90	36.179
549.24	35.198
549.58	35.899
549.92	35.332
550.26	35.599
550.60	35.354
550.94	36.158
551.28	36.172
551.62	36.725
551.96	34.628
552.30	36.393
552.64	34.599
552.98	34.747
553.32	36.206
553.66	34.405
554.00	34.994
554.34	35.264
554.68	34.603
555.02	34.428
555.36	35.108
555.69	33.248
556.03	34.111
556.37	33.792
556.71	34.369
557.05	34.313
557.39	33.908
557.73	33.686
558.07	33.642
558.41	33.688
558.75	34.415
559.08	33.890
559.42	34.225
559.76	33.921
560.10	33.825
560.44	33.113
560.78	33.125
561.12	33.005
561.45	33.029
561.79	32.295
562.13	32.656
562.47	32.737
562.81	32.595
563.15	32.449
563.48	32.567
563.82	32.225
564.16	32.102
564.50	31.049
564.84	31.563
565.17	31.765
565.51	30.725
565.85	31.532
566.19	31.740
566.52	30.661
566.86	30.956
567.20	30.506
567.54	30.218
567.88	29.409
568.21	30.731
568.55	30.791
568.89	29.687
569.23	29.193
569.56	29.308
569.90	27.904
570.24	27.555
570.57	27.903
570.91	27.067
571.25	27.191
571.59	26.663
571.92	26.919
572.26	26.469
572.60	26.699
572.93	26.969
573.27	26.721
573.61	26.204
573.95	25.734
574.28	25.321
574.62	25.375
574.96	25.033
575.29	25.468
575.63	25.433
575.97	25.413
576.30	25.167
576.64	25.006
576.98	25.011
577.31	25.515
577.65	25.072
577.98	24.266
578.32	24.545
578.66	24.161
578.99	24.309
579.33	24.678
579.67	24.207
580.00	24.343
580.34	24.629
580.67	23.897
581.01	24.275
581.35	23.612
581.68	23.531
582.02	23.290
582.35	23.890
582.69	23.640
583.02	23.883
583.36	23.804
583.70	24.017
584.03	23.494
584.37	23.550
584.70	23.032
585.04	23.227
585.37	22.978
585.71	23.042
586.04	22.919
586.38	23.259
586.72	23.314
587.05	23.305
587.39	22.887
587.72	22.967
588.06	22.969
588.39	23.027
588.73	22.937
589.06	22.912
589.40	23.141
589.73	23.104
590.07	23.176
590.40	23.124
590.73	22.870
591.07	22.971
591.40	22.473
591.74	23.490
592.07	23.589
592.41	22.674
592.74	22.613
593.08	22.803
593.41	22.426
593.75	21.897
594.08	22.296
594.41	22.564
594.75	21.953
595.08	22.073
595.42	21.786
595.75	22.021
596.09	22.501
596.42	21.748
596.75	22.655
597.09	22.909
597.42	21.692
597.75	22.266
598.09	21.905
598.42	22.236
598.76	21.437
599.09	21.111
599.42	21.153
599.76	20.799
600.09	21.288
600.42	20.354
600.76	21.433
601.09	20.577
601.42	20.220
601.76	21.172
602.09	20.586
602.42	20.865
602.76	20.701
603.09	20.962
603.42	20.737
603.76	20.648
604.09	21.611
604.42	20.220
604.76	20.091
605.09	20.862
605.42	20.494
605.75	20.000
606.09	20.306
606.42	20.285
606.75	19.715
607.09	19.739
607.42	20.231
607.75	19.930
608.08	20.403
608.42	20.355
608.75	20.605
609.08	19.822
609.41	19.982
609.75	20.446
610.08	20.624
610.41	19.286
610.74	19.748
611.07	20.027
611.41	20.045
611.74	20.231
612.07	19.682
612.40	19.914
612.73	19.756
613.07	19.951
613.40	20.212
613.73	19.788
614.06	19.676
614.39	20.214
614.72	19.990
615.06	19.442
615.39	19.720
615.72	19.194
616.05	18.893
616.38	19.929
616.71	20.010
617.05	19.010
617.38	20.011
617.71	19.708
618.04	19.374
618.37	19.399
618.70	20.136
619.03	19.176
619.36	18.927
619.69	19.539
620.03	19.272
620.36	18.466
620.69	18.507
621.02	19.751
621.35	20.319
621.68	21.041
622.01	20.071
622.34	18.759
622.67	19.381
623.00	18.016
623.33	18.514
623.66	19.650
623.99	18.433
624.32	20.013
624.65	19.305
624.99	18.596
625.32	19.464
625.65	19.353
625.98	18.712
626.31	19.348
626.64	19.780
626.97	19.730
627.30	18.527
627.63	18.905
627.96	20.195
628.29	19.455
628.62	19.312
628.95	20.070
629.28	18.522
629.61	19.529
629.94	18.410
630.26	18.814
630.59	18.221
630.92	18.701
631.25	19.589
631.58	20.433
631.91	19.025
632.24	21.326
632.57	19.639
632.90	18.957
633.23	19.286
633.56	20.510
633.89	18.492
634.22	21.206
634.55	19.833
634.88	19.048
635.20	19.591
635.53	20.452
635.86	19.610
636.19	19.830
636.52	19.726
636.85	17.773
637.18	19.543
637.51	19.355
637.83	18.826
638.16	19.355
638.49	18.545
638.82	19.504
639.15	18.442
639.48	20.323
639.81	19.169
640.13	19.552
640.46	17.576
640.79	18.627
641.12	19.503
641.45	19.322
641.77	20.154
642.10	19.685
642.43	19.016
642.76	19.241
643.09	18.904
643.41	19.328
643.74	19.034
644.07	19.862
644.40	18.953
644.73	19.739
645.05	20.264
645.38	18.993
645.71	19.062
646.04	20.086
646.36	17.372
646.69	19.632
647.02	19.113
647.35	20.763
647.67	20.612
648.00	19.586
648.33	19.670
648.66	18.117
648.98	18.776
649.31	17.456
649.64	20.319
649.96	19.761
650.29	14.604
650.62	17.680
650.94	18.318
651.27	15.868
651.60	16.374
651.92	17.629
652.25	17.945
652.58	16.644
652.90	15.407
653.23	18.873
653.56	17.118
653.88	19.101
654.21	18.028
654.54	16.474
654.86	20.397
655.19	16.688
655.52	16.121
655.84	13.359
656.17	15.557
656.49	21.959
656.82	24.425
657.15	19.343
657.47	14.833
657.80	10.882
658.13	8.617
658.45	11.600
658.78	14.104
659.10	13.888
659.43	13.944
659.75	13.255
660.08	13.557
660.41	13.648
660.73	14.367
661.06	16.740
661.38	18.022
661.71	16.379
662.03	17.989
662.36	18.068
662.68	17.824
663.01	15.752
663.33	17.769
663.66	18.132
663.98	17.308
664.31	18.574
664.63	15.414
664.96	14.882
665.28	15.426
665.61	19.056
665.93	16.786
666.26	17.204
666.58	16.236
666.91	18.131
667.23	17.714
667.56	18.146
667.88	16.400
668.21	16.016
668.53	16.409
668.86	18.271
669.18	18.126
669.50	16.302
669.83	16.600
670.15	16.535
670.48	20.040
670.80	16.061
671.13	17.580
671.45	15.157
671.77	18.079
672.10	14.500
672.42	13.754
672.75	15.054
673.07	14.328
673.39	14.638
673.72	17.450
674.04	18.103
674.37	16.816
674.69	18.342
675.01	14.476
675.34	16.985
675.66	16.292
675.98	17.164
676.31	16.016
676.63	18.251
676.95	16.284
677.28	16.935
677.60	13.189
677.92	16.891
678.25	15.905
678.57	16.548
678.89	16.553
679.22	14.983
679.54	16.068
679.86	13.220
680.18	12.604
680.51	14.937
680.83	16.367
681.15	14.655
681.48	16.753
681.80	16.580
682.12	15.210
682.44	14.691
682.77	16.844
683.09	14.394
683.41	16.473
683.73	15.560
684.06	15.314
684.38	14.490
684.70	17.056
685.02	14.630
685.34	13.478
685.67	12.618
685.99	14.417
686.31	13.227
686.63	14.060
686.96	14.038
687.28	15.147
687.60	14.815
687.92	13.505
688.24	16.528
688.56	13.103
688.89	15.608
689.21	14.286
689.53	13.922
689.85	13.807
690.17	11.852
690.49	14.343
690.82	15.446
691.14	12.955
691.46	14.340
691.78	14.180
692.10	14.862
692.42	11.429
692.74	12.704
693.06	12.963
693.39	15.370
693.71	12.970
694.03	14.498
694.35	13.143
694.67	13.963
694.99	13.617
695.31	16.998
695.63	15.584
695.95	13.872
696.27	12.088
696.59	15.265
696.91	14.640
697.23	14.945
697.56	12.627
697.88	12.689
698.20	13.371
698.52	16.477
698.84	12.682
699.16	14.898
699.48	12.762
699.80	12.766
700.12	13.755
700.44	13.134
700.76	15.202
701.08	14.528
701.40	13.472
701.72	16.667
702.04	14.439
702.36	13.089
702.68	13.203
703.00	13.447
703.32	12.562
703.64	15.403
703.96	14.558
704.28	14.742
704.60	15.190
704.91	11.990
705.23	13.973
705.55	15.320
705.87	12.424
706.19	17.178
706.51	9.639
706.83	11.527
707.15	9.524
707.47	12.383
707.79	13.100
708.11	10.805
708.43	11.183
708.74	10.938
709.06	12.761
709.38	14.085
709.70	13.648
710.02	13.178
710.34	15.160
710.66	13.966
710.98	11.749
711.29	10.714
711.61	14.124
711.93	11.111
712.25	13.243
712.57	15.339
712.89	13.824
713.20	13.609
713.52	13.873
713.84	12.256
714.16	15.263
714.48	12.113
714.80	16.623
715.11	13.911
715.43	12.467
715.75	15.000
716.07	13.536
716.39	13.661
716.70	11.145
717.02	11.475
717.34	9.408
717.66	13.423
717.97	8.904
718.29	12.027
718.61	9.539
718.93	13.592
719.24	12.733
719.56	10.429
719.88	11.111
720.20	9.032
720.51	10.559
720.83	10.000
721.15	14.803
721.46	11.301
721.78	13.000
722.10	9.385
722.42	10.738
722.73	12.258
723.05	16.842
723.37	14.583
723.68	14.337
724.00	16.606
724.32	10.563
724.63	11.888
724.95	13.830
725.27	12.544
725.58	8.834
725.90	13.793
726.22	9.404
726.53	10.714
726.85	11.950
727.16	11.782
727.48	15.291
727.80	9.934
728.11	10.247
728.43	9.428
728.74	10.702
729.06	11.589
729.38	12.987
729.69	10.067
730.01	10.714
730.32	10.000
730.64	10.063
730.96	10.559
731.27	14.525
731.59	9.066
731.90	8.831
732.22	8.073
732.53	9.669
732.85	12.286
733.16	8.798
733.48	8.232
733.80	7.521
734.11	9.402
734.43	10.000
734.74	13.924
735.06	8.291
735.37	9.730
735.69	10.270
736.00	13.277
736.32	13.208
736.63	11.944
736.95	10.920
737.26	11.515
737.58	8.788
737.89	11.765
738.21	6.422
738.52	5.574
738.83	10.922
739.15	7.092
739.46	9.864
739.78	12.577
740.09	9.169
740.41	11.370
740.72	10.000
741.04	13.592
741.35	11.930
741.66	10.588
741.98	15.984
742.29	13.808
742.61	11.842
742.92	13.846
743.23	11.913
743.55	10.078
743.86	14.800
744.18	7.438
744.49	6.329
744.80	8.642
745.12	12.236
745.43	11.382
745.74	6.897
746.06	9.322
746.37	6.329
746.68	14.634
747.00	10.833
747.31	9.871
747.62	13.846
747.94	8.097
748.25	5.221
748.56	8.163
748.88	8.120
749.19	12.069
749.50	11.688
749.82	10.442
750.13	13.167
750.44	9.667
750.75	10.462
751.07	10.154
751.38	12.303
751.69	9.904
752.01	6.472
752.32	8.170
752.63	7.823
752.94	10.381
753.26	10.409
753.57	4.815
753.88	6.742
754.19	12.862
754.51	7.717
754.82	8.682
755.13	8.852
755.44	11.604
755.75	6.908
756.07	11.940
756.38	10.063
756.69	12.048
757.00	8.033
757.31	6.557
757.63	7.417
757.94	7.981
758.25	10.158
758.56	8.715
758.87	11.818
759.18	9.067
759.50	11.048
759.81	10.924
760.12	9.973
760.43	8.073
760.74	10.591
761.05	10.500
761.36	10.361
761.67	7.107
761.99	9.189
762.30	7.317
762.61	6.931
762.92	7.463
763.23	13.858
763.54	10.072
763.85	10.309
764.16	10.101
764.47	8.803
764.78	10.224
765.10	7.625
765.41	10.000
765.72	6.878
766.03	8.192
766.34	9.404
766.65	7.317
766.96	9.960
767.27	7.834
767.58	7.960
767.89	10.096
768.20	9.859
768.51	9.722
768.82	10.843
769.13	9.848
769.44	5.000
769.75	6.498
770.06	7.692
770.37	15.748
770.68	6.383
770.99	2.024
771.30	14.074
771.61	7.605
771.92	6.667
772.23	11.741
772.54	4.167
772.85	14.286
773.16	11.905
773.47	1.587
773.78	0.541
774.09	6.818
774.39	13.500
774.70	9.836
775.01	2.439
775.32	2.353
775.63	4.294
775.94	7.006
776.25	15.484
776.56	8.333
776.87	10.884
777.18	2.759
777.48	5.594
777.79	6.757
778.10	5.882
778.41	15.278
778.72	9.655
779.03	3.086
779.34	3.030
779.65	6.218
779.95	12.778
780.26	10.227
780.57	5.161
780.88	13.043
781.19	6.452
781.50	12.353
781.80	9.140
782.11	6.349
782.42	3.535
782.73	1.796
783.04	5.028
783.34	6.667
783.65	5.229
783.96	0.000
784.27	1.786
784.57	1.987
784.88	-2.143
785.19	4.724
785.50	7.874
785.81	3.759
786.11	3.846
786.42	0.719
786.73	3.597
787.04	7.519
787.34	-0.820
787.65	2.400
787.96	-0.746
788.26	12.587
788.57	4.196
788.88	8.553
789.19	13.725
789.49	6.164
789.80	9.220
790.11	11.811
790.41	15.625
790.72	7.627
791.03	3.883
791.33	9.565
791.64	6.140
791.95	8.036
792.25	4.762
792.56	10.714
792.87	5.208
793.17	12.500
793.48	5.208
793.79	-2.410
794.09	5.505
794.40	0.917
794.70	5.442
795.01	7.792
795.32	5.479
795.62	8.451
795.93	6.818
796.23	9.016
796.54	0.000
796.85	2.128
797.15	3.261
797.46	-6.849
797.76	-3.750
798.07	4.348
798.37	4.124
798.68	3.896
798.99	8.046
799.29	14.607
799.60	6.383
799.90	3.614
800.21	-10.769
800.51	-2.985
800.82	-4.412
801.12	-4.110
801.43	-13.235
801.73	-3.390
802.04	10.606
802.34	11.667
802.65	1.695
802.95	14.925
803.26	-3.390
803.56	2.740
803.87	4.286
804.17	15.068
804.48	-24.561
804.78	-2.778
805.09	-15.517
805.39	8.108
805.70	1.408
806.00	10.976
806.30	4.819
806.61	0.000
806.91	9.615
807.22	-2.222
807.52	-4.598
807.83	-5.556
808.13	7.229
808.43	14.607
808.74	-1.250
809.04	-4.412
809.35	5.333
809.65	4.286
809.95	9.589
810.26	-5.263
810.56	-3.448
810.86	25.000
811.17	8.772
811.47	8.197
811.77	-17.778
812.08	-1.695
812.38	5.000
812.69	3.448
812.99	0.000
813.29	-53.846
813.59	4.000
813.90	12.281
814.20	1.818
814.50	22.535
814.81	3.846
815.11	9.836
815.41	2.985
815.72	27.586
816.02	16.071
816.32	31.111
816.62	-2.273
816.93	-17.778
817.23	-1.852
817.53	-21.277
817.84	9.524
818.14	-8.824
818.44	-2.041
818.74	13.333
819.04	-35.897
819.35	-25.714
819.65	-26.923
819.95	-5.660
820.25	6.667
820.56	-19.048
820.86	3.125
821.16	-7.692
821.46	-20.930
821.76	-8.000
822.07	7.143
822.37	-2.174
822.67	-12.766
822.97	-13.514
823.27	-15.000
823.57	12.245
823.88	-2.222
824.18	17.500
824.48	10.000
824.78	-16.000
825.08	-6.061
825.38	26.667
825.69	8.511
825.99	2.778
826.29	-54.286
826.59	-2.564
826.89	-13.953
827.19	6.000
827.49	11.765
827.79	2.083
828.09	-18.919
828.39	3.333
828.70	-9.756
829.00	-4.651
829.30	-25.000
829.60	17.647
829.90	10.870
830.20	-17.143
830.50	-24.138
830.80	11.111
831.10	-15.385
831.40	-5.882
831.70	-23.810
832.00	22.581
832.30	-94.118
832.60	4.167
832.90	-115.385
833.20	-10.526
833.50	-40.000
833.80	5.263
834.10	-42.857
834.40	27.778
834.70	-18.750
835.00	-14.286
835.30	5.882
835.60	-16.667
835.90	-8.000
836.20	-50.000
836.50	-12.000
836.80	-24.242
837.10	-22.222
837.40	-25.926
837.70	-62.500
838.00	3.571
838.30	-30.435
838.60	-37.931
838.90	-85.714
839.19	-34.783
839.49	-133.333
839.79	21.739
840.09	-62.500
840.39	-5.000
840.69	3.226
840.99	-10.714
841.29	-86.667
841.59	-5.263
841.88	7.692
842.18	-15.385
842.48	-70.000
842.78	-15.000
843.08	16.667
843.38	51.613
843.68	-33.333
843.97	2.941
844.27	-43.750
844.57	5.263
844.87	-10.000
845.17	-93.333
845.47	33.333
845.76	-9.524
846.06	-44.444
846.36	-52.941
846.66	-7.692
846.96	-60.000
847.25	-58.824
847.55	47.826
847.85	-20.000
848.15	17.647
848.44	-45.455
848.74	-14.286
849.04	-29.167
849.34	6.250
849.63	26.087
849.93	650.000
850.23	13.333
850.53	7.692
850.82	-18.182
851.12	31.818
851.42	9.091
851.71	100.000
852.01	-55.000
852.31	-23.077
852.61	-26.316
852.90	66.667
853.20	-11.111
853.50	-133.333
853.79	-33.333
854.09	-45.455
854.39	-75.000
854.68	22.581
854.98	-11.538
855.28	11.111
855.57	-25.000
855.87	0.000
856.17	18.182
856.46	3.704
856.76	38.889
857.05	-30.435
857.35	0.000
857.65	-23.077
857.94	9.524
858.24	-3.704
858.53	8.696
858.83	-47.059
859.13	-35.294
859.42	-17.647
859.72	-64.286
860.01	15.000
860.31	-55.556
860.60	-50.000
860.90	-20.000
861.20	-33.333
861.49	-7.692
861.79	6.667
862.08	-84.615
862.38	15.625
862.67	-11.765
862.97	56.250
863.26	-111.111
863.56	-70.000
863.85	-63.636
864.15	11.111
864.44	-333.333
864.74	-7.143
865.03	-6.250
865.33	-190.000
865.62	-29.032
865.92	18.182
866.21	21.739
866.51	-42.857
866.80	-200.000
867.10	-16.667
867.39	-16.667
867.69	1400.000
867.98	28.571
868.27	-5.882
868.57	-2100.000
868.86	-180.000
869.16	-52.381
869.45	0.000
869.75	18.182
870.04	-85.714
870.33	-25.000
870.63	-228.571
870.92	-100.000
871.22	-112.500
871.51	-81.818
871.80	-100.000
872.10	-300.000
>>>>>End Processed Spectral Data<<<<<
