SpectraSuite Data File
++++++++++++++++++++++++++++++++++++
Date: Thu May 14 15:05:25 PDT 2015
User: schluterlab
Dark Spectrum Present: Yes
Reference Spectrum Present: Yes
Number of Sampled Component Spectra: 1
Spectrometers: USB2E3373
Integration Time (usec): 3000 (USB2E3373)
Spectra Averaged: 3 (USB2E3373)
Boxcar Smoothing: 0 (USB2E3373)
Correct for Electrical Dark: No (USB2E3373)
Strobe/Lamp Enabled: No (USB2E3373)
Correct for Detector Non-linearity: No (USB2E3373)
Correct for Stray Light: No (USB2E3373)
Number of Pixels in Processed Spectrum: 2048
>>>>>Begin Processed Spectral Data<<<<<
178.53	0.000
178.91	314.286
179.29	-3000.000
179.67	-2800.000
180.04	271.429
180.42	250.000
180.80	600.000
181.18	-2200.000
181.56	-1900.000
181.94	575.000
182.31	-775.000
182.69	733.333
183.07	-750.000
183.45	800.000
183.83	-366.667
184.20	-766.667
184.58	2200.000
184.96	-775.000
185.34	-277.778
185.72	-480.000
186.09	388.889
186.47	1450.000
186.85	840.000
187.23	-377.778
187.61	-2900.000
187.98	420.000
188.36	825.000
188.74	-675.000
189.12	-700.000
189.49	-106.250
189.87	-250.000
190.25	-177.778
190.63	-480.000
191.00	-388.889
191.38	0.000
191.76	-650.000
192.14	-450.000
192.51	1550.000
192.89	-366.667
193.27	0.000
193.65	-400.000
194.02	-2900.000
194.40	-342.857
194.78	385.714
195.15	0.000
195.53	-281.818
195.91	0.000
196.29	-550.000
196.66	-207.692
197.04	-2900.000
197.42	-357.143
197.79	-2050.000
198.17	-362.500
198.55	-514.286
198.92	-133.333
199.30	-300.000
199.68	-163.636
200.05	-128.571
200.43	-1650.000
200.81	371.429
201.18	0.000
201.56	355.556
201.94	0.000
202.31	1266.667
202.69	-311.111
203.07	2400.000
203.44	-255.556
203.82	-800.000
204.19	-250.000
204.57	-483.333
204.95	-350.000
205.32	-2300.000
205.70	675.000
206.08	-483.333
206.45	-300.000
206.83	720.000
207.20	-466.667
207.58	-860.000
207.96	-600.000
208.33	-466.667
208.71	308.333
209.08	-150.000
209.46	0.000
209.84	533.333
210.21	1050.000
210.59	1200.000
210.96	966.667
211.34	-575.000
211.71	-337.500
212.09	-2200.000
212.46	0.000
212.84	1750.000
213.22	-620.000
213.59	-500.000
213.97	-160.000
214.34	-633.333
214.72	550.000
215.09	-600.000
215.47	0.000
215.84	428.571
216.22	2000.000
216.59	-420.000
216.97	-540.000
217.34	-700.000
217.72	-350.000
218.09	-700.000
218.47	-775.000
218.84	0.000
219.22	560.000
219.59	-88.235
219.97	-130.000
220.34	1550.000
220.72	-322.222
221.09	-84.615
221.47	-966.667
221.84	-210.000
222.22	-414.286
222.59	0.000
222.97	-225.000
223.34	-660.000
223.72	-1600.000
224.09	-375.000
224.46	-700.000
224.84	-320.000
225.21	-314.286
225.59	-925.000
225.96	-775.000
226.34	-107.692
226.71	483.333
227.08	-1000.000
227.46	-160.000
227.83	-625.000
228.21	-105.263
228.58	412.500
228.95	1850.000
229.33	-141.667
229.70	-240.000
230.08	-84.211
230.45	340.000
230.82	-933.333
231.20	-185.714
231.57	-166.667
231.95	-254.545
232.32	-245.455
232.69	-75.000
233.07	-750.000
233.44	-82.353
233.81	-290.000
234.19	-122.222
234.56	-118.182
234.93	-55.172
235.31	-110.526
235.68	-133.333
236.05	-180.000
236.43	-65.385
236.80	-56.000
237.17	-66.667
237.55	-57.576
237.92	-260.000
238.29	-74.194
238.67	-50.000
239.04	-50.000
239.41	-61.905
239.79	-56.522
240.16	-44.444
240.53	-56.522
240.91	-50.980
241.28	-40.984
241.65	-23.881
242.02	-17.568
242.40	-30.769
242.77	-18.667
243.14	-21.951
243.51	-26.316
243.89	-34.615
244.26	-12.871
244.63	-12.745
245.00	-18.692
245.38	-12.281
245.75	-19.469
246.12	-11.111
246.49	-13.178
246.87	-13.571
247.24	-7.285
247.61	-5.263
247.98	-11.409
248.36	-9.259
248.73	-10.429
249.10	-6.557
249.47	-0.498
249.84	-2.094
250.22	-3.109
250.59	-5.556
250.96	-1.818
251.33	-8.163
251.70	-2.564
252.08	-2.500
252.45	-3.279
252.82	-7.438
253.19	-5.859
253.56	-3.802
253.94	-6.154
254.31	0.379
254.68	0.699
255.05	-0.977
255.42	-2.381
255.79	-2.265
256.16	-4.305
256.54	-2.318
256.91	0.656
257.28	0.000
257.65	-2.548
258.02	-1.770
258.39	0.000
258.76	3.058
259.14	1.149
259.51	-3.170
259.88	-6.516
260.25	-2.500
260.62	0.548
260.99	4.645
261.36	0.268
261.73	-0.265
262.10	-4.121
262.47	-0.804
262.85	3.535
263.22	-1.039
263.59	-1.053
263.96	-2.046
264.33	-2.813
264.70	0.247
265.07	0.239
265.44	3.401
265.81	-0.463
266.18	2.041
266.55	2.009
266.92	-0.683
267.29	1.532
267.66	-0.443
268.03	0.873
268.40	0.835
268.77	-1.367
269.14	-0.220
269.51	0.877
269.88	2.459
270.25	4.225
270.62	1.266
270.99	1.212
271.36	4.752
271.73	2.358
272.10	2.204
272.47	-0.401
272.84	0.402
273.21	1.403
273.58	0.202
273.95	-0.385
274.32	0.760
274.69	-0.387
275.06	2.564
275.43	-0.555
275.80	1.940
276.17	0.185
276.54	1.679
276.91	1.968
277.28	2.170
277.65	3.052
278.02	2.022
278.39	-0.725
278.76	0.703
279.13	0.355
279.50	2.749
279.87	2.326
280.23	-0.880
280.60	3.220
280.97	2.961
281.34	1.019
281.71	3.384
282.08	2.658
282.45	1.637
282.82	1.727
283.19	0.485
283.56	2.623
283.92	3.604
284.29	3.002
284.66	2.627
285.03	2.244
285.40	3.091
285.77	1.393
286.14	3.359
286.51	2.588
286.87	2.528
287.24	2.560
287.61	0.448
287.98	0.604
288.35	1.036
288.72	1.479
289.08	2.635
289.45	1.775
289.82	1.958
290.19	3.592
290.56	1.972
290.93	3.138
291.29	2.479
291.66	1.377
292.03	1.221
292.40	3.265
292.77	1.482
293.13	2.706
293.50	1.708
293.87	0.805
294.24	3.467
294.60	2.402
294.97	0.000
295.34	3.457
295.71	2.018
296.08	4.134
296.44	1.471
296.81	2.436
297.18	1.619
297.55	0.943
297.91	0.712
298.28	1.896
298.65	2.140
299.02	2.007
299.38	2.059
299.75	3.388
300.12	1.852
300.48	1.613
300.85	2.362
301.22	3.020
301.59	0.342
301.95	1.808
302.32	2.556
302.69	2.519
303.05	2.720
303.42	1.330
303.79	2.188
304.15	2.103
304.52	1.797
304.89	1.990
305.25	3.209
305.62	2.821
305.99	2.680
306.35	1.815
306.72	1.655
307.09	1.726
307.45	2.692
307.82	2.523
308.19	2.321
308.55	3.182
308.92	1.655
309.29	3.257
309.65	2.827
310.02	3.069
310.38	2.362
310.75	3.301
311.12	3.452
311.48	2.737
311.85	3.989
312.22	2.751
312.58	2.817
312.95	3.633
313.31	4.517
313.68	4.212
314.05	4.517
314.41	4.918
314.78	5.540
315.14	5.172
315.51	4.247
315.87	4.950
316.24	6.301
316.61	6.572
316.97	4.977
317.34	5.996
317.70	6.725
318.07	6.702
318.43	7.228
318.80	8.946
319.16	7.468
319.53	6.684
319.89	7.713
320.26	7.829
320.62	8.422
320.99	9.326
321.35	10.074
321.72	10.698
322.08	10.280
322.45	10.388
322.81	11.101
323.18	10.531
323.54	12.328
323.91	12.544
324.27	13.941
324.64	14.358
325.00	15.091
325.37	14.988
325.73	16.777
326.10	17.113
326.46	18.322
326.83	19.456
327.19	18.976
327.56	20.000
327.92	21.243
328.29	21.855
328.65	21.022
329.01	23.181
329.38	24.263
329.74	24.914
330.11	25.685
330.47	24.768
330.84	26.184
331.20	27.917
331.56	27.816
331.93	29.372
332.29	28.559
332.66	30.316
333.02	27.889
333.38	29.782
333.75	29.545
334.11	30.776
334.48	30.281
334.84	31.436
335.20	30.647
335.57	30.691
335.93	31.983
336.29	31.614
336.66	33.137
337.02	33.361
337.38	31.378
337.75	32.479
338.11	34.399
338.47	32.837
338.84	33.249
339.20	32.098
339.56	33.114
339.93	33.498
340.29	33.333
340.65	32.928
341.02	34.318
341.38	35.570
341.74	33.737
342.11	33.548
342.47	33.916
342.83	34.944
343.20	34.342
343.56	34.002
343.92	34.588
344.28	34.766
344.65	34.264
345.01	34.867
345.37	34.370
345.73	33.983
346.10	36.193
346.46	35.601
346.82	36.030
347.19	35.294
347.55	35.432
347.91	35.810
348.27	35.205
348.63	36.481
349.00	35.272
349.36	36.357
349.72	35.640
350.08	35.513
350.45	37.034
350.81	35.973
351.17	36.015
351.53	37.301
351.89	35.459
352.26	37.313
352.62	36.269
352.98	37.710
353.34	37.341
353.70	37.750
354.07	38.003
354.43	39.939
354.79	37.472
355.15	37.160
355.51	38.596
355.87	38.369
356.24	38.099
356.60	37.842
356.96	38.176
357.32	38.439
357.68	38.726
358.04	38.323
358.40	37.910
358.77	38.596
359.13	39.069
359.49	36.877
359.85	39.159
360.21	39.742
360.57	39.196
360.93	38.082
361.29	39.649
361.66	39.754
362.02	40.849
362.38	40.478
362.74	40.992
363.10	41.334
363.46	40.305
363.82	40.625
364.18	41.098
364.54	41.909
364.90	41.472
365.26	41.379
365.62	41.400
365.98	42.069
366.35	41.879
366.71	42.721
367.07	43.505
367.43	41.366
367.79	42.070
368.15	43.411
368.51	43.302
368.87	42.652
369.23	41.867
369.59	43.716
369.95	43.408
370.31	44.092
370.67	44.154
371.03	43.698
371.39	43.855
371.75	44.429
372.11	44.783
372.47	44.956
372.83	44.503
373.19	43.162
373.55	43.970
373.91	43.831
374.27	45.084
374.63	47.091
374.99	46.419
375.35	46.039
375.71	46.129
376.07	45.771
376.42	46.788
376.78	47.359
377.14	46.163
377.50	48.893
377.86	46.798
378.22	47.904
378.58	47.265
378.94	47.183
379.30	48.155
379.66	49.971
380.02	49.625
380.38	49.597
380.74	49.070
381.09	49.652
381.45	48.807
381.81	51.815
382.17	50.950
382.53	49.766
382.89	49.492
383.25	51.114
383.61	51.100
383.97	49.588
384.32	50.957
384.68	50.000
385.04	51.359
385.40	51.385
385.76	52.521
386.12	50.569
386.48	52.176
386.83	51.609
387.19	51.564
387.55	50.646
387.91	52.169
388.27	52.887
388.62	50.802
388.98	50.479
389.34	52.563
389.70	52.876
390.06	52.575
390.42	51.687
390.77	52.800
391.13	51.526
391.49	52.778
391.85	51.879
392.20	52.313
392.56	53.042
392.92	51.363
393.28	51.797
393.64	51.564
393.99	53.515
394.35	53.154
394.71	53.174
395.07	51.796
395.42	51.456
395.78	53.077
396.14	51.634
396.50	52.197
396.85	52.832
397.21	51.893
397.57	52.591
397.92	51.604
398.28	51.602
398.64	51.773
399.00	50.471
399.35	51.204
399.71	51.467
400.07	52.835
400.42	51.222
400.78	51.157
401.14	50.313
401.49	51.677
401.85	51.512
402.21	51.333
402.57	51.232
402.92	51.064
403.28	51.054
403.63	50.656
403.99	50.772
404.35	49.574
404.70	49.745
405.06	48.315
405.42	49.707
405.77	50.818
406.13	49.325
406.49	49.944
406.84	49.640
407.20	49.357
407.55	48.758
407.91	49.780
408.27	47.998
408.62	49.447
408.98	48.636
409.34	49.208
409.69	49.506
410.05	48.710
410.40	48.782
410.76	49.579
411.11	48.276
411.47	49.447
411.83	49.324
412.18	49.458
412.54	49.081
412.89	48.370
413.25	49.774
413.60	49.052
413.96	50.000
414.31	48.329
414.67	48.778
415.03	47.938
415.38	50.189
415.74	48.870
416.09	50.278
416.45	48.278
416.80	48.960
417.16	50.511
417.51	49.128
417.87	49.356
418.22	50.539
418.58	50.124
418.93	50.000
419.29	50.925
419.64	50.780
420.00	51.454
420.35	52.106
420.71	51.292
421.06	50.546
421.42	51.548
421.77	49.812
422.12	52.008
422.48	51.715
422.83	54.107
423.19	52.785
423.54	55.531
423.90	52.457
424.25	53.493
424.61	53.674
424.96	53.542
425.31	53.981
425.67	52.925
426.02	54.842
426.38	55.224
426.73	54.632
427.09	55.825
427.44	54.123
427.79	53.952
428.15	55.537
428.50	56.629
428.85	54.994
429.21	56.383
429.56	55.726
429.92	55.332
430.27	56.771
430.62	57.401
430.98	57.895
431.33	57.331
431.68	56.657
432.04	58.456
432.39	57.793
432.74	58.676
433.10	58.356
433.45	56.856
433.80	56.545
434.16	58.936
434.51	60.226
434.86	60.858
435.22	60.627
435.57	58.962
435.92	58.152
436.28	59.044
436.63	60.677
436.98	57.756
437.34	59.639
437.69	59.714
438.04	62.031
438.39	60.195
438.75	60.598
439.10	61.152
439.45	60.593
439.81	61.525
440.16	60.912
440.51	61.037
440.86	60.478
441.22	62.862
441.57	61.792
441.92	61.785
442.27	61.919
442.63	60.904
442.98	62.807
443.33	63.335
443.68	61.843
444.03	63.452
444.39	63.153
444.74	62.685
445.09	62.848
445.44	63.699
445.79	63.602
446.15	63.104
446.50	63.359
446.85	63.181
447.20	62.766
447.55	64.697
447.91	62.880
448.26	63.689
448.61	63.496
448.96	64.270
449.31	63.627
449.66	62.582
450.02	63.344
450.37	62.866
450.72	64.424
451.07	63.952
451.42	63.720
451.77	64.258
452.12	66.366
452.47	64.468
452.83	66.329
453.18	64.332
453.53	64.848
453.88	63.666
454.23	64.689
454.58	65.003
454.93	65.777
455.28	65.322
455.63	64.468
455.98	64.804
456.34	66.019
456.69	64.256
457.04	65.662
457.39	64.468
457.74	65.828
458.09	65.568
458.44	65.679
458.79	65.034
459.14	64.709
459.49	65.478
459.84	65.792
460.19	65.297
460.54	66.326
460.89	66.173
461.24	65.057
461.59	65.634
461.94	65.317
462.29	66.573
462.64	65.600
462.99	64.218
463.34	65.996
463.69	64.127
464.04	66.426
464.39	64.013
464.74	63.854
465.09	65.859
465.44	66.685
465.79	65.521
466.14	65.399
466.49	66.158
466.84	67.383
467.19	65.549
467.54	63.984
467.89	64.540
468.24	64.432
468.59	64.563
468.94	65.734
469.29	64.487
469.64	64.908
469.99	67.240
470.34	65.842
470.68	66.507
471.03	65.619
471.38	65.271
471.73	66.840
472.08	65.419
472.43	67.369
472.78	66.751
473.13	66.119
473.48	66.103
473.83	67.266
474.17	65.651
474.52	67.048
474.87	65.116
475.22	66.873
475.57	66.355
475.92	65.605
476.27	65.069
476.61	65.265
476.96	65.172
477.31	66.089
477.66	67.366
478.01	65.074
478.36	65.753
478.70	66.355
479.05	67.536
479.40	66.486
479.75	66.571
480.10	65.703
480.45	66.180
480.79	65.896
481.14	64.522
481.49	65.970
481.84	65.970
482.19	67.269
482.53	66.987
482.88	66.903
483.23	66.652
483.58	65.371
483.92	64.495
484.27	65.876
484.62	64.934
484.97	65.513
485.31	63.886
485.66	60.140
486.01	60.813
486.36	63.692
486.70	67.197
487.05	69.830
487.40	66.636
487.75	65.725
488.09	64.300
488.44	63.440
488.79	63.912
489.13	63.794
489.48	64.583
489.83	64.105
490.17	64.601
490.52	64.368
490.87	65.863
491.22	65.858
491.56	64.292
491.91	65.896
492.26	66.248
492.60	65.632
492.95	65.687
493.30	66.517
493.64	65.922
493.99	65.526
494.34	66.115
494.68	65.353
495.03	66.167
495.37	66.667
495.72	65.397
496.07	65.294
496.41	65.508
496.76	66.222
497.11	67.134
497.45	66.767
497.80	65.482
498.14	65.896
498.49	65.625
498.84	65.585
499.18	64.507
499.53	65.471
499.87	65.890
500.22	65.850
500.56	65.722
500.91	66.590
501.26	67.045
501.60	65.002
501.95	65.436
502.29	65.072
502.64	65.238
502.98	64.323
503.33	64.449
503.67	65.068
504.02	65.630
504.36	66.756
504.71	66.330
505.06	64.393
505.40	65.082
505.75	65.984
506.09	66.483
506.44	66.063
506.78	67.523
507.13	65.791
507.47	65.088
507.82	65.341
508.16	65.679
508.51	65.354
508.85	66.556
509.19	64.377
509.54	65.946
509.88	65.566
510.23	66.974
510.57	66.264
510.92	66.183
511.26	64.839
511.61	64.124
511.95	65.398
512.30	65.239
512.64	65.417
512.98	65.683
513.33	67.036
513.67	65.783
514.02	66.990
514.36	66.394
514.70	66.250
515.05	66.111
515.39	65.774
515.74	67.020
516.08	66.244
516.42	66.614
516.77	66.088
517.11	66.374
517.46	66.331
517.80	66.168
518.14	67.954
518.49	66.703
518.83	65.620
519.17	66.182
519.52	66.090
519.86	65.945
520.20	66.187
520.55	66.320
520.89	67.061
521.23	65.606
521.58	66.667
521.92	67.479
522.26	65.349
522.61	66.782
522.95	66.148
523.29	67.644
523.64	66.087
523.98	67.770
524.32	68.309
524.66	67.615
525.01	65.402
525.35	66.284
525.69	65.893
526.04	65.557
526.38	65.920
526.72	65.859
527.06	65.806
527.41	66.297
527.75	66.568
528.09	66.942
528.43	65.838
528.78	64.277
529.12	65.596
529.46	65.430
529.80	66.304
530.15	65.449
530.49	65.777
530.83	64.876
531.17	65.114
531.51	64.561
531.86	64.423
532.20	65.610
532.54	65.530
532.88	65.576
533.22	66.058
533.57	63.935
533.91	64.422
534.25	64.104
534.59	66.149
534.93	64.290
535.27	64.338
535.62	65.776
535.96	64.207
536.30	64.924
536.64	65.225
536.98	64.883
537.32	65.062
537.66	64.816
538.01	62.961
538.35	63.946
538.69	65.084
539.03	64.439
539.37	63.840
539.71	63.003
540.05	64.568
540.39	62.592
540.73	62.902
541.07	63.887
541.42	62.434
541.76	62.515
542.10	64.174
542.44	63.886
542.78	64.294
543.12	62.813
543.46	64.103
543.80	62.350
544.14	63.495
544.48	62.175
544.82	63.674
545.16	63.626
545.50	63.511
545.84	63.503
546.18	64.815
546.52	63.758
546.86	64.151
547.20	64.249
547.54	62.797
547.88	62.628
548.22	62.105
548.56	63.136
548.90	62.866
549.24	62.067
549.58	62.839
549.92	63.393
550.26	64.013
550.60	62.731
550.94	63.842
551.28	62.772
551.62	64.690
551.96	62.913
552.30	63.735
552.64	61.979
552.98	61.634
553.32	64.437
553.66	65.145
554.00	63.178
554.34	62.741
554.68	62.556
555.02	61.892
555.36	63.314
555.69	63.165
556.03	62.799
556.37	63.204
556.71	63.855
557.05	63.131
557.39	64.897
557.73	63.606
558.07	63.444
558.41	64.651
558.75	63.151
559.08	65.414
559.42	64.678
559.76	63.365
560.10	62.960
560.44	63.259
560.78	64.188
561.12	63.793
561.45	63.808
561.79	63.248
562.13	63.709
562.47	61.159
562.81	63.671
563.15	62.437
563.48	63.704
563.82	63.362
564.16	61.538
564.50	61.740
564.84	62.596
565.17	62.647
565.51	62.255
565.85	61.995
566.19	61.118
566.52	62.434
566.86	62.139
567.20	60.740
567.54	62.082
567.88	62.130
568.21	61.759
568.55	61.535
568.89	61.825
569.23	60.414
569.56	60.453
569.90	59.587
570.24	59.123
570.57	60.103
570.91	59.186
571.25	58.172
571.59	58.196
571.92	57.916
572.26	57.861
572.60	58.367
572.93	57.278
573.27	57.572
573.61	56.432
573.95	57.393
574.28	56.599
574.62	56.935
574.96	55.668
575.29	56.290
575.63	56.849
575.97	56.431
576.30	56.526
576.64	56.216
576.98	55.968
577.31	56.373
577.65	56.459
577.98	56.099
578.32	56.242
578.66	55.654
578.99	56.400
579.33	56.558
579.67	55.757
580.00	56.282
580.34	55.497
580.67	56.046
581.01	55.755
581.35	55.796
581.68	55.652
582.02	55.244
582.35	56.741
582.69	57.304
583.02	56.625
583.36	57.548
583.70	56.828
584.03	56.371
584.37	56.974
584.70	55.281
585.04	55.359
585.37	55.568
585.71	56.397
586.04	56.715
586.38	56.476
586.72	56.606
587.05	57.585
587.39	56.495
587.72	57.105
588.06	57.157
588.39	56.784
588.73	56.534
589.06	58.380
589.40	58.267
589.73	58.258
590.07	57.924
590.40	57.201
590.73	57.193
591.07	58.526
591.40	56.843
591.74	58.029
592.07	59.318
592.41	58.596
592.74	57.650
593.08	58.535
593.41	58.355
593.75	58.534
594.08	58.891
594.41	58.814
594.75	57.855
595.08	57.941
595.42	57.630
595.75	57.249
596.09	58.150
596.42	57.793
596.75	58.317
597.09	59.152
597.42	58.522
597.75	57.899
598.09	58.095
598.42	59.389
598.76	57.203
599.09	58.028
599.42	56.185
599.76	57.874
600.09	57.791
600.42	57.724
600.76	57.563
601.09	56.621
601.42	56.952
601.76	57.966
602.09	56.969
602.42	56.307
602.76	57.269
603.09	57.232
603.42	57.659
603.76	57.928
604.09	58.978
604.42	58.789
604.76	57.496
605.09	58.317
605.42	58.413
605.75	57.192
606.09	58.268
606.42	56.330
606.75	56.972
607.09	56.605
607.42	57.765
607.75	57.601
608.08	57.814
608.42	56.469
608.75	58.209
609.08	58.149
609.41	58.139
609.75	57.545
610.08	59.719
610.41	57.689
610.74	58.824
611.07	58.659
611.41	58.789
611.74	59.769
612.07	58.859
612.40	58.555
612.73	59.804
613.07	58.533
613.40	58.758
613.73	58.353
614.06	59.176
614.39	57.969
614.72	57.642
615.06	57.363
615.39	57.854
615.72	57.583
616.05	58.961
616.38	58.779
616.71	59.666
617.05	57.987
617.38	58.106
617.71	58.693
618.04	58.608
618.37	60.000
618.70	59.842
619.03	58.662
619.36	60.481
619.69	59.129
620.03	59.259
620.36	59.632
620.69	59.346
621.02	60.696
621.35	62.192
621.68	62.401
622.01	59.644
622.34	59.763
622.67	60.206
623.00	59.649
623.33	62.110
623.66	60.376
623.99	60.500
624.32	59.584
624.65	60.296
624.99	61.053
625.32	60.483
625.65	60.216
625.98	60.000
626.31	61.871
626.64	61.685
626.97	61.515
627.30	61.883
627.63	61.215
627.96	61.486
628.29	61.712
628.62	61.965
628.95	64.242
629.28	62.192
629.61	62.290
629.94	62.008
630.26	61.441
630.59	62.781
630.92	61.299
631.25	62.612
631.58	65.443
631.91	63.636
632.24	63.785
632.57	63.947
632.90	62.387
633.23	64.694
633.56	63.878
633.89	63.843
634.22	65.281
634.55	65.031
634.88	66.126
635.20	63.294
635.53	65.650
635.86	64.139
636.19	64.263
636.52	64.241
636.85	63.432
637.18	62.786
637.51	64.731
637.83	62.016
638.16	64.977
638.49	64.202
638.82	63.134
639.15	62.658
639.48	65.012
639.81	65.012
640.13	63.958
640.46	63.030
640.79	64.828
641.12	65.342
641.45	65.872
641.77	66.367
642.10	65.092
642.43	66.622
642.76	65.989
643.09	64.384
643.41	64.146
643.74	64.276
644.07	66.483
644.40	64.356
644.73	63.570
645.05	67.695
645.38	68.777
645.71	66.129
646.04	67.575
646.36	64.526
646.69	66.104
647.02	66.820
647.35	68.092
647.67	67.472
648.00	68.790
648.33	68.769
648.66	64.337
648.98	64.354
649.31	63.735
649.64	65.471
649.96	62.865
650.29	62.170
650.62	63.932
650.94	63.664
651.27	63.473
651.60	60.673
651.92	66.869
652.25	63.097
652.58	61.898
652.90	63.808
653.23	61.690
653.56	62.625
653.88	61.517
654.21	62.113
654.54	61.705
654.86	63.598
655.19	61.731
655.52	62.330
655.84	58.248
656.17	64.314
656.49	87.607
656.82	93.739
657.15	73.400
657.47	55.763
657.80	40.958
658.13	31.566
658.45	41.290
658.78	49.053
659.10	46.253
659.43	44.913
659.75	44.589
660.08	43.305
660.41	47.891
660.73	51.881
661.06	57.709
661.38	59.330
661.71	64.828
662.03	65.961
662.36	64.758
662.68	66.792
663.01	63.717
663.33	65.784
663.66	64.103
663.98	62.692
664.31	63.227
664.63	64.740
664.96	65.880
665.28	62.795
665.61	64.685
665.93	62.321
666.26	65.591
666.58	61.624
666.91	66.916
667.23	64.000
667.56	64.892
667.88	68.800
668.21	63.867
668.53	64.093
668.86	65.029
669.18	66.599
669.50	65.209
669.83	65.000
670.15	64.961
670.48	63.690
670.80	61.950
671.13	64.083
671.45	62.598
671.77	67.420
672.10	61.333
672.42	59.709
672.75	62.826
673.07	58.060
673.39	60.863
673.72	60.570
674.04	62.931
674.37	63.506
674.69	59.965
675.01	62.286
675.34	64.504
675.66	60.861
675.98	63.806
676.31	63.867
676.63	62.738
676.95	63.602
677.28	63.911
677.60	59.843
677.92	62.764
678.25	61.609
678.57	62.989
678.89	60.751
679.22	59.582
679.54	59.829
679.86	60.169
680.18	61.360
680.51	61.006
680.83	61.211
681.15	58.621
681.48	63.212
681.80	60.276
682.12	61.888
682.44	57.429
682.77	59.929
683.09	58.712
683.41	62.984
683.73	62.998
684.06	60.148
684.38	59.928
684.70	63.734
685.02	62.478
685.34	58.735
685.67	58.675
685.99	57.669
686.31	56.105
686.63	58.768
686.96	59.621
687.28	57.492
687.60	58.754
687.92	57.074
688.24	56.928
688.56	57.069
688.89	62.069
689.21	61.252
689.53	59.608
689.85	60.158
690.17	57.778
690.49	62.550
690.82	59.604
691.14	58.097
691.46	59.273
691.78	58.748
692.10	60.367
692.42	54.286
692.74	59.528
693.06	57.778
693.39	61.670
693.71	59.962
694.03	57.993
694.35	55.429
694.67	60.575
694.99	52.979
695.31	59.823
695.63	59.091
695.95	57.971
696.27	57.143
696.59	61.062
696.91	60.135
697.23	63.956
697.56	59.674
697.88	58.523
698.20	57.627
698.52	60.417
698.84	60.083
699.16	59.184
699.48	55.021
699.80	56.170
700.12	55.895
700.44	58.986
700.76	56.295
701.08	61.259
701.40	63.472
701.72	58.209
702.04	62.299
702.36	61.257
702.68	61.614
703.00	59.658
703.32	58.867
703.64	59.413
703.96	54.654
704.28	55.528
704.60	56.709
704.91	58.673
705.23	59.452
705.55	61.003
705.87	61.212
706.19	63.497
706.51	62.048
706.83	61.671
707.15	58.995
707.47	57.477
707.79	54.585
708.11	53.602
708.43	54.839
708.74	54.018
709.06	54.292
709.38	55.399
709.70	58.809
710.02	54.780
710.34	56.649
710.66	59.218
710.98	60.109
711.29	54.670
711.61	58.757
711.93	60.684
712.25	54.595
712.57	58.407
712.89	58.824
713.20	54.438
713.52	56.647
713.84	52.368
714.16	56.316
714.48	55.928
714.80	57.662
715.11	58.793
715.43	55.172
715.75	55.263
716.07	54.144
716.39	59.290
716.70	59.940
717.02	56.721
717.34	56.446
717.66	55.369
717.97	54.110
718.29	56.701
718.61	58.553
718.93	57.605
719.24	52.174
719.56	50.000
719.88	51.051
720.20	60.968
720.51	52.795
720.83	54.063
721.15	50.987
721.46	51.370
721.78	57.333
722.10	55.987
722.42	52.349
722.73	52.581
723.05	56.491
723.37	51.389
723.68	56.989
724.00	63.177
724.32	53.873
724.63	57.692
724.95	53.191
725.27	55.052
725.58	53.357
725.90	63.448
726.22	53.918
726.53	58.117
726.85	52.830
727.16	53.172
727.48	53.823
727.80	53.974
728.11	54.064
728.43	56.902
728.74	51.171
729.06	49.007
729.38	53.247
729.69	51.678
730.01	50.000
730.32	54.545
730.64	51.887
730.96	51.553
731.27	55.587
731.59	51.648
731.90	51.429
732.22	47.656
732.53	50.276
732.85	51.429
733.16	52.199
733.48	53.049
733.80	51.532
734.11	47.293
734.43	54.054
734.74	53.418
735.06	52.010
735.37	55.135
735.69	51.081
736.00	51.695
736.32	47.170
736.63	49.167
736.95	53.161
737.26	50.909
737.58	52.727
737.89	49.706
738.21	48.318
738.52	47.869
738.83	50.171
739.15	51.064
739.46	54.422
739.78	53.374
740.09	46.991
740.41	47.522
740.72	50.333
741.04	45.955
741.35	50.877
741.66	46.667
741.98	51.230
742.29	52.301
742.61	53.947
742.92	50.385
743.23	49.097
743.55	48.450
743.86	46.800
744.18	48.760
744.49	51.899
744.80	56.379
745.12	53.586
745.43	49.187
745.74	49.138
746.06	48.305
746.37	55.274
746.68	47.561
747.00	50.000
747.31	52.790
747.62	58.077
747.94	51.822
748.25	54.618
748.56	48.163
748.88	47.436
749.19	59.052
749.50	51.948
749.82	53.414
750.13	54.093
750.44	51.667
750.75	52.308
751.07	46.769
751.38	46.688
751.69	48.562
752.01	50.162
752.32	46.078
752.63	44.558
752.94	50.173
753.26	44.610
753.57	51.852
753.88	52.809
754.19	47.910
754.51	44.373
754.82	48.232
755.13	47.541
755.44	51.195
755.75	50.000
756.07	51.045
756.38	49.057
756.69	49.699
757.00	42.659
757.31	46.448
757.63	45.524
757.94	47.418
758.25	46.050
758.56	45.969
758.87	42.045
759.18	42.667
759.50	47.592
759.81	46.218
760.12	46.092
760.43	49.479
760.74	46.305
761.05	47.750
761.36	43.855
761.67	42.893
761.99	44.865
762.30	40.244
762.61	43.564
762.92	48.507
763.23	49.813
763.54	44.604
763.85	50.515
764.16	47.475
764.47	45.070
764.78	48.562
765.10	45.748
765.41	44.872
765.72	43.386
766.03	43.785
766.34	37.931
766.65	43.902
766.96	44.223
767.27	54.839
767.58	39.801
767.89	47.115
768.20	45.540
768.51	47.685
768.82	45.382
769.13	45.076
769.44	43.462
769.75	40.072
770.06	41.538
770.37	44.882
770.68	40.426
770.99	43.725
771.30	45.185
771.61	42.586
771.92	44.815
772.23	44.534
772.54	41.204
772.85	45.622
773.16	42.381
773.47	45.503
773.78	44.865
774.09	50.000
774.39	45.500
774.70	42.623
775.01	35.976
775.32	36.471
775.63	43.558
775.94	39.490
776.25	42.581
776.56	43.590
776.87	38.776
777.18	33.793
777.48	42.657
777.79	43.919
778.10	33.088
778.41	38.194
778.72	48.276
779.03	40.123
779.34	36.970
779.65	36.269
779.95	39.444
780.26	36.932
780.57	41.290
780.88	49.275
781.19	45.806
781.50	45.294
781.80	43.548
782.11	42.328
782.42	31.313
782.73	37.126
783.04	36.313
783.34	32.727
783.65	33.333
783.96	36.646
784.27	36.905
784.57	33.113
784.88	35.000
785.19	40.945
785.50	38.583
785.81	33.835
786.11	46.923
786.42	33.094
786.73	30.216
787.04	32.331
787.34	29.508
787.65	36.800
787.96	38.806
788.26	38.462
788.57	47.552
788.88	30.263
789.19	41.176
789.49	32.877
789.80	34.752
790.11	37.008
790.41	29.688
790.72	31.356
791.03	32.039
791.33	33.043
791.64	34.211
791.95	25.893
792.25	34.286
792.56	33.036
792.87	21.875
793.17	25.893
793.48	25.000
793.79	25.301
794.09	36.697
794.40	19.266
794.70	26.531
795.01	31.169
795.32	27.397
795.62	29.577
795.93	37.121
796.23	26.230
796.54	26.786
796.85	14.894
797.15	26.087
797.46	23.288
797.76	32.500
798.07	29.348
798.37	16.495
798.68	23.377
798.99	24.138
799.29	32.584
799.60	28.723
799.90	8.434
800.21	24.615
800.51	11.940
800.82	13.235
801.12	5.479
801.43	4.412
801.73	15.254
802.04	15.152
802.34	5.000
802.65	8.475
802.95	17.910
803.26	11.864
803.56	27.397
803.87	25.714
804.17	30.137
804.48	5.263
804.78	18.056
805.09	3.448
805.39	18.919
805.70	12.676
806.00	10.976
806.30	15.663
806.61	6.849
806.91	33.654
807.22	25.556
807.52	17.241
807.83	29.167
808.13	28.916
808.43	20.225
808.74	6.250
809.04	-2.941
809.35	18.667
809.65	18.571
809.95	19.178
810.26	0.000
810.56	17.241
810.86	20.588
811.17	5.263
811.47	11.475
811.77	-6.667
812.08	25.424
812.38	18.333
812.69	18.966
812.99	-9.434
813.29	-35.897
813.59	8.000
813.90	17.544
814.20	25.455
814.50	18.310
814.81	19.231
815.11	18.033
815.41	13.433
815.72	6.897
816.02	-7.143
816.32	-13.333
816.62	2.273
816.93	11.111
817.23	18.519
817.53	-4.255
817.84	2.381
818.14	11.765
818.44	-16.327
818.74	-4.444
819.04	-28.205
819.35	-28.571
819.65	-42.308
819.95	-20.755
820.25	8.889
820.56	0.000
820.86	-18.750
821.16	-12.821
821.46	2.326
821.76	-16.000
822.07	7.143
822.37	-2.174
822.67	-6.383
822.97	-32.432
823.27	-15.000
823.57	12.245
823.88	6.667
824.18	-25.000
824.48	-23.333
824.78	-48.000
825.08	-39.394
825.38	26.667
825.69	6.383
825.99	-11.111
826.29	-57.143
826.59	-30.769
826.89	-32.558
827.19	-18.000
827.49	-11.765
827.79	16.667
828.09	-37.838
828.39	-50.000
828.70	-24.390
829.00	-6.977
829.30	-39.286
829.60	-5.882
829.90	0.000
830.20	-40.000
830.50	-44.828
830.80	-83.333
831.10	-19.231
831.40	-32.353
831.70	-33.333
832.00	-9.677
832.30	-158.824
832.60	-91.667
832.90	-169.231
833.20	-110.526
833.50	-60.000
833.80	-110.526
834.10	-104.762
834.40	-8.333
834.70	-28.125
835.00	-34.286
835.30	-23.529
835.60	-46.667
835.90	-16.000
836.20	-77.273
836.50	-32.000
836.80	-30.303
837.10	-66.667
837.40	-66.667
837.70	-118.750
838.00	-7.143
838.30	-47.826
838.60	-10.345
838.90	-85.714
839.19	-86.957
839.49	-191.667
839.79	-86.957
840.09	-187.500
840.39	-60.000
840.69	-16.129
840.99	-53.571
841.29	-53.333
841.59	-63.158
841.88	-17.949
842.18	-73.077
842.48	-180.000
842.78	-95.000
843.08	-40.000
843.38	-32.258
843.68	-127.778
843.97	-26.471
844.27	-106.250
844.57	-68.421
844.87	-250.000
845.17	-140.000
845.47	-33.333
845.76	-100.000
846.06	-255.556
846.36	-123.529
846.66	-61.538
846.96	-126.667
847.25	-117.647
847.55	-43.478
847.85	-65.000
848.15	-52.941
848.44	-236.364
848.74	-71.429
849.04	-45.833
849.34	-118.750
849.63	-34.783
849.93	1700.000
850.23	-100.000
850.53	-19.231
850.82	-154.545
851.12	-27.273
851.42	-200.000
851.71	-38.462
852.01	-135.000
852.31	-292.308
852.61	-110.526
852.90	-183.333
853.20	-88.889
853.50	-211.111
853.79	-57.143
854.09	-81.818
854.39	-225.000
854.68	-12.903
854.98	-88.462
855.28	-55.556
855.57	-46.429
855.87	-68.000
856.17	-50.000
856.46	-37.037
856.76	-127.778
857.05	-117.391
857.35	-91.667
857.65	-169.231
857.94	-100.000
858.24	-55.556
858.53	-43.478
858.83	-64.706
859.13	-100.000
859.42	-141.176
859.72	-114.286
860.01	-90.000
860.31	-188.889
860.60	-230.000
860.90	-146.667
861.20	-66.667
861.49	-123.077
861.79	-26.667
862.08	-200.000
862.38	-25.000
862.67	-82.353
862.97	-112.500
863.26	-300.000
863.56	-200.000
863.85	-209.091
864.15	-55.556
864.44	-566.667
864.74	-42.857
865.03	-106.250
865.33	-240.000
865.62	-67.742
865.92	-63.636
866.21	-73.913
866.51	-78.571
866.80	-480.000
867.10	-200.000
867.39	-175.000
867.69	2900.000
867.98	-271.429
868.27	-135.294
868.57	-2800.000
868.86	-250.000
869.16	-109.524
869.45	-87.500
869.75	-154.545
870.04	-257.143
870.33	-175.000
870.63	-528.571
870.92	-525.000
871.22	-400.000
871.51	-200.000
871.80	-1133.333
872.10	-1400.000
>>>>>End Processed Spectral Data<<<<<
