SpectraSuite Data File
++++++++++++++++++++++++++++++++++++
Date: Thu May 14 14:54:54 PDT 2015
User: schluterlab
Dark Spectrum Present: Yes
Reference Spectrum Present: Yes
Number of Sampled Component Spectra: 1
Spectrometers: USB2E3373
Integration Time (usec): 3000 (USB2E3373)
Spectra Averaged: 3 (USB2E3373)
Boxcar Smoothing: 0 (USB2E3373)
Correct for Electrical Dark: No (USB2E3373)
Strobe/Lamp Enabled: No (USB2E3373)
Correct for Detector Non-linearity: No (USB2E3373)
Correct for Stray Light: No (USB2E3373)
Number of Pixels in Processed Spectrum: 2048
>>>>>Begin Processed Spectral Data<<<<<
178.53	0.000
178.91	214.286
179.29	-2700.000
179.67	-2400.000
180.04	214.286
180.42	130.000
180.80	320.000
181.18	-1500.000
181.56	-600.000
181.94	350.000
182.31	-275.000
182.69	500.000
183.07	-700.000
183.45	575.000
183.83	-216.667
184.20	-433.333
184.58	1700.000
184.96	-550.000
185.34	-144.444
185.72	-140.000
186.09	322.222
186.47	1050.000
186.85	300.000
187.23	-233.333
187.61	-1700.000
187.98	380.000
188.36	400.000
188.74	-400.000
189.12	-466.667
189.49	12.500
189.87	-175.000
190.25	-77.778
190.63	-240.000
191.00	-155.556
191.38	0.000
191.76	-450.000
192.14	-200.000
192.51	650.000
192.89	-116.667
193.27	0.000
193.65	-157.143
194.02	-2600.000
194.40	-114.286
194.78	342.857
195.15	0.000
195.53	-136.364
195.91	0.000
196.29	-325.000
196.66	-92.308
197.04	-2300.000
197.42	-228.571
197.79	-1050.000
198.17	-175.000
198.55	-200.000
198.92	-133.333
199.30	-162.500
199.68	-100.000
200.05	-28.571
200.43	-900.000
200.81	357.143
201.18	0.000
201.56	200.000
201.94	0.000
202.31	566.667
202.69	-122.222
203.07	1400.000
203.44	-144.444
203.82	-450.000
204.19	-150.000
204.57	-300.000
204.95	-75.000
205.32	-2000.000
205.70	475.000
206.08	-366.667
206.45	-283.333
206.83	460.000
207.20	-333.333
207.58	-440.000
207.96	-366.667
208.33	-266.667
208.71	141.667
209.08	0.000
209.46	0.000
209.84	300.000
210.21	300.000
210.59	800.000
210.96	700.000
211.34	-175.000
211.71	-150.000
212.09	-1800.000
212.46	0.000
212.84	1100.000
213.22	-260.000
213.59	-500.000
213.97	-90.000
214.34	-700.000
214.72	250.000
215.09	-600.000
215.47	0.000
215.84	185.714
216.22	1100.000
216.59	-380.000
216.97	-200.000
217.34	-350.000
217.72	-200.000
218.09	-425.000
218.47	-325.000
218.84	0.000
219.22	440.000
219.59	-64.706
219.97	-55.000
220.34	1150.000
220.72	-200.000
221.09	-100.000
221.47	-333.333
221.84	-180.000
222.22	-285.714
222.59	0.000
222.97	-175.000
223.34	-280.000
223.72	-1500.000
224.09	-525.000
224.46	-350.000
224.84	-180.000
225.21	-300.000
225.59	-650.000
225.96	-550.000
226.34	-15.385
226.71	333.333
227.08	-200.000
227.46	-73.333
227.83	-600.000
228.21	-42.105
228.58	200.000
228.95	1000.000
229.33	-83.333
229.70	-170.000
230.08	-15.789
230.45	210.000
230.82	-366.667
231.20	-50.000
231.57	-108.333
231.95	-100.000
232.32	-136.364
232.69	-5.000
233.07	-475.000
233.44	-58.824
233.81	-130.000
234.19	-105.556
234.56	-54.545
234.93	-24.138
235.31	-15.789
235.68	-116.667
236.05	-95.000
236.43	-30.769
236.80	-24.000
237.17	-48.148
237.55	-33.333
237.92	-270.000
238.29	-29.032
238.67	-6.818
239.04	-30.556
239.41	-38.095
239.79	-43.478
240.16	-31.481
240.53	-23.913
240.91	-37.255
241.28	-27.869
241.65	4.478
242.02	-4.054
242.40	-27.692
242.77	-21.333
243.14	-17.073
243.51	-35.526
243.89	-32.051
244.26	-5.941
244.63	-12.745
245.00	-14.953
245.38	-6.140
245.75	-15.929
246.12	-13.492
246.49	-14.729
246.87	-12.143
247.24	-7.947
247.61	-4.605
247.98	-11.409
248.36	-11.111
248.73	-11.043
249.10	-7.650
249.47	-3.483
249.84	-1.571
250.22	-10.363
250.59	-8.333
250.96	1.364
251.33	-11.735
251.70	-3.846
252.08	-5.417
252.45	-2.869
252.82	-4.959
253.19	-3.125
253.56	-1.141
253.94	-4.615
254.31	-3.030
254.68	-2.797
255.05	0.326
255.42	-2.721
255.79	-5.825
256.16	-4.305
256.54	-6.623
256.91	-3.607
257.28	-2.951
257.65	-6.369
258.02	-4.720
258.39	0.285
258.76	-2.141
259.14	-4.310
259.51	-0.865
259.88	-3.116
260.25	-2.778
260.62	-1.370
260.99	-1.366
261.36	1.609
261.73	-5.040
262.10	-5.495
262.47	-2.413
262.85	2.020
263.22	-3.896
263.59	-5.789
263.96	-1.023
264.33	-3.836
264.70	-1.728
265.07	1.193
265.44	1.361
265.81	-2.546
266.18	-1.134
266.55	-2.232
266.92	-4.328
267.29	-1.532
267.66	-1.330
268.03	-2.183
268.40	-2.088
268.77	-2.733
269.14	-3.084
269.51	-2.412
269.88	-1.230
270.25	-0.604
270.62	-2.532
270.99	2.424
271.36	1.188
271.73	-2.554
272.10	-0.802
272.47	-3.006
272.84	-1.807
273.21	-1.002
273.58	-3.629
273.95	-1.731
274.32	-3.232
274.69	-2.321
275.06	-1.465
275.43	-1.848
275.80	-0.353
276.17	-2.778
276.54	-2.612
276.91	-1.610
277.28	-0.362
277.65	-1.795
278.02	-2.757
278.39	-1.630
278.76	-2.109
279.13	-1.418
279.50	-1.890
279.87	-0.537
280.23	-3.169
280.60	-0.847
280.97	-1.316
281.34	-2.207
281.71	0.000
282.08	-2.159
282.45	-1.637
282.82	-1.413
283.19	-2.423
283.56	-0.492
283.92	0.150
284.29	0.948
284.66	-0.657
285.03	-0.801
285.40	-0.618
285.77	-0.310
286.14	-0.153
286.51	-0.913
286.87	-1.738
287.24	-1.355
287.61	-2.541
287.98	-1.208
288.35	-1.183
288.72	-0.592
289.08	-0.146
289.45	-1.775
289.82	-1.205
290.19	-0.718
290.56	-1.127
290.93	-0.999
291.29	-0.275
291.66	-0.275
292.03	-0.678
292.40	0.680
292.77	-1.078
293.13	0.541
293.50	-0.788
293.87	-1.879
294.24	1.067
294.60	-0.632
294.97	-2.550
295.34	1.408
295.71	-0.757
296.08	-1.550
296.44	-0.980
296.81	0.122
297.18	-0.747
297.55	0.943
297.91	-0.356
298.28	-0.474
298.65	0.832
299.02	0.118
299.38	0.229
299.75	0.584
300.12	-1.505
300.48	-0.691
300.85	-0.562
301.22	0.224
301.59	-1.142
301.95	-0.452
302.32	0.333
302.69	-0.657
303.05	-0.326
303.42	0.554
303.79	0.521
304.15	-0.105
304.52	-0.740
304.89	0.628
305.25	0.207
305.62	0.313
305.99	0.515
306.35	0.101
306.72	0.207
307.09	0.508
307.45	0.621
307.82	0.807
308.19	0.605
308.55	1.157
308.92	0.389
309.29	1.437
309.65	0.292
310.02	0.693
310.38	0.984
310.75	0.291
311.12	1.438
311.48	0.293
311.85	0.665
312.22	1.233
312.58	0.563
312.95	0.669
313.31	1.716
313.68	0.916
314.05	2.168
314.41	2.186
314.78	2.452
315.14	2.359
315.51	3.047
315.87	2.880
316.24	3.379
316.61	3.552
316.97	3.258
317.34	1.852
317.70	4.017
318.07	2.293
318.43	4.592
318.80	4.431
319.16	3.948
319.53	3.342
319.89	3.506
320.26	4.181
320.62	3.635
320.99	4.986
321.35	3.697
321.72	6.047
322.08	2.525
322.45	4.065
322.81	4.693
323.18	5.841
323.54	5.000
323.91	5.427
324.27	5.852
324.64	6.381
325.00	5.307
325.37	6.634
325.73	6.033
326.10	7.299
326.46	8.143
326.83	7.766
327.19	7.717
327.56	7.826
327.92	7.238
328.29	8.548
328.65	7.956
329.01	7.699
329.38	9.183
329.74	8.733
330.11	8.390
330.47	9.520
330.84	8.699
331.20	9.000
331.56	8.579
331.93	9.707
332.29	9.492
332.66	10.216
333.02	9.631
333.38	8.977
333.75	9.512
334.11	9.925
334.48	9.818
334.84	10.365
335.20	9.824
335.57	9.696
335.93	10.661
336.29	10.483
336.66	9.756
337.02	9.783
337.38	11.139
337.75	10.083
338.11	10.681
338.47	10.918
338.84	10.491
339.20	9.857
339.56	9.390
339.93	11.412
340.29	10.789
340.65	12.084
341.02	11.173
341.38	11.479
341.74	10.412
342.11	10.539
342.47	10.167
342.83	11.353
343.20	10.466
343.56	11.147
343.92	10.328
344.28	11.172
344.65	11.473
345.01	11.076
345.37	11.431
345.73	10.600
346.10	12.324
346.46	11.392
346.82	11.835
347.19	10.848
347.55	11.153
347.91	10.921
348.27	11.229
348.63	11.881
349.00	10.589
349.36	11.301
349.72	10.491
350.08	12.481
350.45	11.559
350.81	11.614
351.17	11.128
351.53	11.448
351.89	12.604
352.26	11.194
352.62	11.642
352.98	11.374
353.34	11.650
353.70	11.402
354.07	12.444
354.43	10.478
354.79	12.191
355.15	11.553
355.51	12.208
355.87	10.920
356.24	12.471
356.60	11.382
356.96	10.675
357.32	11.078
357.68	11.567
358.04	11.228
358.40	11.493
358.77	11.988
359.13	11.448
359.49	10.706
359.85	11.603
360.21	10.760
360.57	12.132
360.93	13.117
361.29	12.281
361.66	12.238
362.02	12.317
362.38	12.157
362.74	12.570
363.10	12.448
363.46	12.950
363.82	12.216
364.18	12.878
364.54	12.241
364.90	13.110
365.26	12.069
365.62	12.467
365.98	12.389
366.35	12.148
366.71	13.129
367.07	11.976
367.43	14.051
367.79	13.537
368.15	14.381
368.51	13.870
368.87	13.847
369.23	12.733
369.59	13.320
369.95	13.861
370.31	14.180
370.67	13.893
371.03	13.366
371.39	13.768
371.75	13.480
372.11	14.228
372.47	13.744
372.83	14.398
373.19	13.943
373.55	13.618
373.91	13.020
374.27	14.295
374.63	13.735
374.99	14.324
375.35	15.065
375.71	13.806
376.07	13.751
376.42	14.798
376.78	15.103
377.14	14.348
377.50	14.801
377.86	15.887
378.22	14.910
378.58	15.339
378.94	14.437
379.30	14.353
379.66	15.755
380.02	14.945
380.38	15.207
380.74	15.211
381.09	15.157
381.45	15.966
381.81	15.984
382.17	15.499
382.53	15.146
382.89	15.124
383.25	15.592
383.61	15.278
383.97	15.783
384.32	16.567
384.68	16.125
385.04	17.293
385.40	16.441
385.76	17.819
386.12	16.816
386.48	17.235
386.83	16.985
387.19	15.875
387.55	15.728
387.91	16.096
388.27	17.321
388.62	17.869
388.98	17.033
389.34	17.796
389.70	17.316
390.06	16.933
390.42	17.229
390.77	18.784
391.13	17.195
391.49	18.176
391.85	18.000
392.20	17.912
392.56	18.488
392.92	19.302
393.28	18.961
393.64	17.765
393.99	17.897
394.35	18.458
394.71	18.563
395.07	18.263
395.42	18.789
395.78	18.708
396.14	18.835
396.50	18.943
396.85	18.128
397.21	18.225
397.57	18.492
397.92	18.614
398.28	19.120
398.64	18.650
399.00	19.215
399.35	18.220
399.71	18.370
400.07	19.034
400.42	18.859
400.78	19.329
401.14	19.180
401.49	19.045
401.85	19.244
402.21	19.699
402.57	19.484
402.92	19.208
403.28	19.204
403.63	18.258
403.99	19.062
404.35	19.386
404.70	18.754
405.06	18.370
405.42	19.379
405.77	19.902
406.13	19.449
406.49	19.820
406.84	18.892
407.20	19.564
407.55	19.079
407.91	18.730
408.27	18.080
408.62	19.139
408.98	19.037
409.34	19.120
409.69	19.530
410.05	20.106
410.40	20.302
410.76	19.686
411.11	20.105
411.47	20.393
411.83	20.165
412.18	19.578
412.54	20.095
412.89	19.674
413.25	19.526
413.60	20.276
413.96	20.047
414.31	19.093
414.67	20.095
415.03	20.185
415.38	19.357
415.74	20.220
416.09	20.605
416.45	19.411
416.80	19.523
417.16	21.328
417.51	18.867
417.87	19.804
418.22	20.060
418.58	19.827
418.93	21.129
419.29	19.790
419.64	19.388
420.00	20.772
420.35	20.494
420.71	20.448
421.06	20.127
421.42	21.044
421.77	19.602
422.12	20.190
422.48	20.379
422.83	21.632
423.19	20.796
423.54	20.520
423.90	20.044
424.25	21.227
424.61	21.010
424.96	20.319
425.31	20.701
425.67	20.505
426.02	20.863
426.38	21.068
426.73	20.313
427.09	22.088
427.44	20.808
427.79	19.845
428.15	20.320
428.50	22.135
428.85	20.551
429.21	21.649
429.56	20.089
429.92	20.835
430.27	21.976
430.62	21.348
430.98	21.643
431.33	21.359
431.68	21.073
432.04	21.737
432.39	22.175
432.74	21.518
433.10	21.904
433.45	20.959
433.80	21.459
434.16	21.746
434.51	22.045
434.86	22.856
435.22	21.467
435.57	21.639
435.92	21.647
436.28	22.014
436.63	22.556
436.98	22.115
437.34	22.266
437.69	21.574
438.04	22.052
438.39	22.056
438.75	21.915
439.10	21.776
439.45	21.912
439.81	22.203
440.16	21.984
440.51	23.244
440.86	22.123
441.22	21.168
441.57	22.956
441.92	22.357
442.27	22.576
442.63	21.808
442.98	22.519
443.33	21.936
443.68	22.993
444.03	23.048
444.39	22.515
444.74	22.665
445.09	22.504
445.44	22.023
445.79	22.510
446.15	22.919
446.50	21.912
446.85	23.298
447.20	23.839
447.55	22.960
447.91	22.984
448.26	22.410
448.61	23.433
448.96	23.659
449.31	21.951
449.66	22.004
450.02	22.732
450.37	22.643
450.72	23.036
451.07	23.064
451.42	21.722
451.77	23.124
452.12	22.630
452.47	22.460
452.83	23.142
453.18	23.059
453.53	22.516
453.88	22.916
454.23	23.220
454.58	23.796
454.93	23.665
455.28	23.239
455.63	22.456
455.98	23.520
456.34	23.322
456.69	22.575
457.04	23.050
457.39	23.226
457.74	24.105
458.09	22.515
458.44	23.330
458.79	22.795
459.14	22.968
459.49	23.826
459.84	23.347
460.19	22.654
460.54	23.793
460.89	23.875
461.24	23.161
461.59	23.354
461.94	22.362
462.29	23.348
462.64	23.174
462.99	22.473
463.34	24.010
463.69	22.274
464.04	23.569
464.39	23.206
464.74	23.147
465.09	23.472
465.44	24.088
465.79	24.273
466.14	23.450
466.49	24.579
466.84	23.802
467.19	23.873
467.54	22.385
467.89	23.103
468.24	23.213
468.59	22.640
468.94	22.145
469.29	22.615
469.64	22.505
469.99	23.901
470.34	23.515
470.68	23.787
471.03	23.510
471.38	24.199
471.73	23.082
472.08	23.731
472.43	22.697
472.78	23.804
473.13	23.704
473.48	23.686
473.83	24.492
474.17	23.798
474.52	24.113
474.87	23.256
475.22	23.606
475.57	23.728
475.92	23.793
476.27	24.015
476.61	24.143
476.96	23.670
477.31	23.911
477.66	24.292
478.01	23.589
478.36	24.028
478.70	24.581
479.05	24.744
479.40	24.087
479.75	24.496
480.10	23.970
480.45	23.838
480.79	23.855
481.14	23.759
481.49	24.262
481.84	24.500
482.19	23.570
482.53	24.180
482.88	24.236
483.23	24.011
483.58	23.712
483.92	23.670
484.27	24.005
484.62	23.597
484.97	24.339
485.31	23.548
485.66	22.927
486.01	23.804
486.36	24.062
486.70	25.819
487.05	25.495
487.40	24.727
487.75	23.461
488.09	23.810
488.44	22.842
488.79	23.272
489.13	23.135
489.48	23.146
489.83	24.064
490.17	23.653
490.52	23.686
490.87	23.562
491.22	23.570
491.56	24.019
491.91	23.899
492.26	24.189
492.60	24.180
492.95	25.186
493.30	23.353
493.64	24.529
493.99	23.728
494.34	24.521
494.68	23.683
495.03	24.493
495.37	24.545
495.72	23.719
496.07	23.663
496.41	23.552
496.76	24.646
497.11	24.544
497.45	24.428
497.80	23.767
498.14	24.308
498.49	23.529
498.84	24.589
499.18	24.921
499.53	24.350
499.87	24.220
500.22	23.909
500.56	24.112
500.91	23.478
501.26	24.773
501.60	24.171
501.95	24.881
502.29	24.835
502.64	25.055
502.98	24.072
503.33	23.585
503.67	23.724
504.02	24.081
504.36	25.290
504.71	24.897
505.06	24.920
505.40	24.497
505.75	24.681
506.09	24.448
506.44	25.070
506.78	25.183
507.13	25.265
507.47	25.438
507.82	24.195
508.16	24.235
508.51	24.754
508.85	24.752
509.19	25.059
509.54	25.600
509.88	24.526
510.23	24.866
510.57	25.278
510.92	24.964
511.26	25.060
511.61	24.674
511.95	25.329
512.30	24.865
512.64	25.037
512.98	24.562
513.33	24.950
513.67	24.069
514.02	25.958
514.36	25.882
514.70	25.260
515.05	25.339
515.39	25.407
515.74	26.193
516.08	25.462
516.42	26.321
516.77	25.973
517.11	25.477
517.46	25.557
517.80	25.494
518.14	25.898
518.49	26.410
518.83	25.546
519.17	25.256
519.52	26.834
519.86	26.082
520.20	26.784
520.55	25.575
520.89	24.944
521.23	25.516
521.58	25.932
521.92	26.402
522.26	25.430
522.61	25.752
522.95	26.067
523.29	25.575
523.64	25.953
523.98	25.727
524.32	27.221
524.66	25.726
525.01	26.331
525.35	25.732
525.69	25.348
526.04	26.005
526.38	26.207
526.72	25.952
527.06	25.865
527.41	26.122
527.75	26.128
528.09	26.269
528.43	25.577
528.78	26.069
529.12	25.803
529.46	25.913
529.80	26.373
530.15	26.145
530.49	25.860
530.83	26.919
531.17	26.464
531.51	25.812
531.86	26.022
532.20	26.098
532.54	25.972
532.88	25.394
533.22	25.987
533.57	26.255
533.91	26.936
534.25	26.116
534.59	26.437
534.93	26.033
535.27	25.634
535.62	26.549
535.96	26.671
536.30	25.617
536.64	26.366
536.98	27.614
537.32	26.728
537.66	26.575
538.01	25.680
538.35	25.030
538.69	26.082
539.03	27.223
539.37	26.148
539.71	26.186
540.05	26.319
540.39	26.406
540.73	25.622
541.07	25.628
541.42	26.521
541.76	25.741
542.10	26.478
542.44	25.457
542.78	25.852
543.12	26.520
543.46	25.580
543.80	25.959
544.14	25.434
544.48	25.827
544.82	25.853
545.16	26.535
545.50	26.723
545.84	25.903
546.18	26.420
546.52	25.414
546.86	24.906
547.20	26.399
547.54	26.155
547.88	25.558
548.22	25.789
548.56	27.092
548.90	25.075
549.24	25.653
549.58	25.868
549.92	25.510
550.26	26.472
550.60	26.611
550.94	25.356
551.28	24.488
551.62	27.224
551.96	25.437
552.30	27.024
552.64	27.318
552.98	26.326
553.32	26.752
553.66	25.788
554.00	27.364
554.34	26.770
554.68	25.242
555.02	26.675
555.36	26.430
555.69	25.368
556.03	26.103
556.37	26.095
556.71	26.760
557.05	26.645
557.39	25.614
557.73	26.552
558.07	26.225
558.41	26.512
558.75	26.572
559.08	26.514
559.42	25.171
559.76	26.730
560.10	26.658
560.44	26.319
560.78	26.562
561.12	26.047
561.45	27.920
561.79	26.801
562.13	27.850
562.47	25.956
562.81	26.139
563.15	26.705
563.48	25.979
563.82	25.937
564.16	26.287
564.50	26.341
564.84	26.313
565.17	27.118
565.51	26.295
565.85	26.069
566.19	25.979
566.52	25.688
566.86	26.486
567.20	26.808
567.54	26.341
567.88	26.606
568.21	27.372
568.55	26.667
568.89	26.373
569.23	26.658
569.56	26.377
569.90	26.515
570.24	26.509
570.57	26.074
570.91	25.842
571.25	26.034
571.59	26.134
571.92	26.013
572.26	26.019
572.60	25.580
572.93	25.967
573.27	25.344
573.61	25.543
573.95	25.613
574.28	25.555
574.62	25.398
574.96	25.276
575.29	25.578
575.63	25.433
575.97	25.916
576.30	25.561
576.64	25.340
576.98	26.059
577.31	25.646
577.65	26.125
577.98	26.073
578.32	25.593
578.66	25.462
578.99	25.312
579.33	25.345
579.67	24.955
580.00	25.287
580.34	25.393
580.67	25.353
581.01	25.465
581.35	25.619
581.68	26.406
582.02	25.831
582.35	26.373
582.69	26.445
583.02	26.051
583.36	26.186
583.70	24.903
584.03	24.454
584.37	24.636
584.70	24.963
585.04	24.924
585.37	24.724
585.71	25.696
586.04	25.958
586.38	26.021
586.72	25.219
587.05	25.684
587.39	25.530
587.72	26.172
588.06	25.967
588.39	25.815
588.73	25.265
589.06	24.915
589.40	25.784
589.73	25.482
590.07	25.763
590.40	25.423
590.73	25.627
591.07	26.657
591.40	25.078
591.74	25.278
592.07	26.350
592.41	26.183
592.74	25.488
593.08	26.083
593.41	26.947
593.75	26.264
594.08	27.083
594.41	26.282
594.75	25.739
595.08	25.908
595.42	26.039
595.75	26.090
596.09	26.296
596.42	25.654
596.75	26.013
597.09	26.061
597.42	26.142
597.75	25.127
598.09	26.111
598.42	25.975
598.76	25.411
599.09	26.273
599.42	26.316
599.76	26.147
600.09	26.927
600.42	25.993
600.76	25.958
601.09	25.855
601.42	25.850
601.76	26.103
602.09	26.126
602.42	25.445
602.76	25.424
603.09	25.771
603.42	25.903
603.76	25.934
604.09	26.437
604.42	26.495
604.76	25.228
605.09	26.645
605.42	25.359
605.75	25.077
606.09	25.681
606.42	25.502
606.75	25.337
607.09	25.576
607.42	25.511
607.75	26.456
608.08	26.519
608.42	25.353
608.75	26.202
609.08	25.637
609.41	26.158
609.75	25.625
610.08	26.781
610.41	25.913
610.74	25.966
611.07	25.444
611.41	26.547
611.74	26.836
612.07	26.087
612.40	26.046
612.73	26.406
613.07	26.846
613.40	26.323
613.73	26.336
614.06	25.859
614.39	25.996
614.72	25.910
615.06	25.650
615.39	26.148
615.72	26.398
616.05	26.469
616.38	27.144
616.71	26.437
617.05	25.612
617.38	26.859
617.71	25.756
618.04	25.526
618.37	27.213
618.70	26.188
619.03	25.747
619.36	25.832
619.69	26.265
620.03	25.738
620.36	25.276
620.69	26.897
621.02	26.115
621.35	27.576
621.68	27.766
622.01	27.402
622.34	26.081
622.67	26.254
623.00	25.776
623.33	27.206
623.66	26.848
623.99	24.687
624.32	28.395
624.65	26.898
624.99	27.243
625.32	27.433
625.65	26.635
625.98	25.627
626.31	26.648
626.64	26.300
626.97	26.107
627.30	25.513
627.63	26.932
627.96	26.952
628.29	26.381
628.62	26.448
628.95	26.731
629.28	26.763
629.61	27.104
629.94	26.527
630.26	26.610
630.59	26.339
630.92	25.801
631.25	27.191
631.58	26.930
631.91	26.429
632.24	27.474
632.57	27.514
632.90	28.084
633.23	26.020
633.56	26.531
633.89	26.860
634.22	27.755
634.55	27.557
634.88	27.706
635.20	27.987
635.53	28.588
635.86	27.844
636.19	26.829
636.52	27.532
636.85	26.456
637.18	26.611
637.51	27.097
637.83	26.357
638.16	27.650
638.49	26.056
638.82	26.832
639.15	25.200
639.48	27.367
639.81	27.252
640.13	27.680
640.46	26.182
640.79	25.000
641.12	27.702
641.45	26.600
641.77	28.498
642.10	27.297
642.43	29.787
642.76	28.049
643.09	27.534
643.41	27.871
643.74	26.483
644.07	29.103
644.40	27.864
644.73	28.882
645.05	27.900
645.38	27.914
645.71	26.979
646.04	29.268
646.36	27.445
646.69	26.380
647.02	27.217
647.35	27.481
647.67	27.375
648.00	26.115
648.33	26.577
648.66	26.391
648.98	25.578
649.31	28.146
649.64	26.826
649.96	27.454
650.29	25.452
650.62	27.864
650.94	27.327
651.27	27.545
651.60	27.485
651.92	25.988
652.25	27.786
652.58	29.436
652.90	23.110
653.23	28.310
653.56	28.959
653.88	28.371
654.21	26.056
654.54	28.179
654.86	27.054
655.19	26.223
655.52	28.651
655.84	28.475
656.17	33.709
656.49	46.660
656.82	49.801
657.15	37.540
657.47	27.428
657.80	19.491
658.13	14.706
658.45	18.430
658.78	21.684
659.10	20.890
659.43	19.599
659.75	19.335
660.08	19.216
660.41	21.588
660.73	21.323
661.06	21.880
661.38	25.678
661.71	24.828
662.03	26.808
662.36	27.728
662.68	27.017
663.01	25.664
663.33	27.977
663.66	29.121
663.98	27.500
664.31	26.829
664.63	26.397
664.96	26.316
665.28	25.227
665.61	28.322
665.93	24.464
666.26	27.240
666.58	23.985
666.91	27.290
667.23	25.714
667.56	27.613
667.88	25.600
668.21	24.414
668.53	26.255
668.86	26.719
669.18	26.884
669.50	27.435
669.83	25.600
670.15	26.181
670.48	28.175
670.80	25.239
671.13	27.410
671.45	23.228
671.77	27.495
672.10	26.167
672.42	26.214
672.75	25.346
673.07	26.567
673.39	24.345
673.72	27.517
674.04	26.724
674.37	27.549
674.69	26.279
675.01	25.714
675.34	22.901
675.66	26.217
675.98	26.119
676.31	26.367
676.63	27.757
676.95	28.544
677.28	24.597
677.60	24.213
677.92	23.417
678.25	26.874
678.57	27.046
678.89	26.792
679.22	24.390
679.54	24.444
679.86	26.610
680.18	25.705
680.51	26.730
680.83	24.386
681.15	23.966
681.48	27.461
681.80	25.389
682.12	25.175
682.44	25.376
682.77	24.468
683.09	25.568
683.41	29.070
683.73	23.719
684.06	25.092
684.38	24.687
684.70	27.110
685.02	25.129
685.34	25.458
685.67	26.183
685.99	27.147
686.31	25.436
686.63	25.750
686.96	25.552
687.28	24.267
687.60	24.579
687.92	23.312
688.24	25.543
688.56	25.345
688.89	24.319
689.21	25.832
689.53	22.157
689.85	22.880
690.17	25.370
690.49	24.104
690.82	24.356
691.14	23.887
691.46	26.769
691.78	25.230
692.10	25.688
692.42	23.750
692.74	25.771
693.06	23.148
693.39	26.945
693.71	25.376
694.03	26.394
694.35	26.095
694.67	25.257
694.99	24.894
695.31	24.724
695.63	26.190
695.95	23.188
696.27	25.055
696.59	25.664
696.91	24.324
697.23	25.055
697.56	23.014
697.88	23.106
698.20	25.235
698.52	25.379
698.84	24.740
699.16	24.490
699.48	23.222
699.80	23.830
700.12	25.109
700.44	24.885
700.76	23.753
701.08	24.213
701.40	25.389
701.72	23.134
702.04	27.540
702.36	23.560
702.68	22.494
703.00	25.183
703.32	22.660
703.64	24.205
703.96	25.537
704.28	20.885
704.60	22.785
704.91	23.214
705.23	20.822
705.55	20.334
705.87	24.848
706.19	25.460
706.51	21.687
706.83	24.784
707.15	23.280
707.47	22.430
707.79	23.362
708.11	21.610
708.43	22.366
708.74	22.768
709.06	23.434
709.38	26.526
709.70	24.318
710.02	22.997
710.34	21.809
710.66	22.626
710.98	25.137
711.29	21.703
711.61	24.576
711.93	23.932
712.25	22.703
712.57	25.959
712.89	21.765
713.20	20.118
713.52	24.277
713.84	23.398
714.16	23.947
714.48	23.454
714.80	25.455
715.11	21.785
715.43	23.607
715.75	22.368
716.07	22.928
716.39	22.951
716.70	18.976
717.02	20.984
717.34	18.467
717.66	22.148
717.97	22.603
718.29	16.838
718.61	21.382
718.93	21.359
719.24	21.429
719.56	19.939
719.88	24.024
720.20	20.323
720.51	21.429
720.83	22.500
721.15	23.026
721.46	18.836
721.78	22.000
722.10	21.683
722.42	21.477
722.73	22.258
723.05	21.404
723.37	20.139
723.68	23.297
724.00	22.022
724.32	21.479
724.63	20.629
724.95	21.986
725.27	19.512
725.58	19.081
725.90	24.828
726.22	22.884
726.53	20.779
726.85	23.899
727.16	20.846
727.48	22.630
727.80	21.192
728.11	19.435
728.43	20.875
728.74	21.739
729.06	20.530
729.38	21.104
729.69	21.477
730.01	27.976
730.32	18.485
730.64	22.956
730.96	21.118
731.27	25.698
731.59	24.725
731.90	21.039
732.22	21.875
732.53	19.613
732.85	20.286
733.16	19.648
733.48	22.256
733.80	20.334
734.11	20.513
734.43	21.081
734.74	23.544
735.06	21.357
735.37	21.622
735.69	18.649
736.00	24.011
736.32	21.024
736.63	18.889
736.95	20.115
737.26	22.424
737.58	21.818
737.89	20.000
738.21	17.737
738.52	16.721
738.83	22.867
739.15	21.631
739.46	19.388
739.78	19.632
740.09	18.911
740.41	22.449
740.72	18.667
741.04	21.683
741.35	18.947
741.66	18.824
741.98	21.311
742.29	20.084
742.61	22.807
742.92	19.231
743.23	20.217
743.55	20.155
743.86	18.800
744.18	14.463
744.49	11.814
744.80	20.165
745.12	19.409
745.43	22.358
745.74	21.121
746.06	20.339
746.37	19.831
746.68	21.951
747.00	18.750
747.31	18.884
747.62	23.077
747.94	19.838
748.25	17.269
748.56	23.673
748.88	20.085
749.19	19.397
749.50	18.615
749.82	20.482
750.13	25.267
750.44	16.667
750.75	20.308
751.07	20.308
751.38	20.505
751.69	20.447
752.01	17.152
752.32	24.183
752.63	19.388
752.94	19.377
753.26	17.100
753.57	16.296
753.88	20.974
754.19	17.363
754.51	16.077
754.82	21.222
755.13	20.328
755.44	19.795
755.75	17.763
756.07	20.000
756.38	19.497
756.69	20.482
757.00	15.512
757.31	19.399
757.63	20.716
757.94	19.953
758.25	22.799
758.56	19.608
758.87	18.636
759.18	18.400
759.50	23.513
759.81	20.728
760.12	23.450
760.43	21.094
760.74	20.936
761.05	19.250
761.36	19.036
761.67	19.797
761.99	17.297
762.30	17.683
762.61	19.472
762.92	17.910
763.23	21.348
763.54	13.669
763.85	16.838
764.16	19.865
764.47	19.366
764.78	21.086
765.10	20.821
765.41	21.282
765.72	17.989
766.03	20.056
766.34	19.749
766.65	19.164
766.96	17.530
767.27	21.198
767.58	12.438
767.89	18.750
768.20	18.310
768.51	19.444
768.82	17.671
769.13	16.667
769.44	15.000
769.75	17.690
770.06	18.077
770.37	22.835
770.68	21.277
770.99	13.765
771.30	22.593
771.61	20.152
771.92	15.185
772.23	19.433
772.54	9.259
772.85	25.806
773.16	15.714
773.47	15.873
773.78	14.054
774.09	17.614
774.39	19.000
774.70	22.404
775.01	14.024
775.32	16.471
775.63	18.405
775.94	5.096
776.25	16.129
776.56	17.949
776.87	12.245
777.18	15.172
777.48	13.287
777.79	19.595
778.10	9.559
778.41	14.583
778.72	19.310
779.03	8.642
779.34	11.515
779.65	13.472
779.95	18.889
780.26	11.932
780.57	12.903
780.88	25.362
781.19	20.000
781.50	20.000
781.80	18.817
782.11	20.106
782.42	11.111
782.73	11.377
783.04	14.525
783.34	6.061
783.65	11.765
783.96	17.391
784.27	14.881
784.57	17.219
784.88	8.571
785.19	11.024
785.50	12.598
785.81	13.534
786.11	10.000
786.42	8.633
786.73	6.475
787.04	15.038
787.34	11.475
787.65	11.200
787.96	16.418
788.26	19.580
788.57	16.084
788.88	12.500
789.19	18.301
789.49	8.904
789.80	8.511
790.11	8.661
790.41	17.969
790.72	16.949
791.03	-4.854
791.33	17.391
791.64	8.772
791.95	9.821
792.25	9.524
792.56	12.500
792.87	3.125
793.17	6.250
793.48	-3.125
793.79	-3.614
794.09	7.339
794.40	11.009
794.70	9.524
795.01	7.143
795.32	13.014
795.62	14.085
795.93	9.091
796.23	12.295
796.54	12.500
796.85	3.191
797.15	-4.348
797.46	-9.589
797.76	7.500
798.07	7.609
798.37	6.186
798.68	-14.286
798.99	-4.598
799.29	0.000
799.60	5.319
799.90	-2.410
800.21	-1.538
800.51	-13.433
800.82	-10.294
801.12	-6.849
801.43	-11.765
801.73	-6.780
802.04	-9.091
802.34	-8.333
802.65	3.390
802.95	-2.985
803.26	-1.695
803.56	-10.959
803.87	0.000
804.17	9.589
804.48	-17.544
804.78	-18.056
805.09	-13.793
805.39	1.351
805.70	-7.042
806.00	8.537
806.30	-1.205
806.61	4.110
806.91	5.769
807.22	6.667
807.52	-5.747
807.83	12.500
808.13	2.410
808.43	13.483
808.74	10.000
809.04	-8.824
809.35	-6.667
809.65	8.571
809.95	5.479
810.26	-12.281
810.56	0.000
810.86	4.412
811.17	-10.526
811.47	-19.672
811.77	-35.556
812.08	-16.949
812.38	1.667
812.69	-8.621
812.99	-3.774
813.29	-43.590
813.59	14.000
813.90	-12.281
814.20	-10.909
814.50	12.676
814.81	-1.282
815.11	-9.836
815.41	5.970
815.72	-8.621
816.02	-3.571
816.32	0.000
816.62	6.818
816.93	-13.333
817.23	-1.852
817.53	-21.277
817.84	11.905
818.14	-8.824
818.44	8.163
818.74	0.000
819.04	-43.590
819.35	-28.571
819.65	-65.385
819.95	-3.774
820.25	-8.889
820.56	-19.048
820.86	-37.500
821.16	-30.769
821.46	-37.209
821.76	-26.000
822.07	1.786
822.37	-8.696
822.67	-34.043
822.97	-54.054
823.27	-17.500
823.57	-4.082
823.88	11.111
824.18	-15.000
824.48	-40.000
824.78	-28.000
825.08	-27.273
825.38	-11.111
825.69	-14.894
825.99	-16.667
826.29	-51.429
826.59	-25.641
826.89	-25.581
827.19	-14.000
827.49	-11.765
827.79	4.167
828.09	-24.324
828.39	-23.333
828.70	2.439
829.00	-4.651
829.30	-39.286
829.60	-8.824
829.90	-23.913
830.20	-62.857
830.50	-48.276
830.80	-77.778
831.10	-53.846
831.40	-8.824
831.70	-28.571
832.00	-22.581
832.30	-105.882
832.60	-66.667
832.90	-184.615
833.20	-26.316
833.50	-105.000
833.80	-42.105
834.10	-133.333
834.40	-33.333
834.70	-6.250
835.00	-54.286
835.30	-11.765
835.60	-36.667
835.90	-16.000
836.20	-109.091
836.50	-64.000
836.80	-57.576
837.10	-70.370
837.40	-33.333
837.70	-175.000
838.00	-60.714
838.30	-78.261
838.60	-17.241
838.90	-128.571
839.19	-95.652
839.49	-133.333
839.79	-69.565
840.09	-156.250
840.39	-85.000
840.69	-16.129
840.99	-46.429
841.29	-33.333
841.59	-84.211
841.88	-2.564
842.18	-46.154
842.48	-150.000
842.78	-60.000
843.08	-13.333
843.38	-3.226
843.68	-88.889
843.97	-11.765
844.27	-31.250
844.57	-42.105
844.87	-100.000
845.17	-120.000
845.47	28.571
845.76	-42.857
846.06	-144.444
846.36	-88.235
846.66	-15.385
846.96	-140.000
847.25	-64.706
847.55	-47.826
847.85	-100.000
848.15	-111.765
848.44	-218.182
848.74	9.524
849.04	-37.500
849.34	-125.000
849.63	-39.130
849.93	1200.000
850.23	-100.000
850.53	-26.923
850.82	-172.727
851.12	-54.545
851.42	-172.727
851.71	-46.154
852.01	-120.000
852.31	-176.923
852.61	-94.737
852.90	-91.667
853.20	-27.778
853.50	-122.222
853.79	-85.714
854.09	-72.727
854.39	-216.667
854.68	-35.484
854.98	-30.769
855.28	-72.222
855.57	-46.429
855.87	-72.000
856.17	-40.909
856.46	-22.222
856.76	-111.111
857.05	-104.348
857.35	-66.667
857.65	-92.308
857.94	-47.619
858.24	-11.111
858.53	-60.870
858.83	-29.412
859.13	-52.941
859.42	-64.706
859.72	-78.571
860.01	-55.000
860.31	-177.778
860.60	-190.000
860.90	-86.667
861.20	-105.556
861.49	-92.308
861.79	-20.000
862.08	-146.154
862.38	-12.500
862.67	-23.529
862.97	-93.750
863.26	-222.222
863.56	-20.000
863.85	-136.364
864.15	0.000
864.44	-600.000
864.74	-50.000
865.03	-118.750
865.33	-260.000
865.62	-35.484
865.92	-31.818
866.21	-56.522
866.51	-121.429
866.80	-360.000
867.10	-141.667
867.39	-125.000
867.69	2500.000
867.98	-42.857
868.27	-76.471
868.57	-2800.000
868.86	-240.000
869.16	-85.714
869.45	-45.833
869.75	-109.091
870.04	-128.571
870.33	-83.333
870.63	-228.571
870.92	-125.000
871.22	-375.000
871.51	-154.545
871.80	-666.667
872.10	-1100.000
>>>>>End Processed Spectral Data<<<<<
