SpectraSuite Data File
++++++++++++++++++++++++++++++++++++
Date: Thu May 14 14:56:32 PDT 2015
User: schluterlab
Dark Spectrum Present: Yes
Reference Spectrum Present: Yes
Number of Sampled Component Spectra: 1
Spectrometers: USB2E3373
Integration Time (usec): 3000 (USB2E3373)
Spectra Averaged: 3 (USB2E3373)
Boxcar Smoothing: 0 (USB2E3373)
Correct for Electrical Dark: No (USB2E3373)
Strobe/Lamp Enabled: No (USB2E3373)
Correct for Detector Non-linearity: No (USB2E3373)
Correct for Stray Light: No (USB2E3373)
Number of Pixels in Processed Spectrum: 2048
>>>>>Begin Processed Spectral Data<<<<<
178.53	0.000
178.91	271.429
179.29	-2200.000
179.67	-1900.000
180.04	278.571
180.42	180.000
180.80	520.000
181.18	-1600.000
181.56	-1700.000
181.94	650.000
182.31	-450.000
182.69	533.333
183.07	-850.000
183.45	375.000
183.83	-383.333
184.20	-400.000
184.58	2100.000
184.96	-550.000
185.34	-222.222
185.72	-180.000
186.09	277.778
186.47	1150.000
186.85	580.000
187.23	-244.444
187.61	-1800.000
187.98	380.000
188.36	725.000
188.74	-550.000
189.12	-533.333
189.49	-56.250
189.87	-237.500
190.25	-155.556
190.63	-360.000
191.00	-155.556
191.38	0.000
191.76	-475.000
192.14	-200.000
192.51	900.000
192.89	-166.667
193.27	0.000
193.65	-171.429
194.02	-1900.000
194.40	-285.714
194.78	371.429
195.15	0.000
195.53	-145.455
195.91	0.000
196.29	-125.000
196.66	-169.231
197.04	-3700.000
197.42	-257.143
197.79	-850.000
198.17	-212.500
198.55	-257.143
198.92	-166.667
199.30	-300.000
199.68	-145.455
200.05	-92.857
200.43	-1350.000
200.81	242.857
201.18	0.000
201.56	277.778
201.94	0.000
202.31	833.333
202.69	-300.000
203.07	1600.000
203.44	-188.889
203.82	-275.000
204.19	-175.000
204.57	-433.333
204.95	-275.000
205.32	-1300.000
205.70	600.000
206.08	-333.333
206.45	-166.667
206.83	420.000
207.20	-233.333
207.58	-580.000
207.96	-316.667
208.33	-216.667
208.71	183.333
209.08	-183.333
209.46	0.000
209.84	483.333
210.21	500.000
210.59	1250.000
210.96	700.000
211.34	-325.000
211.71	-262.500
212.09	-2800.000
212.46	0.000
212.84	800.000
213.22	-320.000
213.59	-200.000
213.97	-120.000
214.34	-666.667
214.72	383.333
215.09	-425.000
215.47	0.000
215.84	257.143
216.22	1400.000
216.59	-240.000
216.97	-240.000
217.34	-550.000
217.72	-150.000
218.09	-400.000
218.47	-700.000
218.84	0.000
219.22	480.000
219.59	-100.000
219.97	-20.000
220.34	800.000
220.72	-322.222
221.09	-76.923
221.47	-833.333
221.84	-190.000
222.22	-357.143
222.59	0.000
222.97	-212.500
223.34	-380.000
223.72	-1500.000
224.09	-425.000
224.46	-800.000
224.84	-380.000
225.21	-300.000
225.59	-475.000
225.96	-550.000
226.34	-80.769
226.71	350.000
227.08	-950.000
227.46	-60.000
227.83	-400.000
228.21	-47.368
228.58	375.000
228.95	1100.000
229.33	-108.333
229.70	-80.000
230.08	-5.263
230.45	240.000
230.82	-800.000
231.20	-142.857
231.57	-75.000
231.95	-218.182
232.32	-172.727
232.69	-30.000
233.07	-325.000
233.44	-47.059
233.81	-150.000
234.19	-72.222
234.56	-72.727
234.93	-37.931
235.31	-89.474
235.68	-22.222
236.05	-100.000
236.43	-46.154
236.80	-24.000
237.17	-77.778
237.55	-36.364
237.92	-170.000
238.29	-54.839
238.67	-34.091
239.04	-27.778
239.41	-59.524
239.79	-10.870
240.16	-16.667
240.53	-30.435
240.91	-43.137
241.28	-16.393
241.65	-11.940
242.02	-2.703
242.40	-12.308
242.77	-10.667
243.14	-20.732
243.51	-36.842
243.89	-30.769
244.26	-5.941
244.63	2.941
245.00	-1.869
245.38	-8.772
245.75	-19.469
246.12	-8.730
246.49	-6.202
246.87	-5.000
247.24	-8.609
247.61	-5.263
247.98	-6.040
248.36	-11.728
248.73	-11.043
249.10	-7.650
249.47	1.493
249.84	0.000
250.22	-0.518
250.59	-2.778
250.96	-0.909
251.33	-8.163
251.70	1.282
252.08	0.833
252.45	1.230
252.82	0.413
253.19	-1.953
253.56	-1.521
253.94	-5.769
254.31	0.379
254.68	0.699
255.05	2.932
255.42	-0.340
255.79	-5.502
256.16	-1.656
256.54	-1.325
256.91	2.951
257.28	-2.623
257.65	-4.140
258.02	-3.835
258.39	-0.855
258.76	0.306
259.14	0.287
259.51	-0.865
259.88	-0.850
260.25	-1.111
260.62	-0.822
260.99	2.186
261.36	0.268
261.73	-2.122
262.10	-1.648
262.47	-0.268
262.85	2.525
263.22	-1.299
263.59	-0.526
263.96	-1.279
264.33	-0.512
264.70	2.222
265.07	1.671
265.44	3.628
265.81	0.694
266.18	2.268
266.55	2.232
266.92	0.228
267.29	3.501
267.66	0.443
268.03	2.620
268.40	2.088
268.77	-2.050
269.14	-1.982
269.51	0.219
269.88	3.279
270.25	3.219
270.62	1.266
270.99	4.444
271.36	2.970
271.73	0.589
272.10	2.004
272.47	0.802
272.84	1.205
273.21	1.202
273.58	2.016
273.95	0.769
274.32	1.141
274.69	0.774
275.06	-0.183
275.43	0.555
275.80	1.411
276.17	0.000
276.54	0.560
276.91	1.252
277.28	-0.181
277.65	1.616
278.02	3.309
278.39	1.449
278.76	1.582
279.13	0.709
279.50	3.093
279.87	1.968
280.23	0.176
280.60	2.542
280.97	1.974
281.34	0.849
281.71	2.200
282.08	2.658
282.45	2.128
282.82	1.413
283.19	-0.808
283.56	0.492
283.92	3.453
284.29	3.476
284.66	2.956
285.03	-0.641
285.40	0.773
285.77	0.929
286.14	3.969
286.51	1.522
286.87	-1.580
287.24	1.807
287.61	0.448
287.98	1.057
288.35	1.183
288.72	0.888
289.08	2.782
289.45	1.183
289.82	1.657
290.19	1.724
290.56	2.394
290.93	1.284
291.29	0.689
291.66	1.515
292.03	1.085
292.40	3.129
292.77	1.887
293.13	1.488
293.50	0.394
293.87	-0.537
294.24	2.133
294.60	2.276
294.97	-0.805
295.34	3.713
295.71	1.009
296.08	0.388
296.44	1.471
296.81	1.583
297.18	1.370
297.55	0.590
297.91	0.830
298.28	0.118
298.65	1.784
299.02	0.236
299.38	1.602
299.75	1.285
300.12	0.694
300.48	1.267
300.85	1.800
301.22	3.020
301.59	-0.114
301.95	1.695
302.32	2.222
302.69	1.972
303.05	0.871
303.42	1.663
303.79	1.458
304.15	1.682
304.52	-0.846
304.89	1.047
305.25	2.277
305.62	0.731
305.99	1.443
306.35	1.815
306.72	1.551
307.09	0.609
307.45	1.760
307.82	2.825
308.19	1.110
308.55	2.314
308.92	1.753
309.29	2.107
309.65	1.267
310.02	2.376
310.38	2.165
310.75	1.359
311.12	2.589
311.48	0.880
311.85	1.519
312.22	2.087
312.58	1.408
312.95	1.625
313.31	2.168
313.68	3.388
314.05	3.071
314.41	1.913
314.78	1.998
315.14	2.087
315.51	2.678
315.87	3.960
316.24	2.648
316.61	2.575
316.97	1.810
317.34	2.116
317.70	3.319
318.07	3.439
318.43	4.252
318.80	4.933
319.16	3.176
319.53	3.085
319.89	3.067
320.26	4.181
320.62	2.394
320.99	4.155
321.35	3.327
321.72	4.279
322.08	3.066
322.45	3.613
322.81	3.430
323.18	3.717
323.54	3.966
323.91	4.004
324.27	4.647
324.64	5.038
325.00	4.892
325.37	4.586
325.73	4.876
326.10	4.866
326.46	5.537
326.83	6.565
327.19	4.803
327.56	5.929
327.92	4.799
328.29	5.242
328.65	5.779
329.01	5.415
329.38	5.223
329.74	5.993
330.11	5.736
330.47	5.813
330.84	6.029
331.20	6.417
331.56	6.153
331.93	6.862
332.29	5.847
332.66	6.478
333.02	6.365
333.38	6.711
333.75	6.145
334.11	7.173
334.48	6.436
334.84	7.052
335.20	5.626
335.57	6.830
335.93	7.851
336.29	5.657
336.66	5.719
337.02	6.940
337.38	7.738
337.75	6.529
338.11	6.812
338.47	6.948
338.84	5.415
339.20	5.055
339.56	6.755
339.93	7.553
340.29	6.522
340.65	6.164
341.02	6.464
341.38	7.599
341.74	6.618
342.11	6.516
342.47	6.593
342.83	7.246
343.20	6.051
343.56	7.137
343.92	5.845
344.28	7.109
344.65	7.984
345.01	6.942
345.37	7.076
345.73	6.157
346.10	7.644
346.46	6.566
346.82	7.865
347.19	7.257
347.55	7.360
347.91	7.132
348.27	6.980
348.63	6.550
349.00	6.488
349.36	7.732
349.72	7.217
350.08	7.875
350.45	6.996
350.81	7.240
351.17	6.917
351.53	6.823
351.89	7.365
352.26	7.015
352.62	7.313
352.98	6.641
353.34	6.199
353.70	7.550
354.07	7.824
354.43	6.530
354.79	7.255
355.15	6.843
355.51	7.675
355.87	6.731
356.24	5.779
356.60	7.391
356.96	6.894
357.32	7.138
357.68	6.442
358.04	7.485
358.40	6.866
358.77	7.602
359.13	6.721
359.49	7.138
359.85	8.049
360.21	8.250
360.57	7.538
360.93	6.700
361.29	8.561
361.66	6.589
362.02	8.003
362.38	8.011
362.74	8.170
363.10	7.428
363.46	6.925
363.82	8.026
364.18	7.389
364.54	8.091
364.90	8.495
365.26	7.310
365.62	8.733
365.98	8.101
366.35	7.852
366.71	7.551
367.07	7.645
367.43	9.061
367.79	8.427
368.15	8.161
368.51	8.187
368.87	8.883
369.23	8.600
369.59	7.719
369.95	8.519
370.31	8.778
370.67	7.634
371.03	8.657
371.39	8.328
371.75	8.735
372.11	8.604
372.47	8.463
372.83	9.751
373.19	9.139
373.55	9.011
373.91	8.044
374.27	8.732
374.63	9.066
374.99	9.284
375.35	9.610
375.71	9.871
376.07	9.748
376.42	9.446
376.78	10.068
377.14	9.482
377.50	9.488
377.86	10.653
378.22	10.240
378.58	9.512
378.94	9.859
379.30	10.018
379.66	10.406
380.02	10.040
380.38	10.829
380.74	10.479
381.09	9.988
381.45	10.455
381.81	11.007
382.17	10.689
382.53	11.228
382.89	10.948
383.25	11.020
383.61	10.417
383.97	11.307
384.32	11.722
384.68	11.195
385.04	11.914
385.40	12.434
385.76	11.430
386.12	11.789
386.48	11.941
386.83	11.979
387.19	12.051
387.55	11.209
387.91	12.100
388.27	12.182
388.62	12.543
388.98	11.506
389.34	12.434
389.70	12.609
390.06	11.723
390.42	12.470
390.77	13.125
391.13	11.913
391.49	13.043
391.85	12.242
392.20	12.871
392.56	13.113
392.92	13.413
393.28	13.046
393.64	12.682
393.99	13.016
394.35	14.252
394.71	13.293
395.07	12.036
395.42	13.535
395.78	14.077
396.14	14.320
396.50	13.599
396.85	13.119
397.21	13.669
397.57	14.193
397.92	13.918
398.28	13.362
398.64	13.787
399.00	14.136
399.35	13.822
399.71	14.457
400.07	14.093
400.42	13.853
400.78	13.715
401.14	14.343
401.49	14.156
401.85	14.012
402.21	14.484
402.57	14.671
402.92	14.539
403.28	13.466
403.63	14.200
403.99	14.252
404.35	14.213
404.70	15.127
405.06	13.913
405.42	14.696
405.77	15.431
406.13	14.749
406.49	14.640
406.84	14.848
407.20	14.421
407.55	13.810
407.91	14.268
408.27	14.841
408.62	14.951
408.98	14.684
409.34	13.842
409.69	14.833
410.05	14.830
410.40	15.255
410.76	14.694
411.11	14.962
411.47	14.681
411.83	15.991
412.18	15.241
412.54	14.997
412.89	15.134
413.25	14.898
413.60	15.106
413.96	15.093
414.31	14.391
414.67	15.086
415.03	14.400
415.38	14.502
415.74	14.966
416.09	15.052
416.45	14.527
416.80	14.259
417.16	14.879
417.51	14.944
417.87	15.021
418.22	15.210
418.58	14.684
418.93	15.832
419.29	14.982
419.64	14.466
420.00	14.065
420.35	14.935
420.71	15.393
421.06	14.779
421.42	15.367
421.77	15.132
422.12	15.328
422.48	15.156
422.83	15.498
423.19	16.233
423.54	15.044
423.90	14.909
424.25	15.360
424.61	15.270
424.96	15.980
425.31	15.658
425.67	14.922
426.02	15.883
426.38	15.270
426.73	15.904
427.09	16.090
427.44	14.691
427.79	15.478
428.15	14.555
428.50	15.506
428.85	14.868
429.21	15.745
429.56	15.647
429.92	14.742
430.27	15.566
430.62	16.659
430.98	15.593
431.33	15.885
431.68	15.996
432.04	16.150
432.39	15.854
432.74	15.011
433.10	15.900
433.45	15.329
433.80	15.129
434.16	15.496
434.51	16.238
434.86	15.852
435.22	15.994
435.57	15.684
435.92	16.138
436.28	15.927
436.63	15.784
436.98	15.191
437.34	15.727
437.69	16.015
438.04	15.918
438.39	15.796
438.75	16.270
439.10	16.226
439.45	16.713
439.81	15.706
440.16	15.174
440.51	16.221
440.86	15.787
441.22	16.774
441.57	16.195
441.92	16.198
442.27	16.667
442.63	16.195
442.98	16.382
443.33	16.412
443.68	16.749
444.03	16.416
444.39	16.505
444.74	16.488
445.09	16.472
445.44	16.175
445.79	16.475
446.15	16.906
446.50	16.486
446.85	16.975
447.20	16.344
447.55	16.423
447.91	15.812
448.26	16.913
448.61	16.047
448.96	16.738
449.31	16.384
449.66	15.741
450.02	16.508
450.37	16.889
450.72	16.631
451.07	16.173
451.42	16.638
451.77	16.009
452.12	16.535
452.47	15.983
452.83	15.653
453.18	16.346
453.53	15.681
453.88	15.958
454.23	16.158
454.58	15.961
454.93	16.019
455.28	16.496
455.63	17.169
455.98	16.145
456.34	16.137
456.69	16.520
457.04	16.371
457.39	15.965
457.74	16.779
458.09	16.200
458.44	16.756
458.79	15.936
459.14	16.203
459.49	16.865
459.84	16.159
460.19	16.380
460.54	16.241
460.89	15.881
461.24	15.977
461.59	16.491
461.94	15.916
462.29	16.517
462.64	15.691
462.99	15.129
463.34	15.704
463.69	16.413
464.04	16.120
464.39	16.087
464.74	15.792
465.09	16.436
465.44	16.577
465.79	16.922
466.14	16.102
466.49	16.526
466.84	16.749
467.19	17.457
467.54	16.745
467.89	16.494
468.24	16.177
468.59	15.055
468.94	15.443
469.29	16.197
469.64	16.020
469.99	15.615
470.34	16.832
470.68	16.336
471.03	17.158
471.38	15.500
471.73	15.540
472.08	16.307
472.43	17.279
472.78	16.625
473.13	16.625
473.48	16.918
473.83	17.586
474.17	16.471
474.52	16.176
474.87	16.944
475.22	17.239
475.57	15.940
475.92	16.775
476.27	16.773
476.61	16.771
476.96	16.945
477.31	17.178
477.66	17.471
478.01	16.675
478.36	16.002
478.70	16.059
479.05	16.871
479.40	17.522
479.75	17.819
480.10	16.959
480.45	16.500
480.79	16.780
481.14	17.004
481.49	17.038
481.84	17.058
482.19	16.258
482.53	16.659
482.88	16.792
483.23	16.719
483.58	16.681
483.92	15.780
484.27	16.300
484.62	16.007
484.97	16.485
485.31	16.332
485.66	15.285
486.01	16.251
486.36	16.424
486.70	17.566
487.05	18.245
487.40	17.506
487.75	17.125
488.09	17.272
488.44	16.430
488.79	16.695
489.13	16.908
489.48	16.117
489.83	15.654
490.17	16.727
490.52	15.969
490.87	16.201
491.22	16.031
491.56	16.382
491.91	16.572
492.26	15.924
492.60	16.878
492.95	17.113
493.30	15.778
493.64	16.645
493.99	16.140
494.34	16.202
494.68	15.460
495.03	15.815
495.37	16.955
495.72	15.782
496.07	16.039
496.41	16.345
496.76	16.013
497.11	16.900
497.45	16.228
497.80	16.659
498.14	16.599
498.49	16.452
498.84	16.362
499.18	16.419
499.53	16.502
499.87	16.879
500.22	16.118
500.56	16.104
500.91	16.751
501.26	16.727
501.60	16.836
501.95	16.023
502.29	16.542
502.64	17.272
502.98	16.911
503.33	16.199
503.67	16.529
504.02	16.813
504.36	16.890
504.71	16.491
505.06	16.917
505.40	15.951
505.75	17.395
506.09	16.575
506.44	17.270
506.78	17.431
507.13	17.105
507.47	16.864
507.82	16.903
508.16	16.874
508.51	17.300
508.85	17.100
509.19	16.817
509.54	17.627
509.88	17.047
510.23	17.144
510.57	17.690
510.92	17.562
511.26	16.931
511.61	17.769
511.95	16.935
512.30	17.381
512.64	16.842
512.98	17.709
513.33	18.145
513.67	17.185
514.02	17.680
514.36	17.647
514.70	16.927
515.05	17.414
515.39	17.270
515.74	18.081
516.08	17.380
516.42	18.367
516.77	17.298
517.11	17.019
517.46	18.081
517.80	17.958
518.14	17.791
518.49	17.408
518.83	17.509
519.17	17.501
519.52	17.925
519.86	17.899
520.20	18.797
520.55	17.141
520.89	18.018
521.23	18.258
521.58	18.079
521.92	18.074
522.26	16.953
522.61	17.940
522.95	17.705
523.29	18.506
523.64	17.601
523.98	18.140
524.32	18.567
524.66	18.270
525.01	17.894
525.35	16.829
525.69	17.865
526.04	16.820
526.38	17.874
526.72	18.108
527.06	17.830
527.41	17.493
527.75	17.993
528.09	18.654
528.43	17.407
528.78	17.688
529.12	18.463
529.46	17.988
529.80	18.135
530.15	19.014
530.49	16.904
530.83	17.769
531.17	17.861
531.51	18.171
531.86	18.029
532.20	19.085
532.54	18.073
532.88	17.576
533.22	18.150
533.57	18.292
533.91	18.182
534.25	17.750
534.59	17.529
534.93	17.261
535.27	18.141
535.62	18.818
535.96	18.071
536.30	18.801
536.64	18.498
536.98	18.450
537.32	19.012
537.66	18.590
538.01	17.523
538.35	17.052
538.69	18.389
539.03	18.455
539.37	18.316
539.71	17.838
540.05	18.046
540.39	17.176
540.73	18.033
541.07	18.087
541.42	17.897
541.76	17.972
542.10	17.973
542.44	16.991
542.78	17.883
543.12	17.640
543.46	17.521
543.80	17.686
544.14	18.073
544.48	18.262
544.82	18.253
545.16	18.068
545.50	16.956
545.84	17.453
546.18	18.580
546.52	17.580
546.86	18.113
547.20	17.875
547.54	17.478
547.88	17.541
548.22	16.725
548.56	17.086
548.90	16.896
549.24	17.751
549.58	16.530
549.92	17.538
550.26	17.864
550.60	17.741
550.94	17.206
551.28	16.436
551.62	17.655
551.96	16.893
552.30	17.718
552.64	17.175
552.98	17.842
553.32	17.621
553.66	16.977
554.00	16.267
554.34	17.053
554.68	16.527
555.02	16.623
555.36	17.028
555.69	16.464
556.03	16.709
556.37	18.273
556.71	17.438
557.05	16.613
557.39	17.850
557.73	16.975
558.07	16.556
558.41	16.080
558.75	17.309
559.08	16.562
559.42	16.804
559.76	16.825
560.10	17.214
560.44	17.084
560.78	16.750
561.12	16.995
561.45	17.092
561.79	17.338
562.13	17.067
562.47	15.968
562.81	17.089
563.15	17.298
563.48	16.532
563.82	16.264
564.16	15.990
564.50	16.806
564.84	16.047
565.17	17.706
565.51	17.722
565.85	15.796
566.19	16.014
566.52	16.618
566.86	16.525
567.20	16.803
567.54	16.782
567.88	17.023
568.21	17.490
568.55	17.506
568.89	17.068
569.23	17.195
569.56	16.999
569.90	16.999
570.24	16.695
570.57	16.806
570.91	17.146
571.25	16.980
571.59	17.478
571.92	17.297
572.26	17.522
572.60	17.445
572.93	17.256
573.27	17.505
573.61	17.178
573.95	16.970
574.28	17.169
574.62	16.849
574.96	16.718
575.29	17.096
575.63	16.909
575.97	16.910
576.30	16.605
576.64	16.559
576.98	16.651
577.31	16.689
577.65	17.416
577.98	16.773
578.32	16.860
578.66	16.868
578.99	16.936
579.33	17.074
579.67	16.455
580.00	16.678
580.34	17.038
580.67	16.483
581.01	16.357
581.35	16.384
581.68	16.699
582.02	17.166
582.35	17.346
582.69	17.414
583.02	17.174
583.36	16.923
583.70	16.451
584.03	16.511
584.37	16.786
584.70	16.137
585.04	16.229
585.37	16.262
585.71	16.980
586.04	16.380
586.38	16.760
586.72	16.345
587.05	16.449
587.39	16.205
587.72	16.962
588.06	16.514
588.39	16.405
588.73	16.667
589.06	16.563
589.40	16.503
589.73	16.035
590.07	16.346
590.40	16.599
590.73	16.225
591.07	16.679
591.40	15.785
591.74	15.938
592.07	16.281
592.41	15.970
592.74	15.797
593.08	16.688
593.41	16.156
593.75	16.839
594.08	16.965
594.41	16.474
594.75	16.672
595.08	16.353
595.42	16.494
595.75	16.274
596.09	16.130
596.42	16.159
596.75	16.210
597.09	16.808
597.42	15.971
597.75	15.915
598.09	16.230
598.42	16.405
598.76	15.705
599.09	15.913
599.42	15.823
599.76	16.078
600.09	16.049
600.42	15.549
600.76	15.687
601.09	15.765
601.42	16.238
601.76	15.690
602.09	15.332
602.42	15.594
602.76	16.089
603.09	15.382
603.42	15.860
603.76	15.715
604.09	16.608
604.42	15.817
604.76	15.335
605.09	15.796
605.42	15.550
605.75	16.385
606.09	16.088
606.42	15.907
606.75	15.180
607.09	15.438
607.42	15.800
607.75	15.944
608.08	16.062
608.42	16.082
608.75	16.128
609.08	15.323
609.41	15.659
609.75	15.625
610.08	15.567
610.41	15.718
610.74	15.042
611.07	15.409
611.41	15.247
611.74	15.473
612.07	15.849
612.40	14.781
612.73	16.479
613.07	15.355
613.40	15.399
613.73	15.166
614.06	15.751
614.39	14.966
614.72	15.818
615.06	15.159
615.39	15.515
615.72	15.166
616.05	15.444
616.38	15.691
616.71	15.622
617.05	14.590
617.38	16.105
617.71	16.091
618.04	15.326
618.37	15.792
618.70	15.554
619.03	14.875
619.36	15.228
619.69	15.183
620.03	14.313
620.36	14.663
620.69	14.497
621.02	14.436
621.35	14.877
621.68	14.534
622.01	14.947
622.34	14.435
622.67	14.089
623.00	13.225
623.33	15.395
623.66	15.045
623.99	14.417
624.32	15.919
624.65	14.543
624.99	14.629
625.32	14.435
625.65	14.295
625.98	14.169
626.31	14.458
626.64	15.092
626.97	13.203
627.30	13.591
627.63	13.803
627.96	15.916
628.29	14.319
628.62	13.434
628.95	13.935
629.28	14.104
629.61	15.741
629.94	13.808
630.26	13.136
630.59	14.767
630.92	13.333
631.25	13.953
631.58	14.313
631.91	14.058
632.24	14.409
632.57	13.188
632.90	13.842
633.23	15.102
633.56	13.469
633.89	12.603
634.22	12.890
634.55	13.674
634.88	13.636
635.20	15.393
635.53	12.881
635.86	14.410
636.19	13.043
636.52	12.764
636.85	13.177
637.18	14.241
637.51	13.871
637.83	14.618
638.16	13.940
638.49	13.028
638.82	12.514
639.15	12.486
639.48	15.473
639.81	14.550
640.13	13.310
640.46	11.030
640.79	11.152
641.12	14.037
641.45	11.794
641.77	17.202
642.10	11.942
642.43	13.830
642.76	12.466
643.09	12.603
643.41	11.345
643.74	13.379
644.07	13.655
644.40	12.447
644.73	12.917
645.05	12.775
645.38	13.957
645.71	13.783
646.04	15.638
646.36	12.701
646.69	12.883
647.02	12.997
647.35	12.672
647.67	13.205
648.00	12.898
648.33	13.213
648.66	11.412
648.98	10.748
649.31	13.126
649.64	12.616
649.96	11.538
650.29	10.292
650.62	11.881
650.94	13.514
651.27	9.880
651.60	11.257
651.92	11.854
652.25	12.880
652.58	14.030
652.90	11.483
653.23	12.113
653.56	11.555
653.88	13.343
654.21	13.380
654.54	13.150
654.86	12.181
655.19	12.422
655.52	14.685
655.84	15.462
656.17	18.305
656.49	25.923
656.82	27.836
657.15	21.482
657.47	16.021
657.80	11.595
658.13	8.939
658.45	11.300
658.78	13.577
659.10	12.951
659.43	11.969
659.75	11.917
660.08	10.252
660.41	10.256
660.73	10.376
661.06	11.160
661.38	11.802
661.71	10.517
662.03	12.522
662.36	13.059
662.68	11.820
663.01	10.442
663.33	12.287
663.66	12.637
663.98	10.769
664.31	10.507
664.63	10.790
664.96	11.978
665.28	10.889
665.61	13.112
665.93	11.429
666.26	12.007
666.58	10.701
666.91	11.215
667.23	12.952
667.56	11.440
667.88	13.000
668.21	8.789
668.53	6.178
668.86	10.216
669.18	9.980
669.50	10.139
669.83	10.600
670.15	9.646
670.48	12.897
670.80	9.943
671.13	8.129
671.45	9.252
671.77	11.488
672.10	12.500
672.42	11.812
672.75	11.828
673.07	11.791
673.39	11.094
673.72	11.745
674.04	11.207
674.37	11.449
674.69	13.580
675.01	10.286
675.34	8.969
675.66	10.487
675.98	11.940
676.31	9.570
676.63	12.548
676.95	11.877
677.28	10.081
677.60	9.252
677.92	10.557
678.25	11.152
678.57	11.744
678.89	13.311
679.22	9.930
679.54	11.966
679.86	9.153
680.18	11.940
680.51	11.164
680.83	12.602
681.15	10.690
681.48	11.744
681.80	11.399
682.12	9.266
682.44	11.352
682.77	10.816
683.09	10.417
683.41	13.178
683.73	11.575
684.06	7.749
684.38	9.839
684.70	12.747
685.02	9.811
685.34	10.815
685.67	9.779
685.99	11.503
686.31	10.465
686.63	11.690
686.96	11.041
687.28	11.564
687.60	9.764
687.92	9.486
688.24	11.853
688.56	9.655
688.89	10.345
689.21	10.568
689.53	9.608
689.85	7.692
690.17	10.185
690.49	8.964
690.82	11.683
691.14	9.109
691.46	10.899
691.78	10.866
692.10	8.073
692.42	8.750
692.74	10.345
693.06	10.185
693.39	10.436
693.71	7.143
694.03	10.409
694.35	11.048
694.67	11.704
694.99	11.702
695.31	8.609
695.63	9.307
695.95	8.903
696.27	7.692
696.59	9.735
696.91	9.910
697.23	9.670
697.56	9.572
697.88	7.576
698.20	9.981
698.52	13.636
698.84	10.395
699.16	10.408
699.48	10.251
699.80	9.787
700.12	8.515
700.44	9.447
700.76	9.501
701.08	10.412
701.40	10.363
701.72	12.935
702.04	12.032
702.36	6.283
702.68	6.601
703.00	9.046
703.32	7.389
703.64	7.824
703.96	11.456
704.28	6.880
704.60	12.658
704.91	6.378
705.23	10.685
705.55	5.850
705.87	8.182
706.19	9.816
706.51	4.819
706.83	5.764
707.15	7.143
707.47	7.477
707.79	9.389
708.11	6.144
708.43	10.108
708.74	5.804
709.06	8.121
709.38	10.563
709.70	11.911
710.02	11.370
710.34	8.245
710.66	6.145
710.98	8.743
711.29	5.220
711.61	9.887
711.93	6.268
712.25	5.405
712.57	10.619
712.89	11.765
713.20	6.805
713.52	12.139
713.84	5.571
714.16	8.947
714.48	7.216
714.80	14.026
715.11	7.087
715.43	10.610
715.75	7.895
716.07	9.945
716.39	9.290
716.70	6.928
717.02	5.574
717.34	5.575
717.66	8.725
717.97	3.767
718.29	5.155
718.61	5.263
718.93	9.709
719.24	7.764
719.56	7.669
719.88	6.607
720.20	6.774
720.51	5.901
720.83	6.250
721.15	6.579
721.46	2.397
721.78	6.000
722.10	3.883
722.42	5.034
722.73	6.452
723.05	7.368
723.37	6.944
723.68	8.961
724.00	7.942
724.32	5.282
724.63	5.944
724.95	7.447
725.27	4.181
725.58	4.947
725.90	7.586
726.22	7.524
726.53	9.091
726.85	8.805
727.16	5.740
727.48	7.339
727.80	7.947
728.11	2.120
728.43	8.754
728.74	8.027
729.06	4.636
729.38	7.468
729.69	5.369
730.01	6.548
730.32	4.545
730.64	8.491
730.96	8.696
731.27	9.497
731.59	9.615
731.90	8.052
732.22	7.552
732.53	5.249
732.85	7.429
733.16	7.038
733.48	4.878
733.80	6.964
734.11	7.407
734.43	7.838
734.74	11.392
735.06	7.035
735.37	8.108
735.69	8.649
736.00	7.062
736.32	9.164
736.63	8.611
736.95	9.483
737.26	10.909
737.58	6.364
737.89	9.706
738.21	4.281
738.52	3.607
738.83	7.167
739.15	4.965
739.46	4.422
739.78	8.282
740.09	6.877
740.41	6.706
740.72	3.667
741.04	8.414
741.35	8.421
741.66	4.706
741.98	6.557
742.29	8.368
742.61	3.509
742.92	4.231
743.23	7.942
743.55	6.589
743.86	9.200
744.18	0.000
744.49	1.266
744.80	4.527
745.12	4.641
745.43	7.317
745.74	2.155
746.06	4.661
746.37	5.063
746.68	9.350
747.00	0.417
747.31	2.575
747.62	8.462
747.94	0.405
748.25	5.221
748.56	7.347
748.88	5.128
749.19	7.759
749.50	7.359
749.82	8.032
750.13	5.694
750.44	4.667
750.75	3.692
751.07	6.769
751.38	6.625
751.69	7.029
752.01	5.178
752.32	6.863
752.63	9.184
752.94	7.958
753.26	6.320
753.57	5.556
753.88	5.993
754.19	7.074
754.51	10.932
754.82	7.717
755.13	8.197
755.44	6.826
755.75	7.566
756.07	11.343
756.38	5.031
756.69	10.542
757.00	6.371
757.31	7.650
757.63	7.928
757.94	8.685
758.25	8.352
758.56	8.279
758.87	8.636
759.18	6.933
759.50	9.915
759.81	7.563
760.12	10.243
760.43	6.250
760.74	4.926
761.05	4.750
761.36	7.229
761.67	7.614
761.99	6.486
762.30	4.573
762.61	6.271
762.92	6.716
763.23	6.742
763.54	5.396
763.85	8.247
764.16	4.714
764.47	5.986
764.78	7.348
765.10	6.745
765.41	10.256
765.72	5.820
766.03	6.780
766.34	5.329
766.65	2.787
766.96	4.781
767.27	4.608
767.58	1.990
767.89	6.731
768.20	6.573
768.51	3.241
768.82	2.008
769.13	7.576
769.44	0.385
769.75	6.859
770.06	7.308
770.37	7.480
770.68	-4.255
770.99	-1.215
771.30	8.519
771.61	4.943
771.92	2.593
772.23	5.263
772.54	0.000
772.85	10.138
773.16	3.333
773.47	0.000
773.78	0.000
774.09	-5.114
774.39	7.000
774.70	3.279
775.01	-0.610
775.32	0.000
775.63	-3.067
775.94	-0.637
776.25	4.516
776.56	5.769
776.87	1.361
777.18	-2.759
777.48	-1.399
777.79	5.405
778.10	-7.353
778.41	-1.389
778.72	-2.069
779.03	6.173
779.34	3.636
779.65	-2.591
779.95	5.000
780.26	0.568
780.57	0.645
780.88	3.623
781.19	-0.645
781.50	7.059
781.80	2.151
782.11	2.646
782.42	-0.505
782.73	-5.389
783.04	0.559
783.34	-1.212
783.65	-3.268
783.96	1.242
784.27	3.571
784.57	-1.987
784.88	1.429
785.19	-5.512
785.50	-3.937
785.81	0.752
786.11	0.000
786.42	-7.194
786.73	-5.036
787.04	1.504
787.34	1.639
787.65	-4.000
787.96	-7.463
788.26	0.699
788.57	5.594
788.88	1.316
789.19	-2.614
789.49	10.274
789.80	-2.128
790.11	7.087
790.41	2.344
790.72	6.780
791.03	-2.913
791.33	-6.087
791.64	-3.509
791.95	-7.143
792.25	1.905
792.56	-5.357
792.87	-16.667
793.17	-1.786
793.48	-9.375
793.79	-24.096
794.09	-8.257
794.40	-10.092
794.70	4.762
795.01	0.000
795.32	1.370
795.62	2.817
795.93	-0.758
796.23	3.279
796.54	-6.250
796.85	-8.511
797.15	-4.348
797.46	-24.658
797.76	-13.750
798.07	-14.130
798.37	-15.464
798.68	-19.481
798.99	6.897
799.29	-12.360
799.60	-8.511
799.90	-15.663
800.21	-20.000
800.51	-28.358
800.82	-26.471
801.12	-23.288
801.43	-17.647
801.73	-20.339
802.04	-15.152
802.34	-21.667
802.65	-13.559
802.95	-11.940
803.26	-20.339
803.56	-15.068
803.87	-12.857
804.17	-6.849
804.48	-42.105
804.78	-4.167
805.09	-15.517
805.39	-2.703
805.70	-30.986
806.00	-1.220
806.30	-14.458
806.61	-19.178
806.91	-10.577
807.22	-7.778
807.52	-17.241
807.83	-5.556
808.13	-18.072
808.43	-4.494
808.74	-15.000
809.04	-41.176
809.35	-9.333
809.65	-28.571
809.95	-16.438
810.26	-19.298
810.56	-25.862
810.86	-1.471
811.17	-12.281
811.47	-36.066
811.77	-62.222
812.08	-16.949
812.38	-21.667
812.69	-8.621
812.99	-32.075
813.29	-58.974
813.59	-28.000
813.90	-12.281
814.20	-21.818
814.50	-8.451
814.81	-1.282
815.11	-18.033
815.41	-19.403
815.72	-12.069
816.02	-25.000
816.32	-26.667
816.62	-31.818
816.93	-22.222
817.23	-9.259
817.53	4.255
817.84	-28.571
818.14	-47.059
818.44	-46.939
818.74	-33.333
819.04	-53.846
819.35	-71.429
819.65	-96.154
819.95	-18.868
820.25	-33.333
820.56	-45.238
820.86	-50.000
821.16	-46.154
821.46	-58.140
821.76	-36.000
822.07	-17.857
822.37	-50.000
822.67	-27.660
822.97	-37.838
823.27	-47.500
823.57	-18.367
823.88	-24.444
824.18	-37.500
824.48	-80.000
824.78	-56.000
825.08	-27.273
825.38	-15.556
825.69	-8.511
825.99	-41.667
826.29	-91.429
826.59	-30.769
826.89	-32.558
827.19	-22.000
827.49	-47.059
827.79	-27.083
828.09	-51.351
828.39	-80.000
828.70	-14.634
829.00	-32.558
829.30	-82.143
829.60	0.000
829.90	-21.739
830.20	-48.571
830.50	-58.621
830.80	-83.333
831.10	-84.615
831.40	-14.706
831.70	-57.143
832.00	-6.452
832.30	-158.824
832.60	-75.000
832.90	-176.923
833.20	-110.526
833.50	-95.000
833.80	-100.000
834.10	-142.857
834.40	-27.778
834.70	-40.625
835.00	-80.000
835.30	-20.588
835.60	-70.000
835.90	-84.000
836.20	-86.364
836.50	-56.000
836.80	-57.576
837.10	-55.556
837.40	-55.556
837.70	-143.750
838.00	-25.000
838.30	-56.522
838.60	-31.034
838.90	-164.286
839.19	-108.696
839.49	-183.333
839.79	-52.174
840.09	-206.250
840.39	-80.000
840.69	-48.387
840.99	-64.286
841.29	-106.667
841.59	-110.526
841.88	-5.128
842.18	-73.077
842.48	-240.000
842.78	-85.000
843.08	-10.000
843.38	-51.613
843.68	-138.889
843.97	-14.706
844.27	-118.750
844.57	-89.474
844.87	-310.000
845.17	-166.667
845.47	-19.048
845.76	-57.143
846.06	-166.667
846.36	-147.059
846.66	-53.846
846.96	-146.667
847.25	-70.588
847.55	-39.130
847.85	-20.000
848.15	-82.353
848.44	-181.818
848.74	-52.381
849.04	-100.000
849.34	-150.000
849.63	-60.870
849.93	1300.000
850.23	-133.333
850.53	-26.923
850.82	-118.182
851.12	-18.182
851.42	-100.000
851.71	-146.154
852.01	-85.000
852.31	-100.000
852.61	-105.263
852.90	-158.333
853.20	-77.778
853.50	-266.667
853.79	-100.000
854.09	-122.727
854.39	-200.000
854.68	-45.161
854.98	-76.923
855.28	-94.444
855.57	-39.286
855.87	-52.000
856.17	-81.818
856.46	-48.148
856.76	-105.556
857.05	-108.696
857.35	-66.667
857.65	-161.538
857.94	-42.857
858.24	-22.222
858.53	-43.478
858.83	-94.118
859.13	-88.235
859.42	-76.471
859.72	-85.714
860.01	-60.000
860.31	-166.667
860.60	-150.000
860.90	-86.667
861.20	-61.111
861.49	-69.231
861.79	-40.000
862.08	-115.385
862.38	-12.500
862.67	-70.588
862.97	-68.750
863.26	-277.778
863.56	-150.000
863.85	-145.455
864.15	-77.778
864.44	-866.667
864.74	-78.571
865.03	-118.750
865.33	-260.000
865.62	-64.516
865.92	-54.545
866.21	-86.957
866.51	-92.857
866.80	-540.000
867.10	-183.333
867.39	-191.667
867.69	2200.000
867.98	-300.000
868.27	-76.471
868.57	-2800.000
868.86	-210.000
869.16	-80.952
869.45	-33.333
869.75	-154.545
870.04	-328.571
870.33	-158.333
870.63	-342.857
870.92	-325.000
871.22	-412.500
871.51	-200.000
871.80	-1166.667
872.10	-1250.000
>>>>>End Processed Spectral Data<<<<<
