SpectraSuite Data File
++++++++++++++++++++++++++++++++++++
Date: Thu May 14 15:00:59 PDT 2015
User: schluterlab
Dark Spectrum Present: Yes
Reference Spectrum Present: Yes
Number of Sampled Component Spectra: 1
Spectrometers: USB2E3373
Integration Time (usec): 3000 (USB2E3373)
Spectra Averaged: 3 (USB2E3373)
Boxcar Smoothing: 0 (USB2E3373)
Correct for Electrical Dark: No (USB2E3373)
Strobe/Lamp Enabled: No (USB2E3373)
Correct for Detector Non-linearity: No (USB2E3373)
Correct for Stray Light: No (USB2E3373)
Number of Pixels in Processed Spectrum: 2048
>>>>>Begin Processed Spectral Data<<<<<
178.53	0.000
178.91	300.000
179.29	-3300.000
179.67	-2700.000
180.04	264.286
180.42	190.000
180.80	420.000
181.18	-2000.000
181.56	-1700.000
181.94	750.000
182.31	-600.000
182.69	733.333
183.07	-1000.000
183.45	525.000
183.83	-466.667
184.20	-733.333
184.58	1900.000
184.96	-575.000
185.34	-311.111
185.72	-360.000
186.09	411.111
186.47	1000.000
186.85	660.000
187.23	-255.556
187.61	-3500.000
187.98	360.000
188.36	675.000
188.74	-550.000
189.12	-666.667
189.49	-131.250
189.87	-375.000
190.25	-188.889
190.63	-420.000
191.00	-322.222
191.38	0.000
191.76	-750.000
192.14	-233.333
192.51	1300.000
192.89	-266.667
193.27	0.000
193.65	-271.429
194.02	-2500.000
194.40	-185.714
194.78	185.714
195.15	0.000
195.53	-145.455
195.91	0.000
196.29	-600.000
196.66	-184.615
197.04	-1700.000
197.42	-228.571
197.79	-1600.000
198.17	-350.000
198.55	-357.143
198.92	-144.444
199.30	-212.500
199.68	-63.636
200.05	-107.143
200.43	-1150.000
200.81	385.714
201.18	0.000
201.56	355.556
201.94	0.000
202.31	800.000
202.69	-222.222
203.07	2100.000
203.44	-266.667
203.82	-775.000
204.19	-158.333
204.57	-433.333
204.95	-412.500
205.32	-2600.000
205.70	525.000
206.08	-366.667
206.45	-316.667
206.83	560.000
207.20	-283.333
207.58	-500.000
207.96	-416.667
208.33	-266.667
208.71	291.667
209.08	-100.000
209.46	0.000
209.84	500.000
210.21	950.000
210.59	800.000
210.96	1166.667
211.34	-300.000
211.71	-262.500
212.09	-1900.000
212.46	0.000
212.84	1650.000
213.22	-500.000
213.59	-400.000
213.97	-200.000
214.34	-533.333
214.72	266.667
215.09	-825.000
215.47	0.000
215.84	285.714
216.22	700.000
216.59	-280.000
216.97	-360.000
217.34	-525.000
217.72	-137.500
218.09	-450.000
218.47	-775.000
218.84	0.000
219.22	480.000
219.59	-123.529
219.97	-55.000
220.34	1350.000
220.72	-222.222
221.09	-107.692
221.47	-500.000
221.84	-220.000
222.22	-342.857
222.59	0.000
222.97	-212.500
223.34	-420.000
223.72	-700.000
224.09	-625.000
224.46	-725.000
224.84	-400.000
225.21	-328.571
225.59	-625.000
225.96	-525.000
226.34	-38.462
226.71	533.333
227.08	-1000.000
227.46	-113.333
227.83	-525.000
228.21	-89.474
228.58	325.000
228.95	1300.000
229.33	-108.333
229.70	-150.000
230.08	-47.368
230.45	240.000
230.82	-633.333
231.20	-128.571
231.57	-141.667
231.95	-109.091
232.32	-109.091
232.69	-90.000
233.07	-475.000
233.44	-135.294
233.81	-200.000
234.19	-83.333
234.56	-90.909
234.93	-17.241
235.31	-84.211
235.68	-100.000
236.05	-80.000
236.43	-23.077
236.80	-16.000
237.17	-25.926
237.55	-39.394
237.92	-160.000
238.29	-38.710
238.67	-31.818
239.04	-8.333
239.41	-21.429
239.79	-39.130
240.16	-3.704
240.53	-26.087
240.91	-5.882
241.28	-6.557
241.65	20.896
242.02	4.054
242.40	-13.846
242.77	9.333
243.14	6.098
243.51	-5.263
243.89	-8.974
244.26	9.901
244.63	13.725
245.00	6.542
245.38	7.895
245.75	-4.425
246.12	15.079
246.49	25.581
246.87	13.571
247.24	17.219
247.61	21.053
247.98	14.094
248.36	10.494
248.73	10.429
249.10	16.940
249.47	20.896
249.84	23.560
250.22	18.653
250.59	16.667
250.96	18.636
251.33	20.408
251.70	17.521
252.08	22.500
252.45	22.541
252.82	21.074
253.19	17.969
253.56	23.954
253.94	18.846
254.31	22.727
254.68	26.923
255.05	21.498
255.42	20.408
255.79	17.476
256.16	25.497
256.54	19.536
256.91	22.951
257.28	22.295
257.65	23.885
258.02	21.534
258.39	26.496
258.76	26.606
259.14	28.448
259.51	23.919
259.88	23.229
260.25	22.222
260.62	27.945
260.99	27.049
261.36	21.448
261.73	23.607
262.10	25.275
262.47	23.324
262.85	23.990
263.22	26.234
263.59	22.105
263.96	22.506
264.33	23.018
264.70	25.926
265.07	28.640
265.44	27.438
265.81	25.000
266.18	26.531
266.55	27.232
266.92	25.285
267.29	29.759
267.66	24.834
268.03	27.511
268.40	22.965
268.77	27.563
269.14	24.229
269.51	27.412
269.88	26.434
270.25	26.761
270.62	23.418
270.99	26.869
271.36	27.129
271.73	25.540
272.10	28.858
272.47	27.455
272.84	24.699
273.21	25.451
273.58	26.815
273.95	22.115
274.32	27.376
274.69	24.178
275.06	26.740
275.43	24.769
275.80	25.750
276.17	25.926
276.54	27.052
276.91	24.508
277.28	27.125
277.65	28.546
278.02	27.941
278.39	25.000
278.76	23.023
279.13	26.241
279.50	26.976
279.87	25.403
280.23	25.352
280.60	25.254
280.97	26.151
281.34	26.146
281.71	26.904
282.08	25.249
282.45	25.696
282.82	24.333
283.19	23.263
283.56	26.230
283.92	27.327
284.29	26.540
284.66	23.645
285.03	23.237
285.40	25.502
285.77	24.458
286.14	24.885
286.51	25.419
286.87	22.591
287.24	23.946
287.61	23.767
287.98	24.169
288.35	25.444
288.72	25.888
289.08	24.597
289.45	22.929
289.82	24.849
290.19	25.144
290.56	24.225
290.93	23.252
291.29	23.140
291.66	23.003
292.03	23.066
292.40	22.993
292.77	21.159
293.13	22.463
293.50	21.945
293.87	21.208
294.24	24.800
294.60	22.630
294.97	20.805
295.34	23.047
295.71	19.672
296.08	20.155
296.44	21.078
296.81	21.437
297.18	21.295
297.55	21.108
297.91	20.047
298.28	20.853
298.65	21.046
299.02	20.189
299.38	20.137
299.75	21.145
300.12	18.634
300.48	18.894
300.85	20.585
301.22	19.128
301.59	17.808
301.95	19.322
302.32	19.667
302.69	20.153
303.05	20.892
303.42	21.286
303.79	18.438
304.15	19.558
304.52	19.133
304.89	20.628
305.25	20.393
305.62	19.540
305.99	20.103
306.35	18.649
306.72	20.476
307.09	18.985
307.45	20.186
307.82	21.090
308.19	19.173
308.55	20.251
308.92	18.987
309.29	19.828
309.65	19.201
310.02	20.495
310.38	19.783
310.75	20.485
311.12	20.614
311.48	21.114
311.85	19.753
312.22	19.355
312.58	20.845
312.95	19.790
313.31	20.054
313.68	21.612
314.05	23.487
314.41	21.220
314.78	21.253
315.14	21.416
315.51	21.976
315.87	21.692
316.24	22.831
316.61	23.179
316.97	22.534
317.34	23.280
317.70	22.882
318.07	23.457
318.43	24.235
318.80	23.746
319.16	22.747
319.53	22.965
319.89	23.138
320.26	24.555
320.62	23.582
320.99	25.115
321.35	26.063
321.72	26.512
322.08	24.076
322.45	25.294
322.81	26.534
323.18	25.841
323.54	25.603
323.91	26.868
324.27	26.764
324.64	27.876
325.00	27.529
325.37	28.337
325.73	28.595
326.10	28.629
326.46	29.967
326.83	31.545
327.19	29.843
327.56	31.304
327.92	30.685
328.29	29.919
328.65	30.821
329.01	31.726
329.38	31.845
329.74	32.021
330.11	32.620
330.47	31.676
330.84	32.214
331.20	34.417
331.56	33.882
331.93	34.644
332.29	34.237
332.66	33.887
333.02	32.747
333.38	32.886
333.75	33.754
334.11	33.278
334.48	35.231
334.84	34.494
335.20	33.669
335.57	35.329
335.93	34.876
336.29	34.110
336.66	34.903
337.02	33.946
337.38	35.629
337.75	33.636
338.11	35.240
338.47	34.988
338.84	35.448
339.20	35.046
339.56	34.761
339.93	34.401
340.29	35.427
340.65	35.523
341.02	35.834
341.38	35.166
341.74	34.302
342.11	36.605
342.47	34.154
342.83	36.473
343.20	35.078
343.56	36.247
343.92	36.189
344.28	36.328
344.65	35.349
345.01	37.598
345.37	35.303
345.73	36.321
346.10	35.335
346.46	36.076
346.82	35.880
347.19	35.523
347.55	36.115
347.91	36.553
348.27	36.115
348.63	36.938
349.00	34.750
349.36	37.472
349.72	36.607
350.08	37.147
350.45	36.122
350.81	37.783
351.17	36.842
351.53	38.135
351.89	37.737
352.26	37.239
352.62	38.433
352.98	37.176
353.34	36.594
353.70	37.211
354.07	37.183
354.43	37.130
354.79	37.622
355.15	37.675
355.51	38.085
355.87	38.818
356.24	38.099
356.60	36.585
356.96	38.176
357.32	38.736
357.68	38.873
358.04	38.323
358.40	38.657
358.77	39.547
359.13	37.297
359.49	39.703
359.85	39.449
360.21	38.666
360.57	38.765
360.93	38.434
361.29	40.632
361.66	39.392
362.02	39.318
362.38	40.759
362.74	39.595
363.10	40.165
363.46	40.720
363.82	40.128
364.18	40.957
364.54	41.286
364.90	42.007
365.26	41.655
365.62	41.133
365.98	41.389
366.35	41.007
366.71	42.585
367.07	42.558
367.43	41.628
367.79	43.331
368.15	42.207
368.51	41.543
368.87	42.782
369.23	42.133
369.59	44.945
369.95	43.272
370.31	43.214
370.67	43.122
371.03	44.875
371.39	43.788
371.75	42.503
372.11	44.580
372.47	44.076
372.83	44.830
373.19	43.229
373.55	44.986
373.91	45.262
374.27	44.502
374.63	46.482
374.99	46.353
375.35	45.195
375.71	45.355
376.07	45.642
376.42	46.096
376.78	47.048
377.14	45.789
377.50	48.450
377.86	47.722
378.22	47.725
378.58	47.681
378.94	47.946
379.30	47.686
379.66	48.442
380.02	49.336
380.38	50.173
380.74	49.239
381.09	50.348
381.45	49.545
381.81	51.054
382.17	50.356
382.53	49.942
382.89	49.605
383.25	52.462
383.61	51.678
383.97	51.237
384.32	52.392
384.68	50.522
385.04	51.822
385.40	52.976
385.76	53.165
386.12	50.987
386.48	53.059
386.83	52.861
387.19	53.302
387.55	53.580
387.91	53.995
388.27	54.388
388.62	53.780
388.98	52.905
389.34	55.274
389.70	54.910
390.06	54.707
390.42	54.639
390.77	55.027
391.13	54.930
391.49	55.374
391.85	54.848
392.20	55.101
392.56	56.054
392.92	54.308
393.28	55.943
393.64	55.754
393.99	56.653
394.35	58.645
394.71	56.946
395.07	56.407
395.42	56.196
395.78	57.343
396.14	58.348
396.50	57.067
396.85	55.814
397.21	57.633
397.57	57.008
397.92	56.472
398.28	57.143
398.64	57.323
399.00	56.440
399.35	56.806
399.71	57.283
400.07	57.945
400.42	57.567
400.78	58.970
401.14	57.997
401.49	57.476
401.85	57.965
402.21	58.922
402.57	59.742
402.92	58.038
403.28	56.499
403.63	57.757
403.99	57.363
404.35	56.509
404.70	57.394
405.06	57.935
405.42	57.728
405.77	58.233
406.13	57.915
406.49	58.502
406.84	58.449
407.20	59.027
407.55	58.934
407.91	58.957
408.27	57.303
408.62	57.999
408.98	59.431
409.34	59.472
409.69	59.456
410.05	58.558
410.40	58.527
410.76	58.104
411.11	59.439
411.47	58.968
411.83	58.848
412.18	59.578
412.54	58.980
412.89	58.731
413.25	58.014
413.60	58.415
413.96	57.809
414.31	58.130
414.67	58.378
415.03	57.662
415.38	59.395
415.74	59.133
416.09	60.518
416.45	57.671
416.80	57.895
417.16	58.621
417.51	60.025
417.87	57.572
418.22	59.162
418.58	58.550
418.93	58.615
419.29	59.618
419.64	59.304
420.00	59.822
420.35	59.573
420.71	59.276
421.06	59.057
421.42	59.690
421.77	57.997
422.12	59.778
422.48	59.549
422.83	59.912
423.19	59.629
423.54	58.684
423.90	58.807
424.25	61.227
424.61	59.587
424.96	59.528
425.31	59.395
425.67	59.796
426.02	60.764
426.38	60.046
426.73	59.654
427.09	60.727
427.44	59.039
427.79	60.475
428.15	60.217
428.50	60.562
428.85	59.013
429.21	59.894
429.56	60.118
429.92	59.115
430.27	61.301
430.62	60.821
430.98	62.518
431.33	59.922
431.68	61.255
432.04	61.960
432.39	61.061
432.74	59.760
433.10	61.114
433.45	59.699
433.80	60.837
434.16	61.002
434.51	62.179
434.86	63.246
435.22	63.815
435.57	63.149
435.92	61.269
436.28	62.230
436.63	62.370
436.98	60.225
437.34	61.612
437.69	61.530
438.04	60.656
438.39	61.114
438.75	61.317
439.10	61.205
439.45	61.990
439.81	61.582
440.16	60.858
440.51	61.427
440.86	60.923
441.22	61.576
441.57	62.317
441.92	61.057
442.27	62.879
442.63	61.053
442.98	61.793
443.33	61.126
443.68	61.001
444.03	63.076
444.39	61.396
444.74	62.481
445.09	61.277
445.44	61.802
445.79	62.596
446.15	62.384
446.50	61.292
446.85	61.576
447.20	60.735
447.55	63.180
447.91	61.309
448.26	61.628
448.61	62.274
448.96	62.500
449.31	60.923
449.66	61.002
450.02	61.234
450.37	60.522
450.72	61.518
451.07	61.219
451.42	60.890
451.77	60.923
452.12	62.585
452.47	61.794
452.83	63.626
453.18	60.479
453.53	60.712
453.88	60.409
454.23	60.847
454.58	60.070
454.93	61.165
455.28	60.626
455.63	60.887
455.98	60.726
456.34	61.307
456.69	60.494
457.04	61.584
457.39	60.976
457.74	61.130
458.09	60.791
458.44	61.045
458.79	60.340
459.14	61.196
459.49	62.762
459.84	62.329
460.19	59.634
460.54	61.670
460.89	60.773
461.24	59.598
461.59	59.934
461.94	58.985
462.29	60.190
462.64	59.565
462.99	59.573
463.34	60.480
463.69	57.972
464.04	60.534
464.39	59.922
464.74	59.350
465.09	61.649
465.44	59.925
465.79	59.069
466.14	59.406
466.49	59.737
466.84	61.653
467.19	59.133
467.54	58.754
467.89	58.563
468.24	59.335
468.59	58.425
468.94	58.275
469.29	58.428
469.64	59.059
469.99	58.572
470.34	59.468
470.68	60.424
471.03	59.005
471.38	57.946
471.73	59.493
472.08	59.010
472.43	59.121
472.78	59.320
473.13	59.608
473.48	58.187
473.83	59.431
474.17	58.792
474.52	59.531
474.87	59.302
475.22	59.324
475.57	58.048
475.92	58.835
476.27	59.105
476.61	58.567
476.96	58.707
477.31	59.257
477.66	59.391
478.01	58.007
478.36	58.475
478.70	59.310
479.05	59.509
479.40	59.477
479.75	58.646
480.10	58.314
480.45	58.569
480.79	58.549
481.14	58.502
481.49	59.337
481.84	59.138
482.19	58.925
482.53	59.248
482.88	59.858
483.23	58.604
483.58	58.996
483.92	57.890
484.27	57.832
484.62	57.921
484.97	58.476
485.31	57.057
485.66	55.685
486.01	56.768
486.36	60.462
486.70	63.038
487.05	64.540
487.40	60.901
487.75	58.473
488.09	58.974
488.44	56.566
488.79	56.324
489.13	55.757
489.48	55.650
489.83	56.016
490.17	57.392
490.52	56.568
490.87	56.726
491.22	57.192
491.56	57.253
491.91	56.869
492.26	56.772
492.60	56.581
492.95	56.516
493.30	56.925
493.64	56.636
493.99	56.535
494.34	56.054
494.68	56.317
495.03	57.401
495.37	57.479
495.72	55.420
496.07	55.916
496.41	56.800
496.76	58.048
497.11	56.688
497.45	57.143
497.80	55.664
498.14	57.143
498.49	56.250
498.84	55.530
499.18	55.646
499.53	56.457
499.87	57.011
500.22	56.768
500.56	56.590
500.91	56.568
501.26	56.864
501.60	55.678
501.95	56.795
502.29	57.525
502.64	56.756
502.98	55.177
503.33	56.026
503.67	56.607
504.02	56.874
504.36	57.060
504.71	55.719
505.06	55.662
505.40	56.353
505.75	56.330
506.09	56.814
506.44	55.896
506.78	57.064
507.13	56.293
507.47	57.224
507.82	55.587
508.16	56.262
508.51	56.118
508.85	55.786
509.19	55.708
509.54	56.772
509.88	55.998
510.23	56.289
510.57	56.501
510.92	57.039
511.26	54.786
511.61	54.949
511.95	55.735
512.30	55.638
512.64	55.022
512.98	56.178
513.33	57.208
513.67	56.043
514.02	55.953
514.36	56.368
514.70	56.458
515.05	56.517
515.39	55.748
515.74	56.893
516.08	56.154
516.42	55.416
516.77	56.204
517.11	55.493
517.46	55.620
517.80	56.921
518.14	56.910
518.49	56.020
518.83	55.349
519.17	55.627
519.52	56.813
519.86	56.441
520.20	55.644
520.55	55.476
520.89	55.800
521.23	55.723
521.58	55.876
521.92	56.374
522.26	54.582
522.61	55.729
522.95	55.363
523.29	55.632
523.64	55.045
523.98	56.132
524.32	56.676
524.66	55.834
525.01	53.964
525.35	56.404
525.69	55.336
526.04	55.109
526.38	55.460
526.72	55.882
527.06	55.894
527.41	55.802
527.75	57.245
528.09	54.604
528.43	54.648
528.78	55.838
529.12	54.817
529.46	54.581
529.80	56.979
530.15	55.362
530.49	55.635
530.83	54.368
531.17	54.958
531.51	55.114
531.86	54.267
532.20	55.671
532.54	54.638
532.88	54.788
533.22	55.745
533.57	54.934
533.91	55.219
534.25	55.681
534.59	56.149
534.93	54.386
535.27	56.338
535.62	55.998
535.96	56.537
536.30	55.112
536.64	55.796
536.98	55.535
537.32	54.012
537.66	55.084
538.01	54.381
538.35	55.725
538.69	54.387
539.03	55.978
539.37	55.595
539.71	55.916
540.05	56.055
540.39	54.523
540.73	54.220
541.07	53.955
541.42	53.928
541.76	53.677
542.10	53.739
542.44	52.558
542.78	55.170
543.12	53.874
543.46	54.212
543.80	54.496
544.14	53.680
544.48	55.496
544.82	55.057
545.16	55.098
545.50	54.524
545.84	53.460
546.18	55.926
546.52	53.885
546.86	53.145
547.20	54.008
547.54	53.246
547.88	54.792
548.22	53.509
548.56	54.008
548.90	54.328
549.24	53.678
549.58	55.268
549.92	53.635
550.26	52.298
550.60	52.904
550.94	54.075
551.28	52.277
551.62	54.852
551.96	52.362
552.30	53.537
552.64	54.200
552.98	55.770
553.32	56.720
553.66	54.405
554.00	54.224
554.34	53.024
554.68	52.744
555.02	54.139
555.36	53.649
555.69	51.890
556.03	52.837
556.37	54.693
556.71	54.597
557.05	53.930
557.39	53.019
557.73	53.303
558.07	52.053
558.41	53.090
558.75	53.685
559.08	53.514
559.42	53.086
559.76	52.714
560.10	52.847
560.44	53.628
560.78	54.062
561.12	54.433
561.45	54.501
561.79	54.457
562.13	54.898
562.47	53.206
562.81	54.304
563.15	54.735
563.48	51.585
563.82	53.144
564.16	53.604
564.50	53.635
564.84	52.920
565.17	52.118
565.51	52.014
565.85	54.572
566.19	52.938
566.52	52.779
566.86	54.443
567.20	52.365
567.54	54.010
567.88	53.721
568.21	55.040
568.55	54.580
568.89	55.288
569.23	55.133
569.56	53.615
569.90	55.346
570.24	56.189
570.57	55.260
570.91	54.562
571.25	55.077
571.59	54.495
571.92	55.091
572.26	54.526
572.60	54.791
572.93	52.881
573.27	53.892
573.61	53.362
573.95	53.897
574.28	54.567
574.62	54.161
574.96	53.419
575.29	54.131
575.63	54.470
575.97	53.341
576.30	52.726
576.64	53.615
576.98	53.872
577.31	54.665
577.65	55.076
577.98	54.951
578.32	54.955
578.66	54.806
578.99	54.413
579.33	54.002
579.67	53.626
580.00	52.596
580.34	53.229
580.67	53.508
581.01	53.116
581.35	53.965
581.68	54.729
582.02	54.707
582.35	55.788
582.69	55.628
583.02	54.364
583.36	53.399
583.70	53.533
584.03	52.484
584.37	52.456
584.70	52.249
585.04	52.313
585.37	53.380
585.71	53.873
586.04	53.875
586.38	54.225
586.72	53.347
587.05	53.211
587.39	54.076
587.72	54.904
588.06	53.627
588.39	53.149
588.73	53.122
589.06	52.906
589.40	53.811
589.73	53.213
590.07	52.686
590.40	53.651
590.73	52.987
591.07	52.643
591.40	52.683
591.74	52.266
592.07	52.822
592.41	52.642
592.74	52.964
593.08	54.459
593.41	54.739
593.75	54.425
594.08	54.317
594.41	54.231
594.75	52.773
595.08	52.961
595.42	53.831
595.75	52.567
596.09	53.643
596.42	52.884
596.75	52.953
597.09	53.414
597.42	52.642
597.75	53.077
598.09	52.341
598.42	53.317
598.76	51.853
599.09	52.688
599.42	52.129
599.76	52.658
600.09	53.053
600.42	52.819
600.76	52.213
601.09	51.942
601.42	51.596
601.76	52.552
602.09	51.930
602.42	51.254
602.76	51.624
603.09	51.138
603.42	52.421
603.76	52.784
604.09	53.726
604.42	52.844
604.76	51.256
605.09	51.177
605.42	51.475
605.75	51.500
606.09	52.744
606.42	51.149
606.75	51.462
607.09	51.075
607.42	52.254
607.75	51.856
608.08	51.421
608.42	50.504
608.75	51.949
609.08	51.570
609.41	51.345
609.75	51.562
610.08	51.627
610.41	51.105
610.74	51.134
611.07	51.687
611.41	51.076
611.74	51.824
612.07	52.501
612.40	50.618
612.73	51.491
613.07	51.589
613.40	50.626
613.73	51.228
614.06	51.276
614.39	51.166
614.72	50.364
615.06	51.492
615.39	51.136
615.72	51.848
616.05	51.676
616.38	51.362
616.71	51.254
617.05	50.373
617.38	50.401
617.71	51.080
618.04	51.160
618.37	51.913
618.70	51.018
619.03	50.956
619.36	50.493
619.69	51.121
620.03	48.776
620.36	49.877
620.69	50.154
621.02	50.853
621.35	50.943
621.68	51.338
622.01	49.181
622.34	48.884
622.67	50.241
623.00	49.663
623.33	51.360
623.66	51.362
623.99	49.572
624.32	50.877
624.65	50.322
624.99	51.756
625.32	49.967
625.65	49.899
625.98	49.288
626.31	49.823
626.64	48.571
626.97	47.637
627.30	50.266
627.63	48.687
627.96	50.526
628.29	49.105
628.62	48.531
628.95	48.992
629.28	48.598
629.61	50.673
629.94	48.201
630.26	47.966
630.59	47.841
630.92	49.177
631.25	50.537
631.58	50.094
631.91	49.578
632.24	49.952
632.57	47.438
632.90	48.746
633.23	48.469
633.56	46.939
633.89	49.793
634.22	47.401
634.55	46.973
634.88	47.186
635.20	49.516
635.53	49.379
635.86	48.212
636.19	47.402
636.52	48.101
636.85	47.191
637.18	47.193
637.51	48.602
637.83	48.394
638.16	47.926
638.49	46.714
638.82	46.900
639.15	47.194
639.48	49.769
639.81	46.998
640.13	47.939
640.46	45.212
640.79	45.588
641.12	48.199
641.45	48.181
641.77	48.780
642.10	46.194
642.43	49.069
642.76	48.645
643.09	45.890
643.41	46.359
643.74	43.586
644.07	47.448
644.40	45.262
644.73	45.718
645.05	45.374
645.38	46.763
645.71	46.188
646.04	46.485
646.36	46.277
646.69	46.779
647.02	45.566
647.35	48.092
647.67	47.021
648.00	48.248
648.33	49.399
648.66	46.362
648.98	45.578
649.31	46.820
649.64	46.481
649.96	47.215
650.29	43.115
650.62	44.837
650.94	45.195
651.27	43.563
651.60	44.298
651.92	44.377
652.25	45.441
652.58	46.080
652.90	45.785
653.23	46.620
653.56	45.934
653.88	47.753
654.21	44.507
654.54	46.676
654.86	46.884
655.19	45.044
655.52	50.599
655.84	56.868
656.17	66.528
656.49	90.680
656.82	95.809
657.15	73.044
657.47	54.101
657.80	38.931
658.13	29.446
658.45	36.805
658.78	43.114
659.10	40.726
659.43	38.839
659.75	37.860
660.08	35.574
660.41	35.815
660.73	38.084
661.06	39.207
661.38	39.234
661.71	39.655
662.03	44.268
662.36	41.503
662.68	43.340
663.01	45.841
663.33	45.369
663.66	44.505
663.98	45.769
664.31	44.465
664.63	44.509
664.96	43.376
665.28	41.742
665.61	45.280
665.93	41.786
666.26	42.115
666.58	42.435
666.91	45.047
667.23	43.619
667.56	42.209
667.88	44.400
668.21	42.188
668.53	40.734
668.86	45.972
669.18	42.770
669.50	43.340
669.83	42.400
670.15	41.535
670.48	43.254
670.80	43.021
671.13	41.210
671.45	45.079
671.77	46.893
672.10	45.500
672.42	44.822
672.75	44.700
673.07	43.881
673.39	44.376
673.72	45.973
674.04	46.724
674.37	44.186
674.69	45.326
675.01	42.667
675.34	41.794
675.66	41.011
675.98	41.418
676.31	42.969
676.63	48.099
676.95	44.636
677.28	43.347
677.60	42.126
677.92	45.106
678.25	46.618
678.57	44.484
678.89	44.539
679.22	41.289
679.54	44.444
679.86	42.373
680.18	44.942
680.51	44.497
680.83	44.845
681.15	42.414
681.48	44.214
681.80	44.560
682.12	45.280
682.44	41.903
682.77	41.135
683.09	40.341
683.41	41.860
683.73	44.023
684.06	39.114
684.38	39.535
684.70	43.088
685.02	46.472
685.34	44.093
685.67	43.849
685.99	42.638
686.31	40.262
686.63	44.550
686.96	41.798
687.28	42.508
687.60	43.098
687.92	41.479
688.24	42.905
688.56	39.310
688.89	39.927
689.21	43.640
689.53	39.804
689.85	43.393
690.17	39.074
690.49	42.032
690.82	41.188
691.14	41.296
691.46	40.344
691.78	44.567
692.10	42.385
692.42	42.321
692.74	39.927
693.06	39.074
693.39	41.935
693.71	41.165
694.03	40.335
694.35	40.381
694.67	41.478
694.99	37.021
695.31	37.086
695.63	41.558
695.95	41.822
696.27	41.758
696.59	40.929
696.91	38.739
697.23	44.396
697.56	39.511
697.88	42.803
698.20	41.431
698.52	44.508
698.84	42.620
699.16	41.633
699.48	40.377
699.80	37.447
700.12	40.611
700.44	41.475
700.76	38.955
701.08	41.162
701.40	41.710
701.72	36.318
702.04	42.246
702.36	34.555
702.68	38.631
703.00	40.587
703.32	39.163
703.64	38.875
703.96	38.902
704.28	37.592
704.60	35.190
704.91	34.184
705.23	39.178
705.55	35.655
705.87	38.788
706.19	43.865
706.51	37.349
706.83	38.617
707.15	39.683
707.47	40.654
707.79	41.703
708.11	36.653
708.43	40.430
708.74	36.384
709.06	38.051
709.38	39.906
709.70	40.447
710.02	39.535
710.34	39.894
710.66	34.916
710.98	37.158
711.29	36.538
711.61	38.701
711.93	38.177
712.25	35.676
712.57	40.118
712.89	41.176
713.20	38.166
713.52	40.462
713.84	36.212
714.16	42.368
714.48	38.918
714.80	39.221
715.11	37.270
715.43	36.605
715.75	39.737
716.07	38.674
716.39	38.251
716.70	34.036
717.02	40.328
717.34	35.540
717.66	32.886
717.97	33.219
718.29	36.082
718.61	39.474
718.93	35.599
719.24	35.404
719.56	36.503
719.88	36.336
720.20	41.290
720.51	33.230
720.83	35.000
721.15	34.868
721.46	34.932
721.78	39.667
722.10	35.275
722.42	34.564
722.73	31.935
723.05	32.982
723.37	29.167
723.68	36.559
724.00	34.296
724.32	34.155
724.63	34.615
724.95	36.879
725.27	32.404
725.58	34.982
725.90	37.931
726.22	33.229
726.53	34.416
726.85	36.792
727.16	38.066
727.48	36.086
727.80	35.099
728.11	35.336
728.43	40.404
728.74	34.783
729.06	39.073
729.38	35.390
729.69	34.899
730.01	37.798
730.32	33.939
730.64	35.849
730.96	37.578
731.27	35.475
731.59	40.659
731.90	39.740
732.22	35.156
732.53	37.569
732.85	38.000
733.16	37.537
733.48	35.671
733.80	38.719
734.11	35.613
734.43	39.459
734.74	41.519
735.06	35.427
735.37	37.297
735.69	36.216
736.00	36.158
736.32	32.345
736.63	34.167
736.95	33.333
737.26	39.091
737.58	38.182
737.89	34.412
738.21	34.251
738.52	30.492
738.83	33.447
739.15	34.043
739.46	38.095
739.78	38.344
740.09	34.384
740.41	37.026
740.72	38.667
741.04	33.333
741.35	35.088
741.66	30.980
741.98	31.148
742.29	36.820
742.61	32.895
742.92	33.462
743.23	34.657
743.55	37.597
743.86	36.400
744.18	28.512
744.49	30.380
744.80	34.979
745.12	35.443
745.43	34.146
745.74	32.328
746.06	36.017
746.37	39.241
746.68	33.740
747.00	35.417
747.31	37.768
747.62	38.077
747.94	35.628
748.25	34.538
748.56	32.653
748.88	30.342
749.19	34.483
749.50	29.437
749.82	40.964
750.13	34.875
750.44	33.333
750.75	36.308
751.07	35.385
751.38	33.438
751.69	33.227
752.01	33.981
752.32	38.562
752.63	34.354
752.94	33.910
753.26	32.714
753.57	30.000
753.88	36.704
754.19	36.977
754.51	35.370
754.82	35.691
755.13	34.754
755.44	36.177
755.75	34.539
756.07	36.418
756.38	33.962
756.69	33.735
757.00	34.626
757.31	37.978
757.63	34.271
757.94	35.915
758.25	37.020
758.56	35.730
758.87	35.000
759.18	33.600
759.50	38.244
759.81	36.415
760.12	40.162
760.43	36.979
760.74	37.685
761.05	38.000
761.36	33.735
761.67	34.518
761.99	32.432
762.30	29.573
762.61	29.043
762.92	35.075
763.23	29.963
763.54	30.216
763.85	35.395
764.16	37.374
764.47	36.620
764.78	34.505
765.10	38.123
765.41	33.590
765.72	32.275
766.03	35.593
766.34	31.348
766.65	28.571
766.96	32.669
767.27	32.258
767.58	32.338
767.89	30.769
768.20	31.455
768.51	29.167
768.82	32.932
769.13	30.303
769.44	28.077
769.75	32.852
770.06	33.846
770.37	37.795
770.68	25.106
770.99	33.198
771.30	38.148
771.61	37.262
771.92	31.481
772.23	36.032
772.54	29.630
772.85	32.258
773.16	35.238
773.47	26.984
773.78	27.027
774.09	32.955
774.39	30.000
774.70	31.148
775.01	23.171
775.32	23.529
775.63	26.380
775.94	20.382
776.25	27.097
776.56	22.436
776.87	23.810
777.18	26.207
777.48	23.077
777.79	18.243
778.10	15.441
778.41	15.972
778.72	25.517
779.03	27.160
779.34	21.818
779.65	24.352
779.95	30.556
780.26	28.409
780.57	25.161
780.88	36.232
781.19	29.677
781.50	34.706
781.80	33.333
782.11	37.037
782.42	26.263
782.73	29.341
783.04	22.905
783.34	22.424
783.65	23.529
783.96	29.814
784.27	24.405
784.57	27.152
784.88	29.286
785.19	20.472
785.50	13.386
785.81	21.053
786.11	20.000
786.42	21.583
786.73	15.827
787.04	19.549
787.34	20.492
787.65	20.000
787.96	25.373
788.26	27.273
788.57	28.671
788.88	23.684
789.19	28.105
789.49	21.233
789.80	26.241
790.11	24.409
790.41	19.531
790.72	26.271
791.03	8.738
791.33	15.652
791.64	20.175
791.95	14.286
792.25	15.238
792.56	16.071
792.87	14.583
793.17	19.643
793.48	10.417
793.79	7.229
794.09	16.514
794.40	21.101
794.70	25.170
795.01	18.831
795.32	22.603
795.62	23.944
795.93	17.424
796.23	23.770
796.54	19.643
796.85	12.766
797.15	7.609
797.46	2.740
797.76	7.500
798.07	13.043
798.37	13.402
798.68	16.883
798.99	19.540
799.29	12.360
799.60	17.021
799.90	16.867
800.21	13.846
800.51	-5.970
800.82	-4.412
801.12	0.000
801.43	8.824
801.73	-6.780
802.04	19.697
802.34	-8.333
802.65	-5.085
802.95	8.955
803.26	5.085
803.56	1.370
803.87	-4.286
804.17	12.329
804.48	-31.579
804.78	5.556
805.09	-18.966
805.39	4.054
805.70	-12.676
806.00	1.220
806.30	0.000
806.61	2.740
806.91	17.308
807.22	3.333
807.52	1.149
807.83	18.056
808.13	13.253
808.43	12.360
808.74	-1.250
809.04	-4.412
809.35	9.333
809.65	-1.429
809.95	1.370
810.26	-12.281
810.56	6.897
810.86	27.941
811.17	-7.018
811.47	-8.197
811.77	-13.333
812.08	-5.085
812.38	5.000
812.69	-1.724
812.99	-11.321
813.29	-20.513
813.59	-6.000
813.90	5.263
814.20	-9.091
814.50	18.310
814.81	2.564
815.11	4.918
815.41	-2.985
815.72	3.448
816.02	1.786
816.32	-2.222
816.62	-18.182
816.93	-28.889
817.23	-5.556
817.53	-4.255
817.84	-19.048
818.14	-32.353
818.44	-16.327
818.74	0.000
819.04	-48.718
819.35	-28.571
819.65	-53.846
819.95	5.660
820.25	6.667
820.56	-42.857
820.86	-21.875
821.16	-28.205
821.46	-16.279
821.76	-14.000
822.07	1.786
822.37	-17.391
822.67	-31.915
822.97	-40.541
823.27	-22.500
823.57	-12.245
823.88	-17.778
824.18	-7.500
824.48	-46.667
824.78	-20.000
825.08	-18.182
825.38	-20.000
825.69	-27.660
825.99	-5.556
826.29	-54.286
826.59	-38.462
826.89	-23.256
827.19	-18.000
827.49	-20.588
827.79	-10.417
828.09	-37.838
828.39	-56.667
828.70	-29.268
829.00	-46.512
829.30	-82.143
829.60	-29.412
829.90	-30.435
830.20	-45.714
830.50	-31.034
830.80	-66.667
831.10	-46.154
831.40	-17.647
831.70	-71.429
832.00	-25.806
832.30	-164.706
832.60	-50.000
832.90	-146.154
833.20	-73.684
833.50	-95.000
833.80	-131.579
834.10	-95.238
834.40	-50.000
834.70	-21.875
835.00	-65.714
835.30	-17.647
835.60	-56.667
835.90	-32.000
836.20	-59.091
836.50	-36.000
836.80	-39.394
837.10	-51.852
837.40	-40.741
837.70	-175.000
838.00	-32.143
838.30	-91.304
838.60	-37.931
838.90	-128.571
839.19	-113.043
839.49	-166.667
839.79	-56.522
840.09	-125.000
840.39	-65.000
840.69	-25.806
840.99	-64.286
841.29	-146.667
841.59	-163.158
841.88	-10.256
842.18	-46.154
842.48	-240.000
842.78	-95.000
843.08	-40.000
843.38	-9.677
843.68	-111.111
843.97	-14.706
844.27	-100.000
844.57	-94.737
844.87	-200.000
845.17	-93.333
845.47	-66.667
845.76	-109.524
846.06	-266.667
846.36	-88.235
846.66	-46.154
846.96	-100.000
847.25	-123.529
847.55	-39.130
847.85	-90.000
848.15	-94.118
848.44	-109.091
848.74	-61.905
849.04	-83.333
849.34	-50.000
849.63	-78.261
849.93	1800.000
850.23	-120.000
850.53	-7.692
850.82	-172.727
851.12	-45.455
851.42	-181.818
851.71	-115.385
852.01	-175.000
852.31	-161.538
852.61	-115.789
852.90	-150.000
853.20	-72.222
853.50	-277.778
853.79	-109.524
854.09	-68.182
854.39	-191.667
854.68	-22.581
854.98	-73.077
855.28	-55.556
855.57	-71.429
855.87	-72.000
856.17	-54.545
856.46	-37.037
856.76	-66.667
857.05	-91.304
857.35	-70.833
857.65	-138.462
857.94	-38.095
858.24	-55.556
858.53	-56.522
858.83	-52.941
859.13	-82.353
859.42	-94.118
859.72	-135.714
860.01	-100.000
860.31	-255.556
860.60	-150.000
860.90	-126.667
861.20	-105.556
861.49	-153.846
861.79	-46.667
862.08	-138.462
862.38	-43.750
862.67	-100.000
862.97	-137.500
863.26	-155.556
863.56	-120.000
863.85	-145.455
864.15	-88.889
864.44	-666.667
864.74	-164.286
865.03	-125.000
865.33	-240.000
865.62	-48.387
865.92	-59.091
866.21	-56.522
866.51	-171.429
866.80	-600.000
867.10	-216.667
867.39	-158.333
867.69	1800.000
867.98	-200.000
868.27	-76.471
868.57	-3300.000
868.86	-250.000
869.16	-90.476
869.45	-54.167
869.75	-145.455
870.04	-157.143
870.33	-91.667
870.63	-371.429
870.92	-625.000
871.22	-412.500
871.51	-190.909
871.80	-766.667
872.10	-1200.000
>>>>>End Processed Spectral Data<<<<<
