SpectraSuite Data File
++++++++++++++++++++++++++++++++++++
Date: Thu May 14 14:50:09 PDT 2015
User: schluterlab
Dark Spectrum Present: Yes
Reference Spectrum Present: Yes
Number of Sampled Component Spectra: 1
Spectrometers: USB2E3373
Integration Time (usec): 3000 (USB2E3373)
Spectra Averaged: 3 (USB2E3373)
Boxcar Smoothing: 0 (USB2E3373)
Correct for Electrical Dark: No (USB2E3373)
Strobe/Lamp Enabled: No (USB2E3373)
Correct for Detector Non-linearity: No (USB2E3373)
Correct for Stray Light: No (USB2E3373)
Number of Pixels in Processed Spectrum: 2048
>>>>>Begin Processed Spectral Data<<<<<
178.53	0.000
178.91	57.143
179.29	-1700.000
179.67	-1000.000
180.04	171.429
180.42	110.000
180.80	160.000
181.18	-500.000
181.56	-200.000
181.94	275.000
182.31	-200.000
182.69	400.000
183.07	-450.000
183.45	325.000
183.83	-16.667
184.20	-100.000
184.58	600.000
184.96	-275.000
185.34	-22.222
185.72	100.000
186.09	88.889
186.47	650.000
186.85	360.000
187.23	-77.778
187.61	-1000.000
187.98	140.000
188.36	425.000
188.74	-25.000
189.12	66.667
189.49	-18.750
189.87	-162.500
190.25	-33.333
190.63	-120.000
191.00	-111.111
191.38	0.000
191.76	-175.000
192.14	-133.333
192.51	600.000
192.89	66.667
193.27	0.000
193.65	-71.429
194.02	-1400.000
194.40	28.571
194.78	85.714
195.15	0.000
195.53	-136.364
195.91	0.000
196.29	-200.000
196.66	15.385
197.04	-1200.000
197.42	-85.714
197.79	-150.000
198.17	-125.000
198.55	-71.429
198.92	44.444
199.30	-12.500
199.68	0.000
200.05	-78.571
200.43	-200.000
200.81	185.714
201.18	0.000
201.56	122.222
201.94	0.000
202.31	300.000
202.69	-133.333
203.07	-400.000
203.44	-11.111
203.82	-275.000
204.19	66.667
204.57	-66.667
204.95	-200.000
205.32	0.000
205.70	100.000
206.08	-50.000
206.45	-50.000
206.83	260.000
207.20	16.667
207.58	-60.000
207.96	-133.333
208.33	33.333
208.71	66.667
209.08	216.667
209.46	0.000
209.84	183.333
210.21	50.000
210.59	350.000
210.96	400.000
211.34	0.000
211.71	-137.500
212.09	-1100.000
212.46	0.000
212.84	900.000
213.22	-320.000
213.59	-125.000
213.97	-30.000
214.34	-333.333
214.72	66.667
215.09	-325.000
215.47	0.000
215.84	28.571
216.22	600.000
216.59	-140.000
216.97	40.000
217.34	-50.000
217.72	-25.000
218.09	-275.000
218.47	-75.000
218.84	0.000
219.22	-20.000
219.59	-17.647
219.97	45.000
220.34	500.000
220.72	-44.444
221.09	0.000
221.47	-366.667
221.84	-90.000
222.22	-57.143
222.59	0.000
222.97	-37.500
223.34	-240.000
223.72	-600.000
224.09	-175.000
224.46	-100.000
224.84	40.000
225.21	-114.286
225.59	-200.000
225.96	-175.000
226.34	7.692
226.71	266.667
227.08	-50.000
227.46	-33.333
227.83	-175.000
228.21	21.053
228.58	100.000
228.95	-50.000
229.33	16.667
229.70	-100.000
230.08	31.579
230.45	90.000
230.82	100.000
231.20	7.143
231.57	8.333
231.95	-54.545
232.32	-36.364
232.69	-5.000
233.07	-125.000
233.44	-64.706
233.81	-60.000
234.19	77.778
234.56	31.818
234.93	51.724
235.31	42.105
235.68	38.889
236.05	-55.000
236.43	65.385
236.80	48.000
237.17	44.444
237.55	3.030
237.92	-10.000
238.29	51.613
238.67	38.636
239.04	8.333
239.41	7.143
239.79	26.087
240.16	35.185
240.53	23.913
240.91	13.725
241.28	21.311
241.65	55.224
242.02	36.486
242.40	12.308
242.77	28.000
243.14	31.707
243.51	32.895
243.89	38.462
244.26	37.624
244.63	45.098
245.00	42.056
245.38	47.368
245.75	34.513
246.12	45.238
246.49	34.109
246.87	43.571
247.24	41.060
247.61	39.474
247.98	46.309
248.36	37.654
248.73	38.650
249.10	34.973
249.47	40.796
249.84	41.885
250.22	40.415
250.59	44.444
250.96	42.273
251.33	37.245
251.70	36.325
252.08	39.583
252.45	43.852
252.82	41.322
253.19	37.500
253.56	40.684
253.94	40.000
254.31	41.288
254.68	42.657
255.05	40.717
255.42	39.116
255.79	36.246
256.16	41.391
256.54	39.735
256.91	41.311
257.28	40.000
257.65	39.490
258.02	39.528
258.39	37.607
258.76	44.648
259.14	42.816
259.51	41.787
259.88	37.677
260.25	39.722
260.62	39.452
260.99	44.536
261.36	44.236
261.73	38.992
262.10	40.934
262.47	41.823
262.85	44.444
263.22	38.701
263.59	41.316
263.96	40.921
264.33	39.642
264.70	42.222
265.07	42.482
265.44	44.444
265.81	40.972
266.18	40.590
266.55	43.304
266.92	41.458
267.29	41.138
267.66	42.794
268.03	40.611
268.40	39.248
268.77	40.774
269.14	38.326
269.51	43.202
269.88	42.213
270.25	40.644
270.62	43.038
270.99	40.404
271.36	40.594
271.73	40.864
272.10	41.082
272.47	43.287
272.84	36.345
273.21	40.481
273.58	42.540
273.95	40.962
274.32	38.403
274.69	39.652
275.06	42.491
275.43	38.078
275.80	38.977
276.17	39.444
276.54	40.485
276.91	38.998
277.28	39.964
277.65	40.395
278.02	37.500
278.39	41.486
278.76	36.204
279.13	38.830
279.50	40.206
279.87	37.030
280.23	35.563
280.60	39.492
280.97	39.309
281.34	38.710
281.71	39.932
282.08	37.542
282.45	37.152
282.82	35.950
283.19	37.480
283.56	38.197
283.92	38.589
284.29	38.705
284.66	39.409
285.03	32.853
285.40	38.640
285.77	35.913
286.14	39.695
286.51	37.443
286.87	37.441
287.24	37.952
287.61	36.024
287.98	35.952
288.35	34.911
288.72	35.799
289.08	37.042
289.45	34.763
289.82	35.843
290.19	35.057
290.56	36.056
290.93	35.806
291.29	34.573
291.66	33.058
292.03	32.836
292.40	34.830
292.77	33.827
293.13	35.995
293.50	32.852
293.87	33.691
294.24	34.533
294.60	33.123
294.97	30.604
295.34	32.778
295.71	31.400
296.08	31.654
296.44	31.250
296.81	31.303
297.18	33.250
297.55	32.429
297.91	30.724
298.28	29.976
298.65	31.153
299.02	29.752
299.38	29.977
299.75	29.673
300.12	30.324
300.48	29.378
300.85	29.921
301.22	30.089
301.59	30.822
301.95	28.814
302.32	29.889
302.69	30.340
303.05	29.924
303.42	30.820
303.79	28.646
304.15	29.758
304.52	29.281
304.89	31.309
305.25	29.193
305.62	31.034
305.99	30.206
306.35	29.839
306.72	30.093
307.09	29.848
307.45	29.400
307.82	29.062
308.19	29.667
308.55	30.087
308.92	28.043
309.29	29.789
309.65	29.142
310.02	29.703
310.38	29.626
310.75	30.485
311.12	28.955
311.48	30.010
311.85	30.579
312.22	29.791
312.58	30.610
312.95	29.541
313.31	31.888
313.68	31.319
314.05	31.527
314.41	32.149
314.78	31.244
315.14	30.944
315.51	31.671
315.87	32.223
316.24	31.598
316.61	33.837
316.97	32.851
317.34	31.570
317.70	33.799
318.07	32.804
318.43	32.823
318.80	34.197
319.16	33.820
319.53	32.648
319.89	32.691
320.26	35.765
320.62	33.511
320.99	34.164
321.35	33.919
321.72	35.535
322.08	34.175
322.45	34.327
322.81	35.379
323.18	34.513
323.54	34.741
323.91	36.032
324.27	34.768
324.64	38.035
325.00	37.148
325.37	36.527
325.73	38.760
326.10	37.875
326.46	37.134
326.83	40.833
327.19	38.819
327.56	40.474
327.92	39.890
328.29	40.726
328.65	40.034
329.01	40.778
329.38	41.533
329.74	41.610
330.11	43.836
330.47	41.870
330.84	43.669
331.20	40.500
331.56	42.028
331.93	42.594
332.29	42.881
332.66	42.608
333.02	41.457
333.38	42.198
333.75	41.582
334.11	44.037
334.48	42.409
334.84	43.585
335.20	41.226
335.57	43.002
335.93	43.058
336.29	42.679
336.66	43.818
337.02	41.555
337.38	43.963
337.75	41.488
338.11	43.566
338.47	42.349
338.84	43.401
339.20	41.955
339.56	41.598
339.93	42.118
340.29	42.110
340.65	42.822
341.02	43.256
341.38	43.088
341.74	41.404
342.11	42.237
342.47	42.256
342.83	42.512
343.20	43.009
343.56	43.224
343.92	41.873
344.28	42.344
344.65	43.798
345.01	42.434
345.37	43.468
345.73	42.245
346.10	43.292
346.46	42.405
346.82	42.547
347.19	43.086
347.55	42.944
347.91	41.530
348.27	42.792
348.63	42.650
349.00	43.475
349.36	42.900
349.72	43.080
350.08	42.868
350.45	44.183
350.81	43.439
351.17	42.556
351.53	42.835
351.89	42.141
352.26	43.433
352.62	43.433
352.98	43.435
353.34	41.001
353.70	44.145
354.07	43.070
354.43	43.280
354.79	42.408
355.15	42.752
355.51	43.421
355.87	41.960
356.24	42.966
356.60	43.163
356.96	44.329
357.32	43.048
357.68	43.192
358.04	43.787
358.40	42.612
358.77	43.348
359.13	42.836
359.49	43.346
359.85	43.800
360.21	42.755
360.57	42.426
360.93	44.922
361.29	43.439
361.66	44.967
362.02	45.024
362.38	43.781
362.74	45.531
363.10	45.323
363.46	45.706
363.82	45.099
364.18	45.883
364.54	44.813
364.90	45.686
365.26	45.448
365.62	45.200
365.98	45.882
366.35	45.235
366.71	45.238
367.07	46.211
367.43	45.502
367.79	46.782
368.15	45.686
368.51	45.467
368.87	46.375
369.23	45.067
369.59	47.336
369.95	45.842
370.31	46.928
370.67	47.318
371.03	46.053
371.39	45.937
371.75	47.937
372.11	47.764
372.47	47.326
372.83	47.055
373.19	46.298
373.55	46.003
373.91	46.626
374.27	47.154
374.63	47.158
374.99	47.679
375.35	48.636
375.71	47.419
376.07	46.998
376.42	47.796
376.78	48.726
377.14	47.473
377.50	48.640
377.86	48.461
378.22	49.521
378.58	49.584
378.94	49.002
379.30	48.389
379.66	50.029
380.02	49.106
380.38	50.806
380.74	49.070
381.09	49.768
381.45	49.318
381.81	51.288
382.17	50.356
382.53	49.825
382.89	49.323
383.25	51.524
383.61	51.215
383.97	51.413
384.32	51.495
384.68	49.942
385.04	51.938
385.40	51.679
385.76	52.462
386.12	51.586
386.48	52.647
386.83	52.801
387.19	51.506
387.55	52.700
387.91	53.139
388.27	53.176
388.62	52.405
388.98	51.325
389.34	53.094
389.70	53.399
390.06	53.404
390.42	52.831
390.77	53.402
391.13	52.934
391.49	53.986
391.85	54.606
392.20	54.152
392.56	53.455
392.92	54.417
393.28	55.058
393.64	52.737
393.99	54.561
394.35	54.848
394.71	54.491
395.07	55.868
395.42	53.341
395.78	55.393
396.14	55.437
396.50	55.048
396.85	54.621
397.21	55.266
397.57	55.713
397.92	55.155
398.28	55.242
398.64	55.549
399.00	54.398
399.35	54.974
399.71	55.109
400.07	55.474
400.42	55.471
400.78	55.382
401.14	55.208
401.49	55.998
401.85	56.105
402.21	56.431
402.57	56.573
402.92	55.792
403.28	54.977
403.63	55.072
403.99	56.116
404.35	54.918
404.70	55.411
405.06	55.761
405.42	54.567
405.77	56.489
406.13	55.484
406.49	55.800
406.84	55.346
407.20	54.667
407.55	55.300
407.91	55.688
408.27	54.299
408.62	56.079
408.98	54.614
409.34	55.249
409.69	56.737
410.05	55.510
410.40	56.032
410.76	56.197
411.11	56.341
411.47	55.897
411.83	56.085
412.18	56.325
412.54	55.661
412.89	55.763
413.25	55.982
413.60	55.485
413.96	56.818
414.31	55.524
414.67	56.291
415.03	55.385
415.38	56.683
415.74	56.323
416.09	56.385
416.45	56.043
416.80	55.263
417.16	58.238
417.51	57.410
417.87	57.633
418.22	57.305
418.58	56.691
418.93	58.615
419.29	57.337
419.64	57.743
420.00	57.211
420.35	57.440
420.71	57.783
421.06	57.792
421.42	58.142
421.77	57.781
422.12	57.770
422.48	58.935
422.83	59.419
423.19	59.416
423.54	59.292
423.90	57.869
424.25	60.960
424.61	59.300
424.96	58.265
425.31	59.607
425.67	59.420
426.02	60.487
426.38	59.874
426.73	59.487
427.09	61.822
427.44	59.858
427.79	60.475
428.15	60.674
428.50	61.573
428.85	61.424
429.21	62.819
429.56	61.797
429.92	61.032
430.27	62.217
430.62	62.433
430.98	63.256
431.33	61.388
431.68	62.452
432.04	62.671
432.39	62.721
432.74	63.242
433.10	63.223
433.45	61.817
433.80	61.856
434.16	63.946
434.51	64.132
434.86	65.309
435.22	65.994
435.57	64.446
435.92	65.331
436.28	64.676
436.63	66.466
436.98	64.949
437.34	64.543
437.69	64.447
438.04	64.728
438.39	65.422
438.75	64.859
439.10	65.592
439.45	64.841
439.81	65.763
440.16	65.255
440.51	65.385
440.86	64.647
441.22	65.702
441.57	67.453
441.92	65.761
442.27	67.576
442.63	65.425
442.98	66.222
443.33	65.492
443.68	67.493
444.03	67.827
444.39	66.343
444.74	66.820
445.09	67.410
445.44	67.861
445.79	67.577
446.15	66.804
446.50	66.718
446.85	67.704
447.20	66.876
447.55	67.992
447.91	68.796
448.26	67.759
448.61	67.428
448.96	68.616
449.31	67.709
449.66	68.192
450.02	67.563
450.37	68.514
450.72	68.784
451.07	67.369
451.42	68.977
451.77	67.204
452.12	69.752
452.47	67.974
452.83	69.257
453.18	68.651
453.53	67.835
453.88	67.863
454.23	68.701
454.58	70.575
454.93	68.689
455.28	69.296
455.63	68.732
455.98	69.553
456.34	68.669
456.69	68.548
457.04	70.331
457.39	69.900
457.74	70.022
458.09	70.071
458.44	69.504
458.79	68.953
459.14	69.061
459.49	69.892
459.84	70.567
460.19	68.018
460.54	70.074
460.89	70.513
461.24	70.517
461.59	70.227
461.94	67.941
462.29	70.493
462.64	68.497
462.99	69.429
463.34	69.630
463.69	69.285
464.04	71.206
464.39	69.507
464.74	69.441
465.09	70.127
465.44	70.172
465.79	69.487
466.14	68.734
466.49	69.737
466.84	71.515
467.19	70.289
467.54	69.095
467.89	70.345
468.24	69.695
468.59	69.311
468.94	69.580
469.29	70.066
469.64	69.358
469.99	71.574
470.34	69.431
470.68	72.386
471.03	71.644
471.38	70.831
471.73	71.001
472.08	71.447
472.43	72.065
472.78	71.033
473.13	71.302
473.48	71.360
473.83	70.400
474.17	71.102
474.52	71.076
474.87	69.712
475.22	69.972
475.57	70.665
475.92	69.836
476.27	70.181
476.61	69.938
476.96	70.386
477.31	71.040
477.66	70.829
478.01	71.225
478.36	69.541
478.70	71.084
479.05	72.648
479.40	71.422
479.75	71.422
480.10	70.346
480.45	70.784
480.79	70.522
481.14	71.048
481.49	71.286
481.84	70.888
482.19	72.129
482.53	71.141
482.88	71.245
483.23	70.431
483.58	70.524
483.92	69.814
484.27	70.195
484.62	70.008
484.97	69.712
485.31	68.321
485.66	66.325
486.01	65.245
486.36	67.932
486.70	70.520
487.05	71.890
487.40	70.072
487.75	68.092
488.09	68.780
488.44	68.095
488.79	68.769
489.13	68.284
489.48	69.320
489.83	68.692
490.17	70.028
490.52	69.828
490.87	69.205
491.22	71.317
491.56	69.369
491.91	70.345
492.26	69.364
492.60	71.185
492.95	69.987
493.30	70.282
493.64	71.967
493.99	70.395
494.34	69.904
494.68	70.150
495.03	70.749
495.37	70.972
495.72	69.796
496.07	70.684
496.41	69.841
496.76	70.892
497.11	71.592
497.45	71.990
497.80	70.280
498.14	70.658
498.49	70.267
498.84	71.892
499.18	71.300
499.53	70.897
499.87	70.681
500.22	71.282
500.56	70.760
500.91	71.533
501.26	72.000
501.60	70.614
501.95	70.473
502.29	70.470
502.64	71.753
502.98	69.629
503.33	70.324
503.67	69.996
504.02	69.571
504.36	71.090
504.71	72.164
505.06	69.804
505.40	71.389
505.75	70.719
506.09	70.120
506.44	72.331
506.78	71.055
507.13	71.000
507.47	71.104
507.82	72.064
508.16	72.084
508.51	71.871
508.85	71.705
509.19	72.572
509.54	71.758
509.88	71.734
510.23	72.705
510.57	71.919
510.92	71.795
511.26	71.573
511.61	70.449
511.95	73.011
512.30	73.166
512.64	71.864
512.98	71.336
513.33	72.883
513.67	72.871
514.02	73.071
514.36	72.788
514.70	73.698
515.05	74.870
515.39	72.546
515.74	73.065
516.08	73.111
516.42	74.568
516.77	73.712
517.11	72.047
517.46	73.489
517.80	73.811
518.14	73.885
518.49	73.373
518.83	72.751
519.17	73.775
519.52	72.379
519.86	72.070
520.20	73.642
520.55	73.165
520.89	73.029
521.23	72.697
521.58	73.390
521.92	73.541
522.26	73.196
522.61	75.231
522.95	74.221
523.29	74.080
523.64	74.271
523.98	74.558
524.32	75.874
524.66	74.104
525.01	73.613
525.35	73.866
525.69	73.318
526.04	72.445
526.38	74.425
526.72	73.068
527.06	73.959
527.41	72.828
527.75	74.406
528.09	74.675
528.43	73.712
528.78	72.832
529.12	73.567
529.46	72.344
529.80	73.799
530.15	73.971
530.49	74.259
530.83	74.026
531.17	72.640
531.51	74.609
531.86	74.339
532.20	74.939
532.54	72.711
532.88	73.212
533.22	73.129
533.57	72.014
533.91	71.773
534.25	72.583
534.59	71.264
534.93	72.326
535.27	72.845
535.62	73.962
535.96	72.574
536.30	73.561
536.64	72.553
536.98	73.247
537.32	72.901
537.66	73.238
538.01	71.964
538.35	72.473
538.69	72.296
539.03	73.452
539.37	72.261
539.71	72.733
540.05	71.283
540.39	72.922
540.73	72.192
541.07	72.410
541.42	71.707
541.76	72.420
542.10	72.256
542.44	71.559
542.78	71.959
543.12	70.501
543.46	71.917
543.80	70.803
544.14	72.412
544.48	71.690
544.82	72.890
545.16	71.616
545.50	71.660
545.84	71.219
546.18	73.272
546.52	71.146
546.86	71.635
547.20	71.819
547.54	71.973
547.88	71.609
548.22	70.702
548.56	71.738
548.90	72.478
549.24	71.489
549.58	71.104
549.92	72.130
550.26	72.557
550.60	71.219
550.94	71.604
551.28	72.013
551.62	72.709
551.96	71.715
552.30	72.913
552.64	72.309
552.98	72.614
553.32	74.534
553.66	71.447
554.00	71.879
554.34	72.523
554.68	70.884
555.02	72.339
555.36	72.715
555.69	71.044
556.03	71.059
556.37	70.839
556.71	71.592
557.05	71.310
557.39	71.400
557.73	71.797
558.07	71.854
558.41	72.226
558.75	72.279
559.08	73.556
559.42	71.811
559.76	71.235
560.10	71.735
560.44	72.955
560.78	72.875
561.12	73.153
561.45	72.810
561.79	71.856
562.13	71.842
562.47	69.914
562.81	71.899
563.15	70.391
563.48	71.908
563.82	70.556
564.16	70.866
564.50	69.249
564.84	70.206
565.17	70.882
565.51	68.930
565.85	71.615
566.19	69.988
566.52	73.259
566.86	71.251
567.20	69.005
567.54	69.888
567.88	71.407
568.21	70.553
568.55	69.065
568.89	69.224
569.23	68.441
569.56	68.230
569.90	68.033
570.24	68.196
570.57	66.902
570.91	67.330
571.25	66.358
571.59	66.797
571.92	66.045
572.26	66.543
572.60	66.667
572.93	65.767
573.27	65.608
573.61	65.008
573.95	64.312
574.28	64.915
574.62	65.530
574.96	64.380
575.29	64.089
575.63	64.611
575.97	64.910
576.30	64.125
576.64	64.018
576.98	64.191
577.31	64.849
577.65	64.693
577.98	64.759
578.32	63.872
578.66	63.475
578.99	64.039
579.33	64.117
579.67	63.441
580.00	63.273
580.34	63.809
580.67	62.974
581.01	64.042
581.35	63.647
581.68	63.194
582.02	63.860
582.35	64.173
582.69	64.677
583.02	64.605
583.36	64.428
583.70	63.667
584.03	63.619
584.37	64.330
584.70	62.763
585.04	62.916
585.37	63.522
585.71	63.646
586.04	63.474
586.38	64.044
586.72	63.650
587.05	65.183
587.39	64.597
587.72	65.144
588.06	64.845
588.39	64.078
588.73	64.444
589.06	65.124
589.40	65.980
589.73	64.557
590.07	65.816
590.40	65.855
590.73	66.066
591.07	66.530
591.40	65.202
591.74	65.938
592.07	66.585
592.41	65.852
592.74	65.708
593.08	65.414
593.41	66.958
593.75	65.345
594.08	66.707
594.41	65.801
594.75	65.327
595.08	66.050
595.42	66.396
595.75	65.386
596.09	65.842
596.42	65.711
596.75	66.499
597.09	65.657
597.42	65.435
597.75	65.269
598.09	66.071
598.42	66.506
598.76	65.380
599.09	65.575
599.42	64.331
599.76	65.038
600.09	65.465
600.42	65.465
600.76	65.357
601.09	64.587
601.42	64.367
601.76	65.241
602.09	64.939
602.42	64.268
602.76	65.904
603.09	65.198
603.42	66.944
603.76	65.574
604.09	66.359
604.42	65.248
604.76	64.574
605.09	64.978
605.42	65.311
605.75	65.385
606.09	64.502
606.42	63.517
606.75	64.618
607.09	65.015
607.42	65.318
607.75	64.830
608.08	65.075
608.42	64.006
608.75	64.635
609.08	65.323
609.41	65.549
609.75	65.759
610.08	66.623
610.41	64.911
610.74	64.874
611.07	65.409
611.41	65.830
611.74	66.651
612.07	66.433
612.40	66.302
612.73	67.286
613.07	66.259
613.40	66.651
613.73	66.105
614.06	65.996
614.39	65.258
614.72	65.405
615.06	65.881
615.39	65.152
615.72	66.161
616.05	65.857
616.38	66.044
616.71	65.204
617.05	64.803
617.38	65.383
617.71	66.145
618.04	66.379
618.37	67.541
618.70	68.213
619.03	68.041
619.36	66.584
619.69	68.225
620.03	67.043
620.36	67.117
620.69	68.106
621.02	66.798
621.35	71.118
621.68	68.908
622.01	67.829
622.34	68.759
622.67	67.423
623.00	66.802
623.33	69.144
623.66	67.834
623.99	66.886
624.32	67.316
624.65	68.018
624.99	68.791
625.32	68.191
625.65	68.847
625.98	66.915
626.31	69.242
626.64	68.571
626.97	69.017
627.30	67.578
627.63	67.592
627.96	68.544
628.29	68.405
628.62	68.682
628.95	70.289
629.28	69.839
629.61	70.202
629.94	70.293
630.26	70.424
630.59	69.862
630.92	69.870
631.25	69.499
631.58	69.962
631.91	71.884
632.24	72.719
632.57	71.157
632.90	72.116
633.23	71.327
633.56	69.592
633.89	70.868
634.22	72.973
634.55	69.311
634.88	71.104
635.20	71.905
635.53	72.429
635.86	70.748
636.19	72.534
636.52	71.835
636.85	70.276
637.18	69.543
637.51	71.935
637.83	71.539
638.16	73.618
638.49	71.127
638.82	70.124
639.15	71.707
639.48	70.670
639.81	71.594
640.13	71.025
640.46	69.576
640.79	70.466
641.12	72.547
641.45	70.263
641.77	75.866
642.10	71.916
642.43	74.867
642.76	72.493
643.09	72.466
643.41	73.950
643.74	72.414
644.07	74.345
644.40	72.843
644.73	73.440
645.05	73.568
645.38	74.245
645.71	72.727
646.04	72.740
646.36	71.387
646.69	74.540
647.02	74.771
647.35	73.282
647.67	73.752
648.00	73.408
648.33	73.273
648.66	71.041
648.98	70.340
649.31	73.478
649.64	72.112
649.96	70.690
650.29	71.905
650.62	72.560
650.94	73.574
651.27	70.509
651.60	70.029
651.92	71.733
652.25	71.780
652.58	68.226
652.90	72.238
653.23	73.521
653.56	69.900
653.88	69.101
654.21	70.282
654.54	71.532
654.86	72.805
655.19	70.263
655.52	67.438
655.84	63.457
656.17	73.704
656.49	99.465
656.82	100.008
657.15	92.081
657.47	62.259
657.80	45.717
658.13	35.519
658.45	46.033
658.78	54.718
659.10	53.607
659.43	51.496
659.75	52.533
660.08	51.541
660.41	55.749
660.73	57.811
661.06	64.758
661.38	67.305
661.71	69.310
662.03	73.369
662.36	73.703
662.68	76.735
663.01	70.796
663.33	73.535
663.66	76.374
663.98	73.077
664.31	71.670
664.63	73.603
664.96	71.506
665.28	70.236
665.61	73.427
665.93	71.071
666.26	72.222
666.58	70.111
666.91	75.327
667.23	70.095
667.56	71.795
667.88	76.200
668.21	74.219
668.53	69.305
668.86	71.316
669.18	73.523
669.50	71.968
669.83	72.000
670.15	71.654
670.48	73.611
670.80	69.790
671.13	66.730
671.45	70.079
671.77	70.810
672.10	69.333
672.42	70.874
672.75	67.127
673.07	68.358
673.39	64.869
673.72	69.631
674.04	68.276
674.37	69.946
674.69	65.785
675.01	70.095
675.34	69.466
675.66	67.978
675.98	70.522
676.31	71.680
676.63	72.814
676.95	70.881
677.28	73.589
677.60	66.339
677.92	71.785
678.25	70.750
678.57	70.285
678.89	68.942
679.22	67.073
679.54	66.325
679.86	66.610
680.18	67.662
680.51	68.082
680.83	66.612
681.15	66.724
681.48	69.603
681.80	67.530
682.12	67.483
682.44	63.439
682.77	68.440
683.09	67.803
683.41	67.636
683.73	69.639
684.06	66.052
684.38	65.832
684.70	71.275
685.02	69.535
685.34	68.719
685.67	65.615
685.99	66.718
686.31	62.936
686.63	65.087
686.96	65.142
687.28	64.495
687.60	63.805
687.92	63.826
688.24	64.942
688.56	62.586
688.89	65.517
689.21	67.515
689.53	65.490
689.85	64.892
690.17	64.074
690.49	68.127
690.82	65.545
691.14	63.765
691.46	66.539
691.78	65.562
692.10	67.156
692.42	62.857
692.74	63.702
693.06	65.556
693.39	66.414
693.71	68.985
694.03	67.658
694.35	64.571
694.67	66.119
694.99	65.106
695.31	66.667
695.63	69.264
695.95	63.561
696.27	66.154
696.59	67.920
696.91	66.667
697.23	68.352
697.56	66.395
697.88	65.341
698.20	64.783
698.52	65.152
698.84	67.568
699.16	66.531
699.48	66.527
699.80	61.915
700.12	64.410
700.44	65.438
700.76	67.933
701.08	68.039
701.40	69.430
701.72	67.164
702.04	68.984
702.36	67.016
702.68	67.726
703.00	64.303
703.32	67.241
703.64	67.482
703.96	66.587
704.28	63.882
704.60	65.823
704.91	65.051
705.23	68.767
705.55	64.345
705.87	70.000
706.19	69.632
706.51	65.964
706.83	67.147
707.15	66.138
707.47	63.084
707.79	63.537
708.11	62.288
708.43	62.796
708.74	58.705
709.06	61.717
709.38	61.502
709.70	63.524
710.02	66.150
710.34	64.894
710.66	66.480
710.98	64.208
711.29	64.011
711.61	64.972
711.93	63.248
712.25	64.324
712.57	68.437
712.89	66.176
713.20	63.609
713.52	64.162
713.84	62.953
714.16	64.737
714.48	62.887
714.80	67.273
715.11	63.780
715.43	59.947
715.75	65.000
716.07	62.155
716.39	62.568
716.70	62.651
717.02	61.639
717.34	65.157
717.66	65.436
717.97	60.274
718.29	67.010
718.61	66.118
718.93	65.696
719.24	65.839
719.56	58.282
719.88	60.661
720.20	66.129
720.51	63.043
720.83	62.500
721.15	61.513
721.46	59.589
721.78	68.667
722.10	59.871
722.42	58.389
722.73	61.935
723.05	65.614
723.37	61.458
723.68	70.968
724.00	63.538
724.32	63.380
724.63	61.538
724.95	66.667
725.27	57.491
725.58	65.371
725.90	69.655
726.22	60.188
726.53	64.610
726.85	61.321
727.16	59.819
727.48	63.609
727.80	61.258
728.11	62.191
728.43	63.973
728.74	64.883
729.06	59.603
729.38	59.091
729.69	61.745
730.01	56.845
730.32	56.970
730.64	63.208
730.96	59.317
731.27	59.218
731.59	61.538
731.90	57.662
732.22	57.292
732.53	56.630
732.85	58.286
733.16	59.824
733.48	60.061
733.80	56.267
734.11	56.695
734.43	63.784
734.74	63.291
735.06	58.040
735.37	58.919
735.69	58.649
736.00	58.757
736.32	55.256
736.63	57.222
736.95	55.460
737.26	61.212
737.58	57.576
737.89	60.000
738.21	53.823
738.52	55.738
738.83	59.044
739.15	57.801
739.46	61.224
739.78	62.883
740.09	57.020
740.41	58.017
740.72	60.333
741.04	56.311
741.35	58.596
741.66	60.000
741.98	58.607
742.29	60.669
742.61	65.789
742.92	57.692
743.23	63.177
743.55	54.264
743.86	60.400
744.18	58.678
744.49	60.338
744.80	59.671
745.12	59.072
745.43	58.130
745.74	65.086
746.06	61.864
746.37	63.291
746.68	62.602
747.00	57.083
747.31	60.515
747.62	58.846
747.94	61.943
748.25	58.635
748.56	58.776
748.88	60.256
749.19	63.793
749.50	61.039
749.82	65.060
750.13	64.057
750.44	63.000
750.75	59.692
751.07	60.615
751.38	55.521
751.69	58.466
752.01	55.016
752.32	60.131
752.63	62.585
752.94	59.862
753.26	57.249
753.57	51.111
753.88	57.303
754.19	55.305
754.51	58.199
754.82	55.627
755.13	53.770
755.44	58.020
755.75	59.539
756.07	58.806
756.38	55.660
756.69	61.145
757.00	54.294
757.31	53.279
757.63	52.430
757.94	55.164
758.25	52.144
758.56	52.723
758.87	51.818
759.18	52.267
759.50	56.657
759.81	53.782
760.12	54.447
760.43	56.250
760.74	54.187
761.05	54.250
761.36	52.771
761.67	52.792
761.99	50.000
762.30	50.915
762.61	50.825
762.92	52.239
763.23	56.554
763.54	50.719
763.85	54.296
764.16	51.178
764.47	57.042
764.78	54.313
765.10	51.906
765.41	52.821
765.72	48.942
766.03	53.107
766.34	47.649
766.65	51.568
766.96	55.777
767.27	59.447
767.58	56.219
767.89	59.615
768.20	59.155
768.51	54.167
768.82	52.209
769.13	50.758
769.44	50.769
769.75	56.318
770.06	56.154
770.37	56.299
770.68	50.638
770.99	46.559
771.30	57.407
771.61	56.274
771.92	49.259
772.23	53.846
772.54	44.444
772.85	54.839
773.16	57.619
773.47	52.910
773.78	50.270
774.09	54.545
774.39	58.000
774.70	57.377
775.01	51.829
775.32	54.118
775.63	51.534
775.94	45.860
776.25	56.129
776.56	55.128
776.87	54.422
777.18	54.483
777.48	47.552
777.79	57.432
778.10	50.000
778.41	47.222
778.72	56.552
779.03	46.914
779.34	49.697
779.65	48.705
779.95	52.222
780.26	54.545
780.57	52.903
780.88	60.870
781.19	49.032
781.50	57.059
781.80	57.527
782.11	52.910
782.42	44.444
782.73	45.509
783.04	47.486
783.34	49.091
783.65	49.673
783.96	47.205
784.27	52.976
784.57	56.291
784.88	53.571
785.19	44.882
785.50	49.606
785.81	55.639
786.11	52.308
786.42	50.360
786.73	50.360
787.04	48.872
787.34	55.738
787.65	52.800
787.96	60.448
788.26	56.643
788.57	55.245
788.88	49.342
789.19	48.366
789.49	54.110
789.80	47.518
790.11	48.819
790.41	40.625
790.72	48.305
791.03	34.951
791.33	47.826
791.64	50.000
791.95	50.000
792.25	45.714
792.56	50.000
792.87	44.792
793.17	38.393
793.48	48.958
793.79	50.602
794.09	39.450
794.40	50.459
794.70	51.701
795.01	39.610
795.32	47.945
795.62	48.592
795.93	40.152
796.23	48.361
796.54	40.179
796.85	43.617
797.15	43.478
797.46	34.247
797.76	42.500
798.07	48.913
798.37	34.021
798.68	48.052
798.99	43.678
799.29	25.843
799.60	55.319
799.90	37.349
800.21	49.231
800.51	53.731
800.82	45.588
801.12	23.288
801.43	38.235
801.73	57.627
802.04	51.515
802.34	38.333
802.65	37.288
802.95	55.224
803.26	64.407
803.56	38.356
803.87	58.571
804.17	56.164
804.48	40.351
804.78	41.667
805.09	32.759
805.39	52.703
805.70	29.577
806.00	30.488
806.30	32.530
806.61	52.055
806.91	38.462
807.22	41.111
807.52	32.184
807.83	50.000
808.13	36.145
808.43	31.461
808.74	33.750
809.04	51.471
809.35	42.667
809.65	48.571
809.95	41.096
810.26	42.105
810.56	31.034
810.86	52.941
811.17	33.333
811.47	40.984
811.77	33.333
812.08	47.458
812.38	55.000
812.69	56.897
812.99	32.075
813.29	25.641
813.59	44.000
813.90	45.614
814.20	29.091
814.50	52.113
814.81	43.590
815.11	47.541
815.41	44.776
815.72	51.724
816.02	53.571
816.32	68.889
816.62	40.909
816.93	42.222
817.23	61.111
817.53	25.532
817.84	71.429
818.14	64.706
818.44	36.735
818.74	35.556
819.04	33.333
819.35	20.000
819.65	23.077
819.95	49.057
820.25	42.222
820.56	30.952
820.86	65.625
821.16	53.846
821.46	13.953
821.76	34.000
822.07	33.929
822.37	34.783
822.67	25.532
822.97	10.811
823.27	35.000
823.57	34.694
823.88	48.889
824.18	52.500
824.48	60.000
824.78	12.000
825.08	45.455
825.38	55.556
825.69	34.043
825.99	47.222
826.29	22.857
826.59	10.256
826.89	-4.651
827.19	36.000
827.49	52.941
827.79	20.833
828.09	18.919
828.39	40.000
828.70	26.829
829.00	27.907
829.30	17.857
829.60	47.059
829.90	41.304
830.20	40.000
830.50	3.448
830.80	16.667
831.10	15.385
831.40	20.588
831.70	23.810
832.00	41.935
832.30	-58.824
832.60	12.500
832.90	-53.846
833.20	26.316
833.50	0.000
833.80	57.895
834.10	-28.571
834.40	47.222
834.70	59.375
835.00	8.571
835.30	32.353
835.60	10.000
835.90	52.000
836.20	9.091
836.50	48.000
836.80	-9.091
837.10	-25.926
837.40	7.407
837.70	-12.500
838.00	57.143
838.30	34.783
838.60	10.345
838.90	35.714
839.19	-39.130
839.49	-75.000
839.79	30.435
840.09	-6.250
840.39	5.000
840.69	35.484
840.99	-21.429
841.29	33.333
841.59	5.263
841.88	35.897
842.18	11.538
842.48	10.000
842.78	0.000
843.08	56.667
843.38	22.581
843.68	-11.111
843.97	32.353
844.27	-18.750
844.57	-52.632
844.87	-20.000
845.17	20.000
845.47	23.810
845.76	0.000
846.06	-77.778
846.36	-23.529
846.66	30.769
846.96	-20.000
847.25	-23.529
847.55	56.522
847.85	25.000
848.15	-5.882
848.44	0.000
848.74	0.000
849.04	-4.167
849.34	25.000
849.63	34.783
849.93	400.000
850.23	46.667
850.53	30.769
850.82	-9.091
851.12	50.000
851.42	45.455
851.71	-23.077
852.01	-25.000
852.31	23.077
852.61	47.368
852.90	25.000
853.20	11.111
853.50	-44.444
853.79	-42.857
854.09	45.455
854.39	16.667
854.68	19.355
854.98	-3.846
855.28	66.667
855.57	32.143
855.87	-4.000
856.17	-9.091
856.46	25.926
856.76	27.778
857.05	-26.087
857.35	20.833
857.65	-7.692
857.94	38.095
858.24	22.222
858.53	21.739
858.83	58.824
859.13	64.706
859.42	52.941
859.72	-14.286
860.01	-15.000
860.31	-111.111
860.60	40.000
860.90	-33.333
861.20	-27.778
861.49	-38.462
861.79	16.667
862.08	-46.154
862.38	15.625
862.67	41.176
862.97	-18.750
863.26	11.111
863.56	0.000
863.85	54.545
864.15	22.222
864.44	-66.667
864.74	35.714
865.03	0.000
865.33	10.000
865.62	-12.903
865.92	4.545
866.21	13.043
866.51	-28.571
866.80	-240.000
867.10	-33.333
867.39	-50.000
867.69	1800.000
867.98	57.143
868.27	11.765
868.57	-1800.000
868.86	-110.000
869.16	-66.667
869.45	-8.333
869.75	-72.727
870.04	100.000
870.33	58.333
870.63	-185.714
870.92	-300.000
871.22	-125.000
871.51	-63.636
871.80	-433.333
872.10	250.000
>>>>>End Processed Spectral Data<<<<<
