SpectraSuite Data File
++++++++++++++++++++++++++++++++++++
Date: Thu May 14 14:36:02 PDT 2015
User: schluterlab
Dark Spectrum Present: Yes
Reference Spectrum Present: Yes
Number of Sampled Component Spectra: 1
Spectrometers: USB2E3373
Integration Time (usec): 3000 (USB2E3373)
Spectra Averaged: 3 (USB2E3373)
Boxcar Smoothing: 0 (USB2E3373)
Correct for Electrical Dark: No (USB2E3373)
Strobe/Lamp Enabled: No (USB2E3373)
Correct for Detector Non-linearity: No (USB2E3373)
Correct for Stray Light: No (USB2E3373)
Number of Pixels in Processed Spectrum: 2048
>>>>>Begin Processed Spectral Data<<<<<
178.53	0.000
178.91	-228.571
179.29	400.000
179.67	1500.000
180.04	-42.857
180.42	-140.000
180.80	-220.000
181.18	1800.000
181.56	2300.000
181.94	-500.000
182.31	275.000
182.69	-500.000
183.07	500.000
183.45	-475.000
183.83	216.667
184.20	733.333
184.58	-1100.000
184.96	375.000
185.34	244.444
185.72	340.000
186.09	-77.778
186.47	-750.000
186.85	-360.000
187.23	177.778
187.61	1100.000
187.98	-540.000
188.36	-225.000
188.74	350.000
189.12	866.667
189.49	143.750
189.87	287.500
190.25	288.889
190.63	440.000
191.00	166.667
191.38	0.000
191.76	275.000
192.14	350.000
192.51	-1000.000
192.89	383.333
193.27	0.000
193.65	314.286
194.02	700.000
194.40	328.571
194.78	-357.143
195.15	0.000
195.53	190.909
195.91	0.000
196.29	450.000
196.66	84.615
197.04	500.000
197.42	185.714
197.79	1050.000
198.17	325.000
198.55	171.429
198.92	244.444
199.30	187.500
199.68	290.909
200.05	107.143
200.43	150.000
200.81	-128.571
201.18	0.000
201.56	-155.556
201.94	0.000
202.31	-366.667
202.69	77.778
203.07	-2300.000
203.44	266.667
203.82	500.000
204.19	150.000
204.57	200.000
204.95	275.000
205.32	2200.000
205.70	-375.000
206.08	316.667
206.45	283.333
206.83	-60.000
207.20	250.000
207.58	100.000
207.96	216.667
208.33	466.667
208.71	-50.000
209.08	416.667
209.46	0.000
209.84	-183.333
210.21	-750.000
210.59	-1050.000
210.96	-333.333
211.34	475.000
211.71	187.500
212.09	2000.000
212.46	0.000
212.84	-150.000
213.22	360.000
213.59	425.000
213.97	210.000
214.34	133.333
214.72	-133.333
215.09	175.000
215.47	0.000
215.84	-157.143
216.22	-300.000
216.59	360.000
216.97	380.000
217.34	450.000
217.72	237.500
218.09	525.000
218.47	325.000
218.84	0.000
219.22	-440.000
219.59	41.176
219.97	125.000
220.34	-850.000
220.72	244.444
221.09	192.308
221.47	466.667
221.84	80.000
222.22	228.571
222.59	0.000
222.97	287.500
223.34	260.000
223.72	1600.000
224.09	325.000
224.46	450.000
224.84	380.000
225.21	185.714
225.59	125.000
225.96	400.000
226.34	61.538
226.71	-200.000
227.08	1100.000
227.46	186.667
227.83	275.000
228.21	105.263
228.58	-250.000
228.95	-500.000
229.33	250.000
229.70	140.000
230.08	163.158
230.45	-150.000
230.82	566.667
231.20	114.286
231.57	183.333
231.95	145.455
232.32	90.909
232.69	105.000
233.07	575.000
233.44	105.882
233.81	230.000
234.19	150.000
234.56	72.727
234.93	100.000
235.31	57.895
235.68	50.000
236.05	70.000
236.43	84.615
236.80	136.000
237.17	92.593
237.55	27.273
237.92	130.000
238.29	45.161
238.67	43.182
239.04	47.222
239.41	42.857
239.79	52.174
240.16	42.593
240.53	41.304
240.91	19.608
241.28	21.311
241.65	29.851
242.02	22.973
242.40	26.154
242.77	38.667
243.14	21.951
243.51	17.105
243.89	20.513
244.26	23.762
244.63	23.529
245.00	22.430
245.38	19.298
245.75	5.310
246.12	18.254
246.49	17.829
246.87	16.429
247.24	19.205
247.61	19.079
247.98	13.423
248.36	12.963
248.73	9.202
249.10	10.929
249.47	12.935
249.84	21.466
250.22	8.290
250.59	16.111
250.96	15.000
251.33	8.673
251.70	10.256
252.08	12.500
252.45	8.607
252.82	9.504
253.19	6.641
253.56	10.266
253.94	6.154
254.31	6.818
254.68	13.986
255.05	10.749
255.42	12.245
255.79	10.032
256.16	8.940
256.54	6.954
256.91	9.836
257.28	7.213
257.65	6.051
258.02	5.310
258.39	8.832
258.76	8.257
259.14	10.057
259.51	8.357
259.88	9.065
260.25	9.722
260.62	8.767
260.99	10.929
261.36	12.064
261.73	8.223
262.10	8.516
262.47	6.434
262.85	14.141
263.22	5.455
263.59	4.737
263.96	7.928
264.33	5.627
264.70	6.667
265.07	12.172
265.44	11.565
265.81	6.019
266.18	7.029
266.55	6.473
266.92	6.378
267.29	8.972
267.66	5.765
268.03	8.515
268.40	7.516
268.77	5.239
269.14	6.167
269.51	8.333
269.88	9.016
270.25	7.042
270.62	6.751
270.99	8.283
271.36	9.505
271.73	6.876
272.10	9.018
272.47	5.210
272.84	6.225
273.21	8.417
273.58	7.661
273.95	4.808
274.32	4.753
274.69	6.963
275.06	7.509
275.43	4.621
275.80	8.113
276.17	5.556
276.54	3.918
276.91	5.725
277.28	6.329
277.65	8.259
278.02	6.618
278.39	4.891
278.76	4.921
279.13	5.142
279.50	7.216
279.87	6.619
280.23	4.754
280.60	6.610
280.97	5.921
281.34	4.754
281.71	7.276
282.08	6.312
282.45	6.219
282.82	6.593
283.19	3.877
283.56	6.393
283.92	7.658
284.29	9.163
284.66	6.568
285.03	4.006
285.40	6.801
285.77	6.037
286.14	6.565
286.51	5.479
286.87	4.265
287.24	6.777
287.61	4.783
287.98	4.683
288.35	5.769
288.72	5.473
289.08	5.857
289.45	4.586
289.82	4.970
290.19	6.466
290.56	6.761
290.93	5.136
291.29	4.959
291.66	4.959
292.03	5.427
292.40	6.259
292.77	4.582
293.13	5.277
293.50	5.256
293.87	5.772
294.24	5.867
294.60	5.689
294.97	5.235
295.34	5.762
295.71	7.566
296.08	4.910
296.44	6.005
296.81	4.507
297.18	3.736
297.55	3.892
297.91	3.915
298.28	3.791
298.65	5.232
299.02	5.077
299.38	4.691
299.75	5.724
300.12	4.630
300.48	4.608
300.85	4.499
301.22	5.145
301.59	5.137
301.95	4.068
302.32	5.444
302.69	5.038
303.05	5.005
303.42	4.213
303.79	5.833
304.15	3.470
304.52	2.960
304.89	4.921
305.25	4.865
305.62	5.538
305.99	4.227
306.35	5.040
306.72	3.619
307.09	4.467
307.45	4.969
307.82	4.642
308.19	4.945
308.55	4.918
308.92	4.090
309.29	5.077
309.65	4.288
310.02	3.861
310.38	4.429
310.75	4.660
311.12	4.698
311.48	4.106
311.85	4.463
312.22	4.649
312.58	4.977
312.95	3.920
313.31	4.878
313.68	5.586
314.05	5.510
314.41	5.009
314.78	4.632
315.14	4.174
315.51	4.247
315.87	4.500
316.24	4.932
316.61	4.352
316.97	3.710
317.34	4.762
317.70	4.541
318.07	3.616
318.43	4.337
318.80	4.766
319.16	3.863
319.53	3.685
319.89	3.593
320.26	5.338
320.62	4.699
320.99	4.432
321.35	4.067
321.72	5.116
322.08	3.607
322.45	4.878
322.81	4.603
323.18	3.894
323.54	4.397
323.91	5.338
324.27	4.647
324.64	4.618
325.00	3.317
325.37	5.324
325.73	4.545
326.10	3.731
326.46	5.130
326.83	4.884
327.19	4.488
327.56	5.138
327.92	3.855
328.29	4.839
328.65	5.444
329.01	4.653
329.38	4.044
329.74	5.137
330.11	5.223
330.47	4.886
330.84	4.737
331.20	6.083
331.56	4.159
331.93	4.770
332.29	4.661
332.66	5.316
333.02	5.025
333.38	4.866
333.75	4.293
334.11	4.587
334.48	5.116
334.84	5.777
335.20	4.534
335.57	5.987
335.93	5.372
336.29	4.576
336.66	3.953
337.02	5.518
337.38	4.592
337.75	4.463
338.11	4.878
338.47	5.376
338.84	3.892
339.20	3.791
339.56	4.778
339.93	4.598
340.29	5.717
340.65	4.380
341.02	5.427
341.38	5.416
341.74	4.358
342.11	5.149
342.47	4.369
342.83	4.428
343.20	4.497
343.56	4.731
343.92	5.044
344.28	5.000
344.65	5.271
345.01	5.226
345.37	5.210
345.73	3.429
346.10	5.460
346.46	4.193
346.82	5.768
347.19	4.966
347.55	4.856
347.91	4.755
348.27	4.780
348.63	5.484
349.00	4.922
349.36	4.684
349.72	4.762
350.08	5.349
350.45	4.791
350.81	4.751
351.17	4.662
351.53	5.004
351.89	5.315
352.26	5.149
352.62	4.179
352.98	3.817
353.34	4.630
353.70	4.622
354.07	4.694
354.43	4.100
354.79	4.114
355.15	4.636
355.51	5.263
355.87	3.815
356.24	4.639
356.60	4.065
356.96	4.299
357.32	4.387
357.68	3.807
358.04	3.743
358.40	3.806
358.77	5.556
359.13	3.914
359.49	4.312
359.85	4.641
360.21	4.663
360.57	5.097
360.93	3.949
361.29	4.702
361.66	4.055
362.02	5.637
362.38	4.638
362.74	4.190
363.10	4.952
363.46	4.501
363.82	3.835
364.18	4.574
364.54	4.080
364.90	4.749
365.26	3.586
365.62	4.467
365.98	4.493
366.35	4.631
366.71	3.946
367.07	4.398
367.43	4.531
367.79	4.247
368.15	4.147
368.51	4.533
368.87	4.311
369.23	4.400
369.59	4.167
369.95	4.868
370.31	4.321
370.67	4.195
371.03	4.571
371.39	3.962
371.75	4.677
372.11	4.201
372.47	4.942
372.83	4.712
373.19	5.337
373.55	3.726
373.91	3.340
374.27	4.657
374.63	4.398
374.99	4.377
375.35	4.805
375.71	4.774
376.07	4.261
376.42	4.597
376.78	4.475
377.14	4.180
377.50	4.048
377.86	4.988
378.22	5.090
378.58	4.043
378.94	4.225
379.30	3.984
379.66	3.880
380.02	4.501
380.38	4.435
380.74	4.282
381.09	4.065
381.45	4.545
381.81	4.977
382.17	4.454
382.53	4.620
382.89	5.023
383.25	4.396
383.61	3.704
383.97	4.476
384.32	4.844
384.68	3.886
385.04	4.627
385.40	4.596
385.76	5.158
386.12	4.309
386.48	5.176
386.83	4.470
387.19	4.867
387.55	4.343
387.91	4.623
388.27	4.561
388.62	4.696
388.98	4.569
389.34	5.009
389.70	4.242
390.06	4.796
390.42	4.518
390.77	4.636
391.13	4.636
391.49	4.952
391.85	3.758
392.20	4.864
392.56	5.257
392.92	4.798
393.28	5.030
393.64	4.246
393.99	4.881
394.35	5.374
394.71	5.389
395.07	4.431
395.42	4.340
395.78	5.241
396.14	4.635
396.50	3.741
396.85	4.592
397.21	4.320
397.57	4.711
397.92	4.926
398.28	4.291
398.64	4.863
399.00	4.241
399.35	4.450
399.71	4.348
400.07	4.436
400.42	5.064
400.78	4.225
401.14	4.781
401.49	4.548
401.85	4.419
402.21	4.983
402.57	5.282
402.92	4.374
403.28	3.981
403.63	4.236
403.99	4.691
404.35	5.003
404.70	4.759
405.06	4.076
405.42	4.801
405.77	4.308
406.13	4.916
406.49	3.998
406.84	5.319
407.20	4.584
407.55	4.058
407.91	4.463
408.27	4.653
408.62	4.887
408.98	4.469
409.34	3.930
409.69	4.203
410.05	4.807
410.40	4.930
410.76	4.038
411.11	5.319
411.47	4.668
411.83	4.527
412.18	5.361
412.54	5.039
412.89	5.180
413.25	4.458
413.60	4.308
413.96	4.312
414.31	4.986
414.67	4.234
415.03	4.862
415.38	4.666
415.74	4.154
416.09	4.997
416.45	5.197
416.80	4.162
417.16	3.959
417.51	4.795
417.87	4.537
418.22	4.551
418.58	4.957
418.93	4.657
419.29	4.562
419.64	4.022
420.00	4.214
420.35	4.716
420.71	4.940
421.06	3.795
421.42	4.186
421.77	4.739
422.12	4.493
422.48	4.557
422.83	4.381
423.19	4.350
423.54	4.369
423.90	4.086
424.25	4.960
424.61	3.731
424.96	4.558
425.31	5.202
425.67	4.509
426.02	4.261
426.38	4.248
426.73	4.911
427.09	5.190
427.44	4.205
427.79	4.865
428.15	4.053
428.50	4.382
428.85	4.650
429.21	5.160
429.56	3.603
429.92	4.128
430.27	4.000
430.62	4.348
430.98	3.443
431.33	4.154
431.68	4.358
432.04	5.028
432.39	4.071
432.74	4.509
433.10	4.381
433.45	4.292
433.80	4.828
434.16	4.390
434.51	4.265
434.86	4.615
435.22	4.091
435.57	3.950
435.92	4.508
436.28	4.949
436.63	4.697
436.98	4.079
437.34	4.115
437.69	4.238
438.04	4.389
438.39	4.595
438.75	3.929
439.10	5.497
439.45	4.304
439.81	4.859
440.16	4.397
440.51	4.515
440.86	4.336
441.22	4.502
441.57	4.193
441.92	4.268
442.27	4.444
442.63	4.421
442.98	4.803
443.33	4.892
443.68	5.005
444.03	4.610
444.39	4.901
444.74	4.747
445.09	4.663
445.44	4.215
445.79	4.741
446.15	4.676
446.50	4.238
446.85	4.669
447.20	4.932
447.55	4.550
447.91	4.241
448.26	4.757
448.61	4.729
448.96	5.150
449.31	4.189
449.66	4.630
450.02	4.589
450.37	5.061
450.72	4.144
451.07	4.841
451.42	4.622
451.77	5.281
452.12	4.515
452.47	4.694
452.83	5.011
453.18	4.670
453.53	4.595
453.88	4.528
454.23	4.802
454.58	5.165
454.93	4.308
455.28	4.696
455.63	5.230
455.98	5.084
456.34	4.476
456.69	4.879
457.04	4.492
457.39	4.989
457.74	5.089
458.09	4.393
458.44	5.226
458.79	4.487
459.14	4.615
459.49	4.754
459.84	4.669
460.19	4.664
460.54	4.202
460.89	4.764
461.24	4.770
461.59	5.257
461.94	4.278
462.29	4.983
462.64	5.009
462.99	4.520
463.34	4.283
463.69	5.627
464.04	5.447
464.39	3.924
464.74	4.447
465.09	4.787
465.44	4.345
465.79	5.341
466.14	4.690
466.49	4.421
466.84	4.628
467.19	5.318
467.54	4.054
467.89	4.655
468.24	5.042
468.59	3.706
468.94	4.429
469.29	4.679
469.64	4.832
469.99	4.844
470.34	4.950
470.68	4.853
471.03	5.305
471.38	5.428
471.73	4.096
472.08	4.632
472.43	4.636
472.78	5.227
473.13	3.856
473.48	4.834
473.83	4.759
474.17	5.275
474.52	4.510
474.87	4.651
475.22	5.014
475.57	4.673
475.92	4.629
476.27	4.526
476.61	4.777
476.96	3.962
477.31	4.950
477.66	5.247
478.01	4.728
478.36	5.035
478.70	4.778
479.05	4.652
479.40	4.442
479.75	4.899
480.10	4.216
480.45	4.831
480.79	4.535
481.14	4.825
481.49	3.726
481.84	5.048
482.19	4.215
482.53	4.810
482.88	4.608
483.23	4.046
483.58	4.279
483.92	3.723
484.27	4.318
484.62	4.290
484.97	4.277
485.31	4.189
485.66	4.348
486.01	3.860
486.36	3.658
486.70	3.966
487.05	3.903
487.40	4.551
487.75	4.529
488.09	4.114
488.44	4.377
488.79	4.553
489.13	4.634
489.48	4.233
489.83	4.628
490.17	4.496
490.52	4.557
490.87	4.822
491.22	4.073
491.56	5.077
491.91	4.666
492.26	4.154
492.60	4.241
492.95	5.090
493.30	4.169
493.64	4.336
493.99	4.693
494.34	3.702
494.68	3.940
495.03	4.273
495.37	3.862
495.72	4.490
496.07	4.514
496.41	4.333
496.76	4.545
497.11	3.949
497.45	4.359
497.80	4.531
498.14	4.580
498.49	4.642
498.84	4.433
499.18	4.588
499.53	5.202
499.87	4.484
500.22	4.141
500.56	3.959
500.91	4.760
501.26	4.773
501.60	3.844
501.95	4.646
502.29	4.476
502.64	4.416
502.98	4.875
503.33	4.276
503.67	3.838
504.02	4.466
504.36	4.692
504.71	4.088
505.06	4.320
505.40	4.479
505.75	4.417
506.09	4.650
506.44	4.828
506.78	4.862
507.13	5.164
507.47	5.542
507.82	4.545
508.16	4.541
508.51	4.313
508.85	4.582
509.19	4.453
509.54	4.947
509.88	4.662
510.23	4.468
510.57	5.510
510.92	4.161
511.26	4.329
511.61	4.539
511.95	4.636
512.30	5.071
512.64	4.998
512.98	4.152
513.33	5.040
513.67	4.182
514.02	4.446
514.36	4.194
514.70	4.948
515.05	5.162
515.39	4.567
515.74	5.620
516.08	4.860
516.42	5.547
516.77	4.627
517.11	4.590
517.46	4.613
517.80	4.543
518.14	5.386
518.49	5.260
518.83	4.896
519.17	4.200
519.52	5.503
519.86	5.121
520.20	5.804
520.55	4.874
520.89	4.899
521.23	4.746
521.58	4.802
521.92	4.759
522.26	4.410
522.61	4.977
522.95	4.671
523.29	4.770
523.64	4.709
523.98	5.134
524.32	5.731
524.66	5.407
525.01	4.304
525.35	4.997
525.69	4.756
526.04	5.281
526.38	5.172
526.72	4.614
527.06	4.692
527.41	5.131
527.75	5.344
528.09	5.018
528.43	4.559
528.78	5.145
529.12	4.759
529.46	4.947
529.80	4.863
530.15	5.333
530.49	4.804
530.83	5.136
531.17	4.600
531.51	4.152
531.86	5.228
532.20	5.366
532.54	5.147
532.88	5.030
533.22	4.832
533.57	5.078
533.91	5.331
534.25	4.409
534.59	5.230
534.93	4.131
535.27	5.296
535.62	5.458
535.96	5.055
536.30	4.289
536.64	6.006
536.98	5.720
537.32	4.815
537.66	5.614
538.01	5.076
538.35	4.872
538.69	5.048
539.03	5.089
539.37	6.007
539.71	4.985
540.05	5.396
540.39	4.829
540.73	5.404
541.07	4.782
541.42	5.021
541.76	4.745
542.10	5.247
542.44	4.080
542.78	5.414
543.12	5.125
543.46	5.739
543.80	4.017
544.14	5.625
544.48	4.905
544.82	5.266
545.16	5.784
545.50	5.033
545.84	4.899
546.18	4.938
546.52	5.032
546.86	5.597
547.20	5.216
547.54	5.119
547.88	4.461
548.22	4.971
548.56	5.032
548.90	4.597
549.24	5.593
549.58	5.678
549.92	4.974
550.26	5.307
550.60	5.999
550.94	5.498
551.28	5.281
551.62	6.402
551.96	6.084
552.30	6.373
552.64	5.414
552.98	5.178
553.32	4.823
553.66	5.080
554.00	5.549
554.34	5.920
554.68	4.906
555.02	5.191
555.36	5.786
555.69	4.741
556.03	5.170
556.37	6.008
556.71	5.263
557.05	5.751
557.39	5.176
557.73	5.350
558.07	4.702
558.41	5.781
558.75	5.815
559.08	5.289
559.42	5.418
559.76	6.038
560.10	5.492
560.44	5.475
560.78	5.563
561.12	5.603
561.45	5.900
561.79	5.311
562.13	5.422
562.47	5.487
562.81	5.696
563.15	5.934
563.48	5.904
563.82	5.744
564.16	5.088
564.50	5.423
564.84	5.369
565.17	5.529
565.51	5.524
565.85	5.285
566.19	4.896
566.52	5.500
566.86	5.093
567.20	5.111
567.54	5.789
567.88	5.301
568.21	5.040
568.55	5.084
568.89	5.039
569.23	5.323
569.56	4.807
569.90	4.775
570.24	4.654
570.57	4.298
570.91	4.562
571.25	4.860
571.59	4.815
571.92	4.504
572.26	4.288
572.60	4.559
572.93	4.815
573.27	4.664
573.61	4.632
573.95	4.491
574.28	4.602
574.62	4.616
574.96	4.477
575.29	4.538
575.63	4.666
575.97	4.623
576.30	4.762
576.64	4.486
576.98	4.487
577.31	4.599
577.65	4.437
577.98	4.462
578.32	4.284
578.66	4.467
578.99	4.505
579.33	4.936
579.67	4.488
580.00	4.810
580.34	4.647
580.67	4.545
581.01	4.587
581.35	4.598
581.68	4.543
582.02	4.463
582.35	4.505
582.69	4.567
583.02	4.429
583.36	4.703
583.70	4.454
584.03	4.632
584.37	4.814
584.70	4.914
585.04	4.464
585.37	4.485
585.71	4.617
586.04	4.601
586.38	4.689
586.72	4.312
587.05	4.221
587.39	4.612
587.72	4.641
588.06	5.005
588.39	4.979
588.73	4.868
589.06	4.966
589.40	4.702
589.73	4.788
590.07	4.973
590.40	5.409
590.73	5.338
591.07	5.175
591.40	5.054
591.74	4.571
592.07	6.131
592.41	4.850
592.74	4.792
593.08	4.745
593.41	5.395
593.75	5.144
594.08	5.150
594.41	5.321
594.75	4.882
595.08	4.812
595.42	4.870
595.75	5.166
596.09	4.981
596.42	5.124
596.75	5.056
597.09	5.778
597.42	5.085
597.75	5.174
598.09	5.278
598.42	5.830
598.76	4.585
599.09	4.877
599.42	5.163
599.76	5.018
600.09	5.105
600.42	5.038
600.76	5.185
601.09	4.879
601.42	5.355
601.76	5.345
602.09	4.896
602.42	5.198
602.76	5.240
603.09	5.066
603.42	5.094
603.76	5.004
604.09	5.713
604.42	5.505
604.76	4.795
605.09	5.624
605.42	5.582
605.75	5.923
606.09	5.151
606.42	4.962
606.75	5.060
607.09	4.877
607.42	5.010
607.75	5.236
608.08	5.446
608.42	5.562
608.75	5.307
609.08	5.051
609.41	6.087
609.75	5.134
610.08	5.893
610.41	5.140
610.74	5.504
611.07	5.107
611.41	5.605
611.74	5.635
612.07	5.283
612.40	5.133
612.73	5.330
613.07	5.721
613.40	5.630
613.73	5.633
614.06	5.545
614.39	5.199
614.72	5.677
615.06	5.101
615.39	4.930
615.72	5.308
616.05	6.362
616.38	5.550
616.71	5.904
617.05	5.218
617.38	5.457
617.71	5.940
618.04	5.559
618.37	5.628
618.70	5.826
619.03	5.137
619.36	5.549
619.69	6.086
620.03	6.089
620.36	5.583
620.69	4.997
621.02	6.299
621.35	6.168
621.68	6.363
622.01	6.263
622.34	5.021
622.67	5.842
623.00	5.061
623.33	6.038
623.66	5.707
623.99	5.201
624.32	6.173
624.65	4.633
624.99	6.047
625.32	6.009
625.65	5.664
625.98	5.559
626.31	5.670
626.64	6.081
626.97	6.152
627.30	4.632
627.63	5.401
627.96	6.607
628.29	6.148
628.62	5.542
628.95	5.960
629.28	5.013
629.61	6.902
629.94	5.105
630.26	5.254
630.59	7.254
630.92	5.195
631.25	7.335
631.58	6.685
631.91	5.342
632.24	5.956
632.57	6.831
632.90	7.222
633.23	5.918
633.56	6.327
633.89	5.785
634.22	6.653
634.55	6.785
634.88	7.251
635.20	5.705
635.53	6.780
635.86	6.934
636.19	8.059
636.52	7.068
636.85	6.129
637.18	7.173
637.51	6.452
637.83	7.530
638.16	7.373
638.49	6.455
638.82	7.554
639.15	7.560
639.48	7.275
639.81	7.275
640.13	8.598
640.46	5.576
640.79	5.882
641.12	6.335
641.45	6.901
641.77	7.189
642.10	6.430
642.43	7.846
642.76	8.943
643.09	7.397
643.41	6.303
643.74	6.759
644.07	8.276
644.40	7.638
644.73	6.531
645.05	7.930
645.38	7.338
645.71	6.745
646.04	8.034
646.36	7.883
646.69	7.055
647.02	9.939
647.35	9.160
647.67	8.052
648.00	7.006
648.33	9.009
648.66	7.561
648.98	6.259
649.31	7.984
649.64	7.304
649.96	6.764
650.29	7.093
650.62	6.648
650.94	6.907
651.27	5.988
651.60	7.456
651.92	6.535
652.25	7.525
652.58	9.491
652.90	5.233
653.23	8.310
653.56	7.561
653.88	8.989
654.21	6.620
654.54	8.237
654.86	7.790
655.19	7.528
655.52	5.906
655.84	4.239
656.17	5.073
656.49	7.376
656.82	8.365
657.15	6.790
657.47	5.267
657.80	4.105
658.13	3.299
658.45	4.280
658.78	5.353
659.10	5.457
659.43	5.715
659.75	5.999
660.08	5.938
660.41	6.369
660.73	6.499
661.06	7.048
661.38	7.337
661.71	9.138
662.03	7.055
662.36	8.050
662.68	6.191
663.01	8.319
663.33	8.696
663.66	9.890
663.98	6.923
664.31	8.443
664.63	6.551
664.96	8.530
665.28	9.437
665.61	10.839
665.93	5.536
666.26	6.631
666.58	5.535
666.91	7.850
667.23	7.810
667.56	9.270
667.88	11.000
668.21	6.445
668.53	7.336
668.86	9.037
669.18	6.925
669.50	7.753
669.83	7.800
670.15	7.087
670.48	9.722
670.80	8.795
671.13	8.507
671.45	6.693
671.77	7.910
672.10	6.833
672.42	5.825
672.75	7.680
673.07	8.507
673.39	6.780
673.72	7.886
674.04	9.655
674.37	9.481
674.69	7.937
675.01	6.095
675.34	8.015
675.66	8.240
675.98	10.261
676.31	8.594
676.63	10.837
676.95	9.962
677.28	9.073
677.60	6.693
677.92	7.102
678.25	8.410
678.57	8.541
678.89	10.239
679.22	8.362
679.54	7.350
679.86	5.593
680.18	5.307
680.51	7.390
680.83	7.856
681.15	7.241
681.48	7.599
681.80	9.672
682.12	8.217
682.44	7.679
682.77	8.688
683.09	8.712
683.41	8.721
683.73	8.159
684.06	7.934
684.38	7.156
684.70	7.720
685.02	7.401
685.34	6.489
685.67	7.256
685.99	7.209
686.31	6.686
686.63	5.055
686.96	8.360
687.28	6.678
687.60	5.892
687.92	6.913
688.24	7.012
688.56	7.414
688.89	8.167
689.21	7.241
689.53	7.255
689.85	6.706
690.17	8.333
690.49	9.761
690.82	6.931
691.14	8.907
691.46	10.134
691.78	8.840
692.10	6.055
692.42	7.321
692.74	7.804
693.06	7.963
693.39	8.539
693.71	8.083
694.03	7.249
694.35	7.810
694.67	8.008
694.99	8.085
695.31	7.726
695.63	10.823
695.95	7.453
696.27	9.011
696.59	10.398
696.91	7.883
697.23	9.451
697.56	6.721
697.88	6.439
698.20	4.896
698.52	10.038
698.84	7.692
699.16	9.796
699.48	8.159
699.80	8.298
700.12	8.734
700.44	8.065
700.76	9.026
701.08	8.717
701.40	10.622
701.72	6.965
702.04	9.893
702.36	6.545
702.68	8.802
703.00	7.824
703.32	9.606
703.64	9.535
703.96	11.933
704.28	9.828
704.60	9.873
704.91	8.673
705.23	9.041
705.55	9.749
705.87	8.485
706.19	11.350
706.51	10.843
706.83	9.222
707.15	7.143
707.47	9.346
707.79	9.170
708.11	5.720
708.43	6.452
708.74	6.027
709.06	8.121
709.38	10.329
709.70	10.918
710.02	9.561
710.34	11.436
710.66	8.101
710.98	7.104
711.29	7.692
711.61	7.627
711.93	9.402
712.25	10.000
712.57	13.274
712.89	12.353
713.20	9.467
713.52	11.272
713.84	10.585
714.16	6.579
714.48	9.536
714.80	10.909
715.11	6.562
715.43	6.631
715.75	8.947
716.07	7.735
716.39	8.470
716.70	7.831
717.02	10.164
717.34	3.833
717.66	10.403
717.97	10.274
718.29	11.684
718.61	8.553
718.93	10.032
719.24	11.491
719.56	11.043
719.88	9.910
720.20	10.645
720.51	10.870
720.83	8.750
721.15	12.500
721.46	5.822
721.78	10.000
722.10	8.414
722.42	7.383
722.73	9.677
723.05	10.526
723.37	12.153
723.68	10.753
724.00	9.747
724.32	7.042
724.63	8.392
724.95	13.475
725.27	8.711
725.58	9.187
725.90	11.379
726.22	8.150
726.53	10.065
726.85	13.208
727.16	14.199
727.48	13.150
727.80	10.927
728.11	5.654
728.43	13.805
728.74	10.702
729.06	13.576
729.38	12.013
729.69	11.409
730.01	12.500
730.32	8.485
730.64	9.748
730.96	7.764
731.27	10.894
731.59	11.264
731.90	8.052
732.22	9.375
732.53	7.735
732.85	9.429
733.16	9.971
733.48	7.012
733.80	7.242
734.11	11.396
734.43	10.270
734.74	10.380
735.06	9.296
735.37	9.189
735.69	10.000
736.00	9.040
736.32	12.668
736.63	9.444
736.95	9.483
737.26	5.455
737.58	6.667
737.89	9.118
738.21	7.645
738.52	10.492
738.83	9.898
739.15	9.574
739.46	11.905
739.78	11.043
740.09	8.883
740.41	12.536
740.72	8.333
741.04	14.563
741.35	11.579
741.66	12.157
741.98	13.525
742.29	12.971
742.61	13.596
742.92	10.769
743.23	13.718
743.55	12.791
743.86	11.600
744.18	9.504
744.49	8.861
744.80	12.757
745.12	12.236
745.43	11.789
745.74	9.914
746.06	8.898
746.37	11.814
746.68	12.195
747.00	16.250
747.31	12.446
747.62	14.615
747.94	10.931
748.25	10.040
748.56	10.612
748.88	10.684
749.19	14.224
749.50	6.494
749.82	16.867
750.13	17.438
750.44	8.000
750.75	10.769
751.07	8.923
751.38	10.410
751.69	7.987
752.01	10.680
752.32	8.497
752.63	9.864
752.94	12.111
753.26	7.435
753.57	10.370
753.88	12.360
754.19	11.254
754.51	12.540
754.82	10.289
755.13	12.787
755.44	9.556
755.75	9.211
756.07	10.746
756.38	8.491
756.69	11.747
757.00	8.033
757.31	9.836
757.63	7.928
757.94	8.920
758.25	10.835
758.56	7.625
758.87	12.500
759.18	11.200
759.50	8.499
759.81	10.364
760.12	8.895
760.43	10.677
760.74	8.867
761.05	8.250
761.36	6.988
761.67	8.376
761.99	8.378
762.30	7.622
762.61	9.571
762.92	8.955
763.23	13.483
763.54	10.432
763.85	8.935
764.16	10.101
764.47	9.859
764.78	9.585
765.10	4.985
765.41	12.051
765.72	5.291
766.03	11.864
766.34	6.897
766.65	7.666
766.96	10.757
767.27	11.060
767.58	8.458
767.89	16.827
768.20	13.615
768.51	12.037
768.82	12.851
769.13	8.712
769.44	9.231
769.75	13.718
770.06	11.923
770.37	13.780
770.68	4.681
770.99	8.502
771.30	17.037
771.61	9.886
771.92	12.222
772.23	10.931
772.54	5.093
772.85	13.825
773.16	13.810
773.47	8.995
773.78	11.351
774.09	11.932
774.39	13.500
774.70	23.497
775.01	14.634
775.32	14.118
775.63	12.270
775.94	3.822
776.25	15.484
776.56	19.231
776.87	23.129
777.18	11.724
777.48	12.587
777.79	16.216
778.10	11.029
778.41	16.667
778.72	20.690
779.03	12.346
779.34	16.970
779.65	13.990
779.95	17.778
780.26	14.773
780.57	10.323
780.88	20.290
781.19	18.710
781.50	17.059
781.80	11.290
782.11	11.111
782.42	11.111
782.73	10.180
783.04	13.966
783.34	10.909
783.65	6.536
783.96	10.559
784.27	17.857
784.57	13.245
784.88	18.571
785.19	17.323
785.50	16.535
785.81	14.286
786.11	15.385
786.42	9.353
786.73	14.388
787.04	21.805
787.34	13.934
787.65	13.600
787.96	20.896
788.26	23.077
788.57	18.881
788.88	22.368
789.19	18.954
789.49	15.753
789.80	18.440
790.11	17.323
790.41	17.969
790.72	30.508
791.03	14.563
791.33	28.696
791.64	21.930
791.95	14.286
792.25	27.619
792.56	23.214
792.87	19.792
793.17	17.857
793.48	13.542
793.79	14.458
794.09	23.853
794.40	19.266
794.70	10.884
795.01	12.338
795.32	9.589
795.62	14.789
795.93	14.394
796.23	12.295
796.54	25.000
796.85	27.660
797.15	19.565
797.46	23.288
797.76	17.500
798.07	27.174
798.37	11.340
798.68	18.182
798.99	31.034
799.29	23.596
799.60	24.468
799.90	18.072
800.21	18.462
800.51	29.851
800.82	19.118
801.12	21.918
801.43	13.235
801.73	22.034
802.04	22.727
802.34	30.000
802.65	35.593
802.95	44.776
803.26	35.593
803.56	36.986
803.87	32.857
804.17	34.247
804.48	21.053
804.78	33.333
805.09	18.966
805.39	39.189
805.70	5.634
806.00	25.610
806.30	13.253
806.61	17.808
806.91	20.192
807.22	21.111
807.52	24.138
807.83	37.500
808.13	37.349
808.43	26.966
808.74	23.750
809.04	16.176
809.35	26.667
809.65	34.286
809.95	19.178
810.26	7.018
810.56	44.828
810.86	39.706
811.17	42.105
811.47	24.590
811.77	33.333
812.08	28.814
812.38	33.333
812.69	39.655
812.99	30.189
813.29	43.590
813.59	46.000
813.90	29.825
814.20	23.636
814.50	45.070
814.81	26.923
815.11	34.426
815.41	34.328
815.72	44.828
816.02	26.786
816.32	28.889
816.62	31.818
816.93	33.333
817.23	37.037
817.53	42.553
817.84	69.048
818.14	50.000
818.44	32.653
818.74	33.333
819.04	23.077
819.35	17.143
819.65	-11.538
819.95	35.849
820.25	42.222
820.56	35.714
820.86	59.375
821.16	53.846
821.46	13.953
821.76	32.000
822.07	39.286
822.37	34.783
822.67	40.426
822.97	48.649
823.27	47.500
823.57	46.939
823.88	55.556
824.18	85.000
824.48	53.333
824.78	64.000
825.08	54.545
825.38	48.889
825.69	59.574
825.99	55.556
826.29	28.571
826.59	25.641
826.89	51.163
827.19	38.000
827.49	58.824
827.79	33.333
828.09	24.324
828.39	50.000
828.70	58.537
829.00	46.512
829.30	42.857
829.60	91.176
829.90	23.913
830.20	34.286
830.50	68.966
830.80	50.000
831.10	46.154
831.40	52.941
831.70	80.952
832.00	96.774
832.30	47.059
832.60	66.667
832.90	53.846
833.20	63.158
833.50	50.000
833.80	31.579
834.10	4.762
834.40	63.889
834.70	75.000
835.00	34.286
835.30	52.941
835.60	93.333
835.90	84.000
836.20	31.818
836.50	68.000
836.80	69.697
837.10	48.148
837.40	77.778
837.70	106.250
838.00	46.429
838.30	34.783
838.60	75.862
838.90	78.571
839.19	21.739
839.49	16.667
839.79	39.130
840.09	62.500
840.39	45.000
840.69	87.097
840.99	57.143
841.29	80.000
841.59	47.368
841.88	71.795
842.18	30.769
842.48	80.000
842.78	80.000
843.08	56.667
843.38	100.000
843.68	16.667
843.97	55.882
844.27	112.500
844.57	47.368
844.87	120.000
845.17	40.000
845.47	109.524
845.76	85.714
846.06	55.556
846.36	94.118
846.66	50.000
846.96	40.000
847.25	100.000
847.55	121.739
847.85	75.000
848.15	88.235
848.44	100.000
848.74	104.762
849.04	70.833
849.34	50.000
849.63	86.957
849.93	-700.000
850.23	100.000
850.53	73.077
850.82	181.818
851.12	95.455
851.42	154.545
851.71	146.154
852.01	10.000
852.31	130.769
852.61	84.211
852.90	183.333
853.20	77.778
853.50	177.778
853.79	85.714
854.09	72.727
854.39	125.000
854.68	67.742
854.98	30.769
855.28	122.222
855.57	32.143
855.87	68.000
856.17	54.545
856.46	85.185
856.76	94.444
857.05	69.565
857.35	70.833
857.65	115.385
857.94	128.571
858.24	111.111
858.53	91.304
858.83	129.412
859.13	100.000
859.42	105.882
859.72	164.286
860.01	40.000
860.31	144.444
860.60	180.000
860.90	106.667
861.20	133.333
861.49	123.077
861.79	96.667
862.08	123.077
862.38	100.000
862.67	135.294
862.97	125.000
863.26	177.778
863.56	200.000
863.85	72.727
864.15	83.333
864.44	100.000
864.74	221.429
865.03	87.500
865.33	70.000
865.62	51.613
865.92	77.273
866.21	82.609
866.51	100.000
866.80	260.000
867.10	141.667
867.39	150.000
867.69	-1900.000
867.98	314.286
868.27	135.294
868.57	700.000
868.86	80.000
869.16	80.952
869.45	79.167
869.75	245.455
870.04	228.571
870.33	116.667
870.63	85.714
870.92	475.000
871.22	125.000
871.51	63.636
871.80	366.667
872.10	650.000
>>>>>End Processed Spectral Data<<<<<
