SpectraSuite Data File
++++++++++++++++++++++++++++++++++++
Date: Thu May 14 14:26:55 PDT 2015
User: schluterlab
Dark Spectrum Present: Yes
Reference Spectrum Present: Yes
Number of Sampled Component Spectra: 1
Spectrometers: USB2E3373
Integration Time (usec): 3000 (USB2E3373)
Spectra Averaged: 3 (USB2E3373)
Boxcar Smoothing: 0 (USB2E3373)
Correct for Electrical Dark: No (USB2E3373)
Strobe/Lamp Enabled: No (USB2E3373)
Correct for Detector Non-linearity: No (USB2E3373)
Correct for Stray Light: No (USB2E3373)
Number of Pixels in Processed Spectrum: 2048
>>>>>Begin Processed Spectral Data<<<<<
178.53	0.000
178.91	-171.429
179.29	-200.000
179.67	1300.000
180.04	78.571
180.42	-80.000
180.80	-60.000
181.18	1100.000
181.56	1400.000
181.94	-175.000
182.31	175.000
182.69	-300.000
183.07	600.000
183.45	-25.000
183.83	-33.333
184.20	333.333
184.58	-1000.000
184.96	100.000
185.34	133.333
185.72	260.000
186.09	22.222
186.47	-500.000
186.85	-100.000
187.23	44.444
187.61	600.000
187.98	-280.000
188.36	-75.000
188.74	350.000
189.12	466.667
189.49	112.500
189.87	12.500
190.25	111.111
190.63	180.000
191.00	-33.333
191.38	0.000
191.76	350.000
192.14	150.000
192.51	-550.000
192.89	316.667
193.27	0.000
193.65	257.143
194.02	-800.000
194.40	42.857
194.78	-71.429
195.15	0.000
195.53	154.545
195.91	0.000
196.29	375.000
196.66	69.231
197.04	0.000
197.42	0.000
197.79	550.000
198.17	125.000
198.55	85.714
198.92	33.333
199.30	12.500
199.68	109.091
200.05	150.000
200.43	250.000
200.81	28.571
201.18	0.000
201.56	-33.333
201.94	0.000
202.31	100.000
202.69	22.222
203.07	-2400.000
203.44	55.556
203.82	300.000
204.19	133.333
204.57	116.667
204.95	137.500
205.32	900.000
205.70	-175.000
206.08	100.000
206.45	150.000
206.83	-40.000
207.20	233.333
207.58	180.000
207.96	50.000
208.33	250.000
208.71	-50.000
209.08	333.333
209.46	0.000
209.84	-50.000
210.21	-150.000
210.59	-350.000
210.96	66.667
211.34	450.000
211.71	100.000
212.09	900.000
212.46	0.000
212.84	-100.000
213.22	180.000
213.59	350.000
213.97	90.000
214.34	300.000
214.72	-133.333
215.09	75.000
215.47	0.000
215.84	14.286
216.22	-350.000
216.59	400.000
216.97	160.000
217.34	375.000
217.72	175.000
218.09	150.000
218.47	175.000
218.84	0.000
219.22	-300.000
219.59	41.176
219.97	55.000
220.34	-150.000
220.72	44.444
221.09	138.462
221.47	400.000
221.84	170.000
222.22	71.429
222.59	0.000
222.97	187.500
223.34	20.000
223.72	500.000
224.09	175.000
224.46	50.000
224.84	260.000
225.21	-28.571
225.59	0.000
225.96	250.000
226.34	73.077
226.71	16.667
227.08	-50.000
227.46	160.000
227.83	300.000
228.21	110.526
228.58	-75.000
228.95	-400.000
229.33	133.333
229.70	70.000
230.08	110.526
230.45	-10.000
230.82	300.000
231.20	85.714
231.57	108.333
231.95	90.909
232.32	118.182
232.69	75.000
233.07	100.000
233.44	29.412
233.81	100.000
234.19	66.667
234.56	40.909
234.93	55.172
235.31	73.684
235.68	66.667
236.05	5.000
236.43	57.692
236.80	60.000
237.17	92.593
237.55	48.485
237.92	-50.000
238.29	19.355
238.67	0.000
239.04	38.889
239.41	16.667
239.79	23.913
240.16	24.074
240.53	15.217
240.91	-7.843
241.28	14.754
241.65	29.851
242.02	17.568
242.40	10.769
242.77	20.000
243.14	-2.439
243.51	-5.263
243.89	-6.410
244.26	15.842
244.63	19.608
245.00	1.869
245.38	4.386
245.75	-7.965
246.12	6.349
246.49	0.775
246.87	5.714
247.24	7.947
247.61	9.868
247.98	2.685
248.36	4.938
248.73	1.227
249.10	4.918
249.47	13.930
249.84	13.613
250.22	3.109
250.59	-0.556
250.96	1.818
251.33	-1.020
251.70	8.974
252.08	3.333
252.45	7.787
252.82	3.306
253.19	2.344
253.56	4.563
253.94	-1.538
254.31	3.788
254.68	5.944
255.05	4.886
255.42	4.082
255.79	1.942
256.16	4.967
256.54	1.987
256.91	4.590
257.28	2.295
257.65	3.822
258.02	-0.295
258.39	3.419
258.76	4.893
259.14	2.586
259.51	0.865
259.88	2.550
260.25	1.944
260.62	4.110
260.99	4.372
261.36	4.826
261.73	1.857
262.10	-0.275
262.47	0.268
262.85	4.798
263.22	-0.519
263.59	-1.579
263.96	1.535
264.33	2.813
264.70	1.481
265.07	5.012
265.44	4.308
265.81	1.852
266.18	3.855
266.55	3.348
266.92	0.683
267.29	2.845
267.66	0.887
268.03	-0.655
268.40	3.549
268.77	-0.911
269.14	-1.982
269.51	1.974
269.88	1.434
270.25	2.616
270.62	3.376
270.99	5.455
271.36	1.980
271.73	1.572
272.10	2.004
272.47	1.603
272.84	2.610
273.21	1.804
273.58	2.621
273.95	-0.577
274.32	0.760
274.69	0.967
275.06	2.747
275.43	-0.555
275.80	4.409
276.17	1.481
276.54	1.306
276.91	2.326
277.28	2.532
277.65	0.898
278.02	2.574
278.39	1.087
278.76	1.933
279.13	1.241
279.50	2.405
279.87	3.399
280.23	-1.056
280.60	1.864
280.97	2.303
281.34	0.340
281.71	4.230
282.08	3.821
282.45	1.146
282.82	0.628
283.19	-0.162
283.56	1.639
283.92	2.402
284.29	3.633
284.66	2.956
285.03	0.481
285.40	2.164
285.77	0.774
286.14	2.137
286.51	1.522
286.87	2.054
287.24	1.958
287.61	-0.149
287.98	1.511
288.35	1.923
288.72	1.331
289.08	2.928
289.45	1.183
289.82	1.205
290.19	1.293
290.56	2.535
290.93	0.999
291.29	1.240
291.66	0.826
292.03	0.000
292.40	1.361
292.77	-0.539
293.13	2.030
293.50	-0.526
293.87	2.819
294.24	2.800
294.60	1.517
294.97	-0.805
295.34	2.945
295.71	2.270
296.08	1.034
296.44	1.716
296.81	1.583
297.18	2.366
297.55	1.651
297.91	1.898
298.28	0.711
298.65	2.140
299.02	0.708
299.38	4.005
299.75	3.855
300.12	3.241
300.48	1.843
300.85	2.250
301.22	3.244
301.59	2.854
301.95	3.616
302.32	3.778
302.69	4.272
303.05	4.461
303.42	4.324
303.79	3.333
304.15	5.152
304.52	4.334
304.89	4.188
305.25	4.969
305.62	4.598
305.99	4.433
306.35	4.435
306.72	4.447
307.09	4.061
307.45	5.590
307.82	5.146
308.19	4.137
308.55	5.400
308.92	4.966
309.29	6.322
309.65	5.653
310.02	5.149
310.38	5.020
310.75	5.631
311.12	6.520
311.48	5.083
311.85	6.173
312.22	6.452
312.58	5.822
312.95	5.449
313.31	6.233
313.68	5.678
314.05	6.865
314.41	7.286
314.78	7.175
315.14	6.624
315.51	7.572
315.87	6.661
316.24	6.393
316.61	8.348
316.97	6.154
317.34	6.702
317.70	6.201
318.07	6.526
318.43	7.483
318.80	8.863
319.16	7.039
319.53	6.512
319.89	7.975
320.26	7.918
320.62	6.915
320.99	7.202
321.35	8.226
321.72	9.116
322.08	7.935
322.45	7.769
322.81	7.762
323.18	7.434
323.54	7.931
323.91	8.096
324.27	7.573
324.64	8.396
325.00	9.370
325.37	8.927
325.73	9.174
326.10	9.002
326.46	8.795
326.83	9.367
327.19	9.685
327.56	8.933
327.92	8.969
328.29	9.516
328.65	9.464
329.01	9.391
329.38	9.857
329.74	8.904
330.11	9.846
330.47	10.110
330.84	8.613
331.20	10.167
331.56	9.619
331.93	10.711
332.29	9.661
332.66	10.050
333.02	9.799
333.38	9.312
333.75	10.522
334.11	10.676
334.48	10.066
334.84	10.705
335.20	10.579
335.57	10.540
335.93	10.331
336.29	9.900
336.66	10.597
337.02	10.619
337.38	10.374
337.75	10.331
338.11	9.756
338.47	9.677
338.84	10.998
339.20	9.351
339.56	9.308
339.93	9.852
340.29	10.467
340.65	10.462
341.02	11.413
341.38	11.722
341.74	9.685
342.11	10.137
342.47	8.975
342.83	10.789
343.20	11.120
343.56	9.783
343.92	9.928
344.28	10.937
344.65	10.233
345.01	10.998
345.37	10.109
345.73	8.807
346.10	10.920
346.46	10.443
346.82	11.236
347.19	10.542
347.55	11.077
347.91	10.327
348.27	10.622
348.63	10.586
349.00	10.887
349.36	10.855
349.72	11.012
350.08	10.996
350.45	11.027
350.81	10.633
351.17	10.451
351.53	11.600
351.89	10.478
352.26	10.970
352.62	10.672
352.98	10.534
353.34	9.933
353.70	9.399
354.07	10.060
354.43	10.554
354.79	10.172
355.15	10.522
355.51	11.696
355.87	10.546
356.24	10.951
356.60	10.126
356.96	11.193
357.32	10.186
357.68	10.615
358.04	10.404
358.40	10.597
358.77	10.526
359.13	10.192
359.49	9.145
359.85	11.530
360.21	10.473
360.57	11.342
360.93	10.719
361.29	10.877
361.66	10.572
362.02	11.552
362.38	10.822
362.74	10.615
363.10	11.348
363.46	11.773
363.82	10.653
364.18	10.767
364.54	9.959
364.90	11.839
365.26	9.379
365.62	11.400
365.98	11.300
366.35	10.671
366.71	10.952
367.07	11.299
367.43	11.556
367.79	11.347
368.15	11.906
368.51	11.502
368.87	11.626
369.23	11.400
369.59	11.612
369.95	11.562
370.31	11.141
370.67	12.036
371.03	10.942
371.39	10.544
371.75	11.486
372.11	11.382
372.47	11.104
372.83	12.107
373.19	12.141
373.55	11.314
373.91	11.520
374.27	11.125
374.63	11.299
374.99	11.273
375.35	12.208
375.71	11.806
376.07	11.620
376.42	11.398
376.78	11.436
377.14	11.728
377.50	11.195
377.86	12.192
378.22	12.874
378.58	12.842
378.94	11.796
379.30	11.482
379.66	11.464
380.02	12.118
380.38	12.270
380.74	12.113
381.09	12.427
381.45	12.102
381.81	12.588
382.17	11.936
382.53	12.398
382.89	12.754
383.25	12.368
383.61	11.979
383.97	12.367
384.32	12.560
384.68	12.761
385.04	12.261
385.40	12.493
385.76	12.954
386.12	11.789
386.48	12.882
386.83	12.694
387.19	11.877
387.55	12.265
387.91	12.043
388.27	12.413
388.62	12.486
388.98	12.408
389.34	12.493
389.70	11.854
390.06	12.552
390.42	12.530
390.77	12.824
391.13	12.441
391.49	12.560
391.85	12.485
392.20	12.811
392.56	13.349
392.92	13.141
393.28	12.217
393.64	12.626
393.99	12.958
394.35	12.442
394.71	13.473
395.07	11.976
395.42	12.507
395.78	13.467
396.14	12.062
396.50	12.530
396.85	12.761
397.21	13.195
397.57	12.956
397.92	13.402
398.28	12.548
398.64	12.414
399.00	11.990
399.35	12.565
399.71	12.120
400.07	12.016
400.42	12.282
400.78	12.500
401.14	12.464
401.49	13.076
401.85	12.558
402.21	12.804
402.57	13.204
402.92	12.234
403.28	12.763
403.63	11.098
403.99	12.827
404.35	13.076
404.70	12.408
405.06	11.630
405.42	12.471
405.77	12.050
406.13	12.156
406.49	12.950
406.84	12.964
407.20	11.235
407.55	12.053
407.91	12.885
408.27	12.250
408.62	12.798
408.98	12.478
409.34	10.850
409.69	12.361
410.05	12.603
410.40	13.399
410.76	12.283
411.11	12.274
411.47	12.715
411.83	13.110
412.18	12.590
412.54	12.033
412.89	12.282
413.25	12.077
413.60	12.292
413.96	12.471
414.31	11.898
414.67	12.045
415.03	12.123
415.38	13.430
415.74	12.706
416.09	12.708
416.45	12.649
416.80	12.179
417.16	12.835
417.51	12.827
417.87	12.201
418.22	13.533
418.58	13.073
418.93	13.329
419.29	12.700
419.64	13.385
420.00	12.878
420.35	13.476
420.71	13.211
421.06	12.881
421.42	13.876
421.77	12.763
422.12	13.742
422.48	13.876
422.83	13.691
423.19	13.846
423.54	13.772
423.90	14.357
424.25	13.973
424.61	13.375
424.96	14.113
425.31	14.544
425.67	13.419
426.02	14.112
426.38	14.409
426.73	14.844
427.09	14.591
427.44	14.309
427.79	14.262
428.15	14.441
428.50	15.000
428.85	14.638
429.21	15.053
429.56	14.413
429.92	15.037
430.27	15.373
430.62	14.900
430.98	15.593
431.33	15.396
431.68	14.751
432.04	14.830
432.39	15.908
432.74	15.468
433.10	15.846
433.45	14.883
433.80	16.631
434.16	15.909
434.51	15.930
434.86	15.581
435.22	16.472
435.57	16.922
435.92	16.416
436.28	15.984
436.63	16.876
436.98	15.888
437.34	17.418
437.69	16.291
438.04	16.552
438.39	16.772
438.75	16.713
439.10	17.548
439.45	17.328
439.81	16.328
440.16	16.515
440.51	17.224
440.86	16.509
441.22	17.095
441.57	16.824
441.92	16.974
442.27	16.970
442.63	17.437
442.98	17.823
443.33	17.254
443.68	17.790
444.03	17.451
444.39	17.152
444.74	18.121
445.09	17.131
445.44	17.492
445.79	18.008
446.15	18.191
446.50	17.416
446.85	17.899
447.20	17.456
447.55	17.939
447.91	17.749
448.26	18.446
448.61	18.013
448.96	18.079
449.31	18.028
449.66	17.538
450.02	17.932
450.37	18.380
450.72	17.384
451.07	18.223
451.42	17.620
451.77	19.011
452.12	18.510
452.47	17.766
452.83	18.525
453.18	18.214
453.53	18.667
453.88	18.664
454.23	17.910
454.58	18.224
454.93	18.447
455.28	18.964
455.63	19.215
455.98	18.659
456.34	18.316
456.69	18.166
457.04	19.031
457.39	18.348
457.74	19.351
458.09	18.232
458.44	18.103
458.79	17.896
459.14	18.563
459.49	19.525
459.84	19.098
460.19	18.046
460.54	19.534
460.89	18.475
461.24	18.736
461.59	19.369
461.94	18.026
462.29	19.037
462.64	18.890
462.99	19.460
463.34	19.338
463.69	19.285
464.04	20.011
464.39	18.610
464.74	19.384
465.09	19.262
465.44	19.474
465.79	19.249
466.14	18.603
466.49	19.842
466.84	19.229
467.19	19.249
467.54	19.448
467.89	19.310
468.24	20.222
468.59	18.356
468.94	19.172
469.29	18.656
469.64	19.263
469.99	19.120
470.34	19.245
470.68	19.481
471.03	18.861
471.38	19.359
471.73	19.116
472.08	19.543
472.43	19.687
472.78	19.836
473.13	19.343
473.48	20.060
473.83	19.791
474.17	19.285
474.52	20.144
474.87	19.601
475.22	19.887
475.57	19.211
475.92	20.110
476.27	19.595
476.61	19.990
476.96	19.291
477.31	20.099
477.66	20.409
478.01	19.420
478.36	19.691
478.70	19.507
479.05	20.450
479.40	19.941
479.75	20.221
480.10	19.848
480.45	20.055
480.79	19.864
481.14	19.256
481.49	19.991
481.84	20.017
482.19	19.914
482.53	19.808
482.88	20.027
483.23	20.231
483.58	19.170
483.92	18.927
484.27	19.771
484.62	19.224
484.97	20.257
485.31	20.204
485.66	19.930
486.01	19.594
486.36	19.731
486.70	19.814
487.05	19.948
487.40	19.991
487.75	20.229
488.09	19.949
488.44	20.006
488.79	20.540
489.13	20.384
489.48	20.078
489.83	19.799
490.17	19.684
490.52	19.622
490.87	19.712
491.22	19.887
491.56	20.435
491.91	20.235
492.26	19.688
492.60	20.070
492.95	20.360
493.30	19.498
493.64	19.580
493.99	20.044
494.34	19.774
494.68	19.229
495.03	20.352
495.37	20.062
495.72	19.955
496.07	19.851
496.41	20.034
496.76	19.933
497.11	20.255
497.45	19.940
497.80	19.325
498.14	19.546
498.49	19.807
498.84	20.064
499.18	20.243
499.53	20.000
499.87	20.791
500.22	19.724
500.56	19.568
500.91	20.503
501.26	21.091
501.60	19.487
501.95	19.974
502.29	19.965
502.64	20.332
502.98	20.147
503.33	19.568
503.67	20.017
504.02	20.315
504.36	20.643
504.71	20.165
505.06	20.191
505.40	20.338
505.75	19.991
506.09	20.120
506.44	19.452
506.78	20.367
507.13	21.162
507.47	20.133
507.82	20.028
508.16	19.646
508.51	19.737
508.85	19.792
509.19	20.512
509.54	20.941
509.88	20.010
510.23	20.593
510.57	20.686
510.92	20.368
511.26	19.865
511.61	19.942
511.95	20.498
512.30	20.433
512.64	19.940
512.98	20.310
513.33	21.018
513.67	19.735
514.02	20.491
514.36	20.358
514.70	20.208
515.05	20.751
515.39	20.735
515.74	20.997
516.08	20.919
516.42	21.141
516.77	21.293
517.11	19.752
517.46	20.148
517.80	21.112
518.14	20.403
518.49	21.041
518.83	20.224
519.17	20.086
519.52	20.702
519.86	20.961
520.20	20.288
520.55	20.591
520.89	20.158
521.23	20.436
521.58	20.508
521.92	21.076
522.26	20.103
522.61	20.428
522.95	20.819
523.29	20.517
523.64	20.796
523.98	21.221
524.32	21.375
524.66	20.774
525.01	20.555
525.35	20.735
525.69	20.534
526.04	19.346
526.38	21.092
526.72	20.934
527.06	20.762
527.41	20.583
527.75	21.081
528.09	20.720
528.43	20.308
528.78	19.827
529.12	20.528
529.46	20.292
529.80	20.595
530.15	20.696
530.49	20.759
530.83	20.366
531.17	21.147
531.51	20.698
531.86	20.613
532.20	21.768
532.54	20.646
532.88	20.727
533.22	20.212
533.57	20.773
533.91	20.707
534.25	20.181
534.59	20.575
534.93	19.072
535.27	21.014
535.62	21.262
535.96	20.221
536.30	20.564
536.64	20.601
536.98	20.480
537.32	21.605
537.66	21.148
538.01	19.819
538.35	20.158
538.69	21.214
539.03	21.091
539.37	20.436
539.71	20.961
540.05	21.463
540.39	19.988
540.73	20.340
541.07	20.969
541.42	19.256
541.76	19.692
542.10	20.446
542.44	20.585
542.78	21.168
543.12	20.739
543.46	20.635
543.80	19.964
544.14	20.048
544.48	19.681
544.82	20.527
545.16	20.334
545.50	20.072
545.84	21.004
546.18	20.802
546.52	20.955
546.86	20.377
547.20	20.483
547.54	19.850
547.88	20.494
548.22	20.175
548.56	20.655
548.90	20.358
549.24	20.000
549.58	20.126
549.92	20.281
550.26	21.424
550.60	20.549
550.94	20.828
551.28	20.726
551.62	21.563
551.96	20.194
552.30	21.160
552.64	20.784
552.98	20.649
553.32	21.222
553.66	20.129
554.00	21.311
554.34	20.463
554.68	20.271
555.02	21.156
555.36	21.893
555.69	20.051
556.03	20.492
556.37	20.901
556.71	21.243
557.05	20.895
557.39	20.504
557.73	19.815
558.07	20.861
558.41	20.664
558.75	21.163
559.08	20.459
559.42	20.645
559.76	20.692
560.10	20.429
560.44	20.778
560.78	21.000
561.12	20.567
561.45	20.742
561.79	21.001
562.13	21.010
562.47	20.037
562.81	20.696
563.15	20.960
563.48	20.012
563.82	20.738
564.16	21.078
564.50	20.918
564.84	21.062
565.17	20.941
565.51	20.771
565.85	20.131
566.19	19.931
566.52	20.070
566.86	21.053
567.20	20.663
567.54	20.712
567.88	20.999
568.21	20.751
568.55	21.247
568.89	20.018
569.23	20.279
569.56	20.399
569.90	20.314
570.24	20.202
570.57	20.237
570.91	20.086
571.25	20.567
571.59	20.818
571.92	20.522
572.26	20.461
572.60	20.147
572.93	20.651
573.27	20.568
573.61	20.169
573.95	20.102
574.28	19.902
574.62	19.941
574.96	19.762
575.29	20.203
575.63	20.028
575.97	20.287
576.30	20.281
576.64	19.995
576.98	19.977
577.31	20.280
577.65	20.388
577.98	20.256
578.32	19.765
578.66	19.770
578.99	20.029
579.33	20.253
579.67	19.787
580.00	20.117
580.34	20.419
580.67	20.234
581.01	20.208
581.35	20.417
581.68	20.071
582.02	20.163
582.35	20.602
582.69	20.493
583.02	20.333
583.36	20.312
583.70	20.382
584.03	20.614
584.37	20.513
584.70	20.465
585.04	20.158
585.37	20.924
585.71	20.604
586.04	20.387
586.38	20.822
586.72	19.754
587.05	20.389
587.39	20.618
587.72	20.455
588.06	21.035
588.39	20.588
588.73	20.529
589.06	20.288
589.40	21.143
589.73	20.566
590.07	20.922
590.40	20.892
590.73	20.537
591.07	21.184
591.40	20.645
591.74	20.787
592.07	21.153
592.41	20.820
592.74	20.980
593.08	21.433
593.41	20.968
593.75	20.546
594.08	21.297
594.41	21.186
594.75	20.990
595.08	21.231
595.42	20.584
595.75	20.730
596.09	21.145
596.42	20.924
596.75	21.034
597.09	21.576
597.42	21.057
597.75	21.051
598.09	20.397
598.42	21.311
598.76	20.520
599.09	20.221
599.42	20.215
599.76	20.040
600.09	21.021
600.42	21.088
600.76	20.674
601.09	20.743
601.42	20.632
601.76	21.034
602.09	20.979
602.42	20.574
602.76	20.738
603.09	20.228
603.42	21.243
603.76	20.895
604.09	21.469
604.42	21.028
604.76	20.928
605.09	20.901
605.42	21.132
605.75	21.077
606.09	20.343
606.42	20.503
606.75	19.940
607.09	20.238
607.42	20.848
607.75	20.555
608.08	20.994
608.42	20.435
608.75	20.605
609.08	20.968
609.41	20.820
609.75	21.116
610.08	20.668
610.41	20.816
610.74	20.588
611.07	20.604
611.41	21.390
611.74	21.155
612.07	21.599
612.40	20.865
612.73	20.782
613.07	20.685
613.40	20.789
613.73	20.992
614.06	21.295
614.39	20.748
614.72	21.058
615.06	20.789
615.39	20.735
615.72	20.806
616.05	21.418
616.38	21.393
616.71	21.369
617.05	20.927
617.38	21.455
617.71	21.598
618.04	21.155
618.37	21.530
618.70	21.154
619.03	20.370
619.36	20.469
619.69	21.012
620.03	21.657
620.36	20.859
620.69	19.864
621.02	22.441
621.35	21.698
621.68	21.981
622.01	20.854
622.34	21.967
622.67	21.856
623.00	21.323
623.33	21.367
623.66	22.179
623.99	20.474
624.32	22.482
624.65	20.914
624.99	21.261
625.32	21.032
625.65	21.713
625.98	21.085
626.31	21.474
626.64	21.465
626.97	20.630
627.30	19.894
627.63	21.755
627.96	22.072
628.29	21.634
628.62	20.739
628.95	21.122
629.28	21.410
629.61	23.569
629.94	20.335
630.26	21.525
630.59	21.503
630.92	21.299
631.25	22.451
631.58	21.751
631.91	21.837
632.24	21.422
632.57	21.157
632.90	21.163
633.23	21.939
633.56	20.816
633.89	22.211
634.22	22.453
634.55	21.399
634.88	22.078
635.20	21.421
635.53	22.599
635.86	20.693
636.19	23.118
636.52	22.574
636.85	21.757
637.18	22.453
637.51	21.935
637.83	22.038
638.16	21.774
638.49	22.183
638.82	21.984
639.15	20.962
639.48	22.402
639.81	22.286
640.13	21.790
640.46	20.000
640.79	20.711
641.12	22.609
641.45	21.706
641.77	23.107
642.10	21.260
642.43	22.872
642.76	21.409
643.09	20.274
643.41	22.409
643.74	20.828
644.07	23.724
644.40	23.338
644.73	21.771
645.05	22.173
645.38	22.446
645.71	24.780
646.04	23.960
646.36	23.504
646.69	20.552
647.02	23.700
647.35	24.275
647.67	23.027
648.00	23.089
648.33	22.823
648.66	22.682
648.98	21.633
649.31	23.951
649.64	22.842
649.96	21.220
650.29	21.419
650.62	23.338
650.94	21.922
651.27	21.407
651.60	23.830
651.92	22.948
652.25	22.865
652.58	21.045
652.90	19.767
653.23	22.254
653.56	20.970
653.88	22.753
654.21	23.239
654.54	23.266
654.86	20.963
655.19	21.079
655.52	20.351
655.84	19.832
656.17	24.811
656.49	35.260
656.82	39.213
657.15	30.283
657.47	22.814
657.80	16.845
658.13	13.358
658.45	17.694
658.78	21.410
659.10	21.710
659.43	21.514
659.75	22.619
660.08	21.793
660.41	23.160
660.73	22.007
661.06	21.586
661.38	22.967
661.71	21.207
662.03	21.340
662.36	24.687
662.68	23.265
663.01	21.770
663.33	21.739
663.66	23.810
663.98	21.154
664.31	23.077
664.63	19.268
664.96	24.682
665.28	21.779
665.61	24.650
665.93	20.357
666.26	22.043
666.58	21.771
666.91	23.178
667.23	21.714
667.56	22.880
667.88	22.200
668.21	22.070
668.53	23.166
668.86	23.969
669.18	23.014
669.50	23.260
669.83	22.600
670.15	25.197
670.48	24.802
670.80	21.989
671.13	20.983
671.45	21.654
671.77	22.599
672.10	21.000
672.42	21.197
672.75	21.352
673.07	21.642
673.39	21.726
673.72	24.497
674.04	23.276
674.37	23.614
674.69	22.928
675.01	22.476
675.34	22.901
675.66	22.285
675.98	22.761
676.31	25.586
676.63	23.004
676.95	24.330
677.28	21.371
677.60	21.457
677.92	21.497
678.25	22.669
678.57	24.377
678.89	24.403
679.22	22.474
679.54	22.735
679.86	22.034
680.18	20.232
680.51	23.428
680.83	23.241
681.15	22.069
681.48	23.143
681.80	22.625
682.12	21.154
682.44	22.204
682.77	23.582
683.09	21.970
683.41	25.388
683.73	22.011
684.06	21.956
684.38	22.182
684.70	22.621
685.02	22.375
685.34	20.965
685.67	20.032
685.99	21.933
686.31	19.913
686.63	22.907
686.96	22.871
687.28	21.661
687.60	19.024
687.92	22.186
688.24	23.539
688.56	21.379
688.89	23.956
689.21	23.483
689.53	22.549
689.85	21.499
690.17	21.481
690.49	20.319
690.82	21.980
691.14	22.470
691.46	21.415
691.78	24.678
692.10	20.550
692.42	20.357
692.74	22.868
693.06	20.741
693.39	23.529
693.71	22.180
694.03	22.862
694.35	23.429
694.67	24.230
694.99	21.277
695.31	23.400
695.63	23.593
695.95	23.602
696.27	23.077
696.59	24.779
696.91	22.523
697.23	25.934
697.56	21.589
697.88	21.402
698.20	23.729
698.52	24.811
698.84	24.948
699.16	24.694
699.48	23.640
699.80	23.830
700.12	23.581
700.44	22.581
700.76	26.128
701.08	23.729
701.40	24.352
701.72	21.393
702.04	22.727
702.36	23.037
702.68	24.205
703.00	21.516
703.32	23.153
703.64	23.472
703.96	24.344
704.28	23.342
704.60	24.557
704.91	23.469
705.23	22.192
705.55	25.070
705.87	23.636
706.19	24.847
706.51	21.386
706.83	21.037
707.15	18.519
707.47	22.897
707.79	23.362
708.11	20.551
708.43	19.785
708.74	18.304
709.06	22.042
709.38	24.648
709.70	25.806
710.02	22.997
710.34	23.936
710.66	22.905
710.98	20.765
711.29	23.352
711.61	23.164
711.93	19.658
712.25	22.973
712.57	24.484
712.89	27.941
713.20	22.781
713.52	22.543
713.84	21.727
714.16	25.000
714.48	22.680
714.80	23.117
715.11	21.785
715.43	23.873
715.75	24.737
716.07	19.061
716.39	25.137
716.70	20.783
717.02	25.246
717.34	24.390
717.66	24.161
717.97	23.630
718.29	26.460
718.61	24.013
718.93	23.948
719.24	22.671
719.56	22.393
719.88	22.823
720.20	26.452
720.51	25.466
720.83	23.438
721.15	21.053
721.46	21.918
721.78	25.333
722.10	19.741
722.42	20.470
722.73	23.871
723.05	24.912
723.37	24.306
723.68	25.806
724.00	22.383
724.32	25.000
724.63	25.874
724.95	24.823
725.27	22.300
725.58	21.201
725.90	24.828
726.22	23.511
726.53	21.753
726.85	23.899
727.16	26.888
727.48	28.135
727.80	25.497
728.11	19.435
728.43	24.916
728.74	25.084
729.06	24.503
729.38	21.753
729.69	24.161
730.01	22.917
730.32	22.121
730.64	22.013
730.96	24.224
731.27	25.140
731.59	25.000
731.90	23.896
732.22	21.615
732.53	21.547
732.85	24.571
733.16	24.047
733.48	23.476
733.80	21.448
734.11	24.501
734.43	25.135
734.74	27.342
735.06	22.864
735.37	26.757
735.69	22.432
736.00	24.011
736.32	25.606
736.63	22.778
736.95	21.552
737.26	24.545
737.58	22.424
737.89	21.471
738.21	23.547
738.52	21.639
738.83	24.232
739.15	23.759
739.46	22.109
739.78	23.620
740.09	20.057
740.41	25.656
740.72	27.333
741.04	24.919
741.35	30.175
741.66	24.314
741.98	25.820
742.29	27.197
742.61	25.877
742.92	27.692
743.23	27.437
743.55	27.132
743.86	21.600
744.18	18.595
744.49	20.675
744.80	26.337
745.12	30.380
745.43	23.171
745.74	25.862
746.06	23.729
746.37	26.160
746.68	27.236
747.00	27.083
747.31	25.751
747.62	25.769
747.94	25.101
748.25	25.301
748.56	22.041
748.88	18.803
749.19	27.586
749.50	23.810
749.82	24.900
750.13	29.537
750.44	23.333
750.75	26.462
751.07	21.538
751.38	23.028
751.69	24.281
752.01	24.272
752.32	22.549
752.63	22.449
752.94	23.183
753.26	20.446
753.57	21.111
753.88	27.715
754.19	24.759
754.51	24.437
754.82	24.437
755.13	27.869
755.44	20.478
755.75	25.329
756.07	26.866
756.38	25.472
756.69	26.205
757.00	21.330
757.31	22.678
757.63	19.693
757.94	22.535
758.25	22.799
758.56	22.440
758.87	24.091
759.18	23.200
759.50	24.929
759.81	22.409
760.12	21.833
760.43	22.135
760.74	22.167
761.05	24.750
761.36	23.133
761.67	20.812
761.99	25.946
762.30	21.037
762.61	21.122
762.92	24.627
763.23	25.468
763.54	23.022
763.85	23.024
764.16	21.212
764.47	25.704
764.78	27.476
765.10	23.460
765.41	25.897
765.72	24.868
766.03	26.554
766.34	23.197
766.65	20.209
766.96	24.701
767.27	27.650
767.58	25.871
767.89	25.962
768.20	22.535
768.51	27.778
768.82	27.309
769.13	24.621
769.44	20.385
769.75	26.715
770.06	25.769
770.37	27.165
770.68	26.809
770.99	19.433
771.30	28.148
771.61	25.475
771.92	28.148
772.23	24.696
772.54	22.685
772.85	30.415
773.16	27.143
773.47	20.106
773.78	21.622
774.09	31.250
774.39	24.000
774.70	27.322
775.01	22.561
775.32	17.647
775.63	25.153
775.94	14.650
776.25	28.387
776.56	28.205
776.87	30.612
777.18	25.517
777.48	29.371
777.79	31.757
778.10	19.118
778.41	27.083
778.72	29.655
779.03	32.099
779.34	29.091
779.65	28.497
779.95	31.111
780.26	26.136
780.57	30.968
780.88	26.812
781.19	25.806
781.50	30.588
781.80	22.581
782.11	20.106
782.42	21.212
782.73	19.760
783.04	19.553
783.34	21.818
783.65	24.183
783.96	26.708
784.27	23.214
784.57	27.152
784.88	28.571
785.19	23.622
785.50	23.622
785.81	20.301
786.11	26.923
786.42	25.180
786.73	29.496
787.04	23.308
787.34	26.230
787.65	29.600
787.96	32.836
788.26	32.867
788.57	29.371
788.88	25.000
789.19	25.490
789.49	22.603
789.80	31.915
790.11	33.071
790.41	25.781
790.72	27.966
791.03	18.447
791.33	26.087
791.64	28.947
791.95	32.143
792.25	31.429
792.56	31.250
792.87	27.083
793.17	33.929
793.48	29.167
793.79	25.301
794.09	20.183
794.40	30.275
794.70	24.490
795.01	27.922
795.32	20.548
795.62	29.577
795.93	28.030
796.23	29.508
796.54	20.536
796.85	24.468
797.15	25.000
797.46	32.877
797.76	18.750
798.07	27.174
798.37	22.680
798.68	32.468
798.99	29.885
799.29	29.213
799.60	27.660
799.90	36.145
800.21	24.615
800.51	13.433
800.82	29.412
801.12	21.918
801.43	29.412
801.73	28.814
802.04	25.758
802.34	13.333
802.65	25.424
802.95	35.821
803.26	40.678
803.56	24.658
803.87	41.429
804.17	38.356
804.48	24.561
804.78	34.722
805.09	18.966
805.39	37.838
805.70	33.803
806.00	28.049
806.30	33.735
806.61	32.877
806.91	25.000
807.22	38.889
807.52	24.138
807.83	30.556
808.13	28.916
808.43	26.966
808.74	31.250
809.04	36.765
809.35	22.667
809.65	34.286
809.95	34.247
810.26	29.825
810.56	34.483
810.86	44.118
811.17	28.070
811.47	40.984
811.77	24.444
812.08	30.508
812.38	33.333
812.69	39.655
812.99	15.094
813.29	23.077
813.59	42.000
813.90	45.614
814.20	30.909
814.50	40.845
814.81	37.179
815.11	40.984
815.41	43.284
815.72	15.517
816.02	28.571
816.32	37.778
816.62	47.727
816.93	17.778
817.23	35.185
817.53	38.298
817.84	66.667
818.14	47.059
818.44	24.490
818.74	55.556
819.04	28.205
819.35	-8.571
819.65	11.538
819.95	49.057
820.25	26.667
820.56	61.905
820.86	59.375
821.16	56.410
821.46	30.233
821.76	40.000
822.07	42.857
822.37	30.435
822.67	38.298
822.97	8.108
823.27	47.500
823.57	46.939
823.88	44.444
824.18	40.000
824.48	40.000
824.78	76.000
825.08	54.545
825.38	37.778
825.69	59.574
825.99	50.000
826.29	20.000
826.59	28.205
826.89	23.256
827.19	20.000
827.49	41.176
827.79	37.500
828.09	21.622
828.39	16.667
828.70	48.780
829.00	30.233
829.30	42.857
829.60	47.059
829.90	32.609
830.20	45.714
830.50	13.793
830.80	33.333
831.10	76.923
831.40	38.235
831.70	42.857
832.00	48.387
832.30	11.765
832.60	66.667
832.90	46.154
833.20	42.105
833.50	55.000
833.80	26.316
834.10	9.524
834.40	66.667
834.70	71.875
835.00	22.857
835.30	55.882
835.60	26.667
835.90	76.000
836.20	18.182
836.50	72.000
836.80	33.333
837.10	44.444
837.40	40.741
837.70	18.750
838.00	39.286
838.30	91.304
838.60	79.310
838.90	71.429
839.19	21.739
839.49	8.333
839.79	56.522
840.09	25.000
840.39	70.000
840.69	48.387
840.99	35.714
841.29	53.333
841.59	42.105
841.88	79.487
842.18	42.308
842.48	60.000
842.78	75.000
843.08	83.333
843.38	58.065
843.68	27.778
843.97	52.941
844.27	106.250
844.57	68.421
844.87	10.000
845.17	66.667
845.47	76.190
845.76	66.667
846.06	-22.222
846.36	35.294
846.66	50.000
846.96	26.667
847.25	35.294
847.55	95.652
847.85	90.000
848.15	100.000
848.44	54.545
848.74	33.333
849.04	8.333
849.34	62.500
849.63	95.652
849.93	-250.000
850.23	113.333
850.53	80.769
850.82	81.818
851.12	50.000
851.42	118.182
851.71	84.615
852.01	0.000
852.31	46.154
852.61	36.842
852.90	150.000
853.20	122.222
853.50	33.333
853.79	76.190
854.09	-9.091
854.39	41.667
854.68	64.516
854.98	46.154
855.28	105.556
855.57	46.429
855.87	64.000
856.17	68.182
856.46	48.148
856.76	50.000
857.05	43.478
857.35	8.333
857.65	38.462
857.94	47.619
858.24	40.741
858.53	82.609
858.83	105.882
859.13	52.941
859.42	64.706
859.72	78.571
860.01	25.000
860.31	144.444
860.60	120.000
860.90	106.667
861.20	55.556
861.49	115.385
861.79	70.000
862.08	92.308
862.38	59.375
862.67	82.353
862.97	143.750
863.26	88.889
863.56	60.000
863.85	54.545
864.15	100.000
864.44	333.333
864.74	71.429
865.03	87.500
865.33	60.000
865.62	9.677
865.92	50.000
866.21	78.261
866.51	107.143
866.80	-40.000
867.10	83.333
867.39	-83.333
867.69	200.000
867.98	85.714
868.27	105.882
868.57	200.000
868.86	60.000
869.16	9.524
869.45	75.000
869.75	145.455
870.04	114.286
870.33	83.333
870.63	128.571
870.92	225.000
871.22	-137.500
871.51	36.364
871.80	-133.333
872.10	300.000
>>>>>End Processed Spectral Data<<<<<
