SpectraSuite Data File
++++++++++++++++++++++++++++++++++++
Date: Thu May 14 14:38:14 PDT 2015
User: schluterlab
Dark Spectrum Present: Yes
Reference Spectrum Present: Yes
Number of Sampled Component Spectra: 1
Spectrometers: USB2E3373
Integration Time (usec): 3000 (USB2E3373)
Spectra Averaged: 3 (USB2E3373)
Boxcar Smoothing: 0 (USB2E3373)
Correct for Electrical Dark: No (USB2E3373)
Strobe/Lamp Enabled: No (USB2E3373)
Correct for Detector Non-linearity: No (USB2E3373)
Correct for Stray Light: No (USB2E3373)
Number of Pixels in Processed Spectrum: 2048
>>>>>Begin Processed Spectral Data<<<<<
178.53	0.000
178.91	-142.857
179.29	400.000
179.67	800.000
180.04	14.286
180.42	-40.000
180.80	-240.000
181.18	500.000
181.56	2300.000
181.94	-150.000
182.31	375.000
182.69	-566.667
183.07	650.000
183.45	-50.000
183.83	200.000
184.20	466.667
184.58	-1000.000
184.96	175.000
185.34	133.333
185.72	220.000
186.09	-55.556
186.47	-650.000
186.85	-200.000
187.23	77.778
187.61	900.000
187.98	-220.000
188.36	-50.000
188.74	250.000
189.12	500.000
189.49	156.250
189.87	87.500
190.25	200.000
190.63	320.000
191.00	100.000
191.38	0.000
191.76	275.000
192.14	333.333
192.51	-800.000
192.89	350.000
193.27	0.000
193.65	171.429
194.02	700.000
194.40	214.286
194.78	-128.571
195.15	0.000
195.53	154.545
195.91	0.000
196.29	750.000
196.66	161.538
197.04	1100.000
197.42	342.857
197.79	700.000
198.17	175.000
198.55	100.000
198.92	155.556
199.30	137.500
199.68	227.273
200.05	178.571
200.43	700.000
200.81	-142.857
201.18	0.000
201.56	-11.111
201.94	0.000
202.31	-133.333
202.69	100.000
203.07	-1900.000
203.44	277.778
203.82	450.000
204.19	58.333
204.57	233.333
204.95	162.500
205.32	1800.000
205.70	-200.000
206.08	266.667
206.45	366.667
206.83	-40.000
207.20	316.667
207.58	60.000
207.96	83.333
208.33	400.000
208.71	-83.333
209.08	333.333
209.46	0.000
209.84	-100.000
210.21	-850.000
210.59	-550.000
210.96	-233.333
211.34	500.000
211.71	212.500
212.09	2200.000
212.46	0.000
212.84	-800.000
213.22	260.000
213.59	675.000
213.97	260.000
214.34	333.333
214.72	-166.667
215.09	350.000
215.47	0.000
215.84	-100.000
216.22	-300.000
216.59	360.000
216.97	20.000
217.34	400.000
217.72	175.000
218.09	475.000
218.47	375.000
218.84	0.000
219.22	-260.000
219.59	117.647
219.97	135.000
220.34	-850.000
220.72	166.667
221.09	215.385
221.47	300.000
221.84	200.000
222.22	214.286
222.59	0.000
222.97	200.000
223.34	140.000
223.72	1700.000
224.09	425.000
224.46	250.000
224.84	560.000
225.21	242.857
225.59	225.000
225.96	300.000
226.34	88.462
226.71	-116.667
227.08	650.000
227.46	93.333
227.83	375.000
228.21	89.474
228.58	-100.000
228.95	-850.000
229.33	183.333
229.70	230.000
230.08	121.053
230.45	-120.000
230.82	466.667
231.20	100.000
231.57	175.000
231.95	172.727
232.32	236.364
232.69	115.000
233.07	175.000
233.44	111.765
233.81	160.000
234.19	116.667
234.56	81.818
234.93	100.000
235.31	100.000
235.68	33.333
236.05	30.000
236.43	80.769
236.80	116.000
237.17	51.852
237.55	33.333
237.92	100.000
238.29	74.194
238.67	40.909
239.04	52.778
239.41	28.571
239.79	32.609
240.16	29.630
240.53	32.609
240.91	19.608
241.28	26.230
241.65	40.299
242.02	35.135
242.40	21.538
242.77	8.000
243.14	8.537
243.51	11.842
243.89	24.359
244.26	27.723
244.63	22.549
245.00	24.299
245.38	22.807
245.75	14.159
246.12	18.254
246.49	12.403
246.87	24.286
247.24	15.894
247.61	11.842
247.98	16.107
248.36	9.259
248.73	10.429
249.10	13.115
249.47	14.925
249.84	15.183
250.22	7.772
250.59	13.333
250.96	17.727
251.33	9.694
251.70	17.521
252.08	11.250
252.45	13.934
252.82	15.702
253.19	10.938
253.56	11.027
253.94	8.077
254.31	10.606
254.68	13.636
255.05	9.446
255.42	9.524
255.79	9.385
256.16	9.272
256.54	6.291
256.91	8.525
257.28	12.459
257.65	9.236
258.02	9.145
258.39	10.826
258.76	12.232
259.14	9.195
259.51	12.104
259.88	8.499
260.25	10.278
260.62	11.781
260.99	11.202
261.36	8.311
261.73	9.549
262.10	10.165
262.47	8.043
262.85	13.131
263.22	8.052
263.59	4.737
263.96	7.673
264.33	8.184
264.70	10.370
265.07	11.217
265.44	10.658
265.81	9.954
266.18	11.111
266.55	9.821
266.92	6.834
267.29	11.160
267.66	9.313
268.03	9.825
268.40	11.065
268.77	8.428
269.14	7.269
269.51	9.868
269.88	10.656
270.25	10.060
270.62	10.338
270.99	11.515
271.36	8.119
271.73	10.413
272.10	10.220
272.47	8.617
272.84	9.438
273.21	9.218
273.58	10.685
273.95	8.654
274.32	6.844
274.69	6.963
275.06	10.256
275.43	7.579
275.80	8.113
276.17	6.852
276.54	9.142
276.91	8.229
277.28	8.318
277.65	10.592
278.02	7.353
278.39	7.246
278.76	6.854
279.13	8.688
279.50	8.419
279.87	8.050
280.23	5.634
280.60	8.475
280.97	8.882
281.34	6.282
281.71	8.968
282.08	6.478
282.45	7.529
282.82	7.849
283.19	7.593
283.56	7.541
283.92	9.159
284.29	9.321
284.66	9.688
285.03	4.006
285.40	7.728
285.77	6.502
286.14	7.939
286.51	7.610
286.87	7.109
287.24	6.777
287.61	7.474
287.98	7.100
288.35	6.805
288.72	6.953
289.08	7.028
289.45	7.544
289.82	5.572
290.19	7.328
290.56	7.324
290.93	6.990
291.29	6.749
291.66	7.025
292.03	5.563
292.40	7.347
292.77	4.717
293.13	6.089
293.50	5.782
293.87	6.711
294.24	7.467
294.60	7.712
294.97	4.966
295.34	7.810
295.71	5.296
296.08	5.943
296.44	6.005
296.81	6.943
297.18	6.600
297.55	6.014
297.91	4.508
298.28	4.147
298.65	5.945
299.02	5.077
299.38	7.094
299.75	6.308
300.12	5.556
300.48	5.300
300.85	7.087
301.22	6.711
301.59	4.795
301.95	6.102
302.32	6.667
302.69	5.696
303.05	6.202
303.42	6.984
303.79	5.312
304.15	6.099
304.52	5.074
304.89	6.073
305.25	5.694
305.62	5.434
305.99	6.495
306.35	5.746
306.72	5.481
307.09	4.365
307.45	5.694
307.82	5.651
308.19	5.449
308.55	6.750
308.92	6.037
309.29	6.609
309.65	5.848
310.02	6.139
310.38	5.610
310.75	5.728
311.12	6.807
311.48	5.181
311.85	6.838
312.22	6.736
312.58	5.164
312.95	5.163
313.31	6.504
313.68	5.952
314.05	6.775
314.41	7.195
314.78	6.630
315.14	6.624
315.51	8.033
315.87	6.841
316.24	6.575
316.61	8.348
316.97	6.063
317.34	5.644
317.70	7.686
318.07	7.496
318.43	7.653
318.80	8.278
319.16	6.094
319.53	5.998
319.89	6.836
320.26	8.185
320.62	7.713
320.99	7.572
321.35	7.209
321.72	7.814
322.08	7.484
322.45	7.407
322.81	7.130
323.18	6.903
323.54	7.845
323.91	8.986
324.27	8.348
324.64	7.976
325.00	8.126
325.37	8.190
325.73	8.430
326.10	8.191
326.46	9.039
326.83	9.367
327.19	8.031
327.56	8.221
327.92	7.789
328.29	8.548
328.65	7.538
329.01	8.545
329.38	8.593
329.74	9.075
330.11	8.219
330.47	7.835
330.84	9.216
331.20	9.417
331.56	9.012
331.93	8.536
332.29	8.305
332.66	8.306
333.02	8.878
333.38	8.221
333.75	9.007
334.11	8.590
334.48	9.158
334.84	8.496
335.20	8.984
335.57	9.022
335.93	9.421
336.29	8.486
336.66	8.663
337.02	8.027
337.38	9.439
337.75	8.843
338.11	9.672
338.47	8.933
338.84	8.206
339.20	8.003
339.56	8.484
339.93	8.703
340.29	9.340
340.65	9.084
341.02	9.737
341.38	8.973
341.74	8.717
342.11	9.735
342.47	7.943
342.83	9.259
343.20	8.422
343.56	9.783
343.92	9.528
344.28	9.609
344.65	9.612
345.01	9.126
345.37	10.109
345.73	8.496
346.10	9.204
346.46	9.415
346.82	9.213
347.19	8.633
347.55	9.332
347.91	8.618
348.27	9.712
348.63	9.216
349.00	8.725
349.36	9.591
349.72	9.598
350.08	9.584
350.45	9.049
350.81	8.446
351.17	9.850
351.53	9.249
351.89	9.719
352.26	9.328
352.62	9.179
352.98	9.389
353.34	8.738
353.70	9.322
354.07	9.165
354.43	8.580
354.79	9.349
355.15	9.124
355.51	9.722
355.87	9.050
356.24	8.897
356.60	8.278
356.96	8.747
357.32	8.996
357.68	9.078
358.04	8.234
358.40	8.806
358.77	9.430
359.13	9.527
359.49	7.509
359.85	8.847
360.21	9.613
360.57	9.045
360.93	8.815
361.29	9.193
361.66	8.834
362.02	10.438
362.38	9.136
362.74	9.777
363.10	9.697
363.46	8.934
363.82	8.381
364.18	9.500
364.54	9.129
364.90	9.365
365.26	8.966
365.62	9.267
365.98	10.075
366.35	9.060
366.71	9.252
367.07	9.269
367.43	9.980
367.79	10.219
368.15	10.435
368.51	10.352
368.87	9.602
369.23	9.867
369.59	9.221
369.95	11.021
370.31	9.588
370.67	10.385
371.03	10.249
371.39	9.604
371.75	9.629
372.11	9.417
372.47	9.614
372.83	9.817
373.19	9.740
373.55	9.485
373.91	9.271
374.27	9.897
374.63	10.487
374.99	9.549
375.35	10.519
375.71	9.935
376.07	9.555
376.42	10.642
376.78	10.379
377.14	10.044
377.50	10.057
377.86	11.084
378.22	11.078
378.58	10.464
378.94	10.270
379.30	10.076
379.66	10.582
380.02	10.156
380.38	11.060
380.74	10.479
381.09	10.743
381.45	10.284
381.81	11.358
382.17	11.580
382.53	10.819
382.89	10.779
383.25	10.492
383.61	10.590
383.97	10.365
384.32	11.722
384.68	10.383
385.04	11.914
385.40	11.550
385.76	11.665
386.12	11.311
386.48	12.118
386.83	12.217
387.19	11.761
387.55	11.150
387.91	11.986
388.27	11.894
388.62	12.486
388.98	11.901
389.34	12.493
389.70	12.086
390.06	11.486
390.42	12.410
390.77	12.703
391.13	12.383
391.49	12.500
391.85	11.818
392.20	12.574
392.56	13.526
392.92	12.323
393.28	11.940
393.64	12.682
393.99	12.435
394.35	12.850
394.71	13.114
395.07	11.737
395.42	12.279
395.78	12.919
396.14	13.131
396.50	12.589
396.85	13.298
397.21	11.953
397.57	13.369
397.92	13.574
398.28	12.656
398.64	12.757
399.00	12.565
399.35	12.723
399.71	12.554
400.07	12.970
400.42	13.038
400.78	13.715
401.14	12.635
401.49	13.189
401.85	12.849
402.21	13.441
402.57	13.204
402.92	13.534
403.28	12.763
403.63	12.291
403.99	13.539
404.35	13.303
404.70	12.861
405.06	12.717
405.42	13.056
405.77	13.141
406.13	12.966
406.49	12.838
406.84	13.573
407.20	12.633
407.55	13.325
407.91	12.948
408.27	13.604
408.62	13.264
408.98	12.478
409.34	13.021
409.69	13.659
410.05	13.306
410.40	13.979
410.76	14.190
411.11	12.741
411.47	14.005
411.83	14.051
412.18	13.253
412.54	12.863
412.89	14.319
413.25	13.262
413.60	13.211
413.96	14.044
414.31	13.711
414.67	13.596
415.03	13.415
415.38	13.052
415.74	14.233
416.09	13.263
416.45	13.713
416.80	13.464
417.16	14.496
417.51	13.761
417.87	13.918
418.22	13.174
418.58	13.197
418.93	14.028
419.29	14.118
419.64	13.385
420.00	12.997
420.35	13.588
420.71	13.555
421.06	13.226
421.42	13.532
421.77	13.624
422.12	13.584
422.48	13.415
422.83	14.239
423.19	14.005
423.54	14.657
423.90	14.081
424.25	14.347
424.61	13.605
424.96	14.223
425.31	14.650
425.67	14.439
426.02	14.388
426.38	15.270
426.73	13.783
427.09	15.456
427.44	14.255
427.79	14.373
428.15	14.041
428.50	14.944
428.85	14.294
429.21	15.213
429.56	14.363
429.92	14.103
430.27	14.795
430.62	14.900
430.98	14.757
431.33	15.054
431.68	14.703
432.04	14.830
432.39	15.372
432.74	14.726
433.10	15.360
433.45	14.437
433.80	15.236
434.16	14.824
434.51	14.851
434.86	15.038
435.22	15.728
435.57	15.920
435.92	15.582
436.28	15.529
436.63	16.111
436.98	15.137
437.34	14.938
437.69	15.685
438.04	15.547
438.39	15.451
438.75	14.997
439.10	15.486
439.45	16.490
439.81	16.441
440.16	16.461
440.51	15.329
440.86	15.898
441.22	16.131
441.57	15.776
441.92	16.004
442.27	15.758
442.63	15.847
442.98	16.222
443.33	15.623
443.68	16.254
444.03	16.275
444.39	16.690
444.74	16.131
445.09	16.168
445.44	16.544
445.79	16.236
446.15	16.650
446.50	16.744
446.85	16.148
447.20	16.779
447.55	15.900
447.91	16.806
448.26	16.649
448.61	16.738
448.96	17.758
449.31	16.437
449.66	16.068
450.02	17.511
450.37	16.729
450.72	16.416
451.07	17.483
451.42	16.002
451.77	16.120
452.12	17.720
452.47	17.053
452.83	17.061
453.18	17.338
453.53	16.485
453.88	17.062
454.23	17.175
454.58	17.528
454.93	17.172
455.28	16.918
455.63	17.283
455.98	17.654
456.34	17.491
456.69	16.343
457.04	17.435
457.39	16.907
457.74	17.170
458.09	16.529
458.44	17.188
458.79	17.019
459.14	16.833
459.49	17.657
459.84	17.524
460.19	17.268
460.54	18.455
460.89	16.834
461.24	16.839
461.59	17.543
461.94	16.828
462.29	17.917
462.64	17.019
462.99	17.765
463.34	18.170
463.69	17.233
464.04	17.843
464.39	16.928
464.74	17.560
465.09	17.935
465.44	17.382
465.79	18.350
466.14	16.780
466.49	17.737
466.84	17.135
467.19	17.630
467.54	17.744
467.89	17.011
468.24	18.061
468.59	17.197
468.94	17.483
469.29	17.337
469.64	16.910
469.99	18.101
470.34	17.884
470.68	18.250
471.03	17.289
471.38	16.939
471.73	17.945
472.08	17.766
472.43	18.543
472.78	17.884
473.13	17.257
473.48	17.402
473.83	17.702
474.17	17.937
474.52	18.461
474.87	17.940
475.22	17.746
475.57	18.172
475.92	18.218
476.27	17.998
476.61	17.601
476.96	17.727
477.31	18.168
477.66	17.733
478.01	17.438
478.36	18.096
478.70	17.882
479.05	18.200
479.40	18.460
479.75	18.396
480.10	17.338
480.45	18.186
480.79	18.413
481.14	17.785
481.49	17.719
481.84	18.016
482.19	17.892
482.53	18.190
482.88	17.723
483.23	17.919
483.58	17.555
483.92	18.307
484.27	18.163
484.62	17.822
484.97	17.691
485.31	17.599
485.66	16.770
486.01	16.528
486.36	16.455
486.70	17.245
487.05	17.571
487.40	17.622
487.75	18.244
488.09	18.174
488.44	18.311
488.79	18.685
489.13	18.863
489.48	17.437
489.83	17.787
490.17	17.618
490.52	18.432
490.87	18.401
491.22	18.847
491.56	18.259
491.91	18.317
492.26	18.996
492.60	17.927
492.95	18.517
493.30	18.377
493.64	18.660
493.99	18.772
494.34	18.728
494.68	18.330
495.03	18.458
495.37	18.731
495.72	18.821
496.07	18.361
496.41	17.503
496.76	18.140
497.11	18.514
497.45	18.472
497.80	18.880
498.14	18.277
498.49	18.842
498.84	19.470
499.18	18.983
499.53	19.417
499.87	18.989
500.22	18.611
500.56	18.578
500.91	18.764
501.26	19.318
501.60	18.515
501.95	19.496
502.29	18.824
502.64	18.627
502.98	18.680
503.33	19.006
503.67	18.055
504.02	19.264
504.36	19.392
504.71	19.339
505.06	19.191
505.40	19.516
505.75	19.581
506.09	19.337
506.44	20.102
506.78	20.229
507.13	19.594
507.47	19.517
507.82	19.081
508.16	19.168
508.51	20.066
508.85	20.312
509.19	20.464
509.54	19.597
509.88	20.058
510.23	19.815
510.57	20.251
510.92	20.126
511.26	19.481
511.61	19.169
511.95	19.961
512.30	20.827
512.64	20.590
512.98	20.610
513.33	20.766
513.67	19.888
514.02	20.337
514.36	20.102
514.70	20.208
515.05	20.959
515.39	20.735
515.74	21.792
516.08	20.285
516.42	20.827
516.77	20.925
517.11	20.990
517.46	20.626
517.80	21.753
518.14	22.144
518.49	22.126
518.83	20.969
519.17	20.948
519.52	20.807
519.86	21.542
520.20	21.938
520.55	21.796
520.89	22.128
521.23	22.669
521.58	21.525
521.92	21.870
522.26	22.050
522.61	22.685
522.95	21.742
523.29	21.954
523.64	22.197
523.98	22.248
524.32	21.605
524.66	22.083
525.01	22.707
525.35	22.401
525.69	21.462
526.04	22.044
526.38	22.701
526.72	22.722
527.06	22.581
527.41	21.924
527.75	22.922
528.09	23.377
528.43	22.735
528.78	21.908
529.12	22.420
529.46	22.709
529.80	23.112
530.15	21.971
530.49	22.894
530.83	23.377
531.17	22.581
531.51	23.406
531.86	23.317
532.20	22.378
532.54	22.322
532.88	23.818
533.22	23.866
533.57	22.966
533.91	22.278
534.25	22.612
534.59	22.874
534.93	22.467
535.27	23.437
535.62	24.048
535.96	23.417
536.30	23.619
536.64	23.604
536.98	23.493
537.32	23.210
537.66	24.392
538.01	23.202
538.35	22.655
538.69	23.678
539.03	23.912
539.37	23.380
539.71	23.183
540.05	23.381
540.39	23.166
540.73	22.647
541.07	23.176
541.42	22.918
541.76	23.013
542.10	23.522
542.44	22.533
542.78	23.479
543.12	23.361
543.46	22.711
543.80	22.602
544.14	23.519
544.48	22.872
544.82	23.639
545.16	22.719
545.50	23.367
545.84	23.515
546.18	24.259
546.52	23.503
546.86	23.145
547.20	24.109
547.54	22.722
547.88	23.267
548.22	22.749
548.56	23.406
548.90	24.060
549.24	23.465
549.58	23.912
549.92	22.640
550.26	23.819
550.60	23.740
550.94	24.256
551.28	24.290
551.62	24.259
551.96	24.142
552.30	24.538
552.64	24.829
552.98	24.517
553.32	24.437
553.66	23.859
554.00	24.149
554.34	24.067
554.68	23.951
555.02	24.113
555.36	24.392
555.69	23.703
556.03	24.338
556.37	25.907
556.71	23.716
557.05	24.026
557.39	24.154
557.73	23.712
558.07	25.033
558.41	25.847
558.75	25.017
559.08	25.191
559.42	24.623
559.76	24.152
560.10	24.380
560.44	25.000
560.78	24.563
561.12	24.815
561.45	25.243
561.79	23.504
562.13	25.200
562.47	24.599
562.81	23.671
563.15	24.306
563.48	24.984
563.82	23.942
564.16	23.501
564.50	23.778
564.84	24.012
565.17	23.588
565.51	23.763
565.85	24.347
566.19	24.194
566.52	24.927
566.86	24.222
567.20	23.382
567.54	23.579
567.88	24.261
568.21	24.061
568.55	23.933
568.89	23.740
569.23	23.363
569.56	22.900
569.90	22.701
570.24	22.159
570.57	22.130
570.91	22.505
571.25	21.984
571.59	22.210
571.92	22.042
572.26	21.863
572.60	22.877
572.93	22.933
573.27	22.169
573.61	22.181
573.95	22.384
574.28	21.887
574.62	22.260
574.96	21.350
575.29	21.965
575.63	21.737
575.97	22.754
576.30	21.984
576.64	22.000
576.98	21.936
577.31	22.164
577.65	21.771
577.98	21.724
578.32	21.419
578.66	21.674
578.99	22.384
579.33	22.543
579.67	22.348
580.00	22.140
580.34	22.600
580.67	22.087
581.01	21.939
581.35	22.229
581.68	22.112
582.02	21.580
582.35	22.114
582.69	22.220
583.02	22.426
583.36	22.510
583.70	22.518
584.03	22.702
584.37	22.933
584.70	22.641
585.04	22.227
585.37	22.448
585.71	22.567
586.04	22.501
586.38	22.725
586.72	22.387
587.05	22.614
587.39	22.613
587.72	22.943
588.06	23.235
588.39	22.977
588.73	23.280
589.06	22.968
589.40	23.632
589.73	23.490
590.07	23.674
590.40	24.138
590.73	24.178
591.07	24.237
591.40	24.378
591.74	23.569
592.07	24.198
592.41	23.383
592.74	23.962
593.08	23.917
593.41	23.593
593.75	23.448
594.08	23.266
594.41	23.782
594.75	23.481
595.08	23.351
595.42	23.409
595.75	24.314
596.09	24.195
596.42	24.292
596.75	25.125
597.09	24.848
597.42	24.712
597.75	23.599
598.09	24.603
598.42	24.568
598.76	23.806
599.09	24.493
599.42	24.103
599.76	23.638
600.09	24.358
600.42	23.790
600.76	23.976
601.09	24.062
601.42	24.305
601.76	23.897
602.09	23.803
602.42	23.991
602.76	24.502
603.09	23.862
603.42	23.952
603.76	23.714
604.09	24.947
604.42	24.587
604.76	24.543
605.09	24.850
605.42	24.362
605.75	23.885
606.09	24.449
606.42	24.152
606.75	24.475
607.09	23.425
607.42	24.432
607.75	24.111
608.08	24.349
608.42	23.942
608.75	24.337
609.08	23.981
609.41	24.967
609.75	25.268
610.08	24.890
610.41	24.002
610.74	24.580
611.07	25.311
611.41	24.753
611.74	24.896
612.07	24.778
612.40	25.048
612.73	25.623
613.07	24.890
613.40	25.505
613.73	25.373
614.06	25.368
614.39	25.121
614.72	25.619
615.06	24.735
615.39	24.891
615.72	24.455
616.05	24.769
616.38	25.933
616.71	26.280
617.05	25.399
617.38	25.843
617.71	25.324
618.04	25.310
618.37	25.956
618.70	25.622
619.03	27.180
619.36	26.634
619.69	26.970
620.03	26.051
620.36	26.135
620.69	25.910
621.02	26.706
621.35	27.358
621.68	28.127
622.01	27.331
622.34	26.081
622.67	26.804
623.00	25.843
623.33	26.476
623.66	26.329
623.99	26.465
624.32	27.680
624.65	26.062
624.99	27.178
625.32	27.498
625.65	26.703
625.98	26.983
626.31	26.435
626.64	27.619
626.97	26.332
627.30	26.803
627.63	26.707
627.96	28.003
628.29	28.327
628.62	26.868
628.95	27.344
629.28	28.037
629.61	27.525
629.94	27.866
630.26	28.220
630.59	28.325
630.92	28.225
631.25	28.712
631.58	28.154
631.91	29.428
632.24	29.011
632.57	28.273
632.90	28.987
633.23	30.612
633.56	28.878
633.89	29.649
634.22	30.042
634.55	29.436
634.88	29.978
635.20	31.647
635.53	31.412
635.86	29.577
636.19	30.541
636.52	28.481
636.85	27.477
637.18	29.938
637.51	27.849
637.83	31.783
638.16	30.876
638.49	30.164
638.82	30.665
639.15	28.408
639.48	29.792
639.81	28.291
640.13	32.038
640.46	28.848
640.79	29.167
641.12	30.062
641.45	29.987
641.77	33.248
642.10	29.265
642.43	33.644
642.76	30.217
643.09	30.822
643.41	30.672
643.74	29.931
644.07	31.862
644.40	28.430
644.73	31.930
645.05	31.278
645.38	32.374
645.71	32.111
646.04	32.138
646.36	30.511
646.69	30.521
647.02	31.804
647.35	32.672
647.67	32.367
648.00	30.732
648.33	33.033
648.66	30.670
648.98	29.932
649.31	32.476
649.64	31.873
649.96	29.576
650.29	31.433
650.62	31.117
650.94	30.180
651.27	29.790
651.60	32.749
651.92	30.699
652.25	29.667
652.58	31.637
652.90	30.523
653.23	29.718
653.56	30.100
653.88	31.320
654.21	30.000
654.54	30.202
654.86	31.303
655.19	29.737
655.52	26.895
655.84	21.360
656.17	26.516
656.49	37.510
656.82	42.445
657.15	33.712
657.47	25.825
657.80	19.177
658.13	15.342
658.45	20.624
658.78	25.200
659.10	25.667
659.43	26.481
659.75	26.429
660.08	27.563
660.41	28.867
660.73	28.392
661.06	30.543
661.38	30.303
661.71	31.897
662.03	32.275
662.36	33.989
662.68	35.835
663.01	31.150
663.33	33.837
663.66	32.967
663.98	35.385
664.31	33.771
664.63	30.636
664.96	32.305
665.28	31.942
665.61	31.643
665.93	33.214
666.26	32.258
666.58	33.026
666.91	33.271
667.23	33.333
667.56	33.925
667.88	35.600
668.21	31.641
668.53	33.591
668.86	32.613
669.18	34.623
669.50	34.394
669.83	30.400
670.15	33.661
670.48	32.937
670.80	33.843
671.13	30.624
671.45	32.087
671.77	34.275
672.10	30.333
672.42	31.230
672.75	30.568
673.07	31.194
673.39	30.817
673.72	30.537
674.04	31.379
674.37	32.737
674.69	32.275
675.01	31.238
675.34	33.779
675.66	31.461
675.98	34.515
676.31	32.617
676.63	32.129
676.95	32.950
677.28	30.444
677.60	31.496
677.92	33.205
678.25	32.541
678.57	32.028
678.89	33.106
679.22	30.488
679.54	29.573
679.86	28.814
680.18	29.353
680.51	30.975
680.83	30.933
681.15	29.828
681.48	32.124
681.80	33.333
682.12	33.741
682.44	30.217
682.77	31.206
683.09	32.765
683.41	32.946
683.73	31.689
684.06	31.181
684.38	31.664
684.70	32.496
685.02	31.153
685.34	27.621
685.67	31.388
685.99	28.681
686.31	28.488
686.63	30.016
686.96	29.811
687.28	30.130
687.60	30.135
687.92	27.010
688.24	30.217
688.56	30.862
688.89	29.946
689.21	34.247
689.53	30.980
689.85	31.558
690.17	31.667
690.49	32.470
690.82	31.485
691.14	28.138
691.46	31.549
691.78	32.044
692.10	31.927
692.42	29.286
692.74	30.853
693.06	31.481
693.39	33.397
693.71	30.827
694.03	31.784
694.35	31.048
694.67	31.006
694.99	31.702
695.31	31.788
695.63	33.550
695.95	28.571
696.27	33.187
696.59	33.850
696.91	31.306
697.23	33.626
697.56	28.310
697.88	27.273
698.20	33.522
698.52	32.576
698.84	34.096
699.16	35.306
699.48	32.636
699.80	33.617
700.12	31.878
700.44	29.724
700.76	34.204
701.08	34.867
701.40	36.010
701.72	31.343
702.04	36.898
702.36	31.152
702.68	30.318
703.00	31.540
703.32	34.729
703.64	33.007
703.96	32.458
704.28	30.958
704.60	34.430
704.91	31.122
705.23	35.342
705.55	33.426
705.87	35.152
706.19	38.650
706.51	31.928
706.83	32.565
707.15	32.275
707.47	31.308
707.79	29.476
708.11	30.720
708.43	31.183
708.74	29.464
709.06	30.858
709.38	32.394
709.70	34.988
710.02	32.300
710.34	36.170
710.66	30.168
710.98	31.148
711.29	31.593
711.61	32.486
711.93	33.903
712.25	36.216
712.57	38.053
712.89	33.529
713.20	30.769
713.52	35.838
713.84	31.755
714.16	31.579
714.48	32.474
714.80	33.506
715.11	32.021
715.43	34.748
715.75	31.316
716.07	30.663
716.39	33.607
716.70	35.843
717.02	33.770
717.34	37.979
717.66	33.557
717.97	32.877
718.29	32.646
718.61	32.895
718.93	33.981
719.24	31.366
719.56	32.515
719.88	33.934
720.20	31.935
720.51	33.540
720.83	33.125
721.15	30.592
721.46	30.137
721.78	31.667
722.10	31.715
722.42	33.557
722.73	30.323
723.05	34.737
723.37	31.944
723.68	37.276
724.00	32.130
724.32	32.042
724.63	33.566
724.95	39.007
725.27	33.449
725.58	30.389
725.90	36.207
726.22	30.094
726.53	34.416
726.85	35.220
727.16	30.211
727.48	36.391
727.80	29.801
728.11	33.216
728.43	30.640
728.74	33.110
729.06	34.768
729.38	36.039
729.69	31.544
730.01	26.786
730.32	30.303
730.64	33.962
730.96	30.435
731.27	32.961
731.59	32.692
731.90	30.130
732.22	26.823
732.53	27.624
732.85	30.571
733.16	31.085
733.48	26.829
733.80	31.755
734.11	30.769
734.43	32.162
734.74	32.152
735.06	29.397
735.37	30.541
735.69	31.351
736.00	30.791
736.32	30.189
736.63	26.667
736.95	30.172
737.26	30.000
737.58	28.485
737.89	34.118
738.21	32.722
738.52	34.098
738.83	38.567
739.15	27.660
739.46	31.293
739.78	33.742
740.09	28.367
740.41	30.612
740.72	30.667
741.04	27.832
741.35	31.930
741.66	32.941
741.98	32.787
742.29	30.962
742.61	35.088
742.92	31.154
743.23	34.296
743.55	32.171
743.86	33.200
744.18	32.645
744.49	36.709
744.80	32.922
745.12	35.865
745.43	31.301
745.74	34.914
746.06	29.661
746.37	37.553
746.68	36.179
747.00	30.000
747.31	37.768
747.62	30.769
747.94	31.174
748.25	31.325
748.56	33.878
748.88	31.624
749.19	38.362
749.50	33.766
749.82	38.554
750.13	33.808
750.44	31.000
750.75	31.692
751.07	32.000
751.38	33.123
751.69	30.351
752.01	29.773
752.32	28.758
752.63	32.653
752.94	31.834
753.26	32.714
753.57	30.000
753.88	32.584
754.19	29.582
754.51	30.868
754.82	32.476
755.13	32.459
755.44	31.399
755.75	28.947
756.07	33.433
756.38	29.560
756.69	30.723
757.00	25.762
757.31	29.508
757.63	26.854
757.94	28.638
758.25	27.540
758.56	27.887
758.87	27.045
759.18	28.533
759.50	31.445
759.81	31.373
760.12	33.154
760.43	29.948
760.74	27.094
761.05	27.750
761.36	27.470
761.67	31.218
761.99	28.919
762.30	29.878
762.61	33.333
762.92	33.582
763.23	33.333
763.54	28.777
763.85	29.897
764.16	32.660
764.47	33.099
764.78	29.393
765.10	31.378
765.41	28.205
765.72	26.984
766.03	30.508
766.34	26.959
766.65	28.223
766.96	29.084
767.27	32.719
767.58	37.313
767.89	38.462
768.20	33.333
768.51	33.333
768.82	28.514
769.13	29.924
769.44	31.154
769.75	29.603
770.06	29.615
770.37	33.465
770.68	30.638
770.99	30.769
771.30	34.444
771.61	28.897
771.92	28.519
772.23	36.842
772.54	32.870
772.85	33.180
773.16	38.571
773.47	32.804
773.78	32.432
774.09	31.250
774.39	40.500
774.70	35.519
775.01	37.195
775.32	30.000
775.63	38.650
775.94	29.936
776.25	39.355
776.56	46.795
776.87	42.177
777.18	35.862
777.48	35.664
777.79	32.432
778.10	33.824
778.41	38.889
778.72	34.483
779.03	35.802
779.34	31.515
779.65	31.606
779.95	36.111
780.26	29.545
780.57	36.129
780.88	36.232
781.19	40.645
781.50	32.941
781.80	33.333
782.11	31.217
782.42	27.273
782.73	31.737
783.04	33.520
783.34	29.091
783.65	36.601
783.96	35.404
784.27	30.952
784.57	31.126
784.88	35.000
785.19	36.220
785.50	37.795
785.81	36.842
786.11	36.923
786.42	29.496
786.73	33.094
787.04	38.346
787.34	34.426
787.65	36.800
787.96	34.328
788.26	32.867
788.57	48.252
788.88	34.211
789.19	33.333
789.49	36.301
789.80	38.298
790.11	37.795
790.41	39.844
790.72	34.746
791.03	29.126
791.33	41.739
791.64	41.228
791.95	28.571
792.25	40.000
792.56	36.607
792.87	26.042
793.17	36.607
793.48	31.250
793.79	25.301
794.09	38.532
794.40	32.110
794.70	41.497
795.01	31.818
795.32	31.507
795.62	40.141
795.93	29.545
796.23	43.443
796.54	32.143
796.85	38.298
797.15	44.565
797.46	32.877
797.76	38.750
798.07	45.652
798.37	30.928
798.68	38.961
798.99	40.230
799.29	38.202
799.60	37.234
799.90	38.554
800.21	53.846
800.51	43.284
800.82	48.529
801.12	28.767
801.43	35.294
801.73	44.068
802.04	54.545
802.34	28.333
802.65	37.288
802.95	49.254
803.26	61.017
803.56	43.836
803.87	47.143
804.17	36.986
804.48	17.544
804.78	36.111
805.09	46.552
805.39	50.000
805.70	29.577
806.00	41.463
806.30	46.988
806.61	36.986
806.91	41.346
807.22	44.444
807.52	42.529
807.83	50.000
808.13	39.759
808.43	41.573
808.74	32.500
809.04	27.941
809.35	40.000
809.65	37.143
809.95	50.685
810.26	19.298
810.56	34.483
810.86	52.941
811.17	45.614
811.47	29.508
811.77	55.556
812.08	38.983
812.38	41.667
812.69	48.276
812.99	47.170
813.29	64.103
813.59	56.000
813.90	43.860
814.20	52.727
814.50	61.972
814.81	47.436
815.11	62.295
815.41	40.299
815.72	70.690
816.02	50.000
816.32	75.556
816.62	61.364
816.93	53.333
817.23	46.296
817.53	36.170
817.84	61.905
818.14	64.706
818.44	57.143
818.74	73.333
819.04	48.718
819.35	54.286
819.65	61.538
819.95	64.151
820.25	46.667
820.56	16.667
820.86	56.250
821.16	53.846
821.46	44.186
821.76	30.000
822.07	41.071
822.37	47.826
822.67	36.170
822.97	18.919
823.27	67.500
823.57	67.347
823.88	55.556
824.18	70.000
824.48	70.000
824.78	88.000
825.08	60.606
825.38	73.333
825.69	55.319
825.99	58.333
826.29	34.286
826.59	58.974
826.89	20.930
827.19	56.000
827.49	61.765
827.79	45.833
828.09	62.162
828.39	63.333
828.70	70.732
829.00	60.465
829.30	60.714
829.60	85.294
829.90	58.696
830.20	45.714
830.50	48.276
830.80	100.000
831.10	61.538
831.40	67.647
831.70	104.762
832.00	106.452
832.30	41.176
832.60	66.667
832.90	92.308
833.20	121.053
833.50	90.000
833.80	110.526
834.10	71.429
834.40	75.000
834.70	90.625
835.00	22.857
835.30	70.588
835.60	90.000
835.90	76.000
836.20	63.636
836.50	92.000
836.80	42.424
837.10	29.630
837.40	48.148
837.70	6.250
838.00	64.286
838.30	73.913
838.60	82.759
838.90	107.143
839.19	-4.348
839.49	125.000
839.79	91.304
840.09	106.250
840.39	65.000
840.69	64.516
840.99	32.143
841.29	100.000
841.59	73.684
841.88	94.872
842.18	65.385
842.48	130.000
842.78	75.000
843.08	66.667
843.38	93.548
843.68	66.667
843.97	64.706
844.27	162.500
844.57	78.947
844.87	90.000
845.17	93.333
845.47	114.286
845.76	95.238
846.06	144.444
846.36	111.765
846.66	73.077
846.96	113.333
847.25	123.529
847.55	95.652
847.85	90.000
848.15	117.647
848.44	109.091
848.74	104.762
849.04	45.833
849.34	143.750
849.63	121.739
849.93	-50.000
850.23	106.667
850.53	111.538
850.82	81.818
851.12	95.455
851.42	63.636
851.71	207.692
852.01	30.000
852.31	161.538
852.61	142.105
852.90	150.000
853.20	111.111
853.50	55.556
853.79	100.000
854.09	40.909
854.39	108.333
854.68	51.613
854.98	80.769
855.28	155.556
855.57	78.571
855.87	84.000
856.17	63.636
856.46	107.407
856.76	83.333
857.05	47.826
857.35	66.667
857.65	138.462
857.94	133.333
858.24	96.296
858.53	86.957
858.83	135.294
859.13	105.882
859.42	111.765
859.72	128.571
860.01	95.000
860.31	222.222
860.60	200.000
860.90	113.333
861.20	105.556
861.49	76.923
861.79	83.333
862.08	123.077
862.38	90.625
862.67	105.882
862.97	162.500
863.26	200.000
863.56	140.000
863.85	109.091
864.15	138.889
864.44	833.333
864.74	135.714
865.03	93.750
865.33	30.000
865.62	58.065
865.92	109.091
866.21	104.348
866.51	157.143
866.80	340.000
867.10	50.000
867.39	50.000
867.69	-0.000
867.98	214.286
868.27	170.588
868.57	800.000
868.86	90.000
869.16	109.524
869.45	29.167
869.75	227.273
870.04	271.429
870.33	191.667
870.63	85.714
870.92	450.000
871.22	50.000
871.51	172.727
871.80	333.333
872.10	900.000
>>>>>End Processed Spectral Data<<<<<
