SpectraSuite Data File
++++++++++++++++++++++++++++++++++++
Date: Thu May 14 14:59:36 PDT 2015
User: schluterlab
Dark Spectrum Present: Yes
Reference Spectrum Present: Yes
Number of Sampled Component Spectra: 1
Spectrometers: USB2E3373
Integration Time (usec): 3000 (USB2E3373)
Spectra Averaged: 3 (USB2E3373)
Boxcar Smoothing: 0 (USB2E3373)
Correct for Electrical Dark: No (USB2E3373)
Strobe/Lamp Enabled: No (USB2E3373)
Correct for Detector Non-linearity: No (USB2E3373)
Correct for Stray Light: No (USB2E3373)
Number of Pixels in Processed Spectrum: 2048
>>>>>Begin Processed Spectral Data<<<<<
178.53	0.000
178.91	357.143
179.29	-3100.000
179.67	-2500.000
180.04	271.429
180.42	240.000
180.80	640.000
181.18	-2700.000
181.56	-1800.000
181.94	400.000
182.31	-525.000
182.69	933.333
183.07	-1150.000
183.45	600.000
183.83	-216.667
184.20	-666.667
184.58	1900.000
184.96	-625.000
185.34	-255.556
185.72	-240.000
186.09	388.889
186.47	1200.000
186.85	560.000
187.23	-322.222
187.61	-3000.000
187.98	260.000
188.36	550.000
188.74	-600.000
189.12	-866.667
189.49	-68.750
189.87	-375.000
190.25	-177.778
190.63	-260.000
191.00	-233.333
191.38	0.000
191.76	-575.000
192.14	-316.667
192.51	1050.000
192.89	-283.333
193.27	0.000
193.65	-342.857
194.02	-3400.000
194.40	-342.857
194.78	314.286
195.15	0.000
195.53	-136.364
195.91	0.000
196.29	-575.000
196.66	-161.538
197.04	-3400.000
197.42	-357.143
197.79	-900.000
198.17	-250.000
198.55	-300.000
198.92	-188.889
199.30	-325.000
199.68	-127.273
200.05	-164.286
200.43	-1000.000
200.81	400.000
201.18	0.000
201.56	300.000
201.94	0.000
202.31	833.333
202.69	-266.667
203.07	2200.000
203.44	-266.667
203.82	-675.000
204.19	-191.667
204.57	-366.667
204.95	-300.000
205.32	-2600.000
205.70	575.000
206.08	-300.000
206.45	-250.000
206.83	660.000
207.20	-516.667
207.58	-640.000
207.96	-450.000
208.33	-400.000
208.71	208.333
209.08	-250.000
209.46	0.000
209.84	550.000
210.21	1000.000
210.59	850.000
210.96	633.333
211.34	-500.000
211.71	-325.000
212.09	-2500.000
212.46	0.000
212.84	1450.000
213.22	-640.000
213.59	-750.000
213.97	-190.000
214.34	-933.333
214.72	600.000
215.09	-625.000
215.47	0.000
215.84	285.714
216.22	1550.000
216.59	-280.000
216.97	-340.000
217.34	-750.000
217.72	-187.500
218.09	-550.000
218.47	-450.000
218.84	0.000
219.22	440.000
219.59	-105.882
219.97	-45.000
220.34	1400.000
220.72	-300.000
221.09	-107.692
221.47	-800.000
221.84	-210.000
222.22	-357.143
222.59	0.000
222.97	-162.500
223.34	-560.000
223.72	-1600.000
224.09	-750.000
224.46	-775.000
224.84	-220.000
225.21	-328.571
225.59	-700.000
225.96	-575.000
226.34	-38.462
226.71	400.000
227.08	-1000.000
227.46	-146.667
227.83	-625.000
228.21	-73.684
228.58	275.000
228.95	1500.000
229.33	-66.667
229.70	-200.000
230.08	-5.263
230.45	290.000
230.82	-366.667
231.20	-135.714
231.57	-125.000
231.95	-209.091
232.32	-190.909
232.69	-55.000
233.07	-600.000
233.44	-135.294
233.81	-280.000
234.19	-111.111
234.56	-104.545
234.93	-41.379
235.31	-163.158
235.68	-94.444
236.05	-180.000
236.43	-30.769
236.80	-40.000
237.17	-88.889
237.55	-45.455
237.92	-300.000
238.29	-90.323
238.67	-54.545
239.04	-58.333
239.41	-38.095
239.79	-36.957
240.16	-27.778
240.53	-43.478
240.91	-31.373
241.28	-32.787
241.65	-20.896
242.02	-17.568
242.40	-43.077
242.77	-25.333
243.14	-25.610
243.51	-39.474
243.89	-35.897
244.26	-10.891
244.63	-13.725
245.00	-23.364
245.38	-23.684
245.75	-34.513
246.12	-15.873
246.49	-20.930
246.87	-10.000
247.24	-15.232
247.61	-10.526
247.98	-15.436
248.36	-14.815
248.73	-20.245
249.10	-10.929
249.47	-4.478
249.84	-7.330
250.22	-11.399
250.59	-13.889
250.96	-6.818
251.33	-13.265
251.70	-4.701
252.08	-9.583
252.45	-9.016
252.82	-12.397
253.19	-9.375
253.56	-6.084
253.94	-9.231
254.31	-4.924
254.68	-4.545
255.05	-2.606
255.42	-4.422
255.79	-6.149
256.16	-5.629
256.54	-9.934
256.91	-6.557
257.28	-5.246
257.65	-7.962
258.02	-6.195
258.39	-4.558
258.76	-2.752
259.14	-4.023
259.51	-6.916
259.88	-1.983
260.25	-5.833
260.62	-4.932
260.99	-4.372
261.36	-3.217
261.73	-8.753
262.10	-6.868
262.47	-6.166
262.85	0.000
263.22	-6.234
263.59	-6.579
263.96	-4.859
264.33	-6.650
264.70	-4.444
265.07	-2.148
265.44	-1.134
265.81	-4.861
266.18	-2.494
266.55	-1.563
266.92	-5.923
267.29	-3.282
267.66	-4.878
268.03	-3.057
268.40	-3.758
268.77	-8.200
269.14	-3.744
269.51	-3.947
269.88	-1.434
270.25	-1.408
270.62	-2.743
270.99	-0.606
271.36	-2.970
271.73	-1.768
272.10	-3.407
272.47	-2.605
272.84	-1.606
273.21	-3.407
273.58	-4.032
273.95	-4.038
274.32	-3.422
274.69	-3.482
275.06	-2.015
275.43	-3.882
275.80	-1.587
276.17	-4.815
276.54	-4.291
276.91	-3.399
277.28	-2.170
277.65	-3.232
278.02	-3.493
278.39	-3.442
278.76	-3.339
279.13	-3.546
279.50	-1.718
279.87	-2.147
280.23	-5.634
280.60	-2.373
280.97	-0.987
281.34	-3.396
281.71	-1.015
282.08	-3.654
282.45	-5.074
282.82	-2.512
283.19	-4.362
283.56	-3.279
283.92	-0.150
284.29	-1.264
284.66	-2.463
285.03	-5.128
285.40	-1.391
285.77	-3.715
286.14	-0.305
286.51	-2.740
286.87	-3.633
287.24	-1.506
287.61	-2.990
287.98	-3.172
288.35	-2.811
288.72	-1.775
289.08	-2.196
289.45	-2.959
289.82	-2.861
290.19	-2.586
290.56	-0.845
290.93	-2.282
291.29	-2.342
291.66	-2.755
292.03	-1.357
292.40	-0.544
292.77	-2.561
293.13	-1.218
293.50	-3.548
293.87	-1.745
294.24	-1.200
294.60	-2.528
294.97	-4.161
295.34	-1.408
295.71	-2.144
296.08	-1.680
296.44	-1.838
296.81	-1.096
297.18	-2.366
297.55	-1.887
297.91	-1.423
298.28	-3.436
298.65	-2.021
299.02	-2.597
299.38	-0.572
299.75	-0.584
300.12	-2.315
300.48	-1.843
300.85	-1.575
301.22	-1.454
301.59	-1.941
301.95	-1.921
302.32	-1.667
302.69	-2.957
303.05	-1.415
303.42	-1.774
303.79	-1.771
304.15	-1.472
304.52	-1.691
304.89	-1.466
305.25	-0.621
305.62	-2.194
305.99	-1.546
306.35	-1.411
306.72	-0.827
307.09	-1.624
307.45	-1.139
307.82	-0.404
308.19	-1.514
308.55	0.289
308.92	-1.168
309.29	-0.958
309.65	-2.047
310.02	-1.980
310.38	-1.673
310.75	-1.165
311.12	-0.192
311.48	-1.564
311.85	-0.285
312.22	-1.044
312.58	-0.563
312.95	-0.860
313.31	-0.361
313.68	0.458
314.05	0.542
314.41	0.546
314.78	0.454
315.14	0.817
315.51	0.369
315.87	0.990
316.24	1.918
316.61	1.954
316.97	-0.181
317.34	0.353
317.70	1.747
318.07	2.116
318.43	2.466
318.80	3.679
319.16	2.833
319.53	2.571
319.89	2.454
320.26	3.470
320.62	3.457
320.99	4.340
321.35	3.512
321.72	5.767
322.08	3.066
322.45	4.426
322.81	5.235
323.18	4.956
323.54	5.948
323.91	6.673
324.27	7.487
324.64	8.732
325.00	8.292
325.37	8.190
325.73	9.917
326.10	9.165
326.46	11.645
326.83	11.289
327.19	10.945
327.56	12.016
327.92	11.566
328.29	12.016
328.65	13.233
329.01	13.029
329.38	14.322
329.74	14.983
330.11	15.068
330.47	15.333
330.84	16.107
331.20	16.417
331.56	16.638
331.93	17.490
332.29	16.695
332.66	17.442
333.02	16.583
333.38	17.869
333.75	17.593
334.11	17.431
334.48	17.822
334.84	18.012
335.20	18.556
335.57	19.224
335.93	18.760
336.29	17.720
336.66	18.755
337.02	19.314
337.38	19.728
337.75	18.347
338.11	19.260
338.47	19.686
338.84	19.374
339.20	18.618
339.56	18.781
339.93	19.540
340.29	18.519
340.65	18.329
341.02	19.872
341.38	19.725
341.74	18.563
342.11	19.067
342.47	18.507
342.83	19.404
343.20	20.278
343.56	19.567
343.92	20.897
344.28	19.766
344.65	20.155
345.01	18.877
345.37	19.829
345.73	18.706
346.10	19.345
346.46	19.620
346.82	20.375
347.19	19.328
347.55	19.347
347.91	20.505
348.27	19.575
348.63	19.421
349.00	20.209
349.36	20.892
349.72	18.304
350.08	19.019
350.45	18.251
350.81	18.703
351.17	19.850
351.53	19.788
351.89	20.121
352.26	19.552
352.62	18.881
352.98	19.084
353.34	17.401
353.70	19.106
354.07	19.598
354.43	18.679
354.79	19.147
355.15	18.396
355.51	18.640
355.87	18.624
356.24	19.240
356.60	18.404
356.96	19.274
357.32	20.074
357.68	20.132
358.04	18.787
358.40	19.478
358.77	19.298
359.13	19.202
359.49	18.587
359.85	19.434
360.21	18.436
360.57	18.521
360.93	19.182
361.29	19.018
361.66	18.610
362.02	20.042
362.38	18.623
362.74	19.623
363.10	19.257
363.46	19.737
363.82	18.892
364.18	19.986
364.54	19.779
364.90	20.134
365.26	19.793
365.62	19.600
365.98	20.354
366.35	19.195
366.71	21.020
367.07	20.433
367.43	20.026
367.79	19.841
368.15	20.535
368.51	20.162
368.87	20.575
369.23	19.333
369.59	20.833
369.95	20.081
370.31	20.257
370.67	20.151
371.03	19.183
371.39	19.879
371.75	21.183
372.11	20.664
372.47	20.988
372.83	21.008
373.19	21.281
373.55	21.206
373.91	20.859
374.27	20.634
374.63	21.313
374.99	20.889
375.35	21.169
375.71	22.065
376.07	20.336
376.42	22.292
376.78	21.566
377.14	21.647
377.50	21.569
377.86	22.167
378.22	21.677
378.58	22.533
378.94	22.359
379.30	21.793
379.66	22.634
380.02	22.793
380.38	23.502
380.74	22.873
381.09	22.880
381.45	22.614
381.81	22.424
382.17	24.287
382.53	22.982
382.89	23.251
383.25	23.505
383.61	22.859
383.97	22.203
384.32	23.923
384.68	23.144
385.04	24.465
385.40	24.750
385.76	24.853
386.12	23.818
386.48	24.235
386.83	24.613
387.19	25.029
387.55	23.709
387.91	24.030
388.27	25.693
388.62	23.597
388.98	24.027
389.34	25.751
389.70	24.579
390.06	24.038
390.42	24.398
390.77	25.105
391.13	24.648
391.49	24.819
391.85	24.727
392.20	25.386
392.56	24.395
392.92	25.136
393.28	25.041
393.64	24.860
393.99	25.857
394.35	25.701
394.71	25.808
395.07	24.731
395.42	25.414
395.78	26.143
396.14	25.787
396.50	25.356
396.85	25.164
397.21	25.148
397.57	25.559
397.92	25.659
398.28	25.421
398.64	25.286
399.00	24.921
399.35	26.126
399.71	25.489
400.07	25.884
400.42	25.437
400.78	24.769
401.14	26.181
401.49	27.004
401.85	25.872
402.21	26.709
402.57	27.289
402.92	25.768
403.28	25.761
403.63	25.656
403.99	25.238
404.35	25.924
404.70	26.062
405.06	24.837
405.42	26.347
405.77	26.609
406.13	26.364
406.49	26.182
406.84	26.537
407.20	26.272
407.55	24.955
407.91	26.776
408.27	25.324
408.62	25.480
408.98	25.885
409.34	25.630
409.69	26.082
410.05	26.671
410.40	26.682
410.76	26.977
411.11	26.125
411.47	26.843
411.83	26.867
412.18	26.325
412.54	25.608
412.89	27.299
413.25	26.749
413.60	26.881
413.96	26.107
414.31	26.516
414.67	26.357
415.03	26.400
415.38	26.482
415.74	25.168
416.09	26.095
416.45	26.174
416.80	26.255
417.16	26.117
417.51	26.712
417.87	26.364
418.22	27.365
418.58	26.704
418.93	27.183
419.29	27.004
419.64	27.311
420.00	26.944
420.35	27.176
420.71	26.594
421.06	27.372
421.42	27.179
421.77	27.033
422.12	26.638
422.48	27.087
422.83	27.711
423.19	27.268
423.54	27.378
423.90	27.554
424.25	28.427
424.61	26.866
424.96	27.073
425.31	27.760
425.67	27.214
426.02	28.500
426.38	27.669
426.73	27.344
427.09	29.239
427.44	27.144
427.79	27.363
428.15	27.112
428.50	26.854
428.85	27.382
429.21	28.298
429.56	27.246
429.92	28.010
430.27	28.096
430.62	28.920
430.98	28.087
431.33	28.104
431.68	27.538
432.04	29.355
432.39	28.495
432.74	27.683
433.10	28.989
433.45	27.313
433.80	28.970
434.16	28.512
434.51	28.983
434.86	28.882
435.22	28.480
435.57	29.245
435.92	28.603
436.28	29.636
436.63	28.946
436.98	28.717
437.34	29.312
437.69	29.059
438.04	29.508
438.39	28.547
438.75	28.832
439.10	30.074
439.45	28.787
439.81	28.418
440.16	28.525
440.51	30.268
440.86	29.238
441.22	28.510
441.57	29.822
441.92	29.243
442.27	29.545
442.63	30.104
442.98	30.256
443.33	29.984
443.68	30.079
444.03	31.138
444.39	30.791
444.74	30.985
445.09	29.600
445.44	30.190
445.79	30.651
446.15	30.524
446.50	30.233
446.85	31.323
447.20	30.609
447.55	30.701
447.91	29.791
448.26	30.021
448.61	30.128
448.96	30.901
449.31	30.276
449.66	30.991
450.02	30.116
450.37	30.048
450.72	31.270
451.07	31.492
451.42	31.080
451.77	30.573
452.12	31.490
452.47	30.184
452.83	31.813
453.18	31.407
453.53	30.557
453.88	30.536
454.23	31.243
454.58	31.805
454.93	30.947
455.28	31.126
455.63	31.211
455.98	32.402
456.34	30.978
456.69	31.981
457.04	31.619
457.39	30.987
457.74	32.271
458.09	30.478
458.44	31.358
458.79	31.511
459.14	31.620
459.49	32.032
459.84	31.637
460.19	30.816
460.54	31.914
460.89	31.922
461.24	31.552
461.59	32.374
461.94	31.603
462.29	32.979
462.64	31.141
462.99	32.141
463.34	31.149
463.69	32.122
464.04	31.295
464.39	31.446
464.74	31.357
465.09	31.546
465.44	31.867
465.79	31.994
466.14	31.839
466.49	32.789
466.84	32.617
467.19	31.965
467.54	30.611
467.89	31.437
468.24	31.801
468.59	31.500
468.94	30.944
469.29	32.633
469.64	31.977
469.99	31.931
470.34	31.498
470.68	32.262
471.03	32.155
471.38	32.767
471.73	31.274
472.08	31.155
472.43	32.089
472.78	32.746
473.13	32.111
473.48	32.085
473.83	32.153
474.17	32.415
474.52	32.652
474.87	32.281
475.22	31.831
475.57	32.295
475.92	32.554
476.27	32.162
476.61	33.022
476.96	31.804
477.31	32.673
477.66	33.945
478.01	32.130
478.36	32.901
478.70	32.956
479.05	32.515
479.40	32.873
479.75	32.037
480.10	32.165
480.45	32.634
480.79	33.197
481.14	32.537
481.49	32.485
481.84	32.724
482.19	32.344
482.53	33.581
482.88	33.895
483.23	32.148
483.58	32.576
483.92	32.535
484.27	31.795
484.62	33.457
484.97	32.154
485.31	31.749
485.66	30.543
486.01	30.360
486.36	31.915
486.70	33.703
487.05	34.608
487.40	33.713
487.75	33.791
488.09	33.587
488.44	31.874
488.79	32.884
489.13	31.644
489.48	32.466
489.83	31.911
490.17	32.483
490.52	32.020
490.87	32.318
491.22	33.189
491.56	33.276
491.91	32.621
492.26	33.752
492.60	32.663
492.95	32.295
493.30	32.766
493.64	32.457
493.99	32.456
494.34	33.188
494.68	32.677
495.03	33.524
495.37	33.466
495.72	33.061
496.07	32.515
496.41	32.518
496.76	33.445
497.11	33.758
497.45	32.758
497.80	33.496
498.14	33.605
498.49	32.812
498.84	33.044
499.18	33.063
499.53	33.677
499.87	33.055
500.22	32.057
500.56	33.018
500.91	33.547
501.26	33.864
501.60	32.744
501.95	33.435
502.29	33.436
502.64	33.669
502.98	32.614
503.33	31.706
503.67	32.229
504.02	34.151
504.36	33.199
504.71	33.624
505.06	33.060
505.40	32.130
505.75	32.240
506.09	33.425
506.44	32.869
506.78	33.991
507.13	32.918
507.47	33.681
507.82	33.712
508.16	32.792
508.51	32.536
508.85	33.774
509.19	32.260
509.54	33.622
509.88	33.366
510.23	33.803
510.57	34.074
510.92	33.237
511.26	32.419
511.61	32.207
511.95	32.992
512.30	32.742
512.64	32.784
512.98	33.667
513.33	33.569
513.67	34.064
514.02	33.470
514.36	33.350
514.70	33.854
515.05	33.994
515.39	33.386
515.74	34.358
516.08	33.333
516.42	34.589
516.77	34.437
517.11	32.749
517.46	33.828
517.80	34.474
518.14	34.331
518.49	34.436
518.83	33.422
519.17	32.687
519.52	33.386
519.86	33.474
520.20	33.919
520.55	34.447
520.89	34.403
521.23	32.942
521.58	32.938
521.92	33.371
522.26	32.990
522.61	34.375
522.95	33.679
523.29	33.851
523.64	33.688
523.98	33.314
524.32	35.645
524.66	33.125
525.01	34.032
525.35	32.510
525.69	33.295
526.04	33.639
526.38	33.218
526.72	33.045
527.06	34.135
527.41	33.003
527.75	33.610
528.09	33.825
528.43	33.037
528.78	32.890
529.12	33.028
529.46	33.165
529.80	33.753
530.15	34.377
530.49	32.562
530.83	33.412
531.17	33.274
531.51	34.537
531.86	34.075
532.20	33.476
532.54	33.154
532.88	34.061
533.22	32.940
533.57	33.410
533.91	32.379
534.25	32.843
534.59	33.736
534.93	32.994
535.27	33.352
535.62	33.599
535.96	33.643
536.30	33.314
536.64	33.994
536.98	33.702
537.32	32.840
537.66	33.562
538.01	31.480
538.35	33.009
538.69	33.053
539.03	33.170
539.37	32.921
539.71	33.213
540.05	32.674
540.39	33.496
540.73	31.998
541.07	33.109
541.42	33.136
541.76	32.444
542.10	32.931
542.44	32.339
542.78	32.421
543.12	32.896
543.46	32.540
543.80	31.595
544.14	32.615
544.48	33.156
544.82	32.974
545.16	33.453
545.50	32.115
545.84	32.272
546.18	33.642
546.52	33.057
546.86	33.333
547.20	31.997
547.54	32.272
547.88	32.128
548.22	31.930
548.56	32.241
548.90	32.597
549.24	32.523
549.58	32.997
549.92	31.888
550.26	32.427
550.60	33.248
550.94	34.153
551.28	31.749
551.62	33.086
551.96	31.650
552.30	33.397
552.64	32.856
552.98	33.437
553.32	32.990
553.66	32.283
554.00	32.976
554.34	32.368
554.68	31.117
555.02	33.771
555.36	31.755
555.69	31.134
556.03	31.778
556.37	31.790
556.71	32.911
557.05	31.693
557.39	32.449
557.73	32.893
558.07	31.854
558.41	31.894
558.75	32.590
559.08	32.359
559.42	31.962
559.76	33.175
560.10	32.418
560.44	31.662
560.78	32.063
561.12	32.451
561.45	32.543
561.79	32.967
562.13	33.826
562.47	31.134
562.81	32.152
563.15	30.619
563.48	32.567
563.82	32.648
564.16	31.012
564.50	32.837
564.84	30.560
565.17	31.000
565.51	30.667
565.85	30.998
566.19	30.991
566.52	30.603
566.86	31.805
567.20	30.778
567.54	31.439
567.88	31.804
568.21	31.868
568.55	31.751
568.89	31.412
569.23	30.798
569.56	31.067
569.90	30.577
570.24	31.535
570.57	30.051
570.91	30.833
571.25	29.795
571.59	30.810
571.92	30.011
572.26	29.936
572.60	30.412
572.93	30.309
573.27	29.840
573.61	29.010
573.95	30.056
574.28	29.643
574.62	29.809
574.96	29.246
575.29	29.368
575.63	29.245
575.97	29.940
576.30	29.188
576.64	29.134
576.98	29.453
577.31	29.172
577.65	29.571
577.98	29.255
578.32	29.307
578.66	29.288
578.99	29.040
579.33	29.369
579.67	29.488
580.00	29.220
580.34	29.494
580.67	28.464
581.01	29.100
581.35	29.008
581.68	28.341
582.02	28.893
582.35	29.744
582.69	29.644
583.02	29.789
583.36	29.760
583.70	29.016
584.03	28.894
584.37	29.301
584.70	28.460
585.04	28.575
585.37	28.126
585.71	28.673
586.04	28.336
586.38	29.132
586.72	28.729
587.05	28.677
587.39	28.995
587.72	29.234
588.06	28.941
588.39	29.450
588.73	29.153
589.06	29.035
589.40	28.918
589.73	28.985
590.07	28.448
590.40	29.040
590.73	28.773
591.07	29.300
591.40	28.810
591.74	28.855
592.07	29.192
592.41	28.352
592.74	27.547
593.08	27.994
593.41	29.309
593.75	28.822
594.08	28.537
594.41	29.231
594.75	28.130
595.08	28.499
595.42	28.961
595.75	28.253
596.09	29.109
596.42	28.198
596.75	28.715
597.09	28.687
597.42	28.367
597.75	27.597
598.09	28.413
598.42	28.388
598.76	28.468
599.09	28.088
599.42	27.690
599.76	27.138
600.09	29.062
600.42	28.028
600.76	27.873
601.09	28.277
601.42	28.047
601.76	27.724
602.09	27.484
602.42	27.336
602.76	27.970
603.09	28.414
603.42	28.288
603.76	27.766
604.09	28.460
604.42	27.890
604.76	27.169
605.09	28.002
605.42	27.791
605.75	26.962
606.09	27.062
606.42	27.581
606.75	27.099
607.09	27.458
607.42	27.900
607.75	27.472
608.08	27.585
608.42	28.013
608.75	27.529
609.08	27.037
609.41	27.305
609.75	27.679
610.08	27.485
610.41	27.613
610.74	27.479
611.07	27.620
611.41	27.309
611.74	28.129
612.07	27.676
612.40	26.949
612.73	28.166
613.07	27.824
613.40	28.345
613.73	27.347
614.06	27.331
614.39	26.628
614.72	26.783
615.06	27.767
615.39	26.631
615.72	27.393
616.05	26.712
616.38	27.497
616.71	26.594
617.05	26.305
617.38	27.555
617.71	27.700
618.04	26.983
618.37	27.650
618.70	27.715
619.03	26.941
619.36	26.079
619.69	27.226
620.03	27.495
620.36	26.564
620.69	27.452
621.02	26.247
621.35	28.229
621.68	27.693
622.01	26.904
622.34	26.848
622.67	26.804
623.00	26.181
623.33	26.742
623.66	27.302
623.99	26.531
624.32	27.420
624.65	26.448
624.99	28.153
625.32	27.825
625.65	26.500
625.98	25.559
626.31	27.144
626.64	26.740
626.97	27.907
627.30	25.513
627.63	27.007
627.96	26.877
628.29	26.926
628.62	26.029
628.95	27.432
629.28	26.253
629.61	27.104
629.94	26.109
630.26	26.441
630.59	26.857
630.92	26.753
631.25	27.996
631.58	28.154
631.91	26.804
632.24	26.609
632.57	27.230
632.90	27.282
633.23	28.061
633.56	26.224
633.89	26.446
634.22	25.884
634.55	28.392
634.88	26.948
635.20	27.234
635.53	27.119
635.86	25.569
636.19	27.466
636.52	27.004
636.85	26.456
637.18	25.260
637.51	27.527
637.83	28.350
638.16	28.571
638.49	26.995
638.82	25.479
639.15	25.544
639.48	28.522
639.81	25.058
640.13	26.973
640.46	23.758
640.79	24.755
641.12	25.466
641.45	27.102
641.77	26.958
642.10	26.115
642.43	26.463
642.76	27.371
643.09	27.123
643.41	26.891
643.74	26.621
644.07	27.862
644.40	24.752
644.73	25.689
645.05	25.551
645.38	25.612
645.71	24.927
646.04	27.547
646.36	24.818
646.69	26.994
647.02	25.841
647.35	25.954
647.67	26.087
648.00	27.389
648.33	26.727
648.66	24.822
648.98	25.442
649.31	27.740
649.64	24.303
649.96	24.138
650.29	23.922
650.62	25.743
650.94	25.225
651.27	23.802
651.60	25.439
651.92	26.292
652.25	25.470
652.58	26.135
652.90	23.401
653.23	26.197
653.56	25.107
653.88	25.702
654.21	23.803
654.54	23.555
654.86	25.637
655.19	24.341
655.52	24.661
655.84	23.201
656.17	27.110
656.49	37.900
656.82	41.698
657.15	32.465
657.47	24.917
657.80	18.126
658.13	14.019
658.45	18.471
658.78	21.918
659.10	21.241
659.43	20.557
659.75	19.822
660.08	19.104
660.41	19.768
660.73	21.095
661.06	23.495
661.38	21.691
661.71	23.103
662.03	22.399
662.36	23.971
662.68	25.516
663.01	24.425
663.33	27.410
663.66	25.641
663.98	23.462
664.31	25.704
664.63	21.580
664.96	24.319
665.28	22.686
665.61	23.077
665.93	23.393
666.26	25.627
666.58	23.432
666.91	23.364
667.23	25.905
667.56	25.641
667.88	23.200
668.21	20.703
668.53	23.166
668.86	23.772
669.18	22.607
669.50	24.254
669.83	20.800
670.15	23.031
670.48	22.619
670.80	22.180
671.13	22.495
671.45	25.000
671.77	22.787
672.10	21.167
672.42	23.463
672.75	21.198
673.07	20.299
673.39	21.418
673.72	23.490
674.04	22.759
674.37	22.719
674.69	24.868
675.01	21.714
675.34	20.802
675.66	21.348
675.98	21.269
676.31	22.852
676.63	24.335
676.95	23.563
677.28	21.976
677.60	20.079
677.92	23.417
678.25	21.389
678.57	23.310
678.89	21.672
679.22	18.293
679.54	22.735
679.86	20.508
680.18	22.222
680.51	20.597
680.83	18.985
681.15	18.448
681.48	21.416
681.80	23.316
682.12	21.329
682.44	21.035
682.77	19.504
683.09	20.265
683.41	21.124
683.73	21.822
684.06	19.188
684.38	17.352
684.70	20.826
685.02	20.998
685.34	18.469
685.67	17.508
685.99	20.706
686.31	19.041
686.63	19.273
686.96	17.508
687.28	20.847
687.60	20.034
687.92	18.006
688.24	21.369
688.56	20.345
688.89	19.782
689.21	21.526
689.53	16.667
689.85	18.935
690.17	18.889
690.49	20.518
690.82	21.782
691.14	18.016
691.46	17.591
691.78	21.179
692.10	18.899
692.42	18.036
692.74	20.145
693.06	19.259
693.39	20.304
693.71	18.421
694.03	18.030
694.35	19.048
694.67	18.891
694.99	18.723
695.31	16.556
695.63	20.346
695.95	18.841
696.27	17.802
696.59	19.912
696.91	20.270
697.23	19.121
697.56	17.312
697.88	17.424
698.20	18.832
698.52	20.833
698.84	16.632
699.16	21.224
699.48	18.619
699.80	17.872
700.12	17.686
700.44	16.820
700.76	16.390
701.08	15.981
701.40	16.580
701.72	16.667
702.04	18.182
702.36	15.183
702.68	18.582
703.00	16.870
703.32	14.532
703.64	18.582
703.96	17.900
704.28	18.182
704.60	17.975
704.91	15.816
705.23	15.068
705.55	17.549
705.87	18.182
706.19	17.178
706.51	12.048
706.83	14.409
707.15	15.344
707.47	18.925
707.79	18.559
708.11	11.864
708.43	14.624
708.74	15.848
709.06	16.009
709.38	17.840
709.70	19.107
710.02	17.829
710.34	14.628
710.66	16.480
710.98	19.126
711.29	14.835
711.61	15.819
711.93	17.094
712.25	16.757
712.57	17.994
712.89	16.176
713.20	17.751
713.52	17.052
713.84	17.549
714.16	19.474
714.48	13.918
714.80	16.104
715.11	13.648
715.43	15.385
715.75	16.316
716.07	13.536
716.39	14.208
716.70	12.048
717.02	13.770
717.34	13.589
717.66	11.409
717.97	12.329
718.29	12.027
718.61	11.184
718.93	13.269
719.24	16.460
719.56	13.190
719.88	12.913
720.20	16.774
720.51	10.870
720.83	14.062
721.15	11.842
721.46	12.329
721.78	11.333
722.10	14.563
722.42	12.752
722.73	13.548
723.05	12.281
723.37	13.889
723.68	14.695
724.00	14.801
724.32	8.451
724.63	9.790
724.95	18.085
725.27	10.453
725.58	11.661
725.90	14.138
726.22	13.793
726.53	12.338
726.85	16.038
727.16	14.199
727.48	16.514
727.80	10.265
728.11	10.601
728.43	13.468
728.74	8.361
729.06	10.596
729.38	13.636
729.69	11.074
730.01	11.607
730.32	13.030
730.64	10.692
730.96	9.317
731.27	14.246
731.59	12.363
731.90	13.247
732.22	13.281
732.53	8.011
732.85	12.571
733.16	12.023
733.48	8.232
733.80	13.370
734.11	13.675
734.43	10.811
734.74	15.696
735.06	13.819
735.37	13.243
735.69	11.892
736.00	12.712
736.32	12.129
736.63	13.333
736.95	10.057
737.26	15.758
737.58	12.424
737.89	13.235
738.21	7.034
738.52	11.148
738.83	11.604
739.15	11.702
739.46	13.946
739.78	11.656
740.09	10.315
740.41	12.536
740.72	11.333
741.04	10.680
741.35	9.825
741.66	11.765
741.98	11.885
742.29	7.531
742.61	7.456
742.92	9.231
743.23	11.913
743.55	9.302
743.86	12.800
744.18	2.893
744.49	9.705
744.80	9.877
745.12	10.127
745.43	13.415
745.74	9.483
746.06	9.322
746.37	10.127
746.68	8.537
747.00	7.083
747.31	9.442
747.62	14.615
747.94	10.121
748.25	6.827
748.56	8.980
748.88	6.410
749.19	12.931
749.50	6.494
749.82	7.631
750.13	11.388
750.44	7.333
750.75	10.769
751.07	10.154
751.38	11.987
751.69	12.780
752.01	10.356
752.32	9.477
752.63	14.626
752.94	8.997
753.26	5.576
753.57	8.148
753.88	8.989
754.19	9.968
754.51	6.752
754.82	11.897
755.13	13.115
755.44	8.874
755.75	7.895
756.07	12.239
756.38	7.862
756.69	12.048
757.00	5.540
757.31	9.016
757.63	7.417
757.94	9.390
758.25	11.061
758.56	10.240
758.87	12.045
759.18	13.600
759.50	12.748
759.81	11.765
760.12	13.477
760.43	10.937
760.74	11.823
761.05	12.250
761.36	10.361
761.67	8.376
761.99	10.541
762.30	9.146
762.61	6.931
762.92	9.328
763.23	11.610
763.54	8.993
763.85	8.591
764.16	10.101
764.47	11.268
764.78	8.626
765.10	6.745
765.41	12.564
765.72	6.878
766.03	8.192
766.34	6.583
766.65	7.317
766.96	8.765
767.27	8.295
767.58	6.468
767.89	9.135
768.20	7.981
768.51	6.019
768.82	11.245
769.13	8.712
769.44	-0.385
769.75	8.303
770.06	8.846
770.37	10.630
770.68	4.255
770.99	2.024
771.30	8.519
771.61	9.886
771.92	5.926
772.23	8.907
772.54	2.778
772.85	11.982
773.16	10.952
773.47	-0.529
773.78	1.622
774.09	8.523
774.39	11.000
774.70	7.104
775.01	0.000
775.32	0.588
775.63	6.135
775.94	0.000
776.25	0.000
776.56	7.692
776.87	4.082
777.18	2.759
777.48	1.399
777.79	2.703
778.10	-4.412
778.41	-1.389
778.72	-3.448
779.03	1.852
779.34	0.000
779.65	4.663
779.95	6.111
780.26	4.545
780.57	6.452
780.88	2.899
781.19	2.581
781.50	6.471
781.80	3.763
782.11	6.878
782.42	2.525
782.73	5.389
783.04	8.939
783.34	-4.848
783.65	0.000
783.96	3.727
784.27	2.976
784.57	3.311
784.88	-6.429
785.19	1.575
785.50	-3.937
785.81	2.256
786.11	0.769
786.42	-5.036
786.73	0.719
787.04	6.767
787.34	4.098
787.65	-8.000
787.96	-2.239
788.26	4.196
788.57	6.294
788.88	-2.632
789.19	0.654
789.49	0.000
789.80	-6.383
790.11	2.362
790.41	-1.562
790.72	-10.169
791.03	-18.447
791.33	-3.478
791.64	2.632
791.95	-8.929
792.25	0.000
792.56	0.893
792.87	-3.125
793.17	2.679
793.48	-5.208
793.79	-19.277
794.09	-4.587
794.40	-13.761
794.70	-2.721
795.01	-1.299
795.32	-2.055
795.62	0.000
795.93	-5.303
796.23	-0.820
796.54	-7.143
796.85	-19.149
797.15	-17.391
797.46	-13.699
797.76	-13.750
798.07	-7.609
798.37	-22.680
798.68	-23.377
798.99	-11.494
799.29	-13.483
799.60	-2.128
799.90	-14.458
800.21	-21.538
800.51	-25.373
800.82	-38.235
801.12	-27.397
801.43	-22.059
801.73	-40.678
802.04	-16.667
802.34	-38.333
802.65	-27.119
802.95	-22.388
803.26	-22.034
803.56	-19.178
803.87	-17.143
804.17	-27.397
804.48	-31.579
804.78	-26.389
805.09	-39.655
805.39	-6.757
805.70	-40.845
806.00	-13.415
806.30	-25.301
806.61	-23.288
806.91	-5.769
807.22	-4.444
807.52	-21.839
807.83	-5.556
808.13	-13.253
808.43	-10.112
808.74	-8.750
809.04	-35.294
809.35	-8.000
809.65	-7.143
809.95	-27.397
810.26	-38.596
810.56	-22.414
810.86	-17.647
811.17	-21.053
811.47	-32.787
811.77	-35.556
812.08	-16.949
812.38	-8.333
812.69	-10.345
812.99	-49.057
813.29	-64.103
813.59	-34.000
813.90	-21.053
814.20	-41.818
814.50	-9.859
814.81	-14.103
815.11	-26.230
815.41	0.000
815.72	-25.862
816.02	-25.000
816.32	-28.889
816.62	-25.000
816.93	-37.778
817.23	-20.370
817.53	-27.660
817.84	-35.714
818.14	-38.235
818.44	-18.367
818.74	-42.222
819.04	-53.846
819.35	-71.429
819.65	-92.308
819.95	-22.642
820.25	-17.778
820.56	-57.143
820.86	-40.625
821.16	-51.282
821.46	-32.558
821.76	-58.000
822.07	-25.000
822.37	-28.261
822.67	-44.681
822.97	-72.973
823.27	-45.000
823.57	-24.490
823.88	-11.111
824.18	-37.500
824.48	-50.000
824.78	-76.000
825.08	-72.727
825.38	-24.444
825.69	-14.894
825.99	-72.222
826.29	-111.429
826.59	-53.846
826.89	-41.860
827.19	-20.000
827.49	-50.000
827.79	-33.333
828.09	-62.162
828.39	-70.000
828.70	-36.585
829.00	-44.186
829.30	-78.571
829.60	-35.294
829.90	-26.087
830.20	-45.714
830.50	-82.759
830.80	-122.222
831.10	-73.077
831.40	-50.000
831.70	-109.524
832.00	-25.806
832.30	-229.412
832.60	-79.167
832.90	-176.923
833.20	-115.789
833.50	-130.000
833.80	-142.105
834.10	-147.619
834.40	-27.778
834.70	-28.125
835.00	-60.000
835.30	-38.235
835.60	-60.000
835.90	-44.000
836.20	-113.636
836.50	-56.000
836.80	-84.848
837.10	-85.185
837.40	-48.148
837.70	-162.500
838.00	-53.571
838.30	-126.087
838.60	-62.069
838.90	-150.000
839.19	-113.043
839.49	-133.333
839.79	-82.609
840.09	-187.500
840.39	-135.000
840.69	-41.935
840.99	-64.286
841.29	-100.000
841.59	-100.000
841.88	-28.205
842.18	-76.923
842.48	-200.000
842.78	-105.000
843.08	-50.000
843.38	-58.065
843.68	-144.444
843.97	-47.059
844.27	-87.500
844.57	-100.000
844.87	-280.000
845.17	-186.667
845.47	-76.190
845.76	-138.095
846.06	-266.667
846.36	-129.412
846.66	-42.308
846.96	-120.000
847.25	-170.588
847.55	-56.522
847.85	-90.000
848.15	-152.941
848.44	-236.364
848.74	-80.952
849.04	-70.833
849.34	-118.750
849.63	-52.174
849.93	1450.000
850.23	-153.333
850.53	-100.000
850.82	-209.091
851.12	-40.909
851.42	-172.727
851.71	-107.692
852.01	-125.000
852.31	-184.615
852.61	-100.000
852.90	-141.667
853.20	-55.556
853.50	-333.333
853.79	-100.000
854.09	-109.091
854.39	-216.667
854.68	-54.839
854.98	-53.846
855.28	-50.000
855.57	-35.714
855.87	-92.000
856.17	-77.273
856.46	-40.741
856.76	-133.333
857.05	-86.957
857.35	-87.500
857.65	-123.077
857.94	-100.000
858.24	-55.556
858.53	-108.696
858.83	-105.882
859.13	-76.471
859.42	-82.353
859.72	-150.000
860.01	-80.000
860.31	-244.444
860.60	-160.000
860.90	-113.333
861.20	-100.000
861.49	-153.846
861.79	-43.333
862.08	-153.846
862.38	-34.375
862.67	-70.588
862.97	-112.500
863.26	-244.444
863.56	-130.000
863.85	-127.273
864.15	-66.667
864.44	-733.333
864.74	-114.286
865.03	-106.250
865.33	-270.000
865.62	-61.290
865.92	-77.273
866.21	-56.522
866.51	-150.000
866.80	-700.000
867.10	-175.000
867.39	-158.333
867.69	3100.000
867.98	-157.143
868.27	-111.765
868.57	-3800.000
868.86	-200.000
869.16	-90.476
869.45	-87.500
869.75	-172.727
870.04	-228.571
870.33	-183.333
870.63	-485.714
870.92	-425.000
871.22	-350.000
871.51	-200.000
871.80	-1066.667
872.10	-1150.000
>>>>>End Processed Spectral Data<<<<<
