SpectraSuite Data File
++++++++++++++++++++++++++++++++++++
Date: Thu May 14 14:36:24 PDT 2015
User: schluterlab
Dark Spectrum Present: Yes
Reference Spectrum Present: Yes
Number of Sampled Component Spectra: 1
Spectrometers: USB2E3373
Integration Time (usec): 3000 (USB2E3373)
Spectra Averaged: 3 (USB2E3373)
Boxcar Smoothing: 0 (USB2E3373)
Correct for Electrical Dark: No (USB2E3373)
Strobe/Lamp Enabled: No (USB2E3373)
Correct for Detector Non-linearity: No (USB2E3373)
Correct for Stray Light: No (USB2E3373)
Number of Pixels in Processed Spectrum: 2048
>>>>>Begin Processed Spectral Data<<<<<
178.53	0.000
178.91	-214.286
179.29	100.000
179.67	1100.000
180.04	57.143
180.42	-140.000
180.80	-260.000
181.18	2000.000
181.56	1800.000
181.94	-350.000
182.31	375.000
182.69	-500.000
183.07	600.000
183.45	-375.000
183.83	283.333
184.20	433.333
184.58	-2000.000
184.96	225.000
185.34	222.222
185.72	520.000
186.09	-77.778
186.47	-700.000
186.85	-300.000
187.23	100.000
187.61	1400.000
187.98	-140.000
188.36	-100.000
188.74	200.000
189.12	633.333
189.49	162.500
189.87	125.000
190.25	277.778
190.63	240.000
191.00	55.556
191.38	0.000
191.76	200.000
192.14	400.000
192.51	-600.000
192.89	500.000
193.27	0.000
193.65	257.143
194.02	1000.000
194.40	371.429
194.78	-128.571
195.15	0.000
195.53	227.273
195.91	0.000
196.29	450.000
196.66	115.385
197.04	1000.000
197.42	328.571
197.79	1100.000
198.17	212.500
198.55	271.429
198.92	255.556
199.30	125.000
199.68	209.091
200.05	150.000
200.43	900.000
200.81	-228.571
201.18	0.000
201.56	-22.222
201.94	0.000
202.31	-466.667
202.69	144.444
203.07	-1200.000
203.44	155.556
203.82	400.000
204.19	166.667
204.57	250.000
204.95	250.000
205.32	500.000
205.70	-200.000
206.08	233.333
206.45	266.667
206.83	-200.000
207.20	283.333
207.58	100.000
207.96	116.667
208.33	283.333
208.71	-150.000
209.08	250.000
209.46	0.000
209.84	-100.000
210.21	-750.000
210.59	-800.000
210.96	-200.000
211.34	450.000
211.71	237.500
212.09	1300.000
212.46	0.000
212.84	-450.000
213.22	240.000
213.59	425.000
213.97	230.000
214.34	433.333
214.72	-150.000
215.09	400.000
215.47	0.000
215.84	-285.714
216.22	-500.000
216.59	280.000
216.97	500.000
217.34	375.000
217.72	212.500
218.09	600.000
218.47	450.000
218.84	0.000
219.22	-240.000
219.59	123.529
219.97	130.000
220.34	-900.000
220.72	244.444
221.09	153.846
221.47	533.333
221.84	180.000
222.22	100.000
222.59	0.000
222.97	325.000
223.34	260.000
223.72	800.000
224.09	375.000
224.46	25.000
224.84	440.000
225.21	171.429
225.59	425.000
225.96	300.000
226.34	73.077
226.71	-116.667
227.08	500.000
227.46	160.000
227.83	500.000
228.21	94.737
228.58	-50.000
228.95	-850.000
229.33	225.000
229.70	170.000
230.08	136.842
230.45	-160.000
230.82	466.667
231.20	142.857
231.57	125.000
231.95	136.364
232.32	181.818
232.69	105.000
233.07	350.000
233.44	129.412
233.81	150.000
234.19	183.333
234.56	68.182
234.93	93.103
235.31	110.526
235.68	61.111
236.05	35.000
236.43	107.692
236.80	80.000
237.17	92.593
237.55	69.697
237.92	120.000
238.29	41.935
238.67	34.091
239.04	69.444
239.41	35.714
239.79	43.478
240.16	46.296
240.53	50.000
240.91	25.490
241.28	40.984
241.65	37.313
242.02	50.000
242.40	35.385
242.77	20.000
243.14	26.829
243.51	22.368
243.89	15.385
244.26	24.752
244.63	24.510
245.00	25.234
245.38	17.544
245.75	12.389
246.12	23.810
246.49	15.504
246.87	22.143
247.24	14.570
247.61	23.684
247.98	16.779
248.36	16.667
248.73	9.816
249.10	15.847
249.47	16.915
249.84	19.372
250.22	11.917
250.59	16.667
250.96	13.182
251.33	10.204
251.70	16.239
252.08	11.250
252.45	13.525
252.82	9.091
253.19	8.984
253.56	10.266
253.94	10.000
254.31	12.121
254.68	15.734
255.05	12.704
255.42	9.864
255.79	10.356
256.16	10.265
256.54	8.940
256.91	12.459
257.28	13.443
257.65	7.962
258.02	5.605
258.39	12.821
258.76	13.761
259.14	8.333
259.51	10.086
259.88	7.932
260.25	9.167
260.62	10.411
260.99	10.383
261.36	12.332
261.73	6.101
262.10	9.066
262.47	10.992
262.85	13.384
263.22	7.792
263.59	7.105
263.96	11.509
264.33	9.207
264.70	10.617
265.07	10.979
265.44	12.472
265.81	7.639
266.18	8.844
266.55	8.929
266.92	9.112
267.29	9.409
267.66	7.982
268.03	9.170
268.40	10.438
268.77	6.834
269.14	6.388
269.51	10.307
269.88	9.631
270.25	8.249
270.62	10.127
270.99	10.505
271.36	8.515
271.73	8.448
272.10	9.820
272.47	9.218
272.84	7.831
273.21	7.415
273.58	8.669
273.95	6.731
274.32	5.894
274.69	9.091
275.06	8.425
275.43	7.024
275.80	7.407
276.17	7.222
276.54	8.022
276.91	8.587
277.28	8.680
277.65	9.336
278.02	10.294
278.39	7.428
278.76	8.084
279.13	8.156
279.50	7.732
279.87	10.197
280.23	7.042
280.60	7.966
280.97	9.211
281.34	4.754
281.71	9.814
282.08	8.804
282.45	7.201
282.82	6.122
283.19	6.300
283.56	6.721
283.92	7.958
284.29	9.637
284.66	6.897
285.03	7.212
285.40	8.810
285.77	6.347
286.14	8.550
286.51	7.763
286.87	8.689
287.24	8.886
287.61	6.876
287.98	8.157
288.35	6.953
288.72	8.728
289.08	8.199
289.45	7.544
289.82	8.133
290.19	7.902
290.56	7.746
290.93	7.703
291.29	7.851
291.66	7.713
292.03	6.920
292.40	9.796
292.77	8.760
293.13	8.796
293.50	7.622
293.87	8.456
294.24	10.400
294.60	8.597
294.97	7.383
295.34	8.707
295.71	7.314
296.08	7.752
296.44	7.108
296.81	9.379
297.18	7.970
297.55	8.137
297.91	9.134
298.28	7.701
298.65	8.680
299.02	8.619
299.38	8.810
299.75	8.762
300.12	7.870
300.48	8.295
300.85	9.449
301.22	8.725
301.59	9.361
301.95	8.927
302.32	9.000
302.69	7.667
303.05	8.923
303.42	9.202
303.79	8.542
304.15	8.202
304.52	8.351
304.89	9.424
305.25	8.903
305.62	8.568
305.99	9.897
306.35	8.165
306.72	8.893
307.09	9.442
307.45	9.420
307.82	11.604
308.19	9.586
308.55	10.511
308.92	9.542
309.29	9.866
309.65	9.552
310.02	9.010
310.38	9.646
310.75	9.709
311.12	11.314
311.48	10.264
311.85	10.636
312.22	10.342
312.58	10.986
312.95	9.560
313.31	11.382
313.68	12.546
314.05	12.737
314.41	11.931
314.78	12.080
315.14	12.432
315.51	12.465
315.87	13.141
316.24	13.151
316.61	13.144
316.97	12.760
317.34	12.522
317.70	13.712
318.07	13.933
318.43	14.711
318.80	14.967
319.16	13.476
319.53	12.511
319.89	14.373
320.26	15.747
320.62	13.387
320.99	14.958
321.35	14.880
321.72	16.372
322.08	15.329
322.45	16.350
322.81	17.238
323.18	16.283
323.54	17.759
323.91	17.171
324.27	18.158
324.64	18.220
325.00	18.325
325.37	17.609
325.73	19.587
326.10	20.276
326.46	20.358
326.83	21.457
327.19	20.315
327.56	21.502
327.92	21.400
328.29	21.532
328.65	22.111
329.01	21.658
329.38	22.999
329.74	23.373
330.11	23.630
330.47	23.252
330.84	22.997
331.20	24.833
331.56	23.570
331.93	25.272
332.29	25.339
332.66	25.166
333.02	26.047
333.38	24.748
333.75	25.168
334.11	25.188
334.48	24.752
334.84	26.423
335.20	25.357
335.57	25.632
335.93	24.463
336.29	25.541
336.66	25.399
337.02	24.833
337.38	25.680
337.75	25.041
338.11	25.315
338.47	26.634
338.84	25.465
339.20	25.274
339.56	25.288
339.93	25.780
340.29	25.765
340.65	24.412
341.02	24.900
341.38	26.597
341.74	25.101
342.11	24.859
342.47	24.702
342.83	26.490
343.20	26.329
343.56	25.020
343.92	25.380
344.28	24.922
344.65	25.659
345.01	25.351
345.37	26.128
345.73	24.552
346.10	24.727
346.46	25.079
346.82	27.041
347.19	25.134
347.55	27.314
347.91	24.220
348.27	25.266
348.63	26.047
349.00	24.609
349.36	24.758
349.72	25.000
350.08	25.557
350.45	25.856
350.81	24.887
351.17	24.586
351.53	25.398
351.89	24.829
352.26	24.701
352.62	25.373
352.98	24.427
353.34	25.765
353.70	25.886
354.07	25.782
354.43	25.133
354.79	25.131
355.15	24.798
355.51	25.439
355.87	25.804
356.24	25.779
356.60	24.908
356.96	24.907
357.32	25.279
357.68	25.769
358.04	25.150
358.40	25.000
358.77	25.439
359.13	25.406
359.49	24.387
359.85	25.671
360.21	26.327
360.57	25.269
360.93	25.740
361.29	25.754
361.66	25.199
362.02	26.931
362.38	25.650
362.74	25.349
363.10	26.272
363.46	25.277
363.82	26.278
364.18	26.038
364.54	25.450
364.90	26.957
365.26	25.586
365.62	25.800
365.98	26.413
366.35	26.174
366.71	25.782
367.07	26.116
367.43	26.133
367.79	26.875
368.15	27.358
368.51	27.537
368.87	26.715
369.23	27.400
369.59	26.708
369.95	26.302
370.31	28.157
370.67	26.547
371.03	26.454
371.39	26.864
371.75	26.754
372.11	26.558
372.47	27.353
372.83	27.160
373.19	27.485
373.55	26.897
373.91	27.880
374.27	28.008
374.63	28.214
374.99	27.984
375.35	27.468
375.71	28.710
376.07	28.857
376.42	28.086
376.78	28.651
377.14	27.948
377.50	28.400
377.86	28.571
378.22	28.144
378.58	29.073
378.94	28.991
379.30	29.467
379.66	29.688
380.02	30.063
380.38	29.666
380.74	29.577
381.09	30.662
381.45	29.943
381.81	30.855
382.17	29.869
382.53	30.175
382.89	29.515
383.25	31.360
383.61	29.572
383.97	30.389
384.32	32.416
384.68	31.555
385.04	31.637
385.40	32.705
385.76	32.708
386.12	31.837
386.48	31.824
386.83	32.181
387.19	32.097
387.55	31.866
387.91	32.591
388.27	32.679
388.62	32.990
388.98	31.698
389.34	33.412
389.70	33.178
390.06	33.097
390.42	33.193
390.77	31.908
391.13	33.685
391.49	33.937
391.85	34.121
392.20	33.452
392.56	33.491
392.92	33.642
393.28	33.057
393.64	33.687
393.99	34.457
394.35	34.054
394.71	34.072
395.07	33.114
395.42	34.209
395.78	35.101
396.14	34.581
396.50	33.967
396.85	33.572
397.21	34.911
397.57	35.041
397.92	34.880
398.28	34.003
398.64	33.295
399.00	33.037
399.35	32.932
399.71	33.913
400.07	34.868
400.42	33.586
400.78	34.491
401.14	33.921
401.49	34.849
401.85	33.895
402.21	34.125
402.57	34.859
402.92	34.220
403.28	33.958
403.63	34.427
403.99	33.848
404.35	33.314
404.70	34.108
405.06	33.696
405.42	35.187
405.77	34.951
406.13	33.549
406.49	35.304
406.84	33.795
407.20	33.706
407.55	33.919
407.91	34.507
408.27	34.806
408.62	34.613
408.98	34.533
409.34	33.842
409.69	34.672
410.05	35.522
410.40	34.571
410.76	34.829
411.11	34.892
411.47	35.442
411.83	35.979
412.18	35.000
412.54	35.270
412.89	35.332
413.25	34.932
413.60	34.233
413.96	34.674
414.31	34.448
414.67	35.480
415.03	35.323
415.38	35.498
415.74	35.003
416.09	35.349
416.45	35.128
416.80	35.251
417.16	35.632
417.51	35.866
417.87	35.684
418.22	36.766
418.58	35.998
418.93	36.380
419.29	36.498
419.64	35.594
420.00	35.490
420.35	37.058
420.71	35.956
421.06	35.768
421.42	37.271
421.77	36.941
422.12	36.258
422.48	37.737
422.83	37.897
423.19	37.294
423.54	38.772
423.90	36.996
424.25	38.080
424.61	38.691
424.96	38.605
425.31	38.004
425.67	38.433
426.02	40.122
426.38	39.380
426.73	38.672
427.09	39.619
427.44	38.449
427.79	40.022
428.15	38.699
428.50	39.438
428.85	39.897
429.21	40.426
429.56	39.437
429.92	39.361
430.27	39.663
430.62	40.205
430.98	40.630
431.33	40.665
431.68	39.943
432.04	40.325
432.39	40.225
432.74	40.639
433.10	40.995
433.45	40.245
433.80	41.363
434.16	41.477
434.51	42.189
434.86	42.508
435.22	42.136
435.57	42.453
435.92	41.291
436.28	42.264
436.63	41.999
436.98	41.868
437.34	42.221
437.69	41.717
438.04	42.200
438.39	43.308
438.75	42.280
439.10	43.076
439.45	43.041
439.81	42.542
440.16	42.466
440.51	43.200
440.86	42.357
441.22	42.819
441.57	43.920
441.92	42.871
442.27	42.475
442.63	43.467
442.98	43.490
443.33	43.188
443.68	43.013
444.03	43.368
444.39	44.660
444.74	44.921
445.09	43.487
445.44	43.994
445.79	43.678
446.15	43.422
446.50	44.755
446.85	44.504
447.20	43.714
447.55	43.776
447.91	43.560
448.26	44.292
448.61	44.315
448.96	45.815
449.31	44.857
449.66	43.301
450.02	44.937
450.37	44.859
450.72	44.779
451.07	44.533
451.42	44.772
451.77	44.525
452.12	46.332
452.47	45.217
452.83	46.227
453.18	44.367
453.53	45.434
453.88	44.009
454.23	46.102
454.58	45.734
454.93	45.206
455.28	47.080
455.63	45.651
455.98	45.810
456.34	45.878
456.69	45.855
457.04	46.158
457.39	45.843
457.74	46.924
458.09	44.865
458.44	46.228
458.79	45.900
459.14	45.517
459.49	46.406
459.84	47.324
460.19	45.641
460.54	45.997
460.89	46.003
461.24	46.494
461.59	46.707
461.94	46.092
462.29	46.249
462.64	45.987
462.99	47.646
463.34	48.086
463.69	46.190
464.04	46.470
464.39	46.973
464.74	46.408
465.09	46.251
465.44	45.762
465.79	46.483
466.14	46.483
466.49	45.632
466.84	47.107
467.19	46.821
467.54	46.769
467.89	46.782
468.24	46.593
468.59	46.149
468.94	45.804
469.29	47.151
469.64	46.726
469.99	48.693
470.34	46.720
470.68	47.027
471.03	48.199
471.38	48.267
471.73	47.659
472.08	48.921
472.43	48.585
472.78	48.048
473.13	47.851
473.48	47.130
473.83	47.824
474.17	47.011
474.52	47.805
474.87	47.065
475.22	46.254
475.57	47.040
475.92	46.889
476.27	47.657
476.61	46.781
476.96	47.289
477.31	47.277
477.66	48.216
478.01	47.128
478.36	46.660
478.70	47.340
479.05	47.648
479.40	48.322
479.75	47.454
480.10	46.897
480.45	47.903
480.79	47.347
481.14	46.599
481.49	47.433
481.84	46.780
482.19	47.183
482.53	46.874
482.88	47.718
483.23	47.488
483.58	47.074
483.92	46.853
484.27	47.544
484.62	46.205
484.97	47.706
485.31	45.618
485.66	45.045
486.01	43.139
486.36	43.885
486.70	44.348
487.05	44.651
487.40	45.414
487.75	46.005
488.09	46.210
488.44	46.301
488.79	46.307
489.13	47.031
489.48	45.981
489.83	47.123
490.17	46.861
490.52	46.839
490.87	46.954
491.22	47.097
491.56	47.312
491.91	47.056
492.26	47.209
492.60	46.830
492.95	47.477
493.30	47.871
493.64	47.131
493.99	47.193
494.34	46.733
494.68	47.152
495.03	48.062
495.37	47.137
495.72	47.664
496.07	47.940
496.41	47.233
496.76	47.873
497.11	47.813
497.45	47.216
497.80	47.357
498.14	47.528
498.49	48.208
498.84	47.349
499.18	48.223
499.53	47.937
499.87	47.341
500.22	47.373
500.56	47.009
500.91	47.460
501.26	48.909
501.60	46.973
501.95	48.155
502.29	47.828
502.64	47.792
502.98	45.772
503.33	46.652
503.67	46.969
504.02	47.067
504.36	47.632
504.71	47.588
505.06	47.749
505.40	47.075
505.75	47.313
506.09	47.192
506.44	48.375
506.78	47.294
507.13	47.349
507.47	47.655
507.82	47.112
508.16	48.518
508.51	46.648
508.85	47.615
509.19	48.650
509.54	48.079
509.88	48.082
510.23	47.936
510.57	48.284
510.92	47.944
511.26	47.186
511.61	47.610
511.95	47.926
512.30	47.415
512.64	46.727
512.98	48.274
513.33	48.790
513.67	48.394
514.02	49.157
514.36	48.951
514.70	47.917
515.05	47.654
515.39	48.924
515.74	49.364
516.08	47.491
516.42	48.770
516.77	49.159
517.11	47.396
517.46	48.993
517.80	48.477
518.14	48.422
518.49	47.885
518.83	48.803
519.17	47.442
519.52	47.851
519.86	47.677
520.20	49.095
520.55	48.959
520.89	48.142
521.23	48.744
521.58	48.192
521.92	48.215
522.26	48.797
522.61	48.669
522.95	48.847
523.29	48.506
523.64	48.823
523.98	49.458
524.32	49.513
524.66	48.492
525.01	47.905
525.35	47.789
525.69	48.144
526.04	46.843
526.38	49.713
526.72	48.328
527.06	48.152
527.41	48.105
527.75	49.050
528.09	47.462
528.43	46.596
528.78	47.341
529.12	47.534
529.46	46.768
529.80	48.341
530.15	46.957
530.49	47.865
530.83	47.993
531.17	47.849
531.51	48.195
531.86	48.377
532.20	48.110
532.54	48.055
532.88	49.091
533.22	47.378
533.57	47.201
533.91	47.306
534.25	47.541
534.59	47.069
534.93	46.067
535.27	46.310
535.62	47.243
535.96	46.659
536.30	47.297
536.64	48.348
536.98	48.647
537.32	48.148
537.66	47.224
538.01	46.224
538.35	47.320
538.69	46.635
539.03	47.946
539.37	46.231
539.71	47.447
540.05	48.082
540.39	46.516
540.73	46.266
541.07	46.842
541.42	45.895
541.76	45.314
542.10	46.803
542.44	46.468
542.78	45.255
543.12	45.590
543.46	46.276
543.80	44.484
544.14	46.379
544.48	45.626
544.82	46.080
545.16	45.677
545.50	45.656
545.84	46.418
546.18	47.284
546.52	45.732
546.86	46.101
547.20	46.565
547.54	45.818
547.88	46.715
548.22	45.029
548.56	45.114
548.90	46.328
549.24	44.924
549.58	45.552
549.92	45.663
550.26	45.372
550.60	46.458
550.94	47.025
551.28	45.545
551.62	46.698
551.96	45.566
552.30	46.335
552.64	47.169
552.98	46.912
553.32	47.010
553.66	46.752
554.00	46.658
554.34	45.495
554.68	44.997
555.02	46.912
555.36	47.403
555.69	44.779
556.03	45.208
556.37	46.120
556.71	45.656
557.05	45.240
557.39	46.384
557.73	45.509
558.07	46.225
558.41	46.711
558.75	46.856
559.08	46.625
559.42	46.433
559.76	44.640
560.10	46.216
560.44	46.768
560.78	46.062
561.12	46.121
561.45	45.255
561.79	45.482
562.13	45.163
562.47	44.698
562.81	45.823
563.15	45.581
563.48	45.867
563.82	45.405
564.16	43.852
564.50	44.756
564.84	44.720
565.17	44.471
565.51	43.901
565.85	45.071
566.19	44.297
566.52	44.646
566.86	44.652
567.20	43.230
567.54	44.610
567.88	43.119
568.21	44.318
568.55	42.926
568.89	42.624
569.23	42.712
569.56	42.321
569.90	41.197
570.24	41.012
570.57	40.956
570.91	39.865
571.25	39.861
571.59	39.994
571.92	39.739
572.26	39.518
572.60	39.558
572.93	39.827
573.27	39.730
573.61	38.936
573.95	39.233
574.28	38.542
574.62	38.881
574.96	38.024
575.29	38.180
575.63	38.623
575.97	38.922
576.30	38.737
576.64	38.392
576.98	38.542
577.31	38.568
577.65	38.527
577.98	38.197
578.32	37.599
578.66	37.712
578.99	37.661
579.33	38.395
579.67	38.282
580.00	37.514
580.34	38.438
580.67	37.996
581.01	38.425
581.35	37.580
581.68	37.303
582.02	37.020
582.35	38.014
582.69	38.129
583.02	38.255
583.36	38.488
583.70	38.309
584.03	38.469
584.37	38.756
584.70	38.386
585.04	37.549
585.37	37.561
585.71	37.540
586.04	37.671
586.38	38.672
586.72	37.679
587.05	38.066
587.39	37.971
587.72	38.541
588.06	38.636
588.39	38.387
588.73	38.016
589.06	39.249
589.40	39.090
589.73	39.299
590.07	39.092
590.40	39.858
590.73	38.883
591.07	39.873
591.40	39.502
591.74	40.342
592.07	40.641
592.41	39.984
592.74	39.155
593.08	38.981
593.41	39.020
593.75	38.276
594.08	38.322
594.41	39.519
594.75	39.024
595.08	38.863
595.42	38.994
595.75	38.844
596.09	39.444
596.42	39.162
596.75	40.949
597.09	39.596
597.42	39.412
597.75	39.436
598.09	39.881
598.42	39.968
598.76	39.358
599.09	38.270
599.42	37.412
599.76	38.230
600.09	38.405
600.42	38.305
600.76	38.375
601.09	38.799
601.42	37.933
601.76	38.690
602.09	37.991
602.42	37.986
602.76	39.483
603.09	39.097
603.42	38.728
603.76	37.914
604.09	39.532
604.42	38.826
604.76	38.775
605.09	39.689
605.42	39.553
605.75	38.769
606.09	38.410
606.42	38.672
606.75	37.369
607.09	38.594
607.42	38.882
607.75	39.351
608.08	38.595
608.42	37.928
608.75	38.972
609.08	38.413
609.41	39.479
609.75	39.777
610.08	40.106
610.41	39.040
610.74	38.697
611.07	39.964
611.41	38.969
611.74	39.954
612.07	39.504
612.40	39.354
612.73	39.609
613.07	40.293
613.40	39.942
613.73	39.721
614.06	39.401
614.39	39.261
614.72	38.913
615.06	39.413
615.39	38.521
615.72	39.621
616.05	39.291
616.38	39.758
616.71	39.760
617.05	39.244
617.38	40.182
617.71	39.795
618.04	40.259
618.37	41.093
618.70	41.403
619.03	40.084
619.36	40.999
619.69	40.679
620.03	41.431
620.36	41.104
620.69	40.962
621.02	42.060
621.35	43.832
621.68	43.456
622.01	41.922
622.34	41.492
622.67	41.100
623.00	40.756
623.33	41.407
623.66	40.986
623.99	40.553
624.32	42.950
624.65	39.961
624.99	43.173
625.32	41.607
625.65	41.875
625.98	40.746
626.31	42.948
626.64	41.905
626.97	41.635
627.30	41.230
627.63	42.536
627.96	43.243
628.29	42.568
628.62	43.745
628.95	42.682
629.28	43.585
629.61	43.519
629.94	42.510
630.26	42.542
630.59	43.782
630.92	43.810
631.25	44.186
631.58	45.574
631.91	44.049
632.24	43.132
632.57	44.023
632.90	43.831
633.23	44.898
633.56	43.878
633.89	45.558
634.22	44.075
634.55	44.781
634.88	46.104
635.20	45.533
635.53	45.085
635.86	45.504
636.19	45.917
636.52	44.937
636.85	42.697
637.18	44.387
637.51	43.763
637.83	45.958
638.16	45.853
638.49	46.009
638.82	44.870
639.15	43.872
639.48	45.727
639.81	45.266
640.13	45.465
640.46	44.121
640.79	44.730
641.12	47.578
641.45	46.926
641.77	49.679
642.10	48.031
642.43	47.739
642.76	45.257
643.09	44.110
643.41	47.759
643.74	47.034
644.07	46.069
644.40	46.959
644.73	47.315
645.05	46.402
645.38	47.050
645.71	47.947
646.04	48.780
646.36	44.380
646.69	48.160
647.02	49.541
647.35	48.702
647.67	47.826
648.00	48.885
648.33	46.096
648.66	47.218
648.98	45.034
649.31	46.143
649.64	46.348
649.96	45.623
650.29	47.427
650.62	47.100
650.94	47.748
651.27	45.808
651.60	45.175
651.92	44.985
652.25	46.165
652.58	45.117
652.90	45.058
653.23	43.944
653.56	46.505
653.88	46.629
654.21	44.789
654.54	45.087
654.86	46.459
655.19	41.280
655.52	36.872
655.84	29.642
656.17	37.128
656.49	52.177
656.82	59.091
657.15	46.656
657.47	35.171
657.80	26.472
658.13	20.965
658.45	27.944
658.78	34.772
659.10	34.145
659.43	35.009
659.75	37.130
660.08	38.263
660.41	40.116
660.73	40.821
661.06	46.402
661.38	44.179
661.71	47.241
662.03	48.325
662.36	49.553
662.68	48.968
663.01	46.195
663.33	50.473
663.66	51.099
663.98	48.846
664.31	47.280
664.63	48.170
664.96	46.824
665.28	44.828
665.61	46.503
665.93	47.857
666.26	48.029
666.58	48.339
666.91	46.542
667.23	48.381
667.56	46.548
667.88	50.200
668.21	47.656
668.53	45.560
668.86	47.348
669.18	45.825
669.50	48.907
669.83	49.600
670.15	46.260
670.48	49.008
670.80	47.228
671.13	45.369
671.45	46.850
671.77	47.834
672.10	44.000
672.42	43.689
672.75	43.011
673.07	41.343
673.39	44.376
673.72	48.154
674.04	46.897
674.37	47.227
674.69	44.974
675.01	45.333
675.34	44.656
675.66	43.820
675.98	43.657
676.31	46.484
676.63	48.289
676.95	50.766
677.28	47.782
677.60	45.472
677.92	46.065
678.25	46.618
678.57	46.085
678.89	46.416
679.22	42.857
679.54	46.496
679.86	43.729
680.18	41.128
680.51	42.767
680.83	43.044
681.15	45.517
681.48	43.005
681.80	42.832
682.12	44.580
682.44	41.736
682.77	40.603
683.09	46.023
683.41	47.868
683.73	45.731
684.06	46.494
684.38	43.649
684.70	45.063
685.02	43.546
685.34	40.765
685.67	40.221
685.99	41.871
686.31	39.390
686.63	41.390
686.96	43.375
687.28	40.717
687.60	42.088
687.92	40.354
688.24	43.072
688.56	37.931
688.89	43.920
689.21	46.771
689.53	42.941
689.85	45.168
690.17	42.407
690.49	45.020
690.82	43.564
691.14	42.105
691.46	43.786
691.78	43.462
692.10	44.220
692.42	40.893
692.74	41.742
693.06	41.667
693.39	43.454
693.71	45.489
694.03	42.007
694.35	41.143
694.67	42.916
694.99	41.277
695.31	45.033
695.63	46.753
695.95	42.650
696.27	41.319
696.59	45.575
696.91	44.369
697.23	44.835
697.56	44.603
697.88	42.424
698.20	44.444
698.52	45.076
698.84	42.412
699.16	44.898
699.48	43.305
699.80	44.681
700.12	44.978
700.44	44.700
700.76	46.793
701.08	45.278
701.40	48.705
701.72	44.776
702.04	48.930
702.36	46.073
702.68	43.276
703.00	45.721
703.32	45.320
703.64	44.010
703.96	43.914
704.28	46.683
704.60	45.316
704.91	45.153
705.23	48.767
705.55	50.139
705.87	49.394
706.19	49.387
706.51	43.072
706.83	45.245
707.15	45.238
707.47	43.224
707.79	41.048
708.11	40.678
708.43	41.075
708.74	38.616
709.06	44.316
709.38	43.662
709.70	45.658
710.02	42.377
710.34	44.947
710.66	44.134
710.98	46.448
711.29	43.407
711.61	46.893
711.93	43.875
712.25	44.324
712.57	49.263
712.89	47.353
713.20	45.562
713.52	46.243
713.84	45.125
714.16	45.526
714.48	43.041
714.80	46.234
715.11	40.945
715.43	43.236
715.75	41.316
716.07	44.751
716.39	48.361
716.70	43.675
717.02	49.508
717.34	44.948
717.66	48.322
717.97	44.863
718.29	44.330
718.61	47.039
718.93	45.955
719.24	47.205
719.56	44.785
719.88	45.045
720.20	45.484
720.51	45.963
720.83	45.625
721.15	43.750
721.46	45.205
721.78	47.333
722.10	44.984
722.42	46.980
722.73	43.226
723.05	48.070
723.37	50.000
723.68	48.387
724.00	45.848
724.32	44.014
724.63	41.958
724.95	53.191
725.27	41.812
725.58	45.583
725.90	47.241
726.22	41.066
726.53	43.506
726.85	45.283
727.16	43.807
727.48	40.673
727.80	42.715
728.11	43.110
728.43	52.525
728.74	35.786
729.06	43.377
729.38	43.506
729.69	46.980
730.01	43.155
730.32	40.909
730.64	48.113
730.96	39.752
731.27	41.899
731.59	42.308
731.90	40.260
732.22	38.542
732.53	39.779
732.85	40.571
733.16	44.282
733.48	42.378
733.80	42.340
734.11	41.880
734.43	41.622
734.74	44.304
735.06	39.447
735.37	42.973
735.69	41.081
736.00	44.633
736.32	39.353
736.63	41.111
736.95	41.379
737.26	43.939
737.58	39.697
737.89	42.353
738.21	39.144
738.52	41.967
738.83	44.710
739.15	43.972
739.46	45.578
739.78	44.172
740.09	37.822
740.41	41.108
740.72	42.333
741.04	44.660
741.35	46.316
741.66	43.922
741.98	48.770
742.29	43.515
742.61	50.439
742.92	46.154
743.23	40.794
743.55	44.574
743.86	49.200
744.18	44.628
744.49	48.101
744.80	47.325
745.12	53.586
745.43	47.561
745.74	44.397
746.06	47.458
746.37	53.165
746.68	40.650
747.00	45.417
747.31	48.498
747.62	48.846
747.94	41.296
748.25	44.578
748.56	44.898
748.88	45.726
749.19	46.552
749.50	42.857
749.82	47.791
750.13	47.331
750.44	38.000
750.75	41.231
751.07	41.538
751.38	39.432
751.69	39.617
752.01	40.777
752.32	37.582
752.63	42.177
752.94	42.907
753.26	38.290
753.57	41.852
753.88	41.948
754.19	42.122
754.51	36.977
754.82	40.514
755.13	44.262
755.44	40.273
755.75	39.474
756.07	41.493
756.38	40.252
756.69	43.675
757.00	36.011
757.31	37.432
757.63	38.107
757.94	34.977
758.25	35.892
758.56	36.601
758.87	37.045
759.18	36.800
759.50	40.793
759.81	40.056
760.12	42.049
760.43	36.979
760.74	37.685
761.05	36.500
761.36	34.699
761.67	40.355
761.99	36.757
762.30	42.988
762.61	38.284
762.92	41.045
763.23	43.071
763.54	41.367
763.85	43.643
764.16	43.771
764.47	42.254
764.78	43.450
765.10	34.604
765.41	35.897
765.72	34.392
766.03	42.938
766.34	38.245
766.65	40.767
766.96	42.231
767.27	45.161
767.58	47.264
767.89	50.962
768.20	40.376
768.51	41.667
768.82	38.554
769.13	39.015
769.44	38.077
769.75	36.462
770.06	41.923
770.37	40.551
770.68	40.426
770.99	36.842
771.30	42.963
771.61	43.726
771.92	37.037
772.23	43.725
772.54	41.204
772.85	47.005
773.16	44.762
773.47	43.915
773.78	45.405
774.09	44.886
774.39	45.000
774.70	53.005
775.01	42.073
775.32	35.882
775.63	43.558
775.94	39.490
776.25	52.258
776.56	48.718
776.87	54.422
777.18	44.828
777.48	44.056
777.79	41.216
778.10	52.206
778.41	44.444
778.72	52.414
779.03	42.593
779.34	46.061
779.65	36.269
779.95	50.000
780.26	44.318
780.57	43.871
780.88	56.522
781.19	50.323
781.50	44.706
781.80	40.860
782.11	44.974
782.42	35.859
782.73	43.114
783.04	42.458
783.34	41.212
783.65	44.444
783.96	50.311
784.27	39.286
784.57	54.305
784.88	49.286
785.19	52.756
785.50	52.756
785.81	46.617
786.11	43.846
786.42	47.482
786.73	51.799
787.04	48.872
787.34	57.377
787.65	52.000
787.96	42.537
788.26	52.448
788.57	44.755
788.88	43.421
789.19	43.791
789.49	46.575
789.80	48.227
790.11	55.118
790.41	46.875
790.72	48.305
791.03	41.748
791.33	45.217
791.64	54.386
791.95	44.643
792.25	49.524
792.56	56.250
792.87	55.208
793.17	42.857
793.48	45.833
793.79	48.193
794.09	49.541
794.40	57.798
794.70	44.898
795.01	35.714
795.32	35.616
795.62	49.296
795.93	40.152
796.23	41.803
796.54	41.071
796.85	39.362
797.15	52.174
797.46	69.863
797.76	57.500
798.07	51.087
798.37	43.299
798.68	59.740
798.99	44.828
799.29	57.303
799.60	64.894
799.90	53.012
800.21	72.308
800.51	70.149
800.82	58.824
801.12	36.986
801.43	57.353
801.73	59.322
802.04	65.152
802.34	45.000
802.65	84.746
802.95	74.627
803.26	54.237
803.56	65.753
803.87	55.714
804.17	75.342
804.48	70.175
804.78	52.778
805.09	55.172
805.39	52.703
805.70	49.296
806.00	59.756
806.30	48.193
806.61	65.753
806.91	48.077
807.22	51.111
807.52	44.828
807.83	73.611
808.13	57.831
808.43	39.326
808.74	47.500
809.04	44.118
809.35	49.333
809.65	52.857
809.95	54.795
810.26	56.140
810.56	72.414
810.86	57.353
811.17	63.158
811.47	65.574
811.77	35.556
812.08	54.237
812.38	56.667
812.69	77.586
812.99	69.811
813.29	76.923
813.59	68.000
813.90	57.895
814.20	69.091
814.50	60.563
814.81	60.256
815.11	72.131
815.41	61.194
815.72	75.862
816.02	55.357
816.32	82.222
816.62	61.364
816.93	66.667
817.23	61.111
817.53	76.596
817.84	90.476
818.14	94.118
818.44	67.347
818.74	64.444
819.04	51.282
819.35	82.857
819.65	73.077
819.95	71.698
820.25	100.000
820.56	54.762
820.86	87.500
821.16	64.103
821.46	62.791
821.76	52.000
822.07	64.286
822.37	43.478
822.67	72.340
822.97	75.676
823.27	77.500
823.57	67.347
823.88	55.556
824.18	90.000
824.48	123.333
824.78	112.000
825.08	103.030
825.38	104.444
825.69	85.106
825.99	86.111
826.29	54.286
826.59	46.154
826.89	72.093
827.19	84.000
827.49	97.059
827.79	60.417
828.09	72.973
828.39	80.000
828.70	70.732
829.00	86.047
829.30	92.857
829.60	94.118
829.90	71.739
830.20	91.429
830.50	110.345
830.80	150.000
831.10	65.385
831.40	73.529
831.70	147.619
832.00	109.677
832.30	11.765
832.60	104.167
832.90	138.462
833.20	84.211
833.50	115.000
833.80	136.842
834.10	66.667
834.40	88.889
834.70	100.000
835.00	34.286
835.30	76.471
835.60	40.000
835.90	92.000
836.20	22.727
836.50	132.000
836.80	69.697
837.10	88.889
837.40	107.407
837.70	81.250
838.00	89.286
838.30	91.304
838.60	100.000
838.90	135.714
839.19	47.826
839.49	158.333
839.79	95.652
840.09	87.500
840.39	75.000
840.69	87.097
840.99	35.714
841.29	120.000
841.59	89.474
841.88	94.872
842.18	80.769
842.48	260.000
842.78	105.000
843.08	70.000
843.38	83.871
843.68	94.444
843.97	82.353
844.27	243.750
844.57	110.526
844.87	200.000
845.17	186.667
845.47	138.095
845.76	90.476
846.06	244.444
846.36	94.118
846.66	84.615
846.96	113.333
847.25	164.706
847.55	178.261
847.85	105.000
848.15	158.824
848.44	172.727
848.74	123.810
849.04	91.667
849.34	125.000
849.63	130.435
849.93	-1000.000
850.23	100.000
850.53	119.231
850.82	200.000
851.12	154.545
851.42	236.364
851.71	176.923
852.01	105.000
852.31	184.615
852.61	136.842
852.90	241.667
853.20	127.778
853.50	177.778
853.79	76.190
854.09	77.273
854.39	100.000
854.68	67.742
854.98	61.538
855.28	116.667
855.57	57.143
855.87	72.000
856.17	104.545
856.46	92.593
856.76	66.667
857.05	82.609
857.35	45.833
857.65	130.769
857.94	104.762
858.24	77.778
858.53	82.609
858.83	111.765
859.13	76.471
859.42	105.882
859.72	157.143
860.01	135.000
860.31	211.111
860.60	250.000
860.90	120.000
861.20	77.778
861.49	146.154
861.79	100.000
862.08	138.462
862.38	100.000
862.67	123.529
862.97	87.500
863.26	166.667
863.56	230.000
863.85	218.182
864.15	111.111
864.44	766.667
864.74	178.571
865.03	106.250
865.33	140.000
865.62	77.419
865.92	127.273
866.21	126.087
866.51	135.714
866.80	560.000
867.10	116.667
867.39	125.000
867.69	-1800.000
867.98	285.714
868.27	194.118
868.57	1200.000
868.86	90.000
869.16	57.143
869.45	125.000
869.75	254.545
870.04	300.000
870.33	191.667
870.63	185.714
870.92	475.000
871.22	50.000
871.51	118.182
871.80	466.667
872.10	400.000
>>>>>End Processed Spectral Data<<<<<
