SpectraSuite Data File
++++++++++++++++++++++++++++++++++++
Date: Thu May 14 14:57:26 PDT 2015
User: schluterlab
Dark Spectrum Present: Yes
Reference Spectrum Present: Yes
Number of Sampled Component Spectra: 1
Spectrometers: USB2E3373
Integration Time (usec): 3000 (USB2E3373)
Spectra Averaged: 3 (USB2E3373)
Boxcar Smoothing: 0 (USB2E3373)
Correct for Electrical Dark: No (USB2E3373)
Strobe/Lamp Enabled: No (USB2E3373)
Correct for Detector Non-linearity: No (USB2E3373)
Correct for Stray Light: No (USB2E3373)
Number of Pixels in Processed Spectrum: 2048
>>>>>Begin Processed Spectral Data<<<<<
178.53	0.000
178.91	257.143
179.29	-3100.000
179.67	-1800.000
180.04	264.286
180.42	220.000
180.80	500.000
181.18	-1800.000
181.56	-600.000
181.94	375.000
182.31	-300.000
182.69	633.333
183.07	-800.000
183.45	525.000
183.83	-316.667
184.20	-600.000
184.58	1000.000
184.96	-550.000
185.34	-222.222
185.72	-300.000
186.09	266.667
186.47	1200.000
186.85	560.000
187.23	-322.222
187.61	-2800.000
187.98	380.000
188.36	525.000
188.74	-625.000
189.12	-400.000
189.49	-43.750
189.87	-150.000
190.25	-166.667
190.63	-360.000
191.00	-288.889
191.38	0.000
191.76	-475.000
192.14	-350.000
192.51	1000.000
192.89	-333.333
193.27	0.000
193.65	-285.714
194.02	-2700.000
194.40	-114.286
194.78	242.857
195.15	0.000
195.53	-100.000
195.91	0.000
196.29	-575.000
196.66	-192.308
197.04	-2600.000
197.42	-285.714
197.79	-900.000
198.17	-300.000
198.55	-328.571
198.92	-111.111
199.30	-187.500
199.68	-118.182
200.05	-107.143
200.43	-950.000
200.81	342.857
201.18	0.000
201.56	322.222
201.94	0.000
202.31	1033.333
202.69	-133.333
203.07	600.000
203.44	-155.556
203.82	-600.000
204.19	-150.000
204.57	-316.667
204.95	-337.500
205.32	-3300.000
205.70	600.000
206.08	-316.667
206.45	-216.667
206.83	480.000
207.20	-316.667
207.58	-500.000
207.96	-350.000
208.33	-300.000
208.71	125.000
209.08	-233.333
209.46	0.000
209.84	450.000
210.21	350.000
210.59	750.000
210.96	633.333
211.34	-400.000
211.71	-287.500
212.09	-1800.000
212.46	0.000
212.84	1450.000
213.22	-460.000
213.59	-400.000
213.97	-100.000
214.34	-600.000
214.72	433.333
215.09	-400.000
215.47	0.000
215.84	271.429
216.22	1150.000
216.59	-220.000
216.97	-460.000
217.34	-375.000
217.72	-237.500
218.09	-700.000
218.47	-625.000
218.84	0.000
219.22	340.000
219.59	-129.412
219.97	-80.000
220.34	1400.000
220.72	-211.111
221.09	-30.769
221.47	-600.000
221.84	-240.000
222.22	-300.000
222.59	0.000
222.97	-187.500
223.34	-440.000
223.72	-1700.000
224.09	-675.000
224.46	-450.000
224.84	-220.000
225.21	-342.857
225.59	-475.000
225.96	-325.000
226.34	-3.846
226.71	383.333
227.08	-850.000
227.46	-100.000
227.83	-425.000
228.21	-78.947
228.58	175.000
228.95	1050.000
229.33	-158.333
229.70	-180.000
230.08	-47.368
230.45	280.000
230.82	-33.333
231.20	-114.286
231.57	-108.333
231.95	-127.273
232.32	-154.545
232.69	-40.000
233.07	-550.000
233.44	-94.118
233.81	-170.000
234.19	-38.889
234.56	-40.909
234.93	-37.931
235.31	-73.684
235.68	-88.889
236.05	-125.000
236.43	-11.538
236.80	-20.000
237.17	-59.259
237.55	-24.242
237.92	-130.000
238.29	-54.839
238.67	-6.818
239.04	-19.444
239.41	-19.048
239.79	-19.565
240.16	9.259
240.53	-4.348
240.91	-19.608
241.28	-18.033
241.65	2.985
242.02	-4.054
242.40	-15.385
242.77	9.333
243.14	-7.317
243.51	-6.579
243.89	-1.282
244.26	11.881
244.63	7.843
245.00	4.673
245.38	2.632
245.75	-4.425
246.12	14.286
246.49	6.977
246.87	8.571
247.24	14.570
247.61	17.763
247.98	8.054
248.36	10.494
248.73	11.656
249.10	13.115
249.47	17.413
249.84	18.325
250.22	22.280
250.59	15.556
250.96	16.818
251.33	15.306
251.70	15.812
252.08	14.167
252.45	16.803
252.82	14.876
253.19	15.234
253.56	14.449
253.94	18.077
254.31	18.939
254.68	19.930
255.05	21.173
255.42	16.327
255.79	18.123
256.16	20.530
256.54	17.219
256.91	19.016
257.28	14.426
257.65	16.879
258.02	18.584
258.39	16.524
258.76	18.654
259.14	22.414
259.51	17.291
259.88	18.980
260.25	15.278
260.62	20.274
260.99	21.038
261.36	22.520
261.73	19.098
262.10	20.055
262.47	18.499
262.85	22.475
263.22	16.623
263.59	15.789
263.96	20.716
264.33	17.391
264.70	21.728
265.07	22.912
265.44	21.542
265.81	17.824
266.18	22.222
266.55	21.875
266.92	20.957
267.29	21.007
267.66	19.734
268.03	20.961
268.40	20.668
268.77	18.679
269.14	22.247
269.51	22.368
269.88	19.672
270.25	20.523
270.62	21.941
270.99	21.010
271.36	22.772
271.73	21.807
272.10	19.840
272.47	18.637
272.84	22.691
273.21	19.238
273.58	20.565
273.95	17.308
274.32	18.441
274.69	20.309
275.06	24.359
275.43	17.930
275.80	20.282
276.17	18.519
276.54	20.149
276.91	18.605
277.28	22.423
277.65	21.903
278.02	19.485
278.39	21.196
278.76	19.332
279.13	20.213
279.50	19.072
279.87	21.109
280.23	17.254
280.60	21.186
280.97	19.572
281.34	19.185
281.71	20.135
282.08	18.106
282.45	19.313
282.82	19.780
283.19	19.871
283.56	19.180
283.92	20.571
284.29	22.275
284.66	20.525
285.03	18.910
285.40	18.702
285.77	18.731
286.14	19.695
286.51	19.178
286.87	19.747
287.24	18.825
287.61	18.386
287.98	19.486
288.35	18.935
288.72	20.118
289.08	20.059
289.45	19.527
289.82	18.373
290.19	18.822
290.56	17.324
290.93	18.260
291.29	16.391
291.66	17.355
292.03	17.096
292.40	19.320
292.77	17.116
293.13	17.862
293.50	15.506
293.87	18.255
294.24	19.067
294.60	16.561
294.97	16.242
295.34	17.798
295.71	14.628
296.08	15.116
296.44	15.319
296.81	15.713
297.18	15.442
297.55	14.858
297.91	16.607
298.28	14.573
298.65	16.290
299.02	14.758
299.38	14.645
299.75	16.005
300.12	13.889
300.48	16.014
300.85	16.085
301.22	15.548
301.59	14.384
301.95	15.028
302.32	15.333
302.69	15.444
303.05	15.125
303.42	16.297
303.79	14.688
304.15	15.247
304.52	14.905
304.89	14.450
305.25	14.286
305.62	14.943
305.99	15.773
306.35	13.609
306.72	14.478
307.09	13.807
307.45	13.665
307.82	14.934
308.19	14.228
308.55	14.465
308.92	15.677
309.29	14.751
309.65	14.133
310.02	15.050
310.38	14.469
310.75	13.786
311.12	13.902
311.48	14.370
311.85	13.675
312.22	14.611
312.58	14.836
312.95	14.054
313.31	14.995
313.68	14.652
314.05	16.621
314.41	15.027
314.78	16.167
315.14	14.701
315.51	15.605
315.87	16.022
316.24	15.799
316.61	16.607
316.97	14.751
317.34	14.374
317.70	16.070
318.07	15.520
318.43	16.497
318.80	16.054
319.16	15.880
319.53	15.081
319.89	16.039
320.26	16.637
320.62	16.223
320.99	17.082
321.35	17.560
321.72	17.953
322.08	16.141
322.45	16.531
322.81	17.058
323.18	16.372
323.54	15.948
323.91	16.637
324.27	17.384
324.64	18.304
325.00	17.330
325.37	18.428
325.73	18.678
326.10	18.654
326.46	19.137
326.83	18.335
327.19	19.134
327.56	19.763
327.92	17.939
328.29	18.952
328.65	18.509
329.01	19.628
329.38	19.545
329.74	19.949
330.11	20.120
330.47	19.292
330.84	18.863
331.20	21.167
331.56	19.671
331.93	19.916
332.29	19.237
332.66	19.934
333.02	19.430
333.38	20.218
333.75	20.118
334.11	19.600
334.48	20.957
334.84	21.495
335.20	19.060
335.57	21.922
335.93	19.669
336.29	19.967
336.66	19.092
337.02	20.569
337.38	20.833
337.75	19.669
338.11	20.521
338.47	20.099
338.84	20.643
339.20	19.461
339.56	20.264
339.93	20.772
340.29	20.853
340.65	19.951
341.02	20.351
341.38	19.725
341.74	20.500
342.11	20.998
342.47	18.983
342.83	20.209
343.20	19.869
343.56	20.209
343.92	19.936
344.28	20.703
344.65	20.310
345.01	22.075
345.37	20.295
345.73	19.953
346.10	20.905
346.46	20.965
346.82	21.348
347.19	21.390
347.55	21.320
347.91	20.877
348.27	20.561
348.63	20.335
349.00	19.612
349.36	20.669
349.72	21.354
350.08	19.762
350.45	19.924
350.81	19.382
351.17	20.602
351.53	21.228
351.89	20.577
352.26	21.119
352.62	20.224
352.98	20.305
353.34	20.015
353.70	21.032
354.07	20.939
354.43	20.046
354.79	20.718
355.15	21.486
355.51	20.980
355.87	20.344
356.24	20.304
356.60	21.360
356.96	20.460
357.32	20.149
357.68	20.425
358.04	20.584
358.40	20.522
358.77	21.930
359.13	20.827
359.49	19.480
359.85	20.957
360.21	21.234
360.57	21.177
360.93	20.381
361.29	22.667
361.66	20.492
362.02	21.712
362.38	21.012
362.74	20.880
363.10	21.802
363.46	21.953
363.82	21.236
364.18	21.956
364.54	21.715
364.90	22.207
365.26	21.793
365.62	22.600
365.98	21.375
366.35	21.477
366.71	21.565
367.07	20.433
367.43	22.653
367.79	22.960
368.15	22.341
368.51	22.260
368.87	21.685
369.23	22.733
369.59	22.473
369.95	22.380
370.31	22.755
370.67	22.146
371.03	22.091
371.39	23.036
371.75	22.971
372.11	22.493
372.47	22.884
372.83	23.626
373.19	22.682
373.55	22.696
373.91	22.427
374.27	23.286
374.63	24.696
374.99	23.408
375.35	24.156
375.71	23.613
376.07	23.305
376.42	23.489
376.78	23.928
377.14	23.144
377.50	23.656
377.86	25.123
378.22	24.431
378.58	24.435
378.94	24.883
379.30	24.487
379.66	23.986
380.02	24.639
380.38	23.848
380.74	25.127
381.09	24.158
381.45	24.602
381.81	25.000
382.17	25.297
382.53	25.380
382.89	25.282
383.25	25.498
383.61	25.116
383.97	25.442
384.32	26.555
384.68	25.464
385.04	26.489
385.40	26.576
385.76	26.495
386.12	25.913
386.48	27.000
386.83	27.414
387.19	26.130
387.55	26.937
387.91	26.598
388.27	26.963
388.62	26.976
388.98	26.791
389.34	27.519
389.70	27.775
390.06	27.768
390.42	28.072
390.77	28.236
391.13	27.817
391.49	28.563
391.85	27.939
392.20	27.936
392.56	28.647
392.92	28.299
393.28	28.635
393.64	28.268
393.99	29.053
394.35	29.322
394.71	29.102
395.07	29.042
395.42	28.270
395.78	29.555
396.14	29.531
396.50	29.097
396.85	28.503
397.21	29.763
397.57	29.800
397.92	29.381
398.28	28.354
398.64	28.947
399.00	28.010
399.35	30.471
399.71	29.022
400.07	29.871
400.42	30.442
400.78	30.208
401.14	29.425
401.49	30.188
401.85	30.581
402.21	30.243
402.57	31.045
402.92	29.137
403.28	29.274
403.63	29.654
403.99	29.691
404.35	29.392
404.70	30.312
405.06	29.565
405.42	29.567
405.77	30.534
406.13	31.226
406.49	31.081
406.84	30.970
407.20	30.296
407.55	30.830
407.91	30.044
408.27	29.976
408.62	31.123
408.98	30.702
409.34	29.384
409.69	30.964
410.05	30.832
410.40	30.742
410.76	31.015
411.11	31.560
411.47	30.651
411.83	31.864
412.18	31.325
412.54	31.595
412.89	30.966
413.25	30.926
413.60	31.763
413.96	31.352
414.31	30.822
414.67	30.829
415.03	31.077
415.38	31.841
415.74	31.277
416.09	31.462
416.45	30.996
416.80	31.885
417.16	31.481
417.51	31.445
417.87	31.208
418.22	31.796
418.58	31.846
418.93	32.480
419.29	32.059
419.64	30.972
420.00	31.573
420.35	31.780
420.71	31.246
421.06	31.570
421.42	31.881
421.77	31.395
422.12	31.554
422.48	32.514
422.83	32.202
423.19	31.883
423.54	33.407
423.90	32.413
424.25	33.173
424.61	32.147
424.96	32.345
425.31	32.696
425.67	32.797
426.02	33.647
426.38	32.721
426.73	32.757
427.09	34.025
427.44	32.714
427.79	32.725
428.15	32.534
428.50	32.921
428.85	32.836
429.21	34.043
429.56	33.218
429.92	32.826
430.27	34.361
430.62	34.392
430.98	33.005
431.33	33.040
431.68	33.477
432.04	33.570
432.39	34.172
432.74	33.276
433.10	33.478
433.45	32.553
433.80	33.208
434.16	34.143
434.51	35.046
434.86	35.071
435.22	34.644
435.57	35.200
435.92	34.613
436.28	34.243
436.63	35.554
436.98	33.602
437.34	33.935
437.69	35.223
438.04	35.008
438.39	34.865
438.75	34.311
439.10	34.778
439.45	34.377
439.81	34.802
440.16	34.853
440.51	35.396
440.86	34.186
441.22	35.048
441.57	35.639
441.92	33.899
442.27	35.657
442.63	35.122
442.98	35.219
443.33	34.403
443.68	35.282
444.03	35.701
444.39	35.321
444.74	35.426
445.09	35.580
445.44	36.565
445.79	35.393
446.15	35.303
446.50	34.677
446.85	35.068
447.20	35.397
447.55	36.297
447.91	35.393
448.26	36.047
448.61	35.122
448.96	37.232
449.31	36.108
449.66	34.695
450.02	36.076
450.37	35.535
450.72	35.953
451.07	36.048
451.42	35.586
451.77	35.686
452.12	36.174
452.47	34.581
452.83	37.106
453.18	36.486
453.53	35.784
453.88	35.726
454.23	35.650
454.58	36.332
454.93	36.529
455.28	36.123
455.63	36.271
455.98	36.592
456.34	36.455
456.69	36.449
457.04	35.993
457.39	37.417
457.74	36.577
458.09	35.969
458.44	36.422
458.79	35.998
459.14	35.868
459.49	36.276
459.84	37.041
460.19	35.425
460.54	37.422
460.89	36.580
461.24	35.402
461.59	36.746
461.94	35.995
462.29	37.458
462.64	35.788
462.99	35.719
463.34	37.508
463.69	36.401
464.04	37.076
464.39	35.762
464.74	36.431
465.09	36.621
465.44	37.178
465.79	37.070
466.14	36.634
466.49	36.474
466.84	36.915
467.19	37.341
467.54	36.604
467.89	36.667
468.24	37.673
468.59	37.464
468.94	36.131
469.29	36.233
469.64	36.999
469.99	37.157
470.34	37.376
470.68	37.047
471.03	38.310
471.38	37.933
471.73	39.272
472.08	37.246
472.43	37.267
472.78	38.602
473.13	38.432
473.48	37.281
473.83	38.189
474.17	37.163
474.52	38.665
474.87	38.151
475.22	38.028
475.57	36.552
475.92	37.033
476.27	38.552
476.61	37.227
476.96	38.373
477.31	38.069
477.66	38.510
478.01	37.977
478.36	36.989
478.70	37.438
479.05	38.395
479.40	37.710
479.75	38.473
480.10	37.281
480.45	38.013
480.79	37.551
481.14	38.649
481.49	38.437
481.84	38.251
482.19	37.677
482.53	37.954
482.88	38.370
483.23	38.061
483.58	37.598
483.92	37.456
484.27	37.468
484.62	37.294
484.97	37.286
485.31	36.818
485.66	34.810
486.01	34.109
486.36	35.696
486.70	37.845
487.05	39.184
487.40	37.892
487.75	36.947
488.09	36.658
488.44	36.745
488.79	36.391
489.13	35.952
489.48	36.427
489.83	37.264
490.17	37.262
490.52	37.685
490.87	38.325
491.22	38.215
491.56	37.713
491.91	38.683
492.26	37.689
492.60	37.691
492.95	38.526
493.30	37.875
493.64	37.757
493.99	38.596
494.34	37.936
494.68	37.901
495.03	39.559
495.37	38.748
495.72	39.093
496.07	37.993
496.41	38.009
496.76	38.532
497.11	38.811
497.45	38.325
497.80	38.472
498.14	37.868
498.49	37.730
498.84	39.305
499.18	38.552
499.53	38.789
499.87	38.637
500.22	38.736
500.56	38.911
500.91	39.451
501.26	39.273
501.60	37.958
501.95	38.949
502.29	38.789
502.64	39.003
502.98	37.705
503.33	38.834
503.67	38.770
504.02	39.361
504.36	38.874
504.71	39.596
505.06	38.427
505.40	39.625
505.75	39.253
506.09	39.733
506.44	39.786
506.78	39.495
507.13	39.834
507.47	39.649
507.82	39.583
508.16	39.006
508.51	39.616
508.85	40.482
509.19	39.460
509.54	40.298
509.88	40.117
510.23	40.651
510.57	41.131
510.92	40.348
511.26	39.250
511.61	39.305
511.95	39.971
512.30	40.571
512.64	40.230
512.98	40.120
513.33	41.280
513.67	40.592
514.02	40.521
514.36	42.660
514.70	41.510
515.05	41.345
515.39	41.522
515.74	41.994
516.08	42.102
516.42	42.439
516.77	42.008
517.11	40.382
517.46	41.092
517.80	42.277
518.14	42.220
518.49	41.540
518.83	40.873
519.17	40.765
519.52	41.405
519.86	41.235
520.20	41.321
520.55	41.292
520.89	42.342
521.23	41.764
521.58	42.881
521.92	43.796
522.26	41.753
522.61	42.824
522.95	42.964
523.29	42.874
523.64	42.265
523.98	42.499
524.32	43.553
524.66	42.288
525.01	42.072
525.35	41.356
525.69	43.387
526.04	42.767
526.38	42.586
526.72	42.561
527.06	42.346
527.41	43.324
527.75	42.933
528.09	43.270
528.43	41.741
528.78	42.312
529.12	42.775
529.46	41.147
529.80	42.506
530.15	43.072
530.49	43.772
530.83	43.034
531.17	42.174
531.51	43.201
531.86	43.269
532.20	43.293
532.54	42.011
532.88	42.848
533.22	42.251
533.57	42.181
533.91	42.256
534.25	42.227
534.59	43.333
534.93	42.501
535.27	42.310
535.62	42.581
535.96	43.986
536.30	43.302
536.64	42.823
536.98	43.235
537.32	41.975
537.66	42.358
538.01	42.538
538.35	41.717
538.69	42.849
539.03	43.899
539.37	42.638
539.71	43.544
540.05	42.746
540.39	42.421
540.73	42.137
541.07	43.593
541.42	41.701
541.76	41.459
542.10	42.400
542.44	42.692
542.78	41.667
543.12	41.657
543.46	42.063
543.80	41.067
544.14	41.831
544.48	43.203
544.82	42.789
545.16	42.159
545.50	42.840
545.84	40.906
546.18	44.198
546.52	42.611
546.86	42.138
547.20	43.130
547.54	42.634
547.88	42.375
548.22	41.111
548.56	42.188
548.90	43.940
549.24	43.100
549.58	42.397
549.92	43.559
550.26	43.560
550.60	42.693
550.94	44.049
551.28	41.980
551.62	42.925
551.96	42.395
552.30	43.149
552.64	43.373
552.98	43.918
553.32	43.666
553.66	43.280
554.00	43.127
554.34	42.793
554.68	42.673
555.02	42.904
555.36	42.998
555.69	42.473
556.03	42.182
556.37	42.804
556.71	43.183
557.05	43.195
557.39	43.132
557.73	42.999
558.07	42.781
558.41	43.455
558.75	44.219
559.08	43.424
559.42	43.141
559.76	42.605
560.10	42.800
560.44	44.063
560.78	43.500
561.12	42.919
561.45	43.431
561.79	43.590
562.13	44.116
562.47	42.848
562.81	43.671
563.15	43.182
563.48	43.630
563.82	42.563
564.16	43.004
564.50	43.445
564.84	43.245
565.17	42.235
565.51	42.290
565.85	42.696
566.19	41.935
566.52	43.125
566.86	42.784
567.20	42.306
567.54	41.636
567.88	43.170
568.21	42.194
568.55	42.590
568.89	41.262
569.23	41.445
569.56	41.501
569.90	41.091
570.24	40.944
570.57	41.052
570.91	39.957
571.25	39.456
571.59	39.744
571.92	39.606
572.26	40.577
572.60	39.558
572.93	39.521
573.27	39.730
573.61	39.148
573.95	38.990
574.28	39.173
574.62	38.313
574.96	38.818
575.29	38.753
575.63	38.577
575.97	39.401
576.30	38.613
576.64	38.559
576.98	38.998
577.31	38.765
577.65	39.187
577.98	38.309
578.32	38.389
578.66	38.560
578.99	38.951
579.33	39.173
579.67	38.373
580.00	38.615
580.34	39.267
580.67	38.394
581.01	38.771
581.35	38.106
581.68	38.580
582.02	38.404
582.35	39.378
582.69	39.446
583.02	38.703
583.36	39.043
583.70	39.332
584.03	38.685
584.37	38.805
584.70	38.337
585.04	38.665
585.37	38.312
585.71	38.533
586.04	39.146
586.38	39.206
586.72	39.408
587.05	38.603
587.39	39.566
587.72	39.115
588.06	38.757
588.39	39.408
588.73	39.365
589.06	40.011
589.40	39.828
589.73	39.589
590.07	40.252
590.40	39.452
590.73	39.519
591.07	40.990
591.40	39.891
591.74	40.183
592.07	40.438
592.41	40.733
592.74	39.794
593.08	39.841
593.41	40.478
593.75	40.316
594.08	40.170
594.41	40.256
594.75	40.452
595.08	40.410
595.42	40.779
595.75	39.974
596.09	40.834
596.42	40.595
596.75	40.602
597.09	41.616
597.42	40.922
597.75	39.749
598.09	40.079
598.42	40.450
598.76	40.734
599.09	39.943
599.42	38.854
599.76	39.353
600.09	40.674
600.42	40.908
600.76	39.729
601.09	40.259
601.42	40.371
601.76	40.034
602.09	40.172
602.42	39.331
602.76	40.148
603.09	40.015
603.42	40.715
603.76	40.240
604.09	41.128
604.42	40.550
604.76	39.574
605.09	40.766
605.42	40.789
605.75	40.962
606.09	40.985
606.42	40.168
606.75	40.517
607.09	40.015
607.42	40.077
607.75	40.914
608.08	40.845
608.42	40.468
608.75	40.423
609.08	40.195
609.41	41.112
609.75	41.384
610.08	40.633
610.41	41.546
610.74	40.672
611.07	41.341
611.41	41.928
611.74	41.663
612.07	41.421
612.40	40.922
612.73	42.347
613.07	41.858
613.40	41.819
613.73	40.154
614.06	42.100
614.39	41.399
614.72	40.757
615.06	41.193
615.39	40.986
615.72	41.611
616.05	40.942
616.38	42.180
616.71	42.006
617.05	41.906
617.38	41.680
617.71	42.009
618.04	42.472
618.37	43.169
618.70	42.873
619.03	41.099
619.36	42.355
619.69	42.473
620.03	42.687
620.36	42.577
620.69	42.011
621.02	43.373
621.35	44.630
621.68	44.685
622.01	44.128
622.34	44.212
622.67	44.055
623.00	44.130
623.33	43.530
623.66	43.515
623.99	43.779
624.32	44.314
624.65	42.857
624.99	43.498
625.32	44.285
625.65	44.370
625.98	43.254
626.31	43.799
626.64	43.077
626.97	44.336
627.30	43.660
627.63	43.811
627.96	45.195
628.29	43.891
628.62	44.500
628.95	45.136
629.28	44.010
629.61	45.791
629.94	43.431
630.26	45.169
630.59	44.473
630.92	45.281
631.25	47.317
631.58	46.516
631.91	45.736
632.24	48.031
632.57	44.782
632.90	48.144
633.23	46.122
633.56	46.224
633.89	44.938
634.22	48.441
634.55	47.704
634.88	46.645
635.20	47.147
635.53	49.153
635.86	45.937
636.19	47.720
636.52	46.941
636.85	45.046
637.18	44.387
637.51	45.591
637.83	48.948
638.16	48.041
638.49	46.948
638.82	46.223
639.15	46.506
639.48	48.383
639.81	46.882
640.13	47.821
640.46	45.697
640.79	47.549
641.12	49.938
641.45	47.177
641.77	50.449
642.10	48.163
642.43	48.404
642.76	45.528
643.09	46.027
643.41	49.020
643.74	48.690
644.07	51.448
644.40	49.788
644.73	48.621
645.05	49.633
645.38	49.209
645.71	48.240
646.04	48.494
646.36	47.737
646.69	49.540
647.02	50.000
647.35	48.702
647.67	45.733
648.00	50.000
648.33	49.850
648.66	48.930
648.98	47.483
649.31	48.850
649.64	48.074
649.96	44.430
650.29	46.592
650.62	48.798
650.94	49.399
651.27	45.509
651.60	46.345
651.92	47.112
652.25	47.033
652.58	46.217
652.90	49.564
653.23	48.732
653.56	49.643
653.88	49.860
654.21	44.648
654.54	45.809
654.86	46.742
655.19	45.671
655.52	46.449
655.84	42.475
656.17	48.800
656.49	67.728
656.82	72.122
657.15	56.043
657.47	41.896
657.80	31.043
658.13	23.705
658.45	31.107
658.78	37.038
659.10	35.878
659.43	34.770
659.75	34.982
660.08	34.062
660.41	36.559
660.73	39.795
661.06	43.906
661.38	45.295
661.71	47.586
662.03	50.088
662.36	49.195
662.68	50.281
663.01	49.381
663.33	50.473
663.66	50.733
663.98	50.000
664.31	50.844
664.63	49.518
664.96	50.091
665.28	48.276
665.61	49.650
665.93	47.321
666.26	47.133
666.58	50.369
666.91	49.159
667.23	48.000
667.56	51.282
667.88	49.400
668.21	47.070
668.53	47.297
668.86	50.688
669.18	50.305
669.50	49.901
669.83	50.400
670.15	47.835
670.48	49.802
670.80	48.948
671.13	47.070
671.45	49.213
671.77	49.341
672.10	47.833
672.42	48.544
672.75	46.544
673.07	44.179
673.39	45.300
673.72	50.336
674.04	48.448
674.37	48.479
674.69	49.912
675.01	47.429
675.34	46.947
675.66	44.757
675.98	47.575
676.31	48.047
676.63	50.190
676.95	50.766
677.28	50.000
677.60	45.472
677.92	47.601
678.25	48.812
678.57	47.865
678.89	45.904
679.22	47.909
679.54	46.667
679.86	45.593
680.18	45.937
680.51	46.541
680.83	47.791
681.15	46.897
681.48	45.769
681.80	46.459
682.12	45.629
682.44	45.743
682.77	47.163
683.09	46.402
683.41	48.837
683.73	46.110
684.06	49.446
684.38	46.512
684.70	50.628
685.02	48.193
685.34	46.589
685.67	46.845
685.99	45.552
686.31	44.186
686.63	46.130
686.96	45.584
687.28	46.580
687.60	43.603
687.92	44.855
688.24	45.576
688.56	44.138
688.89	45.372
689.21	45.988
689.53	44.314
689.85	47.732
690.17	47.037
690.49	51.195
690.82	44.752
691.14	46.356
691.46	45.698
691.78	48.250
692.10	46.789
692.42	44.286
692.74	46.461
693.06	45.000
693.39	47.249
693.71	44.737
694.03	42.379
694.35	45.143
694.67	47.228
694.99	45.745
695.31	47.241
695.63	49.134
695.95	46.791
696.27	44.396
696.59	48.009
696.91	44.820
697.23	48.352
697.56	46.029
697.88	43.182
698.20	44.068
698.52	48.485
698.84	48.649
699.16	46.939
699.48	45.188
699.80	45.319
700.12	44.323
700.44	47.926
700.76	45.606
701.08	47.942
701.40	45.596
701.72	44.279
702.04	50.535
702.36	46.859
702.68	42.787
703.00	49.144
703.32	47.044
703.64	47.677
703.96	46.539
704.28	47.174
704.60	44.557
704.91	45.663
705.23	47.397
705.55	47.075
705.87	51.212
706.19	52.147
706.51	43.976
706.83	48.703
707.15	47.354
707.47	44.860
707.79	46.070
708.11	43.220
708.43	45.591
708.74	42.857
709.06	43.619
709.38	46.479
709.70	44.169
710.02	43.928
710.34	47.872
710.66	42.737
710.98	46.448
711.29	47.253
711.61	50.282
711.93	45.014
712.25	44.595
712.57	45.133
712.89	48.824
713.20	43.787
713.52	52.023
713.84	43.175
714.16	43.947
714.48	45.361
714.80	46.753
715.11	43.045
715.43	44.562
715.75	43.421
716.07	40.608
716.39	45.082
716.70	42.771
717.02	48.852
717.34	42.857
717.66	45.638
717.97	38.356
718.29	43.643
718.61	44.079
718.93	47.896
719.24	48.758
719.56	42.945
719.88	44.144
720.20	45.484
720.51	42.857
720.83	43.125
721.15	45.395
721.46	44.863
721.78	40.000
722.10	41.100
722.42	42.617
722.73	39.355
723.05	45.614
723.37	43.056
723.68	46.237
724.00	43.682
724.32	41.549
724.63	42.308
724.95	47.872
725.27	45.645
725.58	42.049
725.90	44.483
726.22	44.514
726.53	42.857
726.85	43.711
727.16	40.785
727.48	41.590
727.80	44.040
728.11	42.756
728.43	42.088
728.74	44.482
729.06	43.377
729.38	43.831
729.69	44.966
730.01	40.179
730.32	37.273
730.64	39.623
730.96	40.994
731.27	44.972
731.59	44.505
731.90	36.883
732.22	40.104
732.53	41.160
732.85	40.857
733.16	42.815
733.48	38.110
733.80	41.226
734.11	39.886
734.43	40.541
734.74	44.557
735.06	38.442
735.37	44.054
735.69	41.622
736.00	43.220
736.32	38.275
736.63	41.944
736.95	39.943
737.26	38.485
737.58	40.000
737.89	38.824
738.21	37.920
738.52	41.967
738.83	46.075
739.15	42.553
739.46	43.197
739.78	41.718
740.09	39.255
740.41	41.399
740.72	45.333
741.04	41.424
741.35	45.614
741.66	45.490
741.98	45.082
742.29	44.770
742.61	46.053
742.92	45.385
743.23	43.682
743.55	42.248
743.86	42.400
744.18	36.777
744.49	41.350
744.80	39.095
745.12	43.460
745.43	44.715
745.74	38.793
746.06	47.881
746.37	44.726
746.68	41.870
747.00	46.667
747.31	45.064
747.62	43.462
747.94	39.676
748.25	38.956
748.56	42.041
748.88	38.462
749.19	46.552
749.50	44.589
749.82	43.775
750.13	42.349
750.44	41.333
750.75	38.769
751.07	34.769
751.38	40.379
751.69	42.173
752.01	40.129
752.32	43.137
752.63	36.735
752.94	41.176
753.26	38.662
753.57	42.593
753.88	42.697
754.19	38.264
754.51	42.122
754.82	41.158
755.13	40.000
755.44	41.980
755.75	41.118
756.07	43.284
756.38	35.849
756.69	46.084
757.00	35.457
757.31	39.891
757.63	34.015
757.94	37.793
758.25	39.503
758.56	38.562
758.87	35.000
759.18	39.733
759.50	41.076
759.81	41.176
760.12	40.701
760.43	40.365
760.74	36.946
761.05	36.750
761.36	36.145
761.67	38.579
761.99	40.000
762.30	34.756
762.61	33.663
762.92	43.657
763.23	36.704
763.54	37.410
763.85	37.113
764.16	37.037
764.47	42.254
764.78	43.450
765.10	39.296
765.41	40.769
765.72	35.979
766.03	38.136
766.34	38.871
766.65	36.237
766.96	35.060
767.27	39.171
767.58	36.318
767.89	39.423
768.20	42.254
768.51	42.130
768.82	36.948
769.13	40.530
769.44	34.231
769.75	37.545
770.06	39.615
770.37	42.520
770.68	39.574
770.99	35.628
771.30	45.926
771.61	39.544
771.92	34.815
772.23	38.057
772.54	34.259
772.85	37.788
773.16	42.381
773.47	31.217
773.78	40.000
774.09	38.068
774.39	38.000
774.70	34.973
775.01	35.976
775.32	30.000
775.63	31.902
775.94	28.662
776.25	41.290
776.56	42.308
776.87	41.497
777.18	35.172
777.48	33.566
777.79	29.054
778.10	28.676
778.41	30.556
778.72	37.241
779.03	30.864
779.34	43.030
779.65	33.161
779.95	27.222
780.26	31.818
780.57	36.774
780.88	46.377
781.19	38.710
781.50	42.941
781.80	39.247
782.11	33.862
782.42	30.808
782.73	34.132
783.04	30.726
783.34	27.273
783.65	25.490
783.96	35.404
784.27	33.333
784.57	32.450
784.88	27.857
785.19	33.858
785.50	34.646
785.81	41.353
786.11	36.154
786.42	30.216
786.73	33.094
787.04	33.835
787.34	33.607
787.65	34.400
787.96	32.836
788.26	39.860
788.57	32.867
788.88	29.605
789.19	29.412
789.49	40.411
789.80	22.695
790.11	29.134
790.41	22.656
790.72	30.508
791.03	23.301
791.33	26.957
791.64	33.333
791.95	24.107
792.25	28.571
792.56	34.821
792.87	30.208
793.17	26.786
793.48	31.250
793.79	21.687
794.09	31.193
794.40	30.275
794.70	34.694
795.01	27.922
795.32	28.082
795.62	26.761
795.93	23.485
796.23	24.590
796.54	21.429
796.85	17.021
797.15	13.043
797.46	21.918
797.76	13.750
798.07	16.304
798.37	16.495
798.68	15.584
798.99	21.839
799.29	25.843
799.60	30.851
799.90	16.867
800.21	18.462
800.51	17.910
800.82	4.412
801.12	-2.740
801.43	14.706
801.73	8.475
802.04	22.727
802.34	16.667
802.65	28.814
802.95	20.896
803.26	15.254
803.56	15.068
803.87	27.143
804.17	15.068
804.48	12.281
804.78	8.333
805.09	10.345
805.39	32.432
805.70	9.859
806.00	30.488
806.30	19.277
806.61	-1.370
806.91	24.038
807.22	16.667
807.52	18.391
807.83	27.778
808.13	25.301
808.43	23.596
808.74	17.500
809.04	5.882
809.35	14.667
809.65	22.857
809.95	21.918
810.26	15.789
810.56	5.172
810.86	17.647
811.17	12.281
811.47	8.197
811.77	-15.556
812.08	-3.390
812.38	8.333
812.69	27.586
812.99	3.774
813.29	-7.692
813.59	10.000
813.90	10.526
814.20	1.818
814.50	14.085
814.81	24.359
815.11	24.590
815.41	20.896
815.72	13.793
816.02	12.500
816.32	26.667
816.62	0.000
816.93	-2.222
817.23	1.852
817.53	-19.149
817.84	16.667
818.14	14.706
818.44	0.000
818.74	28.889
819.04	-33.333
819.35	-48.571
819.65	-46.154
819.95	1.887
820.25	17.778
820.56	-23.810
820.86	-9.375
821.16	-2.564
821.46	-13.953
821.76	-18.000
822.07	5.357
822.37	-6.522
822.67	-8.511
822.97	-21.622
823.27	-5.000
823.57	12.245
823.88	13.333
824.18	-15.000
824.48	-6.667
824.78	-16.000
825.08	9.091
825.38	-2.222
825.69	-2.128
825.99	2.778
826.29	-17.143
826.59	0.000
826.89	-9.302
827.19	-4.000
827.49	-8.824
827.79	-10.417
828.09	-24.324
828.39	-6.667
828.70	-9.756
829.00	6.977
829.30	-17.857
829.60	26.471
829.90	-2.174
830.20	-28.571
830.50	-20.690
830.80	-83.333
831.10	-34.615
831.40	-26.471
831.70	-52.381
832.00	-12.903
832.30	-105.882
832.60	-75.000
832.90	-176.923
833.20	-47.368
833.50	-65.000
833.80	-52.632
834.10	-85.714
834.40	5.556
834.70	18.750
835.00	-60.000
835.30	2.941
835.60	-33.333
835.90	-32.000
836.20	-72.727
836.50	-12.000
836.80	-39.394
837.10	-44.444
837.40	-37.037
837.70	-118.750
838.00	-21.429
838.30	-47.826
838.60	-44.828
838.90	-107.143
839.19	-78.261
839.49	-158.333
839.79	-78.261
840.09	-93.750
840.39	-90.000
840.69	-32.258
840.99	-64.286
841.29	-80.000
841.59	-94.737
841.88	-7.692
842.18	-50.000
842.48	-180.000
842.78	-75.000
843.08	-16.667
843.38	-3.226
843.68	-94.444
843.97	-17.647
844.27	-62.500
844.57	-26.316
844.87	-210.000
845.17	-133.333
845.47	-4.762
845.76	-52.381
846.06	-144.444
846.36	-117.647
846.66	-61.538
846.96	-133.333
847.25	-70.588
847.55	-30.435
847.85	-100.000
848.15	-35.294
848.44	-136.364
848.74	-19.048
849.04	-91.667
849.34	-131.250
849.63	-30.435
849.93	1200.000
850.23	-113.333
850.53	-15.385
850.82	-81.818
851.12	-4.545
851.42	-145.455
851.71	-107.692
852.01	-85.000
852.31	-115.385
852.61	-57.895
852.90	-83.333
853.20	-33.333
853.50	-211.111
853.79	-76.190
854.09	-54.545
854.39	-200.000
854.68	-29.032
854.98	-50.000
855.28	-50.000
855.57	-14.286
855.87	16.000
856.17	-50.000
856.46	-40.741
856.76	-77.778
857.05	-56.522
857.35	-66.667
857.65	-107.692
857.94	-47.619
858.24	-25.926
858.53	-56.522
858.83	-88.235
859.13	-105.882
859.42	-35.294
859.72	-121.429
860.01	-60.000
860.31	-177.778
860.60	-220.000
860.90	-93.333
861.20	-55.556
861.49	-69.231
861.79	-40.000
862.08	-115.385
862.38	0.000
862.67	-41.176
862.97	-75.000
863.26	-222.222
863.56	-150.000
863.85	-190.909
864.15	-61.111
864.44	-433.333
864.74	-35.714
865.03	-131.250
865.33	-150.000
865.62	-35.484
865.92	-50.000
866.21	-82.609
866.51	-142.857
866.80	-400.000
867.10	-116.667
867.39	-116.667
867.69	2200.000
867.98	-100.000
868.27	-23.529
868.57	-2900.000
868.86	-220.000
869.16	-28.571
869.45	-25.000
869.75	-136.364
870.04	-342.857
870.33	-125.000
870.63	-257.143
870.92	-425.000
871.22	-375.000
871.51	-154.545
871.80	-966.667
872.10	-1250.000
>>>>>End Processed Spectral Data<<<<<
