SpectraSuite Data File
++++++++++++++++++++++++++++++++++++
Date: Thu May 14 14:50:31 PDT 2015
User: schluterlab
Dark Spectrum Present: Yes
Reference Spectrum Present: Yes
Number of Sampled Component Spectra: 1
Spectrometers: USB2E3373
Integration Time (usec): 3000 (USB2E3373)
Spectra Averaged: 3 (USB2E3373)
Boxcar Smoothing: 0 (USB2E3373)
Correct for Electrical Dark: No (USB2E3373)
Strobe/Lamp Enabled: No (USB2E3373)
Correct for Detector Non-linearity: No (USB2E3373)
Correct for Stray Light: No (USB2E3373)
Number of Pixels in Processed Spectrum: 2048
>>>>>Begin Processed Spectral Data<<<<<
178.53	0.000
178.91	114.286
179.29	-1800.000
179.67	-2100.000
180.04	150.000
180.42	120.000
180.80	160.000
181.18	-1000.000
181.56	-400.000
181.94	200.000
182.31	0.000
182.69	400.000
183.07	-350.000
183.45	175.000
183.83	0.000
184.20	-433.333
184.58	1300.000
184.96	-175.000
185.34	-11.111
185.72	-80.000
186.09	122.222
186.47	500.000
186.85	300.000
187.23	-211.111
187.61	-2000.000
187.98	60.000
188.36	200.000
188.74	25.000
189.12	133.333
189.49	25.000
189.87	-125.000
190.25	-44.444
190.63	160.000
191.00	-100.000
191.38	0.000
191.76	-175.000
192.14	-333.333
192.51	400.000
192.89	-33.333
193.27	0.000
193.65	-42.857
194.02	-1200.000
194.40	-14.286
194.78	-0.000
195.15	0.000
195.53	-9.091
195.91	0.000
196.29	-100.000
196.66	0.000
197.04	-1200.000
197.42	-200.000
197.79	-300.000
198.17	-12.500
198.55	-200.000
198.92	22.222
199.30	37.500
199.68	54.545
200.05	28.571
200.43	-400.000
200.81	142.857
201.18	0.000
201.56	166.667
201.94	0.000
202.31	333.333
202.69	-133.333
203.07	100.000
203.44	-55.556
203.82	-275.000
204.19	-33.333
204.57	-100.000
204.95	-50.000
205.32	-700.000
205.70	25.000
206.08	-33.333
206.45	-150.000
206.83	360.000
207.20	-50.000
207.58	-120.000
207.96	-50.000
208.33	100.000
208.71	41.667
209.08	50.000
209.46	0.000
209.84	350.000
210.21	-0.000
210.59	250.000
210.96	200.000
211.34	-125.000
211.71	-187.500
212.09	-500.000
212.46	0.000
212.84	950.000
213.22	-180.000
213.59	0.000
213.97	-10.000
214.34	-66.667
214.72	133.333
215.09	-200.000
215.47	0.000
215.84	300.000
216.22	550.000
216.59	-60.000
216.97	-180.000
217.34	-50.000
217.72	50.000
218.09	-225.000
218.47	-300.000
218.84	0.000
219.22	180.000
219.59	5.882
219.97	15.000
220.34	800.000
220.72	-111.111
221.09	-30.769
221.47	-33.333
221.84	-40.000
222.22	-14.286
222.59	0.000
222.97	-50.000
223.34	-320.000
223.72	-900.000
224.09	25.000
224.46	-250.000
224.84	80.000
225.21	-100.000
225.59	-225.000
225.96	-150.000
226.34	7.692
226.71	183.333
227.08	200.000
227.46	-26.667
227.83	-225.000
228.21	-15.789
228.58	25.000
228.95	250.000
229.33	-16.667
229.70	40.000
230.08	84.211
230.45	260.000
230.82	-33.333
231.20	-35.714
231.57	-66.667
231.95	-81.818
232.32	-18.182
232.69	40.000
233.07	-150.000
233.44	35.294
233.81	-50.000
234.19	11.111
234.56	4.545
234.93	13.793
235.31	5.263
235.68	5.556
236.05	-15.000
236.43	46.154
236.80	36.000
237.17	25.926
237.55	0.000
237.92	-30.000
238.29	19.355
238.67	22.727
239.04	13.889
239.41	14.286
239.79	13.043
240.16	27.778
240.53	23.913
240.91	3.922
241.28	13.115
241.65	28.358
242.02	27.027
242.40	21.538
242.77	16.000
243.14	21.951
243.51	6.579
243.89	12.821
244.26	26.733
244.63	21.569
245.00	24.299
245.38	28.947
245.75	18.584
246.12	26.984
246.49	34.109
246.87	20.714
247.24	26.490
247.61	31.579
247.98	27.517
248.36	27.160
248.73	23.926
249.10	21.858
249.47	31.343
249.84	28.796
250.22	23.834
250.59	24.444
250.96	31.364
251.33	26.531
251.70	27.350
252.08	25.833
252.45	31.967
252.82	23.967
253.19	25.781
253.56	33.460
253.94	27.308
254.31	29.167
254.68	27.972
255.05	35.505
255.42	26.531
255.79	27.508
256.16	28.146
256.54	25.166
256.91	28.197
257.28	28.197
257.65	27.389
258.02	27.434
258.39	27.350
258.76	29.664
259.14	29.310
259.51	30.259
259.88	27.195
260.25	31.111
260.62	29.863
260.99	30.601
261.36	30.831
261.73	28.117
262.10	29.945
262.47	29.759
262.85	31.818
263.22	27.792
263.59	26.842
263.96	28.133
264.33	30.691
264.70	31.111
265.07	28.401
265.44	31.293
265.81	27.546
266.18	30.839
266.55	25.446
266.92	30.296
267.29	32.166
267.66	28.160
268.03	31.004
268.40	28.810
268.77	29.157
269.14	27.093
269.51	28.728
269.88	30.123
270.25	27.565
270.62	32.068
270.99	32.323
271.36	28.515
271.73	29.273
272.10	31.263
272.47	28.257
272.84	29.920
273.21	28.056
273.58	29.234
273.95	26.923
274.32	28.137
274.69	30.174
275.06	26.740
275.43	26.802
275.80	27.337
276.17	26.852
276.54	27.985
276.91	28.980
277.28	29.476
277.65	28.366
278.02	28.309
278.39	28.261
278.76	28.120
279.13	29.433
279.50	29.725
279.87	28.086
280.23	25.880
280.60	29.661
280.97	28.454
281.34	29.881
281.71	30.457
282.08	28.073
282.45	26.841
282.82	27.786
283.19	25.202
283.56	29.344
283.92	30.480
284.29	29.700
284.66	27.915
285.03	26.442
285.40	27.357
285.77	27.399
286.14	29.160
286.51	27.549
286.87	24.803
287.24	28.464
287.61	29.447
287.98	24.773
288.35	26.775
288.72	27.663
289.08	27.818
289.45	27.071
289.82	24.096
290.19	26.724
290.56	27.183
290.93	27.817
291.29	25.344
291.66	25.344
292.03	24.152
292.40	25.986
292.77	23.181
293.13	25.981
293.50	24.310
293.87	25.369
294.24	26.667
294.60	23.767
294.97	23.624
295.34	25.864
295.71	23.707
296.08	24.031
296.44	24.632
296.81	22.899
297.18	24.408
297.55	21.816
297.91	23.843
298.28	21.445
298.65	24.019
299.02	23.495
299.38	23.227
299.75	22.313
300.12	23.148
300.48	24.424
300.85	23.735
301.22	22.483
301.59	22.717
301.95	21.695
302.32	23.000
302.69	21.796
303.05	22.742
303.42	23.171
303.79	21.042
304.15	21.451
304.52	22.093
304.89	22.304
305.25	22.981
305.62	20.690
305.99	22.784
306.35	23.589
306.72	22.751
307.09	21.827
307.45	23.395
307.82	22.503
308.19	22.704
308.55	22.276
308.92	22.980
309.29	23.372
309.65	23.002
310.02	23.960
310.38	22.736
310.75	23.204
311.12	24.640
311.48	23.363
311.85	23.837
312.22	24.004
312.58	23.850
312.95	23.709
313.31	23.758
313.68	24.634
314.05	24.842
314.41	24.681
314.78	25.341
315.14	24.955
315.51	25.854
315.87	24.572
316.24	26.941
316.61	26.998
316.97	25.701
317.34	26.014
317.70	27.162
318.07	26.720
318.43	27.381
318.80	28.177
319.16	27.468
319.53	27.078
319.89	27.870
320.26	29.181
320.62	29.255
320.99	28.994
321.35	28.189
321.72	30.140
322.08	29.125
322.45	29.901
322.81	30.505
323.18	29.823
323.54	30.086
323.91	30.694
324.27	30.895
324.64	30.647
325.00	30.680
325.37	31.040
325.73	31.570
326.10	32.522
326.46	31.759
326.83	33.627
327.19	31.811
327.56	34.625
327.92	33.360
328.29	33.468
328.65	32.077
329.01	33.672
329.38	33.867
329.74	34.161
330.11	34.846
330.47	34.962
330.84	33.678
331.20	35.500
331.56	35.702
331.93	35.314
332.29	36.695
332.66	35.797
333.02	36.600
333.38	36.409
333.75	36.448
334.11	36.364
334.48	37.624
334.84	37.128
335.20	35.432
335.57	38.533
335.93	37.355
336.29	36.772
336.66	36.838
337.02	38.378
337.38	37.500
337.75	37.025
338.11	37.847
338.47	36.973
338.84	36.887
339.20	37.152
339.56	36.738
339.93	37.110
340.29	35.588
340.65	36.415
341.02	36.233
341.38	37.348
341.74	36.965
342.11	37.409
342.47	35.743
342.83	36.876
343.20	37.612
343.56	38.172
343.92	36.910
344.28	37.656
344.65	38.372
345.01	36.895
345.37	37.170
345.73	37.490
346.10	37.754
346.46	38.528
346.82	36.330
347.19	37.280
347.55	36.798
347.91	37.073
348.27	36.495
348.63	37.700
349.00	36.092
349.36	36.431
349.72	36.533
350.08	37.890
350.45	37.871
350.81	37.330
351.17	37.970
351.53	37.604
351.89	37.813
352.26	38.060
352.62	38.134
352.98	37.176
353.34	37.043
353.70	38.059
354.07	37.854
354.43	38.952
354.79	38.369
355.15	37.601
355.51	38.304
355.87	37.397
356.24	38.403
356.60	37.398
356.96	37.213
357.32	37.546
357.68	36.896
358.04	37.275
358.40	37.239
358.77	38.231
359.13	38.035
359.49	37.249
359.85	38.289
360.21	38.307
360.57	37.330
360.93	36.953
361.29	37.825
361.66	37.944
362.02	38.553
362.38	39.564
362.74	37.779
363.10	38.446
363.46	39.404
363.82	38.707
364.18	38.213
364.54	38.797
364.90	39.064
365.26	39.172
365.62	38.733
365.98	38.598
366.35	38.456
366.71	39.388
367.07	40.528
367.43	39.987
367.79	39.615
368.15	39.130
368.51	39.107
368.87	39.517
369.23	38.667
369.59	39.959
369.95	40.568
370.31	40.513
370.67	39.546
371.03	39.958
371.39	38.952
371.75	39.684
372.11	40.921
372.47	41.571
372.83	40.445
373.19	40.560
373.55	40.244
373.91	40.354
374.27	40.362
374.63	41.137
374.99	40.650
375.35	41.234
375.71	41.806
376.07	41.446
376.42	41.121
376.78	41.144
377.14	40.299
377.50	41.619
377.86	42.241
378.22	41.557
378.58	42.628
378.94	41.901
379.30	41.769
379.66	42.681
380.02	42.412
380.38	43.721
380.74	42.704
381.09	43.089
381.45	42.500
381.81	44.204
382.17	43.943
382.53	42.924
382.89	43.002
383.25	44.725
383.61	43.866
383.97	44.346
384.32	44.856
384.68	43.213
385.04	44.824
385.40	45.080
385.76	44.666
386.12	44.405
386.48	45.294
386.83	45.828
387.19	44.844
387.55	44.484
387.91	44.806
388.27	45.439
388.62	45.647
388.98	44.106
389.34	44.549
389.70	45.264
390.06	45.589
390.42	45.000
390.77	47.080
391.13	45.481
391.49	46.618
391.85	45.818
392.20	45.552
392.56	45.422
392.92	46.129
393.28	46.932
393.64	44.693
393.99	45.206
394.35	46.554
394.71	46.467
395.07	45.449
395.42	44.946
395.78	46.923
396.14	45.870
396.50	45.784
396.85	44.305
397.21	45.385
397.57	45.053
397.92	46.220
398.28	44.378
398.64	45.538
399.00	44.450
399.35	44.555
399.71	44.511
400.07	45.536
400.42	45.343
400.78	44.792
401.14	44.622
401.49	46.561
401.85	45.581
402.21	44.902
402.57	45.716
402.92	44.031
403.28	43.852
403.63	44.272
403.99	43.646
404.35	43.093
404.70	44.533
405.06	43.533
405.42	44.262
405.77	44.220
406.13	44.462
406.49	44.482
406.84	43.823
407.20	43.153
407.55	44.155
407.91	43.997
408.27	42.521
408.62	43.572
408.98	43.180
409.34	43.988
409.69	43.634
410.05	43.787
410.40	43.445
410.76	43.466
411.11	43.600
411.47	43.182
411.83	43.857
412.18	44.518
412.54	43.865
412.89	43.015
413.25	43.679
413.60	43.768
413.96	43.065
414.31	42.210
414.67	43.351
415.03	43.385
415.38	45.019
415.74	43.372
416.09	43.985
416.45	43.143
416.80	42.901
417.16	45.019
417.51	44.022
417.87	45.064
418.22	44.072
418.58	44.176
418.93	44.470
419.29	45.006
419.64	44.898
420.00	44.866
420.35	45.368
420.71	45.606
421.06	44.508
421.42	46.044
421.77	44.965
422.12	45.772
422.48	45.725
422.83	46.386
423.19	46.844
423.54	46.681
423.90	46.218
424.25	48.640
424.61	46.900
424.96	47.392
425.31	47.346
425.67	48.202
426.02	49.308
426.38	49.139
426.73	48.996
427.09	48.789
427.44	49.208
427.79	50.470
428.15	49.087
428.50	51.067
428.85	49.885
429.21	51.330
429.56	50.888
429.92	50.762
430.27	50.651
430.62	51.832
430.98	50.861
431.33	51.662
431.68	51.724
432.04	52.209
432.39	52.651
432.74	53.253
433.10	53.272
433.45	51.895
433.80	53.004
434.16	54.494
434.51	54.573
434.86	54.777
435.22	54.995
435.57	56.250
435.92	54.814
436.28	55.176
436.63	56.363
436.98	55.072
437.34	56.652
437.69	55.751
438.04	53.781
438.39	54.739
438.75	56.170
439.10	56.395
439.45	56.624
439.81	56.667
440.16	56.568
440.51	58.361
440.86	56.643
441.22	57.181
441.57	57.547
441.92	57.953
442.27	58.636
442.63	57.079
442.98	59.232
443.33	59.285
443.68	60.258
444.03	59.737
444.39	59.917
444.74	59.826
445.09	59.605
445.44	60.116
445.79	60.393
446.15	60.123
446.50	59.380
446.85	59.533
447.20	60.251
447.55	61.036
447.91	61.152
448.26	60.677
448.61	61.530
448.96	62.071
449.31	60.445
449.66	60.512
450.02	61.867
450.37	61.321
450.72	61.733
451.07	61.560
451.42	62.392
451.77	62.201
452.12	63.770
452.47	61.081
452.83	63.288
453.18	62.347
453.53	61.689
453.88	61.679
454.23	62.147
454.58	63.610
454.93	62.257
455.28	62.613
455.63	63.047
455.98	62.849
456.34	61.661
456.69	64.315
457.04	65.366
457.39	63.137
457.74	64.318
458.09	63.866
458.44	63.147
458.79	63.486
459.14	63.136
459.49	64.856
459.84	63.746
460.19	63.631
460.54	64.509
460.89	65.167
461.24	64.770
461.59	65.578
461.94	63.776
462.29	65.230
462.64	64.273
462.99	64.470
463.34	64.828
463.69	63.658
464.04	64.258
464.39	65.471
464.74	63.341
465.09	64.129
465.44	65.504
465.79	65.204
466.14	64.721
466.49	64.895
466.84	65.840
467.19	64.798
467.54	63.690
467.89	65.287
468.24	65.429
468.59	64.331
468.94	65.326
469.29	63.947
469.64	64.844
469.99	65.711
470.34	65.656
470.68	65.892
471.03	66.208
471.38	65.664
471.73	64.889
472.08	66.371
472.43	66.526
472.78	65.932
473.13	66.751
473.48	65.982
473.83	67.266
474.17	66.823
474.52	67.949
474.87	66.224
475.22	67.268
475.57	65.369
475.92	66.551
476.27	66.667
476.61	66.303
476.96	67.362
477.31	66.584
477.66	66.579
478.01	66.294
478.36	65.503
478.70	67.685
479.05	67.843
479.40	68.065
479.75	65.802
480.10	66.509
480.45	67.821
480.79	67.256
481.14	66.222
481.49	67.606
481.84	66.710
482.19	67.871
482.53	66.987
482.88	67.346
483.23	66.963
483.58	67.555
483.92	66.534
484.27	66.765
484.62	67.203
484.97	66.485
485.31	66.315
485.66	63.003
486.01	63.416
486.36	64.794
486.70	68.031
487.05	69.433
487.40	67.518
487.75	67.430
488.09	67.568
488.44	66.646
488.79	65.599
489.13	67.198
489.48	66.524
489.83	66.761
490.17	66.100
490.52	66.585
490.87	67.809
491.22	67.201
491.56	67.747
491.91	67.423
492.26	67.287
492.60	67.731
492.95	67.617
493.30	68.624
493.64	68.725
493.99	68.421
494.34	67.988
494.68	67.109
495.03	68.150
495.37	68.442
495.72	66.485
496.07	68.098
496.41	68.125
496.76	67.807
497.11	68.068
497.45	68.364
497.80	68.014
498.14	68.390
498.49	68.520
498.84	68.190
499.18	68.916
499.53	68.879
499.87	68.791
500.22	68.166
500.56	69.231
500.91	69.519
501.26	69.273
501.60	67.919
501.95	68.736
502.29	69.811
502.64	69.261
502.98	68.982
503.33	68.078
503.67	68.164
504.02	68.214
504.36	69.035
504.71	68.994
505.06	68.440
505.40	68.556
505.75	69.126
506.09	67.449
506.44	70.752
506.78	68.624
507.13	68.834
507.47	68.877
507.82	68.987
508.16	68.929
508.51	70.042
508.85	69.957
509.19	69.967
509.54	69.500
509.88	68.334
510.23	68.771
510.57	70.275
510.92	70.198
511.26	69.456
511.61	68.662
511.95	69.253
512.30	71.246
512.64	68.166
512.98	69.235
513.33	70.262
513.67	70.219
514.02	69.852
514.36	69.616
514.70	69.271
515.05	70.282
515.39	70.656
515.74	71.368
516.08	69.942
516.42	69.388
516.77	71.451
517.11	69.778
517.46	70.148
517.80	70.978
518.14	71.110
518.49	70.716
518.83	69.452
519.17	70.005
519.52	69.340
519.86	69.799
520.20	70.820
520.55	71.084
520.89	71.284
521.23	71.022
521.58	72.147
521.92	69.405
522.26	69.931
522.61	72.338
522.95	71.280
523.29	70.977
523.64	70.516
523.98	71.477
524.32	71.805
524.66	71.485
525.01	68.800
525.35	69.271
525.69	69.258
526.04	68.714
526.38	69.483
526.72	70.704
527.06	70.323
527.41	71.020
527.75	71.793
528.09	70.012
528.43	69.745
528.78	69.884
529.12	69.954
529.46	67.678
529.80	70.595
530.15	70.145
530.49	70.166
530.83	69.421
531.17	70.191
531.51	70.337
531.86	69.111
532.20	71.463
532.54	70.018
532.88	69.515
533.22	68.297
533.57	69.244
533.91	68.687
534.25	70.605
534.59	70.862
534.93	68.647
535.27	68.620
535.62	70.040
535.96	69.901
536.30	69.741
536.64	69.850
536.98	69.496
537.32	70.123
537.66	71.054
538.01	68.157
538.35	69.184
538.69	68.510
539.03	70.693
539.37	68.846
539.71	69.189
540.05	69.844
540.39	68.032
540.73	67.820
541.07	69.589
541.42	67.631
541.76	68.209
542.10	69.059
542.44	69.671
542.78	69.708
543.12	68.117
543.46	68.926
543.80	67.926
544.14	68.282
544.48	69.208
544.82	69.001
545.16	70.185
545.50	68.664
545.84	68.830
546.18	69.753
546.52	70.127
546.86	70.252
547.20	69.211
547.54	68.976
547.88	69.198
548.22	69.064
548.56	68.988
548.90	70.388
549.24	69.058
549.58	70.473
549.92	71.046
550.26	69.773
550.60	69.751
550.94	71.151
551.28	70.363
551.62	71.496
551.96	69.773
552.30	71.574
552.64	69.322
552.98	70.056
553.32	72.669
553.66	70.611
554.00	68.979
554.34	71.879
554.68	69.464
555.02	69.645
555.36	71.137
555.69	69.571
556.03	69.609
556.37	71.464
556.71	71.972
557.05	70.224
557.39	72.196
557.73	72.259
558.07	70.265
558.41	69.568
558.75	72.346
559.08	72.791
559.42	72.222
559.76	69.810
560.10	70.194
560.44	72.296
560.78	73.625
561.12	71.182
561.45	70.438
561.79	71.856
562.13	72.705
562.47	70.407
562.81	70.759
563.15	70.265
563.48	70.603
563.82	71.765
564.16	70.806
564.50	70.024
564.84	70.088
565.17	70.706
565.51	70.541
565.85	71.081
566.19	69.988
566.52	69.514
566.86	69.553
567.20	69.277
567.54	70.473
567.88	70.438
568.21	70.455
568.55	70.695
568.89	70.132
569.23	69.159
569.56	68.894
569.90	67.748
570.24	68.938
570.57	68.345
570.91	67.606
571.25	67.949
571.59	68.049
571.92	67.138
572.26	66.173
572.60	67.322
572.93	66.017
573.27	67.266
573.61	65.696
573.95	66.254
574.28	65.405
574.62	66.712
574.96	65.461
575.29	64.948
575.63	65.997
575.97	65.198
576.30	64.446
576.64	65.784
576.98	65.330
577.31	65.813
577.65	65.972
577.98	65.117
578.32	65.711
578.66	65.058
578.99	65.656
579.33	66.763
579.67	66.251
580.00	65.071
580.34	64.703
580.67	65.887
581.01	65.296
581.35	65.459
581.68	65.040
582.02	65.896
582.35	66.968
582.69	66.849
583.02	66.978
583.36	66.852
583.70	66.621
584.03	66.115
584.37	67.243
584.70	66.333
585.04	66.171
585.37	67.145
585.71	66.365
586.04	67.569
586.38	67.363
586.72	67.862
587.05	67.818
587.39	68.537
587.72	68.732
588.06	68.593
588.39	68.409
588.73	67.989
589.06	68.877
589.40	70.375
589.73	69.344
590.07	69.894
590.40	69.844
590.73	70.272
591.07	71.109
591.40	69.323
591.74	69.555
592.07	69.996
592.41	69.361
592.74	69.720
593.08	69.554
593.41	70.195
593.75	70.259
594.08	69.706
594.41	71.218
594.75	69.777
595.08	70.559
595.42	70.455
595.75	69.551
596.09	70.620
596.42	71.265
596.75	71.054
597.09	71.152
597.42	69.925
597.75	70.678
598.09	70.556
598.42	72.256
598.76	70.577
599.09	70.488
599.42	69.762
599.76	69.594
600.09	71.305
600.42	69.803
600.76	70.443
601.09	70.063
601.42	70.237
601.76	70.103
602.09	69.979
602.42	69.611
602.76	69.705
603.09	70.925
603.42	71.821
603.76	71.071
604.09	72.214
604.42	70.862
604.76	70.700
605.09	70.762
605.42	71.013
605.75	70.077
606.09	70.922
606.42	69.938
606.75	70.652
607.09	70.046
607.42	69.788
607.75	71.043
608.08	70.363
608.42	70.093
608.75	71.227
609.08	70.798
609.41	71.548
609.75	71.964
610.08	72.735
610.41	70.943
610.74	71.849
611.07	71.448
611.41	72.152
611.74	73.210
612.07	71.669
612.40	73.146
612.73	73.007
613.07	71.589
613.40	71.944
613.73	71.690
614.06	72.571
614.39	71.720
614.72	72.052
615.06	70.982
615.39	70.855
615.72	71.659
616.05	72.511
616.38	73.360
616.71	73.250
617.05	73.429
617.38	72.071
617.71	73.218
618.04	72.693
618.37	73.934
618.70	74.152
619.03	73.357
619.36	73.428
619.69	73.479
620.03	73.572
620.36	72.761
620.69	74.707
621.02	74.409
621.35	78.302
621.68	76.283
622.01	74.093
622.34	74.268
622.67	74.296
623.00	73.819
623.33	75.713
623.66	73.411
623.99	73.338
624.32	75.634
624.65	72.523
624.99	75.683
625.32	76.355
625.65	76.399
625.98	74.712
626.31	74.911
626.64	75.824
626.97	76.519
627.30	76.462
627.63	75.469
627.96	75.601
628.29	75.720
628.62	76.742
628.95	78.089
629.28	76.381
629.61	76.768
629.94	76.318
630.26	77.288
630.59	76.511
630.92	75.931
631.25	78.980
631.58	80.791
631.91	78.913
632.24	80.307
632.57	77.609
632.90	79.338
633.23	78.469
633.56	78.776
633.89	78.409
634.22	78.794
634.55	80.167
634.88	80.195
635.20	79.656
635.53	82.486
635.86	78.440
636.19	78.897
636.52	79.536
636.85	77.222
637.18	75.884
637.51	78.817
637.83	78.516
638.16	82.028
638.49	79.930
638.82	79.481
639.15	79.954
639.48	78.984
639.81	77.021
640.13	79.741
640.46	78.545
640.79	81.127
641.12	79.752
641.45	79.548
641.77	81.900
642.10	78.871
642.43	80.851
642.76	80.623
643.09	82.603
643.41	85.714
643.74	81.241
644.07	83.310
644.40	81.330
644.73	82.003
645.05	82.673
645.38	82.590
645.71	80.938
646.04	82.353
646.36	78.102
646.69	81.442
647.02	83.333
647.35	82.748
647.67	85.346
648.00	85.987
648.33	83.183
648.66	81.027
648.98	80.408
649.31	79.702
649.64	79.283
649.96	80.106
650.29	79.694
650.62	78.925
650.94	80.781
651.27	80.988
651.60	78.363
651.92	79.787
652.25	79.740
652.58	77.717
652.90	82.267
653.23	80.423
653.56	80.029
653.88	80.618
654.21	77.183
654.54	81.503
654.86	79.745
655.19	75.408
655.52	76.377
655.84	72.264
656.17	83.111
656.49	100.042
656.82	100.008
657.15	100.000
657.47	100.000
657.80	60.076
658.13	42.863
658.45	55.589
658.78	67.025
659.10	65.269
659.43	63.674
659.75	64.653
660.08	62.857
660.41	66.088
660.73	70.924
661.06	78.120
661.38	78.469
661.71	79.138
662.03	81.305
662.36	81.395
662.68	85.553
663.01	82.301
663.33	83.554
663.66	84.249
663.98	84.423
664.31	83.865
664.63	80.539
664.96	83.303
665.28	80.581
665.61	81.469
665.93	78.750
666.26	81.900
666.58	83.579
666.91	81.121
667.23	83.048
667.56	86.391
667.88	83.000
668.21	80.469
668.53	81.081
668.86	79.961
669.18	85.947
669.50	79.125
669.83	85.000
670.15	81.496
670.48	83.135
670.80	81.644
671.13	81.474
671.45	81.890
671.77	83.427
672.10	78.000
672.42	79.612
672.75	80.031
673.07	74.328
673.39	79.353
673.72	81.376
674.04	79.828
674.37	83.005
674.69	77.601
675.01	81.333
675.34	82.634
675.66	81.273
675.98	81.903
676.31	84.570
676.63	84.221
676.95	82.759
677.28	83.065
677.60	79.331
677.92	81.574
678.25	79.707
678.57	82.028
678.89	79.863
679.22	78.746
679.54	79.829
679.86	77.627
680.18	80.929
680.51	76.572
680.83	78.232
681.15	80.000
681.48	81.693
681.80	80.311
682.12	81.294
682.44	76.461
682.77	78.723
683.09	80.114
683.41	81.202
683.73	79.696
684.06	77.860
684.38	77.818
684.70	82.226
685.02	82.616
685.34	77.537
685.67	76.183
685.99	75.153
686.31	77.471
686.63	77.093
686.96	77.445
687.28	78.176
687.60	78.956
687.92	74.759
688.24	77.629
688.56	77.586
688.89	78.947
689.21	80.822
689.53	79.412
689.85	81.657
690.17	76.481
690.49	81.873
690.82	80.396
691.14	79.757
691.46	81.071
691.78	79.190
692.10	79.633
692.42	76.071
692.74	75.499
693.06	77.222
693.39	79.127
693.71	77.444
694.03	80.112
694.35	77.905
694.67	80.903
694.99	80.213
695.31	81.457
695.63	82.468
695.95	78.054
696.27	81.319
696.59	76.991
696.91	77.027
697.23	82.637
697.56	80.244
697.88	79.735
698.20	76.648
698.52	79.735
698.84	79.210
699.16	81.020
699.48	80.544
699.80	75.532
700.12	79.039
700.44	75.806
700.76	79.335
701.08	77.240
701.40	85.492
701.72	81.095
702.04	85.561
702.36	80.628
702.68	77.751
703.00	79.218
703.32	82.759
703.64	77.995
703.96	80.430
704.28	77.396
704.60	81.772
704.91	76.276
705.23	80.822
705.55	79.944
705.87	87.576
706.19	84.969
706.51	78.614
706.83	82.421
707.15	79.894
707.47	78.505
707.79	80.568
708.11	70.975
708.43	75.484
708.74	71.205
709.06	77.726
709.38	80.047
709.70	80.149
710.02	75.452
710.34	76.862
710.66	77.933
710.98	84.699
711.29	77.473
711.61	81.356
711.93	80.057
712.25	77.297
712.57	81.711
712.89	81.765
713.20	77.219
713.52	78.902
713.84	76.602
714.16	75.526
714.48	76.546
714.80	80.260
715.11	76.640
715.43	77.454
715.75	75.789
716.07	79.282
716.39	75.410
716.70	77.711
717.02	86.230
717.34	80.139
717.66	81.879
717.97	72.945
718.29	79.038
718.61	81.579
718.93	77.994
719.24	75.776
719.56	80.061
719.88	72.372
720.20	80.968
720.51	74.224
720.83	78.438
721.15	83.224
721.46	76.712
721.78	85.000
722.10	77.994
722.42	76.174
722.73	75.484
723.05	85.965
723.37	78.125
723.68	86.022
724.00	80.505
724.32	76.761
724.63	79.720
724.95	81.915
725.27	72.822
725.58	79.152
725.90	85.172
726.22	75.862
726.53	78.896
726.85	77.044
727.16	74.924
727.48	75.229
727.80	76.159
728.11	80.565
728.43	80.808
728.74	70.903
729.06	77.152
729.38	77.273
729.69	77.517
730.01	70.833
730.32	70.000
730.64	78.931
730.96	79.193
731.27	74.022
731.59	78.297
731.90	72.468
732.22	71.094
732.53	68.232
732.85	75.714
733.16	76.246
733.48	73.780
733.80	72.702
734.11	74.359
734.43	75.676
734.74	75.949
735.06	71.357
735.37	77.297
735.69	74.865
736.00	74.576
736.32	74.124
736.63	73.056
736.95	72.126
737.26	76.061
737.58	75.758
737.89	73.824
738.21	72.477
738.52	74.426
738.83	75.768
739.15	76.950
739.46	74.150
739.78	74.233
740.09	70.487
740.41	75.219
740.72	75.333
741.04	72.816
741.35	78.246
741.66	80.784
741.98	79.508
742.29	81.172
742.61	84.211
742.92	81.538
743.23	72.924
743.55	76.744
743.86	75.600
744.18	79.752
744.49	73.840
744.80	80.658
745.12	77.637
745.43	75.203
745.74	82.759
746.06	78.390
746.37	83.122
746.68	78.049
747.00	72.917
747.31	80.687
747.62	81.538
747.94	84.211
748.25	81.526
748.56	72.245
748.88	76.923
749.19	82.328
749.50	77.922
749.82	81.526
750.13	77.580
750.44	71.667
750.75	75.385
751.07	73.538
751.38	72.555
751.69	76.358
752.01	75.081
752.32	78.431
752.63	77.211
752.94	74.740
753.26	71.375
753.57	76.667
753.88	76.779
754.19	73.955
754.51	74.920
754.82	72.990
755.13	77.377
755.44	76.451
755.75	74.342
756.07	74.328
756.38	75.786
756.69	72.289
757.00	69.252
757.31	75.683
757.63	68.031
757.94	68.545
758.25	68.172
758.56	69.281
758.87	62.273
759.18	71.733
759.50	74.221
759.81	73.109
760.12	71.698
760.43	72.135
760.74	72.414
761.05	72.000
761.36	72.530
761.67	70.812
761.99	69.730
762.30	71.646
762.61	68.647
762.92	76.493
763.23	79.026
763.54	70.863
763.85	74.227
764.16	72.054
764.47	74.296
764.78	78.594
765.10	71.554
765.41	74.615
765.72	66.931
766.03	68.927
766.34	66.771
766.65	75.261
766.96	74.104
767.27	77.880
767.58	75.124
767.89	80.769
768.20	72.300
768.51	77.315
768.82	73.494
769.13	71.212
769.44	67.692
769.75	74.368
770.06	69.231
770.37	77.165
770.68	68.936
770.99	70.850
771.30	74.074
771.61	73.764
771.92	71.852
772.23	74.089
772.54	70.833
772.85	73.733
773.16	77.619
773.47	76.190
773.78	73.514
774.09	80.682
774.39	76.500
774.70	72.678
775.01	76.829
775.32	74.118
775.63	73.006
775.94	64.331
776.25	74.194
776.56	76.923
776.87	75.510
777.18	76.552
777.48	75.524
777.79	72.297
778.10	77.941
778.41	78.472
778.72	74.483
779.03	72.222
779.34	72.121
779.65	72.539
779.95	72.222
780.26	66.477
780.57	76.774
780.88	78.986
781.19	76.774
781.50	74.118
781.80	76.344
782.11	70.899
782.42	62.121
782.73	68.263
783.04	63.128
783.34	64.242
783.65	74.510
783.96	67.702
784.27	76.190
784.57	70.199
784.88	70.000
785.19	72.441
785.50	76.378
785.81	74.436
786.11	69.231
786.42	64.748
786.73	66.906
787.04	70.677
787.34	72.951
787.65	70.400
787.96	72.388
788.26	74.825
788.57	69.231
788.88	71.053
789.19	67.320
789.49	65.068
789.80	70.213
790.11	66.929
790.41	63.281
790.72	67.797
791.03	59.223
791.33	68.696
791.64	75.439
791.95	67.857
792.25	58.095
792.56	75.000
792.87	69.792
793.17	69.643
793.48	66.667
793.79	74.699
794.09	55.046
794.40	79.817
794.70	64.626
795.01	65.584
795.32	73.288
795.62	57.746
795.93	59.091
796.23	77.049
796.54	63.393
796.85	68.085
797.15	60.870
797.46	60.274
797.76	78.750
798.07	58.696
798.37	52.577
798.68	59.740
798.99	63.218
799.29	71.910
799.60	59.574
799.90	80.723
800.21	86.154
800.51	77.612
800.82	67.647
801.12	72.603
801.43	58.824
801.73	71.186
802.04	56.061
802.34	75.000
802.65	66.102
802.95	59.701
803.26	81.356
803.56	53.425
803.87	68.571
804.17	68.493
804.48	64.912
804.78	76.389
805.09	63.793
805.39	64.865
805.70	40.845
806.00	51.220
806.30	69.880
806.61	68.493
806.91	63.462
807.22	55.556
807.52	62.069
807.83	69.444
808.13	75.904
808.43	67.416
808.74	58.750
809.04	75.000
809.35	62.667
809.65	55.714
809.95	45.205
810.26	61.404
810.56	72.414
810.86	67.647
811.17	61.404
811.47	57.377
811.77	86.667
812.08	69.492
812.38	70.000
812.69	51.724
812.99	69.811
813.29	53.846
813.59	56.000
813.90	66.667
814.20	61.818
814.50	74.648
814.81	58.974
815.11	70.492
815.41	62.687
815.72	60.345
816.02	67.857
816.32	77.778
816.62	72.727
816.93	60.000
817.23	61.111
817.53	63.830
817.84	80.952
818.14	94.118
818.44	65.306
818.74	48.889
819.04	53.846
819.35	45.714
819.65	57.692
819.95	47.170
820.25	53.333
820.56	38.095
820.86	71.875
821.16	58.974
821.46	69.767
821.76	42.000
822.07	51.786
822.37	76.087
822.67	40.426
822.97	37.838
823.27	37.500
823.57	75.510
823.88	57.778
824.18	70.000
824.48	60.000
824.78	108.000
825.08	36.364
825.38	68.889
825.69	40.426
825.99	72.222
826.29	48.571
826.59	53.846
826.89	51.163
827.19	60.000
827.49	79.412
827.79	68.750
828.09	54.054
828.39	66.667
828.70	29.268
829.00	34.884
829.30	50.000
829.60	85.294
829.90	36.957
830.20	45.714
830.50	51.724
830.80	100.000
831.10	53.846
831.40	44.118
831.70	66.667
832.00	41.935
832.30	11.765
832.60	8.333
832.90	30.769
833.20	42.105
833.50	55.000
833.80	110.526
834.10	33.333
834.40	69.444
834.70	46.875
835.00	40.000
835.30	50.000
835.60	23.333
835.90	52.000
836.20	-18.182
836.50	48.000
836.80	24.242
837.10	25.926
837.40	33.333
837.70	25.000
838.00	39.286
838.30	30.435
838.60	55.172
838.90	85.714
839.19	4.348
839.49	108.333
839.79	17.391
840.09	68.750
840.39	15.000
840.69	54.839
840.99	39.286
841.29	93.333
841.59	57.895
841.88	41.026
842.18	-19.231
842.48	70.000
842.78	-5.000
843.08	46.667
843.38	35.484
843.68	50.000
843.97	20.588
844.27	50.000
844.57	15.789
844.87	70.000
845.17	66.667
845.47	23.810
845.76	-4.762
846.06	166.667
846.36	0.000
846.66	15.385
846.96	13.333
847.25	-23.529
847.55	39.130
847.85	90.000
848.15	82.353
848.44	145.455
848.74	47.619
849.04	25.000
849.34	62.500
849.63	30.435
849.93	-100.000
850.23	46.667
850.53	73.077
850.82	-27.273
851.12	45.455
851.42	-9.091
851.71	-30.769
852.01	-40.000
852.31	23.077
852.61	-15.789
852.90	91.667
853.20	27.778
853.50	-33.333
853.79	-19.048
854.09	9.091
854.39	50.000
854.68	67.742
854.98	53.846
855.28	77.778
855.57	39.286
855.87	32.000
856.17	40.909
856.46	51.852
856.76	66.667
857.05	0.000
857.35	8.333
857.65	69.231
857.94	42.857
858.24	48.148
858.53	43.478
858.83	35.294
859.13	64.706
859.42	23.529
859.72	50.000
860.01	-10.000
860.31	-44.444
860.60	50.000
860.90	60.000
861.20	66.667
861.49	69.231
861.79	33.333
862.08	-15.385
862.38	43.750
862.67	64.706
862.97	100.000
863.26	66.667
863.56	-10.000
863.85	27.273
864.15	-11.111
864.44	-33.333
864.74	42.857
865.03	37.500
865.33	-120.000
865.62	3.226
865.92	13.636
866.21	34.783
866.51	14.286
866.80	20.000
867.10	33.333
867.39	-100.000
867.69	1000.000
867.98	71.429
868.27	35.294
868.57	-1300.000
868.86	-30.000
869.16	-33.333
869.45	25.000
869.75	90.909
870.04	0.000
870.33	66.667
870.63	-14.286
870.92	-50.000
871.22	-137.500
871.51	-54.545
871.80	-366.667
872.10	-150.000
>>>>>End Processed Spectral Data<<<<<
