SpectraSuite Data File
++++++++++++++++++++++++++++++++++++
Date: Thu May 14 15:00:55 PDT 2015
User: schluterlab
Dark Spectrum Present: Yes
Reference Spectrum Present: Yes
Number of Sampled Component Spectra: 1
Spectrometers: USB2E3373
Integration Time (usec): 3000 (USB2E3373)
Spectra Averaged: 3 (USB2E3373)
Boxcar Smoothing: 0 (USB2E3373)
Correct for Electrical Dark: No (USB2E3373)
Strobe/Lamp Enabled: No (USB2E3373)
Correct for Detector Non-linearity: No (USB2E3373)
Correct for Stray Light: No (USB2E3373)
Number of Pixels in Processed Spectrum: 2048
>>>>>Begin Processed Spectral Data<<<<<
178.53	0.000
178.91	328.571
179.29	-3400.000
179.67	-2600.000
180.04	321.429
180.42	170.000
180.80	500.000
181.18	-2100.000
181.56	-1500.000
181.94	425.000
182.31	-600.000
182.69	433.333
183.07	-850.000
183.45	650.000
183.83	-350.000
184.20	-966.667
184.58	2600.000
184.96	-650.000
185.34	-311.111
185.72	-480.000
186.09	311.111
186.47	1200.000
186.85	560.000
187.23	-288.889
187.61	-2400.000
187.98	460.000
188.36	550.000
188.74	-600.000
189.12	-566.667
189.49	-50.000
189.87	-237.500
190.25	-144.444
190.63	-340.000
191.00	-277.778
191.38	0.000
191.76	-775.000
192.14	-350.000
192.51	1250.000
192.89	-133.333
193.27	0.000
193.65	-242.857
194.02	-3300.000
194.40	-157.143
194.78	242.857
195.15	0.000
195.53	-254.545
195.91	0.000
196.29	-250.000
196.66	-146.154
197.04	-2400.000
197.42	-342.857
197.79	-1300.000
198.17	-237.500
198.55	-314.286
198.92	-188.889
199.30	-287.500
199.68	-145.455
200.05	-128.571
200.43	-1500.000
200.81	214.286
201.18	0.000
201.56	333.333
201.94	0.000
202.31	733.333
202.69	-200.000
203.07	2300.000
203.44	-244.444
203.82	-525.000
204.19	-108.333
204.57	-266.667
204.95	-237.500
205.32	-2300.000
205.70	325.000
206.08	-400.000
206.45	-300.000
206.83	620.000
207.20	-383.333
207.58	-600.000
207.96	-300.000
208.33	-133.333
208.71	166.667
209.08	-50.000
209.46	0.000
209.84	433.333
210.21	1200.000
210.59	950.000
210.96	600.000
211.34	-300.000
211.71	-212.500
212.09	-2200.000
212.46	0.000
212.84	1450.000
213.22	-720.000
213.59	-450.000
213.97	-140.000
214.34	-500.000
214.72	433.333
215.09	-875.000
215.47	0.000
215.84	242.857
216.22	1500.000
216.59	-420.000
216.97	-360.000
217.34	-550.000
217.72	-112.500
218.09	-550.000
218.47	-725.000
218.84	0.000
219.22	460.000
219.59	-135.294
219.97	-70.000
220.34	1450.000
220.72	-211.111
221.09	-123.077
221.47	-1066.667
221.84	-220.000
222.22	-314.286
222.59	0.000
222.97	-212.500
223.34	-380.000
223.72	-2700.000
224.09	-675.000
224.46	-450.000
224.84	-180.000
225.21	-342.857
225.59	-675.000
225.96	-500.000
226.34	-50.000
226.71	533.333
227.08	-1400.000
227.46	-120.000
227.83	-625.000
228.21	-84.211
228.58	387.500
228.95	1100.000
229.33	-41.667
229.70	-180.000
230.08	-73.684
230.45	350.000
230.82	-833.333
231.20	-142.857
231.57	-133.333
231.95	-209.091
232.32	-145.455
232.69	-65.000
233.07	-400.000
233.44	-147.059
233.81	-170.000
234.19	-94.444
234.56	-100.000
234.93	-51.724
235.31	-105.263
235.68	-111.111
236.05	-95.000
236.43	-19.231
236.80	-40.000
237.17	-48.148
237.55	-51.515
237.92	-310.000
238.29	-77.419
238.67	-47.727
239.04	-52.778
239.41	-50.000
239.79	-39.130
240.16	-22.222
240.53	-36.957
240.91	-49.020
241.28	-42.623
241.65	-11.940
242.02	-9.459
242.40	-26.154
242.77	-33.333
243.14	-21.951
243.51	-40.789
243.89	-29.487
244.26	-11.881
244.63	-8.824
245.00	-9.346
245.38	-16.667
245.75	-21.239
246.12	-7.143
246.49	-13.953
246.87	-7.143
247.24	-6.623
247.61	-3.947
247.98	-9.396
248.36	-9.877
248.73	-12.883
249.10	-4.372
249.47	0.498
249.84	1.047
250.22	-5.181
250.59	-7.222
250.96	-1.364
251.33	-13.776
251.70	-2.564
252.08	-4.583
252.45	-0.820
252.82	-4.132
253.19	-7.422
253.56	-1.521
253.94	-4.231
254.31	-3.788
254.68	0.350
255.05	0.000
255.42	0.340
255.79	-1.294
256.16	-0.331
256.54	-4.636
256.91	-0.984
257.28	-3.607
257.65	-3.822
258.02	-3.540
258.39	-1.425
258.76	-0.917
259.14	2.586
259.51	-2.305
259.88	-3.399
260.25	-3.333
260.62	1.644
260.99	0.820
261.36	1.609
261.73	-0.265
262.10	-0.549
262.47	-3.217
262.85	2.778
263.22	-3.117
263.59	-2.895
263.96	-0.767
264.33	0.256
264.70	-0.247
265.07	0.716
265.44	1.361
265.81	0.000
266.18	0.454
266.55	1.339
266.92	-2.050
267.29	-0.219
267.66	-1.552
268.03	3.057
268.40	0.418
268.77	-5.239
269.14	-3.744
269.51	-0.877
269.88	1.844
270.25	1.207
270.62	1.477
270.99	2.222
271.36	3.168
271.73	0.393
272.10	1.202
272.47	-0.601
272.84	1.606
273.21	-0.601
273.58	-0.605
273.95	0.192
274.32	0.380
274.69	2.128
275.06	0.916
275.43	-0.739
275.80	1.587
276.17	-0.556
276.54	0.187
276.91	1.610
277.28	0.904
277.65	1.257
278.02	1.103
278.39	-0.906
278.76	-0.879
279.13	1.241
279.50	1.718
279.87	2.147
280.23	-1.408
280.60	2.373
280.97	2.467
281.34	-0.679
281.71	2.030
282.08	0.997
282.45	1.473
282.82	0.314
283.19	-0.808
283.56	-0.656
283.92	1.952
284.29	1.896
284.66	1.314
285.03	1.282
285.40	2.628
285.77	0.000
286.14	1.527
286.51	1.674
286.87	-0.316
287.24	1.054
287.61	0.448
287.98	0.151
288.35	1.331
288.72	0.592
289.08	1.903
289.45	1.331
289.82	-0.301
290.19	2.730
290.56	2.535
290.93	1.284
291.29	1.102
291.66	1.653
292.03	-0.407
292.40	2.585
292.77	1.348
293.13	1.218
293.50	1.051
293.87	1.208
294.24	2.533
294.60	1.770
294.97	0.805
295.34	3.201
295.71	1.513
296.08	0.646
296.44	2.083
296.81	2.680
297.18	2.366
297.55	1.887
297.91	1.661
298.28	2.251
298.65	2.973
299.02	1.299
299.38	2.059
299.75	3.037
300.12	1.389
300.48	1.728
300.85	2.475
301.22	2.796
301.59	1.941
301.95	1.921
302.32	3.556
302.69	2.957
303.05	3.156
303.42	2.217
303.79	2.812
304.15	3.680
304.52	3.383
304.89	2.094
305.25	2.899
305.62	3.135
305.99	2.990
306.35	3.125
306.72	3.102
307.09	2.944
307.45	4.244
307.82	3.633
308.19	3.734
308.55	4.243
308.92	4.090
309.29	4.406
309.65	4.288
310.02	4.950
310.38	4.331
310.75	4.854
311.12	6.040
311.48	3.617
311.85	5.603
312.22	4.934
312.58	5.634
312.95	4.971
313.31	5.601
313.68	7.051
314.05	7.588
314.41	7.195
314.78	7.266
315.14	7.713
315.51	7.756
315.87	8.101
316.24	7.580
316.61	8.526
316.97	8.054
317.34	8.730
317.70	9.345
318.07	11.199
318.43	9.779
318.80	12.542
319.16	11.674
319.53	10.797
319.89	10.605
320.26	12.100
320.62	10.816
320.99	11.727
321.35	12.107
321.72	14.233
322.08	12.263
322.45	15.537
322.81	15.794
323.18	16.283
323.54	15.862
323.91	17.171
324.27	16.954
324.64	18.808
325.00	17.993
325.37	19.410
325.73	20.248
326.10	20.843
326.46	22.231
326.83	22.738
327.19	22.283
327.56	24.585
327.92	25.098
328.29	25.323
328.65	25.712
329.01	26.142
329.38	28.054
329.74	28.168
330.11	28.425
330.47	29.655
330.84	30.319
331.20	30.500
331.56	31.802
331.93	30.377
332.29	31.186
332.66	31.312
333.02	30.570
333.38	31.544
333.75	32.323
334.11	32.861
334.48	33.168
334.84	34.155
335.20	33.165
335.57	34.907
335.93	33.884
336.29	32.446
336.66	32.717
337.02	33.361
337.38	34.269
337.75	32.975
338.11	34.735
338.47	34.409
338.84	33.926
339.20	33.867
339.56	34.843
339.93	34.811
340.29	34.058
340.65	35.766
341.02	35.754
341.38	35.085
341.74	34.463
342.11	34.996
342.47	34.234
342.83	36.151
343.20	36.386
343.56	34.483
343.92	35.789
344.28	35.000
344.65	35.581
345.01	35.101
345.37	35.459
345.73	35.074
346.10	35.959
346.46	35.601
346.82	34.906
347.19	35.523
347.55	36.115
347.91	35.513
348.27	35.357
348.63	35.415
349.00	34.004
349.36	36.059
349.72	35.417
350.08	36.701
350.45	36.578
350.81	36.048
351.17	36.241
351.53	36.922
351.89	35.915
352.26	36.119
352.62	36.343
352.98	36.031
353.34	35.997
353.70	36.826
354.07	37.109
354.43	37.737
354.79	36.874
355.15	37.160
355.51	37.792
355.87	37.173
356.24	37.719
356.60	37.546
356.96	37.361
357.32	37.026
357.68	38.141
358.04	37.350
358.40	36.940
358.77	38.889
359.13	37.666
359.49	37.993
359.85	36.621
360.21	38.235
360.57	38.765
360.93	38.858
361.29	38.596
361.66	37.944
362.02	38.900
362.38	39.283
362.74	38.897
363.10	40.028
363.46	40.235
363.82	39.134
364.18	39.831
364.54	39.696
364.90	40.067
365.26	40.138
365.62	39.667
365.98	40.844
366.35	39.329
366.71	41.156
367.07	39.851
367.43	39.002
367.79	41.009
368.15	42.007
368.51	40.528
368.87	41.150
369.23	41.600
369.59	40.710
369.95	41.312
370.31	42.404
370.67	40.509
371.03	42.175
371.39	41.169
371.75	42.641
372.11	42.412
372.47	42.654
372.83	41.754
373.19	42.095
373.55	41.802
373.91	43.081
374.27	43.014
374.63	42.828
374.99	42.109
375.35	42.727
375.71	42.258
376.07	44.351
376.42	43.577
376.78	43.443
377.14	42.545
377.50	44.466
377.86	43.534
378.22	44.551
378.58	45.244
378.94	44.718
379.30	44.112
379.66	43.739
380.02	45.066
380.38	45.853
380.74	45.352
381.09	45.412
381.45	45.625
381.81	45.960
382.17	45.428
382.53	46.140
382.89	45.372
383.25	46.893
383.61	46.123
383.97	46.172
384.32	46.950
384.68	46.868
385.04	47.311
385.40	46.612
385.76	47.421
386.12	46.619
386.48	47.412
386.83	47.139
387.19	46.813
387.55	47.477
387.91	46.062
388.27	46.998
388.62	46.678
388.98	45.742
389.34	46.258
389.70	47.937
390.06	48.135
390.42	46.687
390.77	46.538
391.13	46.068
391.49	47.343
391.85	47.636
392.20	47.272
392.56	46.486
392.92	46.292
393.28	48.646
393.64	47.542
393.99	48.112
394.35	48.072
394.71	47.665
395.07	45.988
395.42	47.002
395.78	48.263
396.14	48.128
396.50	46.200
396.85	46.512
397.21	46.982
397.57	46.996
397.92	45.876
398.28	46.551
398.64	45.481
399.00	45.497
399.35	47.539
399.71	46.739
400.07	46.771
400.42	46.333
400.78	46.759
401.14	47.524
401.49	47.015
401.85	47.035
402.21	46.234
402.57	48.357
402.92	46.927
403.28	45.726
403.63	46.539
403.99	46.793
404.35	46.674
404.70	46.062
405.06	45.543
405.42	46.487
405.77	46.892
406.13	47.002
406.49	46.059
406.84	45.873
407.20	45.947
407.55	46.517
407.91	45.380
408.27	44.052
408.62	45.550
408.98	44.864
409.34	44.868
409.69	45.921
410.05	45.135
410.40	46.172
410.76	46.214
411.11	46.464
411.47	46.560
411.83	46.796
412.18	45.964
412.54	47.244
412.89	45.576
413.25	46.953
413.60	45.434
413.96	46.154
414.31	46.119
414.67	45.498
415.03	45.415
415.38	46.721
415.74	46.549
416.09	46.761
416.45	45.523
416.80	46.083
417.16	46.041
417.51	46.389
417.87	47.456
418.22	46.587
418.58	46.406
418.93	46.799
419.29	47.596
419.64	46.459
420.00	46.469
420.35	46.940
420.71	47.272
421.06	46.981
421.42	48.222
421.77	47.604
422.12	46.564
422.48	47.773
422.83	49.617
423.19	47.851
423.54	49.668
423.90	49.531
424.25	50.240
424.61	47.646
424.96	49.368
425.31	50.372
425.67	49.758
426.02	50.194
426.38	50.115
426.73	49.219
427.09	51.096
427.44	50.573
427.79	50.304
428.15	50.342
428.50	51.348
428.85	52.641
429.21	51.543
429.56	51.431
429.92	50.713
430.27	52.771
430.62	53.151
430.98	52.828
431.33	51.857
431.68	52.443
432.04	53.276
432.39	52.598
432.74	53.653
433.10	52.082
433.45	53.233
433.80	53.165
434.16	52.893
434.51	53.700
434.86	55.266
435.22	54.942
435.57	55.012
435.92	54.814
436.28	55.006
436.63	55.270
436.98	54.643
437.34	54.735
437.69	54.100
438.04	55.579
438.39	54.968
438.75	54.455
439.10	55.180
439.45	55.226
439.81	54.859
440.16	54.960
440.51	55.351
440.86	54.808
441.22	55.359
441.57	56.394
441.92	55.626
442.27	56.364
442.63	56.831
442.98	57.150
443.33	56.181
443.68	56.194
444.03	57.479
444.39	58.437
444.74	57.734
445.09	56.716
445.44	56.849
445.79	57.423
446.15	56.269
446.50	56.486
446.85	56.858
447.20	55.851
447.55	57.008
447.91	58.272
448.26	57.400
448.61	57.917
448.96	59.120
449.31	57.423
449.66	57.625
450.02	56.118
450.37	56.899
450.72	57.858
451.07	57.460
451.42	58.059
451.77	56.142
452.12	57.111
452.47	57.932
452.83	59.234
453.18	58.260
453.53	57.553
453.88	57.372
454.23	58.023
454.58	59.837
454.93	58.556
455.28	58.399
455.63	57.874
455.98	59.721
456.34	59.246
456.69	58.965
457.04	59.929
457.39	58.925
457.74	59.676
458.09	59.528
458.44	59.752
458.79	58.535
459.14	59.150
459.49	59.932
459.84	59.286
460.19	58.468
460.54	59.852
460.89	59.449
461.24	59.253
461.59	59.712
461.94	58.414
462.29	59.742
462.64	59.867
462.99	59.259
463.34	59.637
463.69	57.855
464.04	59.978
464.39	59.585
464.74	59.122
465.09	59.400
465.44	58.637
465.79	59.228
466.14	58.312
466.49	59.789
466.84	59.945
467.19	59.942
467.54	57.579
467.89	58.736
468.24	58.892
468.59	59.641
468.94	58.974
469.29	60.408
469.64	59.377
469.99	59.783
470.34	59.468
470.68	60.629
471.03	60.183
471.38	60.366
471.73	60.663
472.08	59.708
472.43	59.542
472.78	60.076
473.13	60.303
473.48	60.725
473.83	59.896
474.17	59.437
474.52	61.455
474.87	58.804
475.22	60.282
475.57	59.917
475.92	60.329
476.27	59.904
476.61	60.436
476.96	60.323
477.31	60.050
477.66	60.021
478.01	59.736
478.36	58.923
478.70	60.443
479.05	60.276
479.40	60.267
479.75	60.279
480.10	59.735
480.45	60.073
480.79	59.274
481.14	60.294
481.49	59.337
481.84	59.835
482.19	60.086
482.53	61.041
482.88	60.833
483.23	61.005
483.58	59.869
483.92	59.353
484.27	59.992
484.62	58.870
484.97	59.137
485.31	58.184
485.66	55.388
486.01	55.568
486.36	57.891
486.70	61.513
487.05	62.857
487.40	61.156
487.75	61.043
488.09	60.101
488.44	57.614
488.79	60.034
489.13	58.074
489.48	58.019
489.83	58.753
490.17	59.943
490.52	58.867
490.87	59.898
491.22	60.529
491.56	59.599
491.91	60.183
492.26	60.190
492.60	59.073
492.95	59.851
493.30	59.166
493.64	60.140
493.99	59.474
494.34	59.538
494.68	59.186
495.03	60.749
495.37	59.876
495.72	59.184
496.07	59.597
496.41	59.502
496.76	60.050
497.11	61.316
497.45	60.250
497.80	59.973
498.14	60.000
498.49	60.478
498.84	59.644
499.18	59.874
499.53	59.148
499.87	60.088
500.22	58.682
500.56	60.639
500.91	59.817
501.26	60.045
501.60	60.009
501.95	59.574
502.29	60.333
502.64	60.603
502.98	58.585
503.33	59.266
503.67	59.485
504.02	59.851
504.36	60.277
504.71	60.818
505.06	60.573
505.40	59.689
505.75	58.925
506.09	59.945
506.44	60.539
506.78	59.908
507.13	59.428
507.47	59.735
507.82	60.748
508.16	59.034
508.51	59.212
508.85	60.321
509.19	59.972
509.54	60.134
509.88	60.952
510.23	60.466
510.57	60.222
510.92	60.668
511.26	59.307
511.61	59.150
511.95	60.224
512.30	59.970
512.64	58.571
512.98	60.330
513.33	60.988
513.67	59.204
514.02	60.450
514.36	60.256
514.70	59.635
515.05	60.688
515.39	60.052
515.74	60.923
516.08	60.433
516.42	60.701
516.77	60.410
517.11	60.340
517.46	59.968
517.80	61.518
518.14	60.718
518.49	60.249
518.83	59.127
519.17	59.989
519.52	60.063
519.86	59.451
520.20	60.863
520.55	59.803
520.89	59.459
521.23	59.631
521.58	59.661
521.92	60.850
522.26	59.966
522.61	60.359
522.95	60.611
523.29	60.057
523.64	59.417
523.98	60.582
524.32	62.292
524.66	61.355
525.01	59.513
525.35	59.621
525.69	60.151
526.04	58.668
526.38	60.345
526.72	59.689
527.06	59.824
527.41	59.125
527.75	60.867
528.09	59.622
528.43	58.970
528.78	59.249
529.12	59.289
529.46	59.022
529.80	58.867
530.15	58.957
530.49	57.770
530.83	58.678
531.17	59.498
531.51	60.048
531.86	60.577
532.20	59.085
532.54	58.288
532.88	58.545
533.22	58.692
533.57	59.031
533.91	57.800
534.25	59.073
534.59	58.736
534.93	58.687
535.27	58.704
535.62	58.499
535.96	58.512
536.30	57.814
536.64	57.538
536.98	58.487
537.32	58.642
537.66	60.075
538.01	58.006
538.35	57.917
538.69	58.053
539.03	58.982
539.37	57.008
539.71	57.357
540.05	57.554
540.39	57.885
540.73	57.316
541.07	58.124
541.42	56.586
541.76	55.753
542.10	57.117
542.44	56.638
542.78	56.995
543.12	57.867
543.46	57.082
543.80	57.074
544.14	56.433
544.48	56.265
544.82	57.630
545.16	57.722
545.50	57.819
545.84	57.257
546.18	58.210
546.52	57.580
546.86	57.107
547.20	57.761
547.54	57.553
547.88	56.178
548.22	55.906
548.56	57.051
548.90	57.075
549.24	57.933
549.58	58.612
549.92	57.462
550.26	57.476
550.60	57.690
550.94	57.503
551.28	57.030
551.62	58.356
551.96	56.828
552.30	57.361
552.64	56.627
552.98	58.016
553.32	58.778
553.66	57.621
554.00	57.945
554.34	59.459
554.68	56.746
555.02	57.227
555.36	57.922
555.69	57.399
556.03	57.818
556.37	57.447
556.71	58.022
557.05	57.508
557.39	57.399
557.73	57.596
558.07	55.960
558.41	58.007
558.75	57.809
559.08	58.107
559.42	56.584
559.76	57.870
560.10	57.267
560.44	57.586
560.78	58.125
561.12	57.020
561.45	58.577
561.79	57.753
562.13	57.301
562.47	55.919
562.81	56.582
563.15	56.566
563.48	56.805
563.82	56.651
564.16	55.663
564.50	56.138
564.84	57.050
565.17	56.176
565.51	55.409
565.85	57.007
566.19	55.933
566.52	56.115
566.86	56.593
567.20	56.063
567.54	55.550
567.88	56.983
568.21	56.126
568.55	55.252
568.89	55.969
569.23	55.429
569.56	54.162
569.90	53.956
570.24	54.705
570.57	53.464
570.91	53.154
571.25	52.560
571.59	53.215
571.92	52.958
572.26	53.600
572.60	53.617
572.93	52.352
573.27	52.711
573.61	52.435
573.95	51.736
574.28	51.437
574.62	51.296
574.96	51.456
575.29	51.113
575.63	51.721
575.97	51.713
576.30	50.901
576.64	51.420
576.98	51.162
577.31	51.380
577.65	51.383
577.98	51.355
578.32	50.855
578.66	51.150
578.99	51.628
579.33	52.134
579.67	51.315
580.00	50.258
580.34	50.720
580.67	51.169
581.01	51.233
581.35	50.360
581.68	51.038
582.02	51.254
582.35	52.483
582.69	52.309
583.02	52.084
583.36	52.434
583.70	52.102
584.03	51.332
584.37	51.642
584.70	51.858
585.04	51.360
585.37	51.458
585.71	51.068
586.04	52.774
586.38	52.600
586.72	52.043
587.05	52.366
587.39	52.555
587.72	52.871
588.06	51.934
588.39	52.228
588.73	52.354
589.06	52.483
589.40	53.227
589.73	52.731
590.07	53.316
590.40	52.705
590.73	53.164
591.07	53.090
591.40	52.411
591.74	53.458
592.07	53.471
592.41	53.233
592.74	53.213
593.08	52.962
593.41	53.368
593.75	53.592
594.08	53.226
594.41	54.006
594.75	53.138
595.08	51.985
595.42	53.669
595.75	52.599
596.09	53.473
596.42	53.637
596.75	52.760
597.09	54.020
597.42	52.642
597.75	52.685
598.09	52.976
598.42	53.156
598.76	53.114
599.09	52.759
599.42	52.598
599.76	52.757
600.09	52.786
600.42	52.886
600.76	53.038
601.09	52.373
601.42	52.317
601.76	52.276
602.09	51.930
602.42	52.126
602.76	51.956
603.09	52.937
603.42	53.288
603.76	52.572
604.09	52.910
604.42	53.028
604.76	52.093
605.09	52.972
605.42	53.150
605.75	51.846
606.09	52.258
606.42	51.952
606.75	51.049
607.09	52.343
607.42	52.216
607.75	51.348
608.08	52.052
608.42	51.189
608.75	52.902
609.08	52.844
609.41	53.375
609.75	52.545
610.08	53.166
610.41	52.039
610.74	51.176
611.07	53.286
611.41	53.139
611.74	53.349
612.07	53.576
612.40	53.327
612.73	53.056
613.07	53.007
613.40	52.743
613.73	53.828
614.06	51.914
614.39	52.235
614.72	52.596
615.06	53.272
615.39	52.489
615.72	52.796
616.05	53.035
616.38	54.137
616.71	53.083
617.05	52.556
617.38	52.113
617.71	52.754
618.04	53.319
618.37	54.044
618.70	53.450
619.03	52.748
619.36	53.576
619.69	54.452
620.03	53.484
620.36	52.577
620.69	53.115
621.02	54.790
621.35	56.023
621.68	54.808
622.01	54.733
622.34	53.696
622.67	53.677
623.00	52.362
623.33	55.408
623.66	54.669
623.99	53.588
624.32	53.931
624.65	53.153
624.99	55.007
625.32	53.690
625.65	54.484
625.98	53.220
626.31	54.075
626.64	54.945
626.97	54.014
627.30	53.759
627.63	53.713
627.96	54.805
628.29	54.475
628.62	55.416
628.95	55.390
629.28	55.140
629.61	54.714
629.94	55.063
630.26	53.475
630.59	54.491
630.92	52.987
631.25	57.066
631.58	57.062
631.91	57.451
632.24	56.868
632.57	56.167
632.90	55.667
633.23	57.245
633.56	55.816
633.89	55.062
634.22	56.029
634.55	55.010
634.88	56.385
635.20	56.297
635.53	57.288
635.86	55.255
636.19	56.522
636.52	53.797
636.85	53.933
637.18	53.326
637.51	56.237
637.83	56.257
638.16	56.336
638.49	55.986
638.82	54.340
639.15	54.066
639.48	55.889
639.81	56.005
640.13	55.948
640.46	56.242
640.79	54.044
641.12	57.640
641.45	55.082
641.77	58.665
642.10	55.906
642.43	58.644
642.76	56.911
643.09	56.712
643.41	56.303
643.74	54.759
644.07	58.621
644.40	54.314
644.73	57.329
645.05	57.416
645.38	57.842
645.71	57.038
646.04	54.950
646.36	55.036
646.69	57.822
647.02	59.633
647.35	58.168
647.67	57.488
648.00	57.803
648.33	58.559
648.66	55.207
648.98	54.558
649.31	54.533
649.64	56.308
649.96	55.305
650.29	52.712
650.62	55.304
650.94	55.856
651.27	53.892
651.60	53.216
651.92	55.167
652.25	56.440
652.58	53.095
652.90	56.105
653.23	53.803
653.56	56.491
653.88	57.444
654.21	52.676
654.54	54.191
654.86	56.941
655.19	53.952
655.52	52.993
655.84	50.214
656.17	58.054
656.49	80.053
656.82	87.071
657.15	67.450
657.47	51.548
657.80	38.007
658.13	29.344
658.45	38.209
658.78	45.458
659.10	43.466
659.43	42.699
659.75	41.954
660.08	40.448
660.41	43.259
660.73	44.128
661.06	52.129
661.38	50.558
661.71	51.897
662.03	55.026
662.36	52.952
662.68	55.159
663.01	55.221
663.33	55.577
663.66	56.044
663.98	56.731
664.31	55.910
664.63	55.299
664.96	55.535
665.28	53.358
665.61	54.895
665.93	53.036
666.26	54.480
666.58	54.982
666.91	57.757
667.23	56.381
667.56	53.649
667.88	58.000
668.21	53.320
668.53	52.896
668.86	55.206
669.18	55.397
669.50	56.461
669.83	57.000
670.15	54.528
670.48	56.151
670.80	53.728
671.13	51.418
671.45	56.102
671.77	54.802
672.10	52.333
672.42	52.913
672.75	51.459
673.07	51.493
673.39	52.234
673.72	52.685
674.04	55.345
674.37	55.277
674.69	56.966
675.01	53.143
675.34	54.771
675.66	50.000
675.98	53.172
676.31	51.953
676.63	53.232
676.95	55.172
677.28	56.048
677.60	50.787
677.92	54.319
678.25	52.468
678.57	52.135
678.89	52.730
679.22	51.916
679.54	52.479
679.86	49.661
680.18	53.068
680.51	50.629
680.83	52.700
681.15	51.724
681.48	51.986
681.80	51.295
682.12	51.923
682.44	50.584
682.77	49.468
683.09	53.030
683.41	50.775
683.73	52.941
684.06	52.583
684.38	50.089
684.70	52.783
685.02	51.463
685.34	51.248
685.67	50.473
685.99	48.160
686.31	47.965
686.63	49.921
686.96	49.527
687.28	50.326
687.60	47.980
687.92	49.357
688.24	50.083
688.56	49.138
688.89	49.546
689.21	51.859
689.53	50.588
689.85	48.915
690.17	51.481
690.49	51.594
690.82	51.485
691.14	51.215
691.46	48.948
691.78	51.197
692.10	48.440
692.42	45.179
692.74	49.365
693.06	47.222
693.39	50.285
693.71	46.805
694.03	48.141
694.35	47.238
694.67	49.897
694.99	44.255
695.31	49.669
695.63	50.000
695.95	51.139
696.27	49.231
696.59	49.115
696.91	49.775
697.23	53.407
697.56	50.509
697.88	50.947
698.20	48.776
698.52	50.568
698.84	46.362
699.16	50.204
699.48	48.745
699.80	48.723
700.12	51.092
700.44	51.382
700.76	44.893
701.08	53.269
701.40	50.777
701.72	51.741
702.04	50.000
702.36	48.953
702.68	45.966
703.00	50.367
703.32	48.522
703.64	45.477
703.96	49.165
704.28	48.403
704.60	51.392
704.91	47.449
705.23	50.137
705.55	47.632
705.87	48.788
706.19	53.067
706.51	50.602
706.83	46.110
707.15	45.503
707.47	43.925
707.79	43.886
708.11	43.856
708.43	46.452
708.74	42.857
709.06	47.332
709.38	45.070
709.70	48.139
710.02	47.028
710.34	52.128
710.66	47.765
710.98	47.814
711.29	44.780
711.61	48.870
711.93	48.148
712.25	43.784
712.57	52.212
712.89	48.235
713.20	46.746
713.52	48.555
713.84	46.797
714.16	51.053
714.48	45.103
714.80	45.455
715.11	46.194
715.43	46.950
715.75	43.947
716.07	46.133
716.39	45.902
716.70	43.976
717.02	46.557
717.34	43.206
717.66	46.309
717.97	43.151
718.29	44.674
718.61	45.724
718.93	45.955
719.24	47.205
719.56	44.785
719.88	45.045
720.20	46.129
720.51	43.478
720.83	45.938
721.15	48.355
721.46	46.918
721.78	47.333
722.10	44.984
722.42	46.644
722.73	42.581
723.05	45.614
723.37	43.750
723.68	43.728
724.00	46.570
724.32	45.423
724.63	42.308
724.95	50.355
725.27	39.373
725.58	45.936
725.90	51.724
726.22	42.633
726.53	46.104
726.85	42.767
727.16	40.483
727.48	44.037
727.80	46.358
728.11	44.170
728.43	44.108
728.74	43.144
729.06	46.689
729.38	43.506
729.69	46.980
730.01	38.988
730.32	38.485
730.64	43.082
730.96	40.062
731.27	43.017
731.59	42.582
731.90	40.000
732.22	39.844
732.53	37.569
732.85	42.857
733.16	40.762
733.48	42.378
733.80	40.947
734.11	43.305
734.43	44.324
734.74	44.051
735.06	39.698
735.37	42.432
735.69	39.189
736.00	42.655
736.32	38.544
736.63	40.556
736.95	42.241
737.26	43.636
737.58	41.515
737.89	42.941
738.21	38.226
738.52	42.951
738.83	40.956
739.15	37.943
739.46	43.878
739.78	43.252
740.09	36.676
740.41	42.566
740.72	42.333
741.04	37.540
741.35	41.754
741.66	41.176
741.98	41.393
742.29	39.331
742.61	47.807
742.92	34.615
743.23	40.794
743.55	39.922
743.86	39.200
744.18	38.017
744.49	41.350
744.80	41.152
745.12	35.443
745.43	36.179
745.74	46.552
746.06	39.407
746.37	45.570
746.68	49.593
747.00	36.667
747.31	45.494
747.62	46.923
747.94	38.866
748.25	36.546
748.56	41.224
748.88	37.179
749.19	43.534
749.50	37.662
749.82	43.775
750.13	41.993
750.44	37.000
750.75	41.231
751.07	39.692
751.38	43.533
751.69	42.812
752.01	40.129
752.32	41.503
752.63	40.476
752.94	38.754
753.26	37.546
753.57	39.259
753.88	43.446
754.19	41.479
754.51	37.621
754.82	41.801
755.13	40.000
755.44	39.590
755.75	42.105
756.07	40.896
756.38	42.767
756.69	41.265
757.00	36.842
757.31	38.798
757.63	38.875
757.94	36.385
758.25	36.343
758.56	35.294
758.87	39.318
759.18	37.333
759.50	37.960
759.81	39.216
760.12	40.701
760.43	41.406
760.74	36.946
761.05	37.500
761.36	38.072
761.67	35.533
761.99	36.757
762.30	39.024
762.61	33.003
762.92	36.940
763.23	36.704
763.54	37.410
763.85	35.395
764.16	32.997
764.47	39.789
764.78	38.339
765.10	40.762
765.41	39.487
765.72	33.333
766.03	37.006
766.34	34.796
766.65	35.889
766.96	37.450
767.27	35.484
767.58	35.323
767.89	35.577
768.20	37.089
768.51	34.722
768.82	36.546
769.13	38.636
769.44	30.000
769.75	39.350
770.06	34.231
770.37	38.189
770.68	37.021
770.99	36.032
771.30	42.593
771.61	38.783
771.92	35.556
772.23	36.842
772.54	31.481
772.85	40.092
773.16	37.619
773.47	31.217
773.78	32.973
774.09	36.932
774.39	32.500
774.70	33.880
775.01	27.439
775.32	28.235
775.63	33.742
775.94	26.752
776.25	32.258
776.56	35.897
776.87	29.252
777.18	37.241
777.48	25.175
777.79	28.378
778.10	33.088
778.41	26.389
778.72	31.724
779.03	33.333
779.34	31.515
779.65	34.715
779.95	38.333
780.26	28.977
780.57	25.806
780.88	38.406
781.19	35.484
781.50	35.294
781.80	37.097
782.11	31.217
782.42	21.717
782.73	23.952
783.04	31.285
783.34	26.667
783.65	25.490
783.96	29.814
784.27	23.810
784.57	22.517
784.88	27.857
785.19	29.921
785.50	29.134
785.81	25.564
786.11	33.077
786.42	20.144
786.73	15.827
787.04	32.331
787.34	31.967
787.65	27.200
787.96	27.612
788.26	37.762
788.57	33.566
788.88	19.737
789.19	26.144
789.49	21.233
789.80	28.369
790.11	23.622
790.41	27.344
790.72	21.186
791.03	27.184
791.33	16.522
791.64	34.211
791.95	13.393
792.25	14.286
792.56	15.179
792.87	14.583
793.17	16.964
793.48	15.625
793.79	14.458
794.09	30.275
794.40	21.101
794.70	25.850
795.01	20.130
795.32	24.658
795.62	32.394
795.93	28.030
796.23	22.951
796.54	12.500
796.85	10.638
797.15	15.217
797.46	8.219
797.76	13.750
798.07	15.217
798.37	11.340
798.68	23.377
798.99	26.437
799.29	28.090
799.60	25.532
799.90	22.892
800.21	6.154
800.51	13.433
800.82	14.706
801.12	4.110
801.43	7.353
801.73	3.390
802.04	7.576
802.34	-8.333
802.65	-3.390
802.95	10.448
803.26	1.695
803.56	1.370
803.87	10.000
804.17	21.918
804.48	5.263
804.78	16.667
805.09	5.172
805.39	0.000
805.70	8.451
806.00	19.512
806.30	10.843
806.61	1.370
806.91	25.000
807.22	16.667
807.52	14.943
807.83	1.389
808.13	24.096
808.43	6.742
808.74	3.750
809.04	-5.882
809.35	22.667
809.65	24.286
809.95	9.589
810.26	-22.807
810.56	5.172
810.86	13.235
811.17	8.772
811.47	1.639
811.77	-15.556
812.08	5.085
812.38	13.333
812.69	6.897
812.99	9.434
813.29	-25.641
813.59	18.000
813.90	1.754
814.20	1.818
814.50	15.493
814.81	12.821
815.11	6.557
815.41	7.463
815.72	3.448
816.02	7.143
816.32	-8.889
816.62	27.273
816.93	4.444
817.23	14.815
817.53	6.383
817.84	7.143
818.14	-38.235
818.44	8.163
818.74	13.333
819.04	-48.718
819.35	-48.571
819.65	-50.000
819.95	0.000
820.25	-13.333
820.56	-28.571
820.86	-18.750
821.16	-15.385
821.46	-30.233
821.76	-22.000
822.07	-8.929
822.37	6.522
822.67	-23.404
822.97	-45.946
823.27	-7.500
823.57	22.449
823.88	-2.222
824.18	7.500
824.48	-26.667
824.78	-64.000
825.08	-36.364
825.38	8.889
825.69	-4.255
825.99	-5.556
826.29	-54.286
826.59	-23.077
826.89	-25.581
827.19	-18.000
827.49	-5.882
827.79	-6.250
828.09	-32.432
828.39	-10.000
828.70	-31.707
829.00	-32.558
829.30	-50.000
829.60	8.824
829.90	-21.739
830.20	-31.429
830.50	-31.034
830.80	-72.222
831.10	-38.462
831.40	-26.471
831.70	-33.333
832.00	9.677
832.30	-129.412
832.60	-66.667
832.90	-115.385
833.20	-68.421
833.50	-105.000
833.80	-100.000
834.10	-100.000
834.40	-19.444
834.70	-21.875
835.00	-65.714
835.30	-29.412
835.60	-36.667
835.90	-36.000
836.20	-68.182
836.50	-28.000
836.80	-66.667
837.10	-55.556
837.40	-51.852
837.70	-112.500
838.00	-28.571
838.30	-91.304
838.60	-34.483
838.90	-92.857
839.19	-82.609
839.49	-166.667
839.79	-52.174
840.09	-131.250
840.39	-70.000
840.69	6.452
840.99	-39.286
841.29	-60.000
841.59	-42.105
841.88	-10.256
842.18	-38.462
842.48	-170.000
842.78	-90.000
843.08	-20.000
843.38	-9.677
843.68	-122.222
843.97	-35.294
844.27	-37.500
844.57	-89.474
844.87	-230.000
845.17	-120.000
845.47	-57.143
845.76	-119.048
846.06	-188.889
846.36	-123.529
846.66	-76.923
846.96	-193.333
847.25	-105.882
847.55	-69.565
847.85	-40.000
848.15	-76.471
848.44	-172.727
848.74	-14.286
849.04	-87.500
849.34	-112.500
849.63	-34.783
849.93	1300.000
850.23	-100.000
850.53	-7.692
850.82	-136.364
851.12	-31.818
851.42	-145.455
851.71	30.769
852.01	-130.000
852.31	-138.462
852.61	-73.684
852.90	-158.333
853.20	-116.667
853.50	-222.222
853.79	-90.476
854.09	-104.545
854.39	-141.667
854.68	-38.710
854.98	-46.154
855.28	-94.444
855.57	-39.286
855.87	-72.000
856.17	-50.000
856.46	0.000
856.76	-133.333
857.05	-78.261
857.35	-54.167
857.65	-123.077
857.94	-57.143
858.24	-48.148
858.53	-26.087
858.83	-135.294
859.13	-117.647
859.42	-64.706
859.72	-142.857
860.01	-65.000
860.31	-222.222
860.60	-120.000
860.90	-80.000
861.20	-133.333
861.49	-169.231
861.79	-56.667
862.08	-138.462
862.38	-6.250
862.67	-64.706
862.97	-106.250
863.26	-200.000
863.56	-120.000
863.85	-163.636
864.15	-111.111
864.44	-433.333
864.74	-107.143
865.03	-81.250
865.33	-250.000
865.62	-67.742
865.92	-54.545
866.21	-91.304
866.51	-164.286
866.80	-600.000
867.10	-166.667
867.39	-191.667
867.69	2700.000
867.98	-171.429
868.27	-94.118
868.57	-3700.000
868.86	-260.000
869.16	-114.286
869.45	-79.167
869.75	-27.273
870.04	-257.143
870.33	-100.000
870.63	-300.000
870.92	-375.000
871.22	-337.500
871.51	-218.182
871.80	-600.000
872.10	-1150.000
>>>>>End Processed Spectral Data<<<<<
