SpectraSuite Data File
++++++++++++++++++++++++++++++++++++
Date: Thu May 14 15:19:45 PDT 2015
User: schluterlab
Dark Spectrum Present: Yes
Reference Spectrum Present: Yes
Number of Sampled Component Spectra: 1
Spectrometers: USB2E3373
Integration Time (usec): 3000 (USB2E3373)
Spectra Averaged: 3 (USB2E3373)
Boxcar Smoothing: 0 (USB2E3373)
Correct for Electrical Dark: No (USB2E3373)
Strobe/Lamp Enabled: No (USB2E3373)
Correct for Detector Non-linearity: No (USB2E3373)
Correct for Stray Light: No (USB2E3373)
Number of Pixels in Processed Spectrum: 2048
>>>>>Begin Processed Spectral Data<<<<<
178.53	0.000
178.91	585.714
179.29	-4400.000
179.67	-4600.000
180.04	442.857
180.42	410.000
180.80	840.000
181.18	-4500.000
181.56	-3500.000
181.94	1175.000
182.31	-1100.000
182.69	1466.667
183.07	-2050.000
183.45	1025.000
183.83	-600.000
184.20	-1200.000
184.58	3600.000
184.96	-1050.000
185.34	-455.556
185.72	-660.000
186.09	522.222
186.47	2150.000
186.85	900.000
187.23	-522.222
187.61	-5100.000
187.98	820.000
188.36	1050.000
188.74	-1150.000
189.12	-1366.667
189.49	-243.750
189.87	-575.000
190.25	-444.444
190.63	-760.000
191.00	-444.444
191.38	0.000
191.76	-1275.000
192.14	-633.333
192.51	1850.000
192.89	-533.333
193.27	0.000
193.65	-528.571
194.02	-4600.000
194.40	-471.429
194.78	600.000
195.15	0.000
195.53	-354.545
195.91	0.000
196.29	-950.000
196.66	-300.000
197.04	-4400.000
197.42	-571.429
197.79	-2450.000
198.17	-562.500
198.55	-642.857
198.92	-466.667
199.30	-550.000
199.68	-300.000
200.05	-292.857
200.43	-1850.000
200.81	757.143
201.18	0.000
201.56	611.111
201.94	0.000
202.31	1233.333
202.69	-511.111
203.07	4300.000
203.44	-355.556
203.82	-1100.000
204.19	-400.000
204.57	-616.667
204.95	-387.500
205.32	-4300.000
205.70	925.000
206.08	-633.333
206.45	-566.667
206.83	980.000
207.20	-616.667
207.58	-960.000
207.96	-516.667
208.33	-616.667
208.71	400.000
209.08	-483.333
209.46	0.000
209.84	683.333
210.21	1750.000
210.59	1700.000
210.96	1400.000
211.34	-900.000
211.71	-600.000
212.09	-4600.000
212.46	0.000
212.84	1800.000
213.22	-1080.000
213.59	-975.000
213.97	-250.000
214.34	-1200.000
214.72	683.333
215.09	-1050.000
215.47	0.000
215.84	571.429
216.22	2350.000
216.59	-680.000
216.97	-760.000
217.34	-1125.000
217.72	-537.500
218.09	-1075.000
218.47	-1250.000
218.84	0.000
219.22	800.000
219.59	-276.471
219.97	-175.000
220.34	2650.000
220.72	-433.333
221.09	-292.308
221.47	-1400.000
221.84	-390.000
222.22	-542.857
222.59	0.000
222.97	-412.500
223.34	-1020.000
223.72	-4500.000
224.09	-925.000
224.46	-1050.000
224.84	-760.000
225.21	-642.857
225.59	-1100.000
225.96	-1000.000
226.34	-119.231
226.71	833.333
227.08	-1950.000
227.46	-233.333
227.83	-975.000
228.21	-168.421
228.58	525.000
228.95	1800.000
229.33	-200.000
229.70	-430.000
230.08	-115.789
230.45	410.000
230.82	-1366.667
231.20	-314.286
231.57	-283.333
231.95	-336.364
232.32	-345.455
232.69	-110.000
233.07	-1000.000
233.44	-188.235
233.81	-380.000
234.19	-183.333
234.56	-168.182
234.93	-106.897
235.31	-163.158
235.68	-233.333
236.05	-230.000
236.43	-107.692
236.80	-120.000
237.17	-129.630
237.55	-84.848
237.92	-380.000
238.29	-103.226
238.67	-63.636
239.04	-97.222
239.41	-90.476
239.79	-45.652
240.16	-44.444
240.53	-47.826
240.91	-52.941
241.28	-32.787
241.65	-31.343
242.02	-14.865
242.40	-36.923
242.77	-25.333
243.14	-36.585
243.51	-22.368
243.89	-25.641
244.26	-13.861
244.63	-10.784
245.00	-7.477
245.38	-11.404
245.75	-17.699
246.12	-5.556
246.49	-6.977
246.87	-0.714
247.24	1.325
247.61	5.921
247.98	6.711
248.36	3.704
248.73	-3.681
249.10	4.372
249.47	8.955
249.84	8.901
250.22	6.736
250.59	6.667
250.96	11.818
251.33	5.102
251.70	7.692
252.08	13.750
252.45	14.344
252.82	10.331
253.19	9.375
253.56	13.308
253.94	12.692
254.31	13.258
254.68	16.434
255.05	17.590
255.42	14.286
255.79	14.239
256.16	12.914
256.54	10.927
256.91	15.410
257.28	14.098
257.65	13.694
258.02	12.389
258.39	17.094
258.76	18.043
259.14	16.954
259.51	16.138
259.88	15.864
260.25	17.778
260.62	16.986
260.99	19.672
261.36	17.426
261.73	18.568
262.10	17.308
262.47	19.035
262.85	21.212
263.22	15.065
263.59	12.895
263.96	17.391
264.33	18.926
264.70	20.000
265.07	19.809
265.44	20.635
265.81	18.981
266.18	19.501
266.55	21.429
266.92	16.401
267.29	21.882
267.66	18.404
268.03	21.616
268.40	18.372
268.77	17.312
269.14	18.282
269.51	18.860
269.88	20.492
270.25	18.310
270.62	22.996
270.99	23.434
271.36	19.802
271.73	20.039
272.10	21.042
272.47	20.441
272.84	22.088
273.21	16.433
273.58	19.960
273.95	21.346
274.32	19.202
274.69	17.215
275.06	21.245
275.43	17.006
275.80	21.517
276.17	18.333
276.54	21.082
276.91	19.857
277.28	21.700
277.65	22.801
278.02	21.324
278.39	20.833
278.76	18.981
279.13	20.745
279.50	21.649
279.87	20.036
280.23	19.014
280.60	19.831
280.97	20.724
281.34	20.543
281.71	21.997
282.08	18.605
282.45	19.804
282.82	20.094
283.19	18.578
283.56	20.328
283.92	22.222
284.29	19.905
284.66	18.719
285.03	17.949
285.40	22.566
285.77	18.111
286.14	20.458
286.51	21.005
286.87	18.957
287.24	20.934
287.61	20.030
287.98	19.335
288.35	19.379
288.72	19.083
289.08	19.912
289.45	19.527
289.82	17.169
290.19	18.391
290.56	20.704
290.93	18.402
291.29	19.421
291.66	18.871
292.03	19.132
292.40	18.912
292.77	19.542
293.13	17.997
293.50	18.397
293.87	18.389
294.24	20.533
294.60	17.952
294.97	18.255
295.34	18.310
295.71	15.889
296.08	16.408
296.44	17.279
296.81	17.174
297.18	15.318
297.55	15.920
297.91	18.031
298.28	16.351
298.65	17.955
299.02	15.821
299.38	15.561
299.75	15.537
300.12	16.204
300.48	16.590
300.85	17.098
301.22	15.324
301.59	15.753
301.95	16.271
302.32	16.667
302.69	15.991
303.05	16.757
303.42	17.627
303.79	16.667
304.15	15.352
304.52	16.385
304.89	15.183
305.25	15.217
305.62	16.301
305.99	16.392
306.35	16.734
306.72	16.856
307.09	17.360
307.45	15.942
307.82	17.154
308.19	16.852
308.55	16.876
308.92	15.774
309.29	16.379
309.65	16.959
310.02	15.941
310.38	17.520
310.75	16.117
311.12	18.313
311.48	17.595
311.85	17.854
312.22	16.983
312.58	17.183
312.95	17.208
313.31	17.344
313.68	18.407
314.05	19.603
314.41	19.399
314.78	18.801
315.14	20.054
315.51	19.483
315.87	18.542
316.24	20.000
316.61	20.337
316.97	19.457
317.34	19.841
317.70	20.524
318.07	21.340
318.43	21.514
318.80	22.742
319.16	20.515
319.53	20.651
319.89	20.771
320.26	23.399
320.62	22.606
320.99	22.715
321.35	22.366
321.72	24.186
322.08	22.453
322.45	23.939
322.81	23.466
323.18	24.513
323.54	24.483
323.91	26.068
324.27	24.785
324.64	25.861
325.00	25.954
325.37	26.863
325.73	26.529
326.10	26.926
326.46	27.606
326.83	28.503
327.19	27.559
327.56	28.221
327.92	26.908
328.29	28.226
328.65	28.141
329.01	27.834
329.38	28.981
329.74	29.366
330.11	29.795
330.47	29.233
330.84	30.146
331.20	30.167
331.56	29.809
331.93	31.548
332.29	30.678
332.66	30.066
333.02	29.481
333.38	29.530
333.75	31.061
334.11	31.693
334.48	29.620
334.84	31.266
335.20	30.395
335.57	31.872
335.93	30.992
336.29	30.449
336.66	32.212
337.02	30.936
337.38	31.207
337.75	31.240
338.11	32.464
338.47	32.258
338.84	30.795
339.20	31.255
339.56	31.631
339.93	31.363
340.29	31.562
340.65	29.927
341.02	31.684
341.38	32.498
341.74	30.670
342.11	32.261
342.47	29.706
342.83	30.918
343.20	30.908
343.56	31.596
343.92	30.264
344.28	32.422
344.65	31.705
345.01	30.889
345.37	32.193
345.73	30.943
346.10	33.385
346.46	31.962
346.82	31.236
347.19	32.468
347.55	31.487
347.91	31.204
348.27	31.639
348.63	30.236
349.00	31.767
349.36	32.268
349.72	31.845
350.08	32.467
350.45	32.776
350.81	32.504
351.17	31.053
351.53	31.539
351.89	32.346
352.26	32.313
352.62	30.970
352.98	31.450
353.34	31.217
353.70	32.820
354.07	32.414
354.43	31.891
354.79	32.162
355.15	32.082
355.51	32.310
355.87	32.610
356.24	31.711
356.60	31.929
356.96	31.357
357.32	31.450
357.68	31.772
358.04	31.213
358.40	31.119
358.77	32.164
359.13	31.979
359.49	31.599
359.85	32.270
360.21	31.779
360.57	31.658
360.93	31.594
361.29	33.193
361.66	32.440
362.02	33.403
362.38	33.310
362.74	31.774
363.10	33.700
363.46	32.687
363.82	33.381
364.18	34.201
364.54	33.333
364.90	34.181
365.26	33.862
365.62	33.267
365.98	33.424
366.35	33.423
366.71	34.286
367.07	34.438
367.43	33.093
367.79	34.041
368.15	34.783
368.51	34.032
368.87	33.834
369.23	35.067
369.59	34.973
369.95	34.009
370.31	33.626
370.67	34.388
371.03	34.418
371.39	33.512
371.75	34.938
372.11	34.214
372.47	34.191
372.83	35.209
373.19	34.356
373.55	34.688
373.91	35.174
374.27	35.317
374.63	34.777
374.99	34.019
375.35	36.558
375.71	34.968
376.07	35.507
376.42	35.831
376.78	36.979
377.14	36.494
377.50	36.812
377.86	35.591
378.22	36.587
378.58	36.980
378.94	36.620
379.30	36.731
379.66	37.449
380.02	36.988
380.38	38.191
380.74	37.521
381.09	38.444
381.45	37.273
381.81	38.290
382.17	37.827
382.53	37.778
382.89	39.052
383.25	38.746
383.61	38.137
383.97	38.693
384.32	39.175
384.68	37.355
385.04	39.734
385.40	39.953
385.76	40.445
386.12	39.437
386.48	39.412
386.83	39.631
387.19	39.513
387.55	40.669
387.91	40.068
388.27	41.109
388.62	39.576
388.98	40.271
389.34	41.131
389.70	41.313
390.06	40.024
390.42	40.422
390.77	40.397
391.13	39.613
391.49	41.184
391.85	41.030
392.20	40.807
392.56	41.996
392.92	40.513
393.28	40.962
393.64	40.838
393.99	42.301
394.35	43.224
394.71	41.737
395.07	40.778
395.42	41.005
395.78	44.180
396.14	42.543
396.50	41.449
396.85	41.622
397.21	41.775
397.57	40.400
397.92	41.810
398.28	41.499
398.64	41.304
399.00	41.309
399.35	42.147
399.71	42.228
400.07	43.234
400.42	41.676
400.78	41.493
401.14	42.686
401.49	42.240
401.85	42.965
402.21	42.526
402.57	43.192
402.92	42.139
403.28	41.569
403.63	41.229
403.99	42.043
404.35	41.387
404.70	41.870
405.06	41.196
405.42	41.628
405.77	43.130
406.13	42.247
406.49	42.399
406.84	41.828
407.20	42.146
407.55	42.520
407.91	41.735
408.27	41.284
408.62	42.525
408.98	42.078
409.34	41.290
409.69	41.224
410.05	42.556
410.40	42.285
410.76	42.120
411.11	42.198
411.47	41.769
411.83	42.269
412.18	42.952
412.54	42.798
412.89	41.967
413.25	41.761
413.60	41.872
413.96	43.007
414.31	41.643
414.67	42.516
415.03	42.892
415.38	42.938
415.74	42.272
416.09	42.505
416.45	40.827
416.80	41.616
417.16	42.593
417.51	43.026
417.87	42.673
418.22	43.892
418.58	42.069
418.93	43.597
419.29	42.602
419.64	42.617
420.00	42.493
420.35	42.729
420.71	42.217
421.06	42.783
421.42	43.349
421.77	42.596
422.12	42.230
422.48	43.267
422.83	45.016
423.19	43.077
423.54	44.192
423.90	43.346
424.25	43.520
424.61	44.030
424.96	44.261
425.31	42.728
425.67	43.264
426.02	44.051
426.38	43.571
426.73	43.694
427.09	44.060
427.44	42.600
427.79	43.726
428.15	43.151
428.50	44.157
428.85	42.480
429.21	43.723
429.56	43.731
429.92	44.275
430.27	45.060
430.62	43.820
430.98	45.647
431.33	44.673
431.68	44.492
432.04	45.048
432.39	45.260
432.74	45.205
433.10	44.240
433.45	42.977
433.80	44.206
434.16	45.248
434.51	46.454
434.86	46.688
435.22	47.024
435.57	46.108
435.92	45.576
436.28	45.734
436.63	46.696
436.98	45.625
437.34	45.660
437.69	46.670
438.04	45.743
438.39	45.893
438.75	45.822
439.10	47.622
439.45	45.892
439.81	47.401
440.16	46.327
440.51	47.603
440.86	44.358
441.22	46.731
441.57	47.537
441.92	48.400
442.27	47.879
442.63	47.442
442.98	47.866
443.33	47.659
443.68	48.513
444.03	48.918
444.39	49.283
444.74	48.698
445.09	48.505
445.44	50.105
445.79	49.330
446.15	49.229
446.50	48.527
446.85	48.687
447.20	48.791
447.55	49.686
447.91	49.424
448.26	49.154
448.61	49.681
448.96	50.000
449.31	48.621
449.66	49.564
450.02	50.158
450.37	49.547
450.72	49.892
451.07	49.715
451.42	49.162
451.77	49.805
452.12	49.718
452.47	50.030
452.83	50.056
453.18	50.263
453.53	49.627
453.88	50.525
454.23	50.339
454.58	50.667
454.93	50.182
455.28	50.873
455.63	50.540
455.98	51.006
456.34	51.060
456.69	50.852
457.04	51.891
457.39	50.388
457.74	52.069
458.09	51.016
458.44	49.892
458.79	50.851
459.14	50.813
459.49	51.839
459.84	51.364
460.19	50.416
460.54	51.846
460.89	52.779
461.24	51.379
461.59	51.134
461.94	50.941
462.29	52.296
462.64	51.237
462.99	51.664
463.34	51.460
463.69	51.407
464.04	52.807
464.39	52.578
464.74	50.912
465.09	52.191
465.44	52.253
465.79	52.618
466.14	51.016
466.49	52.053
466.84	53.223
467.19	51.329
467.54	50.764
467.89	52.414
468.24	51.468
468.59	51.303
468.94	51.981
469.29	51.050
469.64	52.003
469.99	52.454
470.34	52.413
470.68	51.743
471.03	52.390
471.38	52.453
471.73	52.471
472.08	52.665
472.43	52.378
472.78	52.960
473.13	52.845
473.48	53.112
473.83	53.337
474.17	52.931
474.52	54.600
474.87	52.602
475.22	53.634
475.57	52.233
475.92	52.713
476.27	53.142
476.61	53.686
476.96	52.659
477.31	53.119
477.66	53.515
478.01	52.669
478.36	52.293
478.70	53.793
479.05	54.039
479.40	53.653
479.75	54.035
480.10	53.150
480.45	53.145
480.79	54.376
481.14	53.722
481.49	54.339
481.84	55.048
482.19	54.538
482.53	54.526
482.88	55.117
483.23	54.913
483.58	54.367
483.92	53.413
484.27	53.514
484.62	53.053
484.97	53.733
485.31	52.939
485.66	49.689
486.01	51.320
486.36	53.467
486.70	57.193
487.05	59.291
487.40	57.279
487.75	55.165
488.09	55.170
488.44	53.545
488.79	53.457
489.13	52.752
489.48	52.466
489.83	53.320
490.17	53.989
490.52	52.997
490.87	54.146
491.22	54.419
491.56	54.778
491.91	54.339
492.26	54.479
492.60	54.045
492.95	53.796
493.30	55.312
493.64	54.577
493.99	54.737
494.34	54.399
494.68	54.818
495.03	54.978
495.37	56.147
495.72	54.014
496.07	54.470
496.41	54.783
496.76	54.796
497.11	55.541
497.45	56.237
497.80	54.953
498.14	54.966
498.49	54.458
498.84	54.845
499.18	54.521
499.53	54.529
499.87	56.484
500.22	53.963
500.56	55.556
500.91	56.156
501.26	56.000
501.60	55.104
501.95	55.232
502.29	55.726
502.64	56.187
502.98	55.393
503.33	55.767
503.67	55.822
504.02	55.385
504.36	57.060
504.71	56.546
505.06	55.434
505.40	55.210
505.75	55.647
506.09	56.400
506.44	57.103
506.78	57.248
507.13	56.155
507.47	56.703
507.82	57.292
508.16	55.975
508.51	56.540
508.85	57.345
509.19	57.271
509.54	57.685
509.88	56.629
510.23	58.038
510.57	57.612
510.92	57.233
511.26	58.105
511.61	56.688
511.95	57.784
512.30	58.149
512.64	56.972
512.98	57.979
513.33	57.913
513.67	57.318
514.02	58.099
514.36	58.772
514.70	59.062
515.05	59.958
515.39	58.163
515.74	58.961
516.08	57.950
516.42	59.864
516.77	58.780
517.11	57.813
517.46	59.385
517.80	58.525
518.14	59.793
518.49	60.304
518.83	59.287
519.17	59.289
519.52	58.805
519.86	59.768
520.20	59.638
520.55	60.022
520.89	60.980
521.23	59.631
521.58	62.147
521.92	60.283
522.26	60.767
522.61	60.995
522.95	60.035
523.29	62.356
523.64	60.426
523.98	62.008
524.32	61.834
524.66	62.436
525.01	60.476
525.35	61.344
525.69	60.847
526.04	60.964
526.38	61.092
526.72	60.554
527.06	63.343
527.41	61.399
527.75	60.926
528.09	61.983
528.43	61.516
528.78	61.734
529.12	61.812
529.46	61.102
529.80	62.014
530.15	61.623
530.49	63.760
530.83	63.341
531.17	63.023
531.51	62.936
531.86	64.423
532.20	63.841
532.54	60.981
532.88	63.515
533.22	62.935
533.57	62.839
533.91	61.279
534.25	63.539
534.59	64.310
534.93	62.932
535.27	63.211
535.62	63.729
535.96	63.393
536.30	63.337
536.64	64.685
536.98	64.514
537.32	63.519
537.66	64.067
538.01	62.659
538.35	63.581
538.69	63.341
539.03	64.194
539.37	63.074
539.71	64.084
540.05	64.568
540.39	63.509
540.73	64.906
541.07	65.665
541.42	62.197
541.76	62.396
542.10	63.691
542.44	63.459
542.78	65.633
543.12	62.992
543.46	63.187
543.80	62.170
544.14	64.273
544.48	64.184
544.82	64.931
545.16	63.506
545.50	64.170
545.84	63.503
546.18	64.321
546.52	64.904
546.86	63.585
547.20	65.712
547.54	62.859
547.88	64.014
548.22	64.211
548.56	64.307
548.90	65.791
549.24	64.559
549.58	64.479
549.92	65.115
550.26	64.078
550.60	63.306
550.94	64.036
551.28	63.168
551.62	66.577
551.96	63.495
552.30	65.010
552.64	64.592
552.98	65.565
553.32	65.145
553.66	64.630
554.00	65.700
554.34	65.959
554.68	64.364
555.02	64.849
555.36	65.878
555.69	64.382
556.03	63.619
556.37	65.394
556.71	64.553
557.05	64.409
557.39	66.224
557.73	64.399
558.07	66.093
558.41	66.312
558.75	65.991
559.08	66.180
559.42	65.638
559.76	65.672
560.10	65.439
560.44	65.106
560.78	66.000
561.12	67.180
561.45	66.180
561.79	65.507
562.13	66.297
562.47	64.488
562.81	66.203
563.15	65.783
563.48	65.382
563.82	65.478
564.16	64.749
564.50	65.495
564.84	64.838
565.17	63.824
565.51	63.982
565.85	65.499
566.19	63.767
566.52	66.296
566.86	65.025
567.20	64.763
567.54	65.428
567.88	65.240
568.21	64.625
568.55	65.276
568.89	65.184
569.23	64.554
569.56	64.635
569.90	64.362
570.24	65.363
570.57	64.721
570.91	63.258
571.25	62.916
571.59	62.928
571.92	63.646
572.26	63.790
572.60	63.800
572.93	63.011
573.27	63.557
573.61	62.996
573.95	61.908
574.28	62.672
574.62	63.233
574.96	62.307
575.29	62.437
575.63	62.763
575.97	62.611
576.30	61.683
576.64	62.467
576.98	61.686
577.31	62.746
577.65	63.124
577.98	62.594
578.32	61.886
578.66	62.590
578.99	63.035
579.33	62.895
579.67	62.013
580.00	61.991
580.34	61.235
580.67	62.202
581.01	62.700
581.35	62.030
581.68	61.988
582.02	62.215
582.35	63.351
582.69	64.129
583.02	63.913
583.36	63.586
583.70	63.099
584.03	62.011
584.37	61.738
584.70	62.078
585.04	61.753
585.37	61.489
585.71	62.006
586.04	62.792
586.38	63.138
586.72	63.048
587.05	63.239
587.39	63.475
587.72	63.301
588.06	63.661
588.39	62.111
588.73	63.095
589.06	62.782
589.40	63.460
589.73	62.950
590.07	62.268
590.40	63.455
590.73	63.556
591.07	63.179
591.40	63.064
591.74	64.269
592.07	63.784
592.41	62.697
592.74	62.904
593.08	64.140
593.41	65.121
593.75	63.851
594.08	64.223
594.41	65.609
594.75	63.467
595.08	63.358
595.42	64.253
595.75	63.901
596.09	64.521
596.42	63.561
596.75	63.836
597.09	64.364
597.42	63.806
597.75	62.799
598.09	63.333
598.42	64.013
598.76	62.400
599.09	62.905
599.42	62.957
599.76	62.892
600.09	64.431
600.42	64.031
600.76	63.771
601.09	63.425
601.42	63.096
601.76	63.034
602.09	63.259
602.42	62.995
602.76	63.579
603.09	64.170
603.42	64.162
603.76	62.720
604.09	64.691
604.42	63.009
604.76	63.204
605.09	63.941
605.42	63.796
605.75	63.885
606.09	63.755
606.42	62.678
606.75	62.519
607.09	62.481
607.42	62.389
607.75	62.681
608.08	62.628
608.42	62.354
608.75	63.682
609.08	62.818
609.41	63.123
609.75	63.839
610.08	64.424
610.41	62.999
610.74	63.151
611.07	63.410
611.41	63.991
611.74	64.157
612.07	64.189
612.40	64.354
612.73	64.303
613.07	63.667
613.40	63.378
613.73	63.987
614.06	64.082
614.39	63.994
614.72	63.950
615.06	61.838
615.39	63.026
615.72	62.701
616.05	63.283
616.38	64.178
616.71	64.838
617.05	63.419
617.38	63.135
617.71	64.093
618.04	63.627
618.37	64.481
618.70	64.140
619.03	63.620
619.36	64.427
619.69	63.613
620.03	63.716
620.36	64.417
620.69	64.035
621.02	64.108
621.35	66.691
621.68	65.944
622.01	64.413
622.34	64.226
622.67	65.223
623.00	64.103
623.33	64.565
623.66	64.916
623.99	65.109
624.32	65.107
624.65	64.672
624.99	64.889
625.32	66.427
625.65	65.003
625.98	63.661
626.31	64.210
626.64	64.322
626.97	66.617
627.30	65.604
627.63	63.991
627.96	66.141
628.29	64.669
628.62	65.407
628.95	65.732
629.28	65.506
629.61	65.152
629.94	63.598
630.26	65.593
630.59	64.508
630.92	63.550
631.25	66.100
631.58	67.514
631.91	65.792
632.24	65.418
632.57	65.370
632.90	65.898
633.23	65.612
633.56	65.918
633.89	66.116
634.22	64.865
634.55	65.136
634.88	66.017
635.20	67.815
635.53	66.667
635.86	67.606
636.19	66.596
636.52	66.034
636.85	64.862
637.18	65.593
637.51	64.839
637.83	66.224
638.16	66.935
638.49	66.667
638.82	65.051
639.15	65.636
639.48	64.665
639.81	63.164
640.13	66.313
640.46	62.303
640.79	63.848
641.12	66.460
641.45	65.621
641.77	68.036
642.10	65.486
642.43	65.824
642.76	64.770
643.09	65.479
643.41	66.527
643.74	66.207
644.07	66.621
644.40	63.932
644.73	65.457
645.05	68.282
645.38	65.612
645.71	65.982
646.04	66.141
646.36	64.964
646.69	67.025
647.02	66.667
647.35	65.649
647.67	66.667
648.00	66.720
648.33	66.967
648.66	65.621
648.98	64.626
649.31	64.411
649.64	65.870
649.96	62.732
650.29	63.004
650.62	63.932
650.94	65.165
651.27	62.275
651.60	59.357
651.92	64.286
652.25	61.939
652.58	61.348
652.90	63.227
653.23	63.521
653.56	63.909
653.88	63.202
654.21	61.268
654.54	63.439
654.86	64.306
655.19	61.230
655.52	70.152
655.84	68.206
656.17	73.976
656.49	98.625
656.82	100.008
657.15	90.019
657.47	63.447
657.80	47.116
658.13	36.528
658.45	46.906
658.78	55.616
659.10	52.014
659.43	50.269
659.75	49.169
660.08	45.546
660.41	47.808
660.73	54.504
661.06	56.975
661.38	59.649
661.71	61.379
662.03	62.081
662.36	60.286
662.68	64.916
663.01	60.708
663.33	65.406
663.66	64.469
663.98	63.462
664.31	65.103
664.63	63.391
664.96	61.343
665.28	60.980
665.61	62.413
665.93	64.107
666.26	63.978
666.58	60.886
666.91	63.364
667.23	61.524
667.56	64.892
667.88	64.600
668.21	62.109
668.53	58.687
668.86	61.886
669.18	61.711
669.50	62.425
669.83	61.400
670.15	62.008
670.48	62.897
670.80	61.377
671.13	61.059
671.45	61.417
671.77	62.147
672.10	61.167
672.42	61.974
672.75	61.598
673.07	58.060
673.39	59.938
673.72	62.248
674.04	61.034
674.37	61.002
674.69	63.492
675.01	61.143
675.34	62.023
675.66	57.678
675.98	59.328
676.31	63.281
676.63	62.738
676.95	62.069
677.28	61.089
677.60	58.465
677.92	60.653
678.25	58.135
678.57	59.786
678.89	58.191
679.22	59.756
679.54	59.145
679.86	58.814
680.18	59.701
680.51	58.805
680.83	59.411
681.15	60.172
681.48	59.585
681.80	60.794
682.12	59.790
682.44	57.429
682.77	54.787
683.09	57.765
683.41	60.271
683.73	60.342
684.06	57.011
684.38	60.107
684.70	59.246
685.02	59.897
685.34	57.072
685.67	58.833
685.99	57.362
686.31	55.814
686.63	57.030
686.96	55.836
687.28	56.352
687.60	58.754
687.92	55.949
688.24	57.095
688.56	54.655
688.89	56.987
689.21	59.295
689.53	57.451
689.85	57.396
690.17	55.556
690.49	60.159
690.82	57.822
691.14	56.478
691.46	56.405
691.78	56.538
692.10	56.881
692.42	54.286
692.74	54.446
693.06	55.185
693.39	55.977
693.71	56.579
694.03	55.204
694.35	53.143
694.67	57.906
694.99	57.234
695.31	58.278
695.63	56.926
695.95	56.108
696.27	57.582
696.59	54.204
696.91	55.856
697.23	60.220
697.56	57.841
697.88	56.629
698.20	52.919
698.52	56.439
698.84	59.252
699.16	57.959
699.48	56.276
699.80	52.128
700.12	55.022
700.44	54.378
700.76	55.819
701.08	54.237
701.40	54.145
701.72	54.975
702.04	56.952
702.36	56.545
702.68	52.567
703.00	54.523
703.32	51.970
703.64	53.545
703.96	52.745
704.28	49.631
704.60	57.468
704.91	52.551
705.23	50.959
705.55	50.139
705.87	56.970
706.19	58.589
706.51	50.904
706.83	51.585
707.15	52.910
707.47	52.103
707.79	52.620
708.11	45.551
708.43	52.043
708.74	49.554
709.06	52.204
709.38	53.756
709.70	54.342
710.02	51.421
710.34	52.394
710.66	46.369
710.98	49.727
711.29	48.352
711.61	51.412
711.93	53.561
712.25	51.622
712.57	52.802
712.89	53.235
713.20	47.633
713.52	52.023
713.84	51.811
714.16	51.053
714.48	50.773
714.80	53.506
715.11	49.081
715.43	50.928
715.75	48.947
716.07	49.171
716.39	50.546
716.70	47.892
717.02	47.541
717.34	45.296
717.66	47.651
717.97	42.808
718.29	51.546
718.61	47.039
718.93	50.809
719.24	47.205
719.56	46.319
719.88	46.246
720.20	54.839
720.51	45.342
720.83	46.563
721.15	50.000
721.46	44.521
721.78	46.333
722.10	41.748
722.42	48.322
722.73	45.161
723.05	47.018
723.37	48.611
723.68	47.312
724.00	51.264
724.32	41.549
724.63	42.308
724.95	47.518
725.27	43.902
725.58	49.470
725.90	48.966
726.22	41.693
726.53	47.403
726.85	44.969
727.16	45.317
727.48	47.706
727.80	45.364
728.11	43.816
728.43	47.475
728.74	46.154
729.06	44.702
729.38	49.675
729.69	46.309
730.01	45.536
730.32	40.606
730.64	44.969
730.96	43.168
731.27	50.559
731.59	46.154
731.90	44.156
732.22	44.531
732.53	41.989
732.85	47.143
733.16	43.988
733.48	42.683
733.80	42.061
734.11	45.869
734.43	47.027
734.74	46.582
735.06	42.211
735.37	48.649
735.69	44.595
736.00	48.870
736.32	40.431
736.63	43.333
736.95	43.966
737.26	45.455
737.58	41.515
737.89	44.412
738.21	39.755
738.52	43.607
738.83	44.710
739.15	42.553
739.46	45.578
739.78	42.331
740.09	44.126
740.41	41.983
740.72	41.667
741.04	41.100
741.35	41.053
741.66	34.118
741.98	40.984
742.29	39.331
742.61	50.439
742.92	41.923
743.23	38.267
743.55	43.798
743.86	41.200
744.18	42.149
744.49	45.992
744.80	41.152
745.12	42.616
745.43	41.463
745.74	38.793
746.06	38.983
746.37	43.460
746.68	38.211
747.00	39.167
747.31	46.781
747.62	42.308
747.94	46.964
748.25	42.169
748.56	37.959
748.88	38.889
749.19	42.672
749.50	37.229
749.82	46.586
750.13	41.281
750.44	45.333
750.75	41.538
751.07	43.385
751.38	39.117
751.69	42.812
752.01	36.570
752.32	42.484
752.63	42.857
752.94	38.408
753.26	38.662
753.57	38.519
753.88	43.071
754.19	42.444
754.51	40.836
754.82	42.122
755.13	40.000
755.44	42.321
755.75	42.763
756.07	40.299
756.38	43.711
756.69	41.265
757.00	40.720
757.31	40.164
757.63	38.107
757.94	38.732
758.25	41.986
758.56	39.434
758.87	36.136
759.18	37.067
759.50	40.793
759.81	44.258
760.12	43.396
760.43	42.448
760.74	41.133
761.05	38.000
761.36	38.313
761.67	35.787
761.99	38.378
762.30	35.366
762.61	33.663
762.92	35.821
763.23	40.449
763.54	40.288
763.85	36.426
764.16	35.690
764.47	42.958
764.78	41.214
765.10	39.589
765.41	42.564
765.72	36.243
766.03	37.006
766.34	36.991
766.65	35.540
766.96	33.865
767.27	38.710
767.58	34.328
767.89	34.615
768.20	33.803
768.51	35.648
768.82	36.546
769.13	35.606
769.44	33.462
769.75	34.296
770.06	36.538
770.37	35.827
770.68	32.766
770.99	31.174
771.30	43.333
771.61	31.179
771.92	34.074
772.23	35.628
772.54	29.167
772.85	33.641
773.16	33.333
773.47	34.392
773.78	26.486
774.09	35.795
774.39	35.000
774.70	36.066
775.01	31.098
775.32	23.529
775.63	22.086
775.94	19.745
776.25	24.516
776.56	26.923
776.87	29.932
777.18	27.586
777.48	20.979
777.79	20.946
778.10	16.912
778.41	23.611
778.72	28.966
779.03	24.074
779.34	27.879
779.65	30.052
779.95	32.222
780.26	27.273
780.57	25.161
780.88	33.333
781.19	27.097
781.50	35.294
781.80	30.645
782.11	32.275
782.42	21.717
782.73	26.347
783.04	26.816
783.34	28.485
783.65	16.340
783.96	18.012
784.27	23.810
784.57	15.894
784.88	17.143
785.19	14.173
785.50	16.535
785.81	19.549
786.11	20.000
786.42	12.950
786.73	20.863
787.04	21.805
787.34	16.393
787.65	15.200
787.96	23.881
788.26	30.769
788.57	22.378
788.88	19.079
789.19	22.876
789.49	10.959
789.80	23.404
790.11	18.898
790.41	17.969
790.72	16.949
791.03	4.854
791.33	9.565
791.64	18.421
791.95	0.000
792.25	11.429
792.56	6.250
792.87	12.500
793.17	12.500
793.48	9.375
793.79	-4.819
794.09	8.257
794.40	10.092
794.70	19.048
795.01	18.182
795.32	15.753
795.62	16.197
795.93	12.121
796.23	18.852
796.54	17.857
796.85	-1.064
797.15	4.348
797.46	0.000
797.76	5.000
798.07	4.348
798.37	-2.062
798.68	-2.597
798.99	-1.149
799.29	7.865
799.60	6.383
799.90	0.000
800.21	-12.308
800.51	-20.896
800.82	-5.882
801.12	-21.918
801.43	-32.353
801.73	-11.864
802.04	-9.091
802.34	-25.000
802.65	-11.864
802.95	0.000
803.26	-11.864
803.56	-13.699
803.87	-1.429
804.17	-16.438
804.48	-33.333
804.78	-16.667
805.09	-36.207
805.39	-4.054
805.70	-22.535
806.00	3.659
806.30	-1.205
806.61	-24.658
806.91	-1.923
807.22	-5.556
807.52	-11.494
807.83	1.389
808.13	6.024
808.43	1.124
808.74	-6.250
809.04	-20.588
809.35	-10.667
809.65	-22.857
809.95	-17.808
810.26	-24.561
810.56	-32.759
810.86	-13.235
811.17	-15.789
811.47	-21.311
811.77	-22.222
812.08	-28.814
812.38	-16.667
812.69	-12.069
812.99	-45.283
813.29	-71.795
813.59	-36.000
813.90	-12.281
814.20	-34.545
814.50	-4.225
814.81	-8.974
815.11	-11.475
815.41	-23.881
815.72	-24.138
816.02	-21.429
816.32	-37.778
816.62	-29.545
816.93	-33.333
817.23	-25.926
817.53	-25.532
817.84	-21.429
818.14	-44.118
818.44	-12.245
818.74	-33.333
819.04	-61.538
819.35	-88.571
819.65	-123.077
819.95	-39.623
820.25	-44.444
820.56	-47.619
820.86	-71.875
821.16	-66.667
821.46	-58.140
821.76	-50.000
822.07	-30.357
822.37	-58.696
822.67	-48.936
822.97	-78.378
823.27	-52.500
823.57	-36.735
823.88	-44.444
824.18	-60.000
824.48	-106.667
824.78	-128.000
825.08	-69.697
825.38	-33.333
825.69	-40.426
825.99	-52.778
826.29	-91.429
826.59	-56.410
826.89	-74.419
827.19	-52.000
827.49	-88.235
827.79	-35.417
828.09	-62.162
828.39	-70.000
828.70	-73.171
829.00	-62.791
829.30	-139.286
829.60	-64.706
829.90	-45.652
830.20	-71.429
830.50	-124.138
830.80	-194.444
831.10	-134.615
831.40	-73.529
831.70	-147.619
832.00	-41.935
832.30	-276.471
832.60	-145.833
832.90	-292.308
833.20	-184.211
833.50	-215.000
833.80	-189.474
834.10	-204.762
834.40	-55.556
834.70	-25.000
835.00	-85.714
835.30	-47.059
835.60	-116.667
835.90	-120.000
836.20	-168.182
836.50	-92.000
836.80	-96.970
837.10	-96.296
837.40	-92.593
837.70	-193.750
838.00	-85.714
838.30	-160.870
838.60	-120.690
838.90	-242.857
839.19	-134.783
839.49	-308.333
839.79	-121.739
840.09	-225.000
840.39	-165.000
840.69	-103.226
840.99	-139.286
841.29	-200.000
841.59	-163.158
841.88	-56.410
842.18	-138.462
842.48	-430.000
842.78	-155.000
843.08	-96.667
843.38	-96.774
843.68	-244.444
843.97	-52.941
844.27	-225.000
844.57	-168.421
844.87	-410.000
845.17	-200.000
845.47	-142.857
845.76	-166.667
846.06	-388.889
846.36	-247.059
846.66	-84.615
846.96	-260.000
847.25	-241.176
847.55	-117.391
847.85	-150.000
848.15	-147.059
848.44	-354.545
848.74	-128.571
849.04	-170.833
849.34	-268.750
849.63	-130.435
849.93	1750.000
850.23	-253.333
850.53	-100.000
850.82	-290.909
851.12	-131.818
851.42	-354.545
851.71	-207.692
852.01	-200.000
852.31	-223.077
852.61	-215.789
852.90	-316.667
853.20	-155.556
853.50	-500.000
853.79	-166.667
854.09	-190.909
854.39	-383.333
854.68	-96.774
854.98	-146.154
855.28	-194.444
855.57	-110.714
855.87	-124.000
856.17	-131.818
856.46	-88.889
856.76	-188.889
857.05	-121.739
857.35	-137.500
857.65	-284.615
857.94	-142.857
858.24	-88.889
858.53	-117.391
858.83	-241.176
859.13	-241.176
859.42	-176.471
859.72	-257.143
860.01	-175.000
860.31	-422.222
860.60	-320.000
860.90	-246.667
861.20	-216.667
861.49	-207.692
861.79	-106.667
862.08	-330.769
862.38	-84.375
862.67	-188.235
862.97	-256.250
863.26	-422.222
863.56	-390.000
863.85	-336.364
864.15	-238.889
864.44	-1233.333
864.74	-192.857
865.03	-237.500
865.33	-440.000
865.62	-119.355
865.92	-140.909
866.21	-160.870
866.51	-221.429
866.80	-1000.000
867.10	-350.000
867.39	-325.000
867.69	4800.000
867.98	-542.857
868.27	-129.412
868.57	-4900.000
868.86	-350.000
869.16	-200.000
869.45	-162.500
869.75	-281.818
870.04	-500.000
870.33	-225.000
870.63	-600.000
870.92	-775.000
871.22	-487.500
871.51	-336.364
871.80	-1600.000
872.10	-2400.000
>>>>>End Processed Spectral Data<<<<<
