SpectraSuite Data File
++++++++++++++++++++++++++++++++++++
Date: Thu May 14 14:53:38 PDT 2015
User: schluterlab
Dark Spectrum Present: Yes
Reference Spectrum Present: Yes
Number of Sampled Component Spectra: 1
Spectrometers: USB2E3373
Integration Time (usec): 3000 (USB2E3373)
Spectra Averaged: 3 (USB2E3373)
Boxcar Smoothing: 0 (USB2E3373)
Correct for Electrical Dark: No (USB2E3373)
Strobe/Lamp Enabled: No (USB2E3373)
Correct for Detector Non-linearity: No (USB2E3373)
Correct for Stray Light: No (USB2E3373)
Number of Pixels in Processed Spectrum: 2048
>>>>>Begin Processed Spectral Data<<<<<
178.53	0.000
178.91	242.857
179.29	-1300.000
179.67	-1500.000
180.04	200.000
180.42	170.000
180.80	400.000
181.18	-1300.000
181.56	-600.000
181.94	350.000
182.31	-250.000
182.69	533.333
183.07	-750.000
183.45	500.000
183.83	-166.667
184.20	-466.667
184.58	1700.000
184.96	-500.000
185.34	-33.333
185.72	-200.000
186.09	288.889
186.47	800.000
186.85	380.000
187.23	-311.111
187.61	-2200.000
187.98	280.000
188.36	575.000
188.74	-250.000
189.12	-500.000
189.49	-50.000
189.87	-87.500
190.25	-111.111
190.63	-500.000
191.00	-188.889
191.38	0.000
191.76	-425.000
192.14	-66.667
192.51	600.000
192.89	-266.667
193.27	0.000
193.65	-42.857
194.02	-1800.000
194.40	-242.857
194.78	257.143
195.15	0.000
195.53	-127.273
195.91	0.000
196.29	-175.000
196.66	-76.923
197.04	-2000.000
197.42	-228.571
197.79	-850.000
198.17	-212.500
198.55	-242.857
198.92	-155.556
199.30	-137.500
199.68	-36.364
200.05	-50.000
200.43	-650.000
200.81	185.714
201.18	0.000
201.56	277.778
201.94	0.000
202.31	566.667
202.69	-144.444
203.07	300.000
203.44	-155.556
203.82	-475.000
204.19	-133.333
204.57	-250.000
204.95	-125.000
205.32	-1900.000
205.70	250.000
206.08	-166.667
206.45	-133.333
206.83	400.000
207.20	-250.000
207.58	-320.000
207.96	33.333
208.33	-116.667
208.71	100.000
209.08	-200.000
209.46	0.000
209.84	366.667
210.21	1000.000
210.59	750.000
210.96	700.000
211.34	-425.000
211.71	-200.000
212.09	-2500.000
212.46	0.000
212.84	1500.000
213.22	-280.000
213.59	-300.000
213.97	-70.000
214.34	-566.667
214.72	433.333
215.09	-300.000
215.47	0.000
215.84	285.714
216.22	1100.000
216.59	-140.000
216.97	-220.000
217.34	-300.000
217.72	-12.500
218.09	-150.000
218.47	-400.000
218.84	0.000
219.22	280.000
219.59	-111.765
219.97	-40.000
220.34	850.000
220.72	-222.222
221.09	-53.846
221.47	-366.667
221.84	-160.000
222.22	-200.000
222.59	0.000
222.97	-50.000
223.34	-240.000
223.72	-1200.000
224.09	-375.000
224.46	-400.000
224.84	-200.000
225.21	-171.429
225.59	-350.000
225.96	-200.000
226.34	-11.538
226.71	266.667
227.08	-700.000
227.46	-73.333
227.83	-225.000
228.21	-63.158
228.58	262.500
228.95	750.000
229.33	-58.333
229.70	-130.000
230.08	0.000
230.45	160.000
230.82	-300.000
231.20	-92.857
231.57	-58.333
231.95	-81.818
232.32	-54.545
232.69	-50.000
233.07	-325.000
233.44	-64.706
233.81	-50.000
234.19	-22.222
234.56	-22.727
234.93	6.897
235.31	-21.053
235.68	-61.111
236.05	-55.000
236.43	-26.923
236.80	20.000
237.17	18.519
237.55	12.121
237.92	-140.000
238.29	-25.806
238.67	-22.727
239.04	5.556
239.41	-7.143
239.79	6.522
240.16	-5.556
240.53	4.348
240.91	11.765
241.28	0.000
241.65	13.433
242.02	16.216
242.40	-12.308
242.77	5.333
243.14	-2.439
243.51	-10.526
243.89	-1.282
244.26	8.911
244.63	21.569
245.00	9.346
245.38	7.018
245.75	4.425
246.12	12.698
246.49	10.853
246.87	11.429
247.24	15.894
247.61	9.868
247.98	12.752
248.36	9.877
248.73	8.589
249.10	5.464
249.47	10.945
249.84	18.848
250.22	7.772
250.59	18.333
250.96	18.636
251.33	7.653
251.70	15.812
252.08	17.083
252.45	12.295
252.82	14.050
253.19	14.062
253.56	14.829
253.94	15.000
254.31	18.182
254.68	17.483
255.05	18.241
255.42	13.946
255.79	14.887
256.16	15.563
256.54	13.907
256.91	16.066
257.28	14.754
257.65	13.057
258.02	10.619
258.39	11.111
258.76	13.761
259.14	18.391
259.51	14.409
259.88	12.748
260.25	14.444
260.62	14.795
260.99	17.213
261.36	17.694
261.73	15.119
262.10	15.934
262.47	13.673
262.85	19.192
263.22	13.247
263.59	12.632
263.96	17.136
264.33	14.066
264.70	16.790
265.07	17.184
265.44	20.181
265.81	18.287
266.18	16.780
266.55	14.286
266.92	19.362
267.29	18.600
267.66	19.290
268.03	14.847
268.40	15.866
268.77	15.262
269.14	17.181
269.51	17.105
269.88	17.213
270.25	18.310
270.62	17.300
270.99	17.778
271.36	15.446
271.73	17.682
272.10	19.238
272.47	15.431
272.84	16.667
273.21	17.034
273.58	16.331
273.95	14.423
274.32	14.068
274.69	14.313
275.06	15.751
275.43	14.603
275.80	17.284
276.17	15.926
276.54	13.993
276.91	15.564
277.28	15.009
277.65	16.697
278.02	16.176
278.39	16.304
278.76	15.290
279.13	15.603
279.50	16.323
279.87	16.995
280.23	13.204
280.60	15.424
280.97	16.612
281.34	15.789
281.71	18.613
282.08	15.615
282.45	14.894
282.82	15.071
283.19	15.670
283.56	17.213
283.92	16.366
284.29	16.430
284.66	16.420
285.03	13.462
285.40	15.765
285.77	13.777
286.14	16.947
286.51	16.134
286.87	15.008
287.24	15.813
287.61	15.695
287.98	14.350
288.35	14.793
288.72	13.757
289.08	15.813
289.45	15.680
289.82	14.458
290.19	16.236
290.56	15.775
290.93	15.835
291.29	13.636
291.66	12.948
292.03	14.790
292.40	14.286
292.77	14.420
293.13	12.991
293.50	13.929
293.87	13.691
294.24	15.733
294.60	15.044
294.97	13.020
295.34	15.365
295.71	12.358
296.08	13.566
296.44	12.990
296.81	14.129
297.18	12.827
297.55	11.439
297.91	12.456
298.28	12.441
298.65	13.199
299.02	13.813
299.38	13.043
299.75	13.785
300.12	12.500
300.48	13.479
300.85	13.048
301.22	12.752
301.59	12.329
301.95	12.768
302.32	12.778
302.69	12.486
303.05	12.949
303.42	13.415
303.79	12.188
304.15	13.670
304.52	13.214
304.89	12.461
305.25	13.768
305.62	14.107
305.99	13.918
306.35	13.004
306.72	12.513
307.09	13.401
307.45	12.836
307.82	13.118
308.19	11.403
308.55	13.211
308.92	13.340
309.29	11.494
309.65	12.963
310.02	12.475
310.38	13.878
310.75	13.689
311.12	14.190
311.48	12.121
311.85	13.770
312.22	13.472
312.58	13.897
312.95	13.576
313.31	13.550
313.68	14.469
314.05	14.544
314.41	14.390
314.78	14.169
315.14	13.430
315.51	14.589
315.87	15.392
316.24	14.612
316.61	14.565
316.97	13.756
317.34	14.638
317.70	14.934
318.07	14.815
318.43	15.646
318.80	15.719
319.16	14.678
319.53	13.882
319.89	14.461
320.26	15.125
320.62	15.337
320.99	15.605
321.35	14.418
321.72	16.651
322.08	15.059
322.45	14.905
322.81	15.343
323.18	14.159
323.54	14.483
323.91	14.947
324.27	15.749
324.64	15.533
325.00	15.755
325.37	15.725
325.73	17.438
326.10	17.356
326.46	16.857
326.83	17.134
327.19	17.559
327.56	16.601
327.92	16.758
328.29	15.806
328.65	15.913
329.01	17.513
329.38	16.428
329.74	17.551
330.11	17.979
330.47	17.439
330.84	17.140
331.20	18.083
331.56	17.071
331.93	17.406
332.29	16.864
332.66	17.525
333.02	17.337
333.38	18.205
333.75	17.761
334.11	16.931
334.48	17.162
334.84	18.352
335.20	17.128
335.57	17.032
335.93	18.926
336.29	16.556
336.66	17.494
337.02	17.809
337.38	18.282
337.75	16.116
338.11	17.410
338.47	16.625
338.84	17.005
339.20	17.607
339.56	18.863
339.93	16.667
340.29	18.599
340.65	18.248
341.02	17.478
341.38	18.674
341.74	18.805
342.11	18.101
342.47	17.156
342.83	17.472
343.20	17.416
343.56	17.963
343.92	16.573
344.28	17.578
344.65	18.527
345.01	18.331
345.37	17.963
345.73	16.602
346.10	17.785
346.46	17.405
346.82	17.603
347.19	17.341
347.55	17.754
347.91	17.088
348.27	17.223
348.63	17.136
349.00	16.555
349.36	17.993
349.72	17.857
350.08	18.053
350.45	16.958
350.81	16.440
351.17	17.744
351.53	17.286
351.89	19.134
352.26	17.239
352.62	17.388
352.98	16.489
353.34	17.401
353.70	17.257
354.07	17.735
354.43	16.856
354.79	17.128
355.15	17.366
355.51	19.664
355.87	15.632
356.24	17.262
356.60	16.260
356.96	18.013
357.32	16.877
357.68	17.350
358.04	16.467
358.40	17.687
358.77	17.471
359.13	16.396
359.49	16.803
359.85	17.766
360.21	17.862
360.57	17.373
360.93	17.066
361.29	17.965
361.66	17.161
362.02	17.954
362.38	17.498
362.74	18.506
363.10	17.882
363.46	17.798
363.82	17.401
364.18	17.523
364.54	18.188
364.90	18.462
365.26	17.103
365.62	18.133
365.98	18.176
366.35	17.651
366.71	18.367
367.07	17.118
367.43	17.663
367.79	18.049
368.15	17.726
368.51	18.133
368.87	17.178
369.23	17.800
369.59	18.306
369.95	17.309
370.31	18.433
370.67	17.882
371.03	18.075
371.39	16.924
371.75	17.813
372.11	17.141
372.47	18.416
372.83	18.194
373.19	18.946
373.55	18.157
373.91	17.178
374.27	17.464
374.63	18.674
374.99	17.440
375.35	18.831
375.71	18.516
376.07	18.399
376.42	18.829
376.78	17.961
377.14	18.902
377.50	17.900
377.86	19.212
378.22	18.323
378.58	18.728
378.94	19.484
379.30	18.688
379.66	19.400
380.02	18.638
380.38	19.297
380.74	19.380
381.09	18.641
381.45	18.864
381.81	19.672
382.17	18.705
382.53	19.708
382.89	18.905
383.25	19.226
383.61	18.519
383.97	19.199
384.32	19.976
384.68	18.910
385.04	20.821
385.40	20.094
385.76	19.637
386.12	19.808
386.48	19.176
386.83	20.560
387.19	19.409
387.55	19.660
387.91	19.920
388.27	19.804
388.62	20.103
388.98	20.925
389.34	20.684
389.70	19.698
390.06	19.597
390.42	19.880
390.77	19.988
391.13	19.249
391.49	19.988
391.85	20.848
392.20	19.929
392.56	20.555
392.92	20.502
393.28	20.785
393.64	20.391
393.99	21.732
394.35	21.554
394.71	21.437
395.07	20.299
395.42	20.274
395.78	21.085
396.14	21.450
396.50	20.606
396.85	21.705
397.21	20.118
397.57	21.673
397.92	20.848
398.28	20.152
398.64	20.938
399.00	19.791
399.35	20.942
399.71	20.652
400.07	21.392
400.42	20.838
400.78	20.428
401.14	21.229
401.49	22.399
401.85	21.395
402.21	21.263
402.57	21.596
402.92	20.981
403.28	20.902
403.63	20.823
403.99	20.903
404.35	20.978
404.70	21.303
405.06	20.870
405.42	21.019
405.77	21.756
406.13	21.016
406.49	20.833
406.84	21.607
407.20	21.576
407.55	20.594
407.91	21.370
408.27	21.143
408.62	21.350
408.98	21.880
409.34	21.290
409.69	21.323
410.05	21.512
410.40	22.216
410.76	21.425
411.11	21.683
411.47	22.912
411.83	21.634
412.18	22.048
412.54	22.110
412.89	20.722
413.25	21.614
413.60	20.793
413.96	21.620
414.31	20.907
414.67	21.705
415.03	21.969
415.38	21.942
415.74	21.930
416.09	22.517
416.45	21.979
416.80	20.747
417.16	20.754
417.51	21.171
417.87	21.459
418.22	22.395
418.58	21.623
418.93	21.711
419.29	21.702
419.64	22.089
420.00	20.653
420.35	21.112
420.71	21.080
421.06	21.737
421.42	22.305
421.77	20.840
422.12	21.723
422.48	22.069
422.83	22.946
423.19	21.061
423.54	21.460
423.90	22.087
424.25	22.293
424.61	21.584
424.96	22.076
425.31	22.134
425.67	20.773
426.02	22.579
426.38	21.642
426.73	21.484
427.09	22.780
427.44	21.573
427.79	21.946
428.15	21.632
428.50	22.303
428.85	21.757
429.21	22.340
429.56	21.816
429.92	21.671
430.27	22.217
430.62	22.130
430.98	21.741
431.33	21.945
431.68	21.600
432.04	21.889
432.39	22.175
432.74	21.804
433.10	22.607
433.45	20.959
433.80	22.103
434.16	22.004
434.51	22.456
434.86	22.801
435.22	22.317
435.57	22.170
435.92	22.482
436.28	23.436
436.63	22.884
436.98	22.330
437.34	22.604
437.69	22.069
438.04	21.682
438.39	21.999
438.75	22.690
439.10	22.410
439.45	21.912
439.81	21.921
440.16	21.984
440.51	21.906
440.86	22.068
441.22	22.508
441.57	22.117
441.92	22.017
442.27	23.434
442.63	22.454
442.98	22.038
443.33	23.041
443.68	22.993
444.03	23.001
444.39	23.070
444.74	23.022
445.09	22.250
445.44	22.445
445.79	22.270
446.15	22.508
446.50	22.326
446.85	23.492
447.20	23.114
447.55	22.437
447.91	22.984
448.26	21.670
448.61	22.582
448.96	23.122
449.31	22.587
449.66	22.059
450.02	22.257
450.37	23.015
450.72	22.174
451.07	23.121
451.42	22.646
451.77	22.735
452.12	22.573
452.47	22.163
452.83	22.691
453.18	22.067
453.53	22.229
453.88	22.695
454.23	22.034
454.58	22.171
454.93	22.148
455.28	21.433
455.63	22.740
455.98	22.961
456.34	22.733
456.69	22.340
457.04	22.695
457.39	22.506
457.74	22.595
458.09	22.735
458.44	22.953
458.79	22.950
459.14	21.814
459.49	22.524
459.84	22.193
460.19	21.655
460.54	22.487
460.89	22.181
461.24	21.264
461.59	23.022
461.94	22.133
462.29	22.508
462.64	22.571
462.99	22.850
463.34	23.556
463.69	22.743
464.04	22.846
464.39	23.094
464.74	21.836
465.09	22.722
465.44	22.961
465.79	22.316
466.14	21.261
466.49	22.368
466.84	21.928
467.19	22.370
467.54	22.033
467.89	21.839
468.24	22.936
468.59	21.135
468.94	21.562
469.29	22.436
469.64	21.424
469.99	21.415
470.34	22.772
470.68	22.488
471.03	23.183
471.38	22.760
471.73	21.977
472.08	21.637
472.43	21.674
472.78	22.796
473.13	22.440
473.48	22.900
473.83	22.983
474.17	22.098
474.52	22.850
474.87	22.425
475.22	22.817
475.57	22.274
475.92	22.748
476.27	22.630
476.61	21.495
476.96	21.846
477.31	22.327
477.66	23.137
478.01	21.607
478.36	22.034
478.70	22.759
479.05	22.546
479.40	22.853
479.75	22.815
480.10	22.406
480.45	23.017
480.79	22.585
481.14	21.967
481.49	21.717
481.84	22.628
482.19	23.226
482.53	23.437
482.88	22.419
483.23	22.588
483.58	22.445
483.92	21.941
484.27	22.523
484.62	21.906
484.97	22.784
485.31	21.929
485.66	21.091
486.01	21.884
486.36	22.639
486.70	23.715
487.05	24.049
487.40	23.404
487.75	22.850
488.09	22.880
488.44	21.702
488.79	22.260
489.13	21.977
489.48	21.398
489.83	21.891
490.17	21.264
490.52	21.716
490.87	22.124
491.22	22.227
491.56	22.227
491.91	21.893
492.26	21.895
492.60	21.950
492.95	21.939
493.30	22.367
493.64	21.945
493.99	21.447
494.34	21.690
494.68	22.013
495.03	21.938
495.37	22.281
495.72	22.358
496.07	22.130
496.41	21.665
496.76	22.269
497.11	22.972
497.45	22.270
497.80	21.724
498.14	22.086
498.49	21.829
498.84	22.166
499.18	22.177
499.53	22.735
499.87	22.681
500.22	21.638
500.56	21.368
500.91	21.968
501.26	22.545
501.60	22.050
501.95	21.841
502.29	22.685
502.64	22.956
502.98	22.433
503.33	22.117
503.67	21.980
504.02	22.548
504.36	22.520
504.71	22.003
505.06	23.329
505.40	22.303
505.75	22.222
506.09	22.007
506.44	22.934
506.78	22.706
507.13	22.453
507.47	22.596
507.82	22.964
508.16	22.658
508.51	21.941
508.85	22.437
509.19	22.738
509.54	22.863
509.88	22.390
510.23	22.729
510.57	22.765
510.92	22.642
511.26	22.463
511.61	21.873
511.95	22.255
512.30	23.289
512.64	22.089
512.98	22.361
513.33	22.782
513.67	22.489
514.02	22.075
514.36	23.325
514.70	22.865
515.05	22.732
515.39	22.520
515.74	23.065
516.08	22.927
516.42	22.920
516.77	22.766
517.11	22.692
517.46	23.012
517.80	23.463
518.14	24.102
518.49	23.373
518.83	22.565
519.17	22.509
519.52	23.270
519.86	23.706
520.20	22.897
520.55	23.384
520.89	23.255
521.23	22.446
521.58	23.107
521.92	22.436
522.26	23.310
522.61	22.975
522.95	22.376
523.29	23.448
523.64	22.085
523.98	23.845
524.32	23.954
524.66	22.652
525.01	22.820
525.35	22.286
525.69	22.912
526.04	22.905
526.38	23.908
526.72	23.702
527.06	23.109
527.41	23.090
527.75	23.753
528.09	23.672
528.43	22.913
528.78	22.601
529.12	23.394
529.46	24.002
529.80	22.826
530.15	23.130
530.49	22.301
530.83	22.668
531.17	23.059
531.51	22.684
531.86	23.798
532.20	23.537
532.54	22.621
532.88	23.030
533.22	22.334
533.57	23.312
533.91	23.962
534.25	23.120
534.59	23.103
534.93	23.713
535.27	23.606
535.62	23.252
535.96	24.404
536.30	23.502
536.64	23.724
536.98	23.616
537.32	22.778
537.66	23.082
538.01	22.175
538.35	22.899
538.69	23.678
539.03	24.893
539.37	23.027
539.71	23.363
540.05	22.542
540.39	22.311
540.73	22.344
541.07	23.605
541.42	23.095
541.76	22.894
542.10	23.100
542.44	22.777
542.78	22.993
543.12	22.288
543.46	22.039
543.80	22.722
544.14	23.279
544.48	23.582
544.82	23.220
545.16	23.256
545.50	22.409
545.84	22.780
546.18	23.272
546.52	23.312
546.86	22.579
547.20	23.155
547.54	22.222
547.88	22.423
548.22	22.690
548.56	22.703
548.90	23.403
549.24	23.222
549.58	22.776
549.92	22.959
550.26	23.172
550.60	21.953
550.94	23.480
551.28	22.574
551.62	23.922
551.96	22.848
552.30	23.072
552.64	22.775
552.98	23.019
553.32	23.537
553.66	22.122
554.00	22.573
554.34	22.201
554.68	22.595
555.02	21.616
555.36	23.866
555.69	22.550
556.03	21.816
556.37	23.279
556.71	23.018
557.05	22.492
557.39	21.898
557.73	22.985
558.07	21.788
558.41	22.791
558.75	23.327
559.08	22.269
559.42	22.840
559.76	23.066
560.10	22.438
560.44	22.098
560.78	22.625
561.12	22.414
561.45	23.175
561.79	23.382
562.13	22.551
562.47	22.072
562.81	21.899
563.15	21.970
563.48	21.877
563.82	22.128
564.16	21.866
564.50	22.288
564.84	22.124
565.17	22.765
565.51	21.634
565.85	21.971
566.19	21.889
566.52	22.469
566.86	22.807
567.20	22.458
567.54	23.420
567.88	22.579
568.21	23.073
568.55	23.165
568.89	23.604
569.23	23.152
569.56	23.134
569.90	23.093
570.24	23.069
570.57	23.252
570.91	22.658
571.25	24.241
571.59	23.629
571.92	22.788
572.26	23.160
572.60	23.232
572.93	23.295
573.27	22.506
573.61	23.240
573.95	22.773
574.28	22.868
574.62	23.124
574.96	22.298
575.29	22.516
575.63	23.354
575.97	23.377
576.30	22.675
576.64	22.906
576.98	23.075
577.31	22.996
577.65	23.421
577.98	23.249
578.32	23.148
578.66	22.955
578.99	23.469
579.33	23.299
579.67	23.073
580.00	22.612
580.34	22.928
580.67	22.705
581.01	22.739
581.35	22.852
581.68	22.839
582.02	23.062
582.35	23.298
582.69	23.777
583.02	23.958
583.36	23.537
583.70	23.222
584.03	22.702
584.37	22.957
584.70	22.445
585.04	22.204
585.37	23.067
585.71	22.675
586.04	23.272
586.38	22.957
586.72	22.637
587.05	22.410
587.39	22.962
587.72	23.134
588.06	22.703
588.39	22.952
588.73	22.566
589.06	22.686
589.40	23.079
589.73	23.393
590.07	22.314
590.40	23.191
590.73	22.623
591.07	23.455
591.40	22.395
591.74	22.496
592.07	23.427
592.41	22.121
592.74	22.719
593.08	22.866
593.41	23.039
593.75	22.902
594.08	23.054
594.41	23.269
594.75	21.986
595.08	23.082
595.42	22.760
595.75	23.087
596.09	22.975
596.42	22.680
596.75	22.192
597.09	23.273
597.42	22.527
597.75	21.991
598.09	22.540
598.42	22.477
598.76	22.507
599.09	21.823
599.42	21.388
599.76	22.318
600.09	22.856
600.42	22.489
600.76	22.655
601.09	22.735
601.42	21.970
601.76	22.379
602.09	22.016
602.42	22.137
602.76	21.845
603.09	22.063
603.42	22.182
603.76	21.882
604.09	23.101
604.42	22.789
604.76	22.451
605.09	22.457
605.42	22.089
605.75	22.000
606.09	21.911
606.42	22.109
606.75	21.927
607.09	21.889
607.42	21.696
607.75	22.313
608.08	21.981
608.42	22.168
608.75	22.305
609.08	21.986
609.41	22.188
609.75	21.071
610.08	22.603
610.41	22.345
610.74	21.597
611.07	22.291
611.41	21.704
611.74	21.801
612.07	22.627
612.40	21.578
612.73	21.858
613.07	22.738
613.40	22.089
613.73	21.762
614.06	22.424
614.39	21.963
614.72	21.931
615.06	21.174
615.39	21.411
615.72	21.943
616.05	22.827
616.38	21.847
616.71	21.944
617.05	21.246
617.38	21.562
617.71	21.652
618.04	21.641
618.37	22.295
618.70	21.324
619.03	21.685
619.36	21.147
619.69	22.165
620.03	21.846
620.36	21.350
620.69	21.592
621.02	21.194
621.35	21.626
621.68	22.126
622.01	21.423
622.34	21.688
622.67	21.443
623.00	20.445
623.33	22.031
623.66	22.049
623.99	21.396
624.32	22.027
624.65	20.528
624.99	21.196
625.32	22.534
625.65	21.578
625.98	21.492
626.31	21.687
626.64	21.612
626.97	20.705
627.30	19.590
627.63	20.255
627.96	21.997
628.29	21.167
628.62	20.739
628.95	20.508
629.28	20.646
629.61	20.623
629.94	20.921
630.26	21.186
630.59	19.344
630.92	19.827
631.25	21.020
631.58	19.868
631.91	22.962
632.24	21.037
632.57	20.968
632.90	21.264
633.23	19.592
633.56	19.796
633.89	19.421
634.22	21.830
634.55	20.459
634.88	20.671
635.20	21.959
635.53	20.678
635.86	20.368
636.19	22.694
636.52	20.570
636.85	19.714
637.18	21.310
637.51	20.753
637.83	20.598
638.16	20.161
638.49	18.779
638.82	19.955
639.15	19.129
639.48	21.247
639.81	20.785
640.13	20.141
640.46	19.030
640.79	18.750
641.12	20.124
641.45	20.326
641.77	20.411
642.10	19.423
642.43	21.543
642.76	20.732
643.09	20.548
643.41	19.048
643.74	17.931
644.07	19.448
644.40	21.075
644.73	19.158
645.05	19.383
645.38	21.007
645.71	19.795
646.04	20.660
646.36	20.876
646.69	19.018
647.02	21.254
647.35	17.863
647.67	19.485
648.00	18.949
648.33	19.970
648.66	20.685
648.98	18.095
649.31	20.027
649.64	20.717
649.96	19.894
650.29	19.054
650.62	18.953
650.94	19.520
651.27	16.766
651.60	20.760
651.92	17.477
652.25	19.826
652.58	19.945
652.90	17.733
653.23	21.690
653.56	19.829
653.88	20.646
654.21	20.845
654.54	18.497
654.86	19.830
655.19	17.817
655.52	21.947
655.84	22.823
656.17	26.711
656.49	37.425
656.82	40.943
657.15	31.905
657.47	23.806
657.80	17.439
658.13	13.273
658.45	17.421
658.78	20.863
659.10	19.859
659.43	19.060
659.75	18.889
660.08	17.647
660.41	17.122
660.73	17.446
661.06	16.006
661.38	18.182
661.71	17.759
662.03	19.048
662.36	19.857
662.68	20.263
663.01	17.699
663.33	19.660
663.66	19.780
663.98	18.654
664.31	19.137
664.63	15.414
664.96	18.512
665.28	16.878
665.61	20.280
665.93	16.250
666.26	18.996
666.58	16.974
666.91	19.813
667.23	19.619
667.56	18.935
667.88	20.400
668.21	15.234
668.53	19.305
668.86	18.861
669.18	14.460
669.50	17.097
669.83	16.200
670.15	18.701
670.48	20.635
670.80	18.738
671.13	16.068
671.45	16.339
671.77	18.832
672.10	17.500
672.42	18.932
672.75	17.665
673.07	18.358
673.39	19.106
673.72	17.953
674.04	17.586
674.37	16.995
674.69	20.811
675.01	17.524
675.34	18.702
675.66	18.352
675.98	18.470
676.31	17.969
676.63	20.342
676.95	20.115
677.28	18.952
677.60	16.142
677.92	18.234
678.25	17.367
678.57	21.530
678.89	16.212
679.22	17.422
679.54	18.291
679.86	16.441
680.18	17.579
680.51	18.868
680.83	18.167
681.15	17.759
681.48	21.589
681.80	17.962
682.12	18.007
682.44	17.362
682.77	19.681
683.09	17.992
683.41	16.860
683.73	20.304
684.06	16.605
684.38	17.174
684.70	17.056
685.02	17.384
685.34	16.639
685.67	17.192
685.99	19.018
686.31	17.151
686.63	18.009
686.96	18.297
687.28	18.730
687.60	17.003
687.92	18.006
688.24	18.364
688.56	16.897
688.89	18.693
689.21	19.569
689.53	15.882
689.85	16.963
690.17	14.815
690.49	19.323
690.82	16.040
691.14	16.194
691.46	18.164
691.78	18.232
692.10	16.330
692.42	17.321
692.74	17.423
693.06	16.667
693.39	17.457
693.71	16.917
694.03	18.401
694.35	19.810
694.67	19.097
694.99	16.809
695.31	14.790
695.63	16.234
695.95	14.700
696.27	12.308
696.59	17.699
696.91	17.342
697.23	16.923
697.56	15.886
697.88	16.098
698.20	17.702
698.52	22.159
698.84	21.414
699.16	18.163
699.48	18.828
699.80	13.404
700.12	15.502
700.44	15.207
700.76	14.727
701.08	17.433
701.40	16.839
701.72	16.169
702.04	14.973
702.36	14.136
702.68	17.359
703.00	14.425
703.32	15.271
703.64	17.848
703.96	16.706
704.28	14.251
704.60	18.734
704.91	15.051
705.23	16.438
705.55	14.206
705.87	16.970
706.19	14.417
706.51	12.952
706.83	14.697
707.15	15.608
707.47	15.654
707.79	19.651
708.11	13.559
708.43	13.763
708.74	14.955
709.06	15.081
709.38	17.840
709.70	18.362
710.02	14.987
710.34	17.819
710.66	13.966
710.98	14.754
711.29	13.462
711.61	15.819
711.93	16.524
712.25	17.297
712.57	15.044
712.89	16.765
713.20	13.609
713.52	16.763
713.84	16.156
714.16	16.842
714.48	17.268
714.80	14.545
715.11	16.010
715.43	15.385
715.75	15.526
716.07	14.917
716.39	15.574
716.70	14.458
717.02	14.098
717.34	11.498
717.66	14.765
717.97	12.671
718.29	14.433
718.61	14.474
718.93	14.887
719.24	13.043
719.56	12.883
719.88	13.514
720.20	11.935
720.51	17.081
720.83	14.062
721.15	13.158
721.46	11.301
721.78	16.000
722.10	12.945
722.42	17.114
722.73	14.839
723.05	16.140
723.37	15.972
723.68	17.204
724.00	14.440
724.32	13.732
724.63	10.140
724.95	16.312
725.27	15.331
725.58	11.307
725.90	17.586
726.22	13.166
726.53	13.961
726.85	15.723
727.16	14.804
727.48	17.125
727.80	13.576
728.11	11.661
728.43	16.162
728.74	19.064
729.06	12.252
729.38	12.987
729.69	15.101
730.01	16.071
730.32	12.424
730.64	12.893
730.96	13.975
731.27	18.715
731.59	16.209
731.90	13.247
732.22	15.104
732.53	11.602
732.85	16.571
733.16	16.129
733.48	13.415
733.80	14.206
734.11	14.530
734.43	15.135
734.74	16.456
735.06	17.085
735.37	14.324
735.69	12.973
736.00	13.842
736.32	14.286
736.63	13.889
736.95	13.506
737.26	17.879
737.58	10.606
737.89	17.353
738.21	14.067
738.52	13.443
738.83	19.454
739.15	13.830
739.46	14.626
739.78	17.178
740.09	13.181
740.41	11.953
740.72	12.000
741.04	12.945
741.35	18.246
741.66	14.510
741.98	15.984
742.29	16.736
742.61	15.789
742.92	15.000
743.23	12.635
743.55	14.341
743.86	15.600
744.18	10.331
744.49	8.439
744.80	13.992
745.12	12.658
745.43	14.228
745.74	11.638
746.06	13.136
746.37	15.612
746.68	15.041
747.00	12.500
747.31	13.734
747.62	15.000
747.94	13.765
748.25	13.253
748.56	10.204
748.88	8.120
749.19	15.948
749.50	13.420
749.82	17.269
750.13	18.861
750.44	13.333
750.75	16.615
751.07	17.846
751.38	15.773
751.69	14.377
752.01	14.239
752.32	13.399
752.63	15.646
752.94	9.343
753.26	13.383
753.57	9.259
753.88	12.360
754.19	15.434
754.51	12.540
754.82	19.936
755.13	15.738
755.44	19.113
755.75	12.829
756.07	15.821
756.38	20.126
756.69	18.976
757.00	12.465
757.31	14.754
757.63	11.765
757.94	12.207
758.25	17.381
758.56	14.815
758.87	14.318
759.18	13.067
759.50	14.731
759.81	16.246
760.12	16.442
760.43	17.187
760.74	16.502
761.05	15.500
761.36	14.699
761.67	15.736
761.99	15.135
762.30	12.805
762.61	10.561
762.92	13.806
763.23	14.981
763.54	14.029
763.85	11.340
764.16	16.162
764.47	17.254
764.78	15.016
765.10	12.903
765.41	16.667
765.72	13.228
766.03	12.712
766.34	12.539
766.65	8.014
766.96	14.343
767.27	13.825
767.58	10.448
767.89	14.904
768.20	12.207
768.51	11.111
768.82	15.261
769.13	16.667
769.44	10.385
769.75	12.635
770.06	13.462
770.37	13.386
770.68	9.787
770.99	8.502
771.30	18.889
771.61	15.970
771.92	12.222
772.23	14.980
772.54	13.889
772.85	17.512
773.16	13.333
773.47	11.111
773.78	15.676
774.09	11.364
774.39	18.500
774.70	18.033
775.01	6.098
775.32	10.588
775.63	8.589
775.94	1.274
776.25	16.129
776.56	12.179
776.87	6.122
777.18	6.897
777.48	6.294
777.79	5.405
778.10	-1.471
778.41	5.556
778.72	9.655
779.03	11.728
779.34	9.091
779.65	6.218
779.95	13.889
780.26	14.205
780.57	9.032
780.88	7.246
781.19	10.323
781.50	13.529
781.80	15.591
782.11	10.582
782.42	11.111
782.73	8.383
783.04	11.173
783.34	6.667
783.65	5.882
783.96	9.938
784.27	1.786
784.57	8.609
784.88	12.857
785.19	10.236
785.50	12.598
785.81	12.782
786.11	9.231
786.42	2.878
786.73	9.353
787.04	9.774
787.34	0.820
787.65	0.000
787.96	11.940
788.26	13.287
788.57	6.294
788.88	7.895
789.19	13.072
789.49	4.795
789.80	4.255
790.11	12.598
790.41	3.906
790.72	8.475
791.03	-4.854
791.33	6.087
791.64	-1.754
791.95	0.893
792.25	2.857
792.56	4.464
792.87	3.125
793.17	1.786
793.48	0.000
793.79	0.000
794.09	3.670
794.40	1.835
794.70	6.803
795.01	9.740
795.32	5.479
795.62	10.563
795.93	9.091
796.23	7.377
796.54	5.357
796.85	0.000
797.15	-3.261
797.46	-6.849
797.76	-5.000
798.07	5.435
798.37	3.093
798.68	-9.091
798.99	1.149
799.29	-10.112
799.60	10.638
799.90	12.048
800.21	-12.308
800.51	-25.373
800.82	-8.824
801.12	-15.068
801.43	-20.588
801.73	-22.034
802.04	-4.545
802.34	-6.667
802.65	-5.085
802.95	8.955
803.26	-8.475
803.56	-4.110
803.87	10.000
804.17	-1.370
804.48	-14.035
804.78	-8.333
805.09	-13.793
805.39	16.216
805.70	-9.859
806.00	-10.976
806.30	6.024
806.61	-13.699
806.91	3.846
807.22	5.556
807.52	2.299
807.83	12.500
808.13	3.614
808.43	8.989
808.74	-3.750
809.04	-17.647
809.35	9.333
809.65	0.000
809.95	0.000
810.26	-7.018
810.56	1.724
810.86	10.294
811.17	-3.509
811.47	-9.836
811.77	-6.667
812.08	-5.085
812.38	5.000
812.69	-18.966
812.99	-15.094
813.29	-25.641
813.59	-10.000
813.90	-5.263
814.20	-10.909
814.50	0.000
814.81	0.000
815.11	0.000
815.41	11.940
815.72	3.448
816.02	-5.357
816.32	4.444
816.62	-4.545
816.93	-13.333
817.23	-5.556
817.53	2.128
817.84	14.286
818.14	-20.588
818.44	20.408
818.74	11.111
819.04	-17.949
819.35	-45.714
819.65	-50.000
819.95	-7.547
820.25	15.556
820.56	-21.429
820.86	-28.125
821.16	-35.897
821.46	-13.953
821.76	-34.000
822.07	1.786
822.37	-15.217
822.67	-8.511
822.97	-48.649
823.27	-15.000
823.57	10.204
823.88	8.889
824.18	-2.500
824.48	-13.333
824.78	8.000
825.08	-27.273
825.38	-8.889
825.69	-12.766
825.99	-19.444
826.29	-68.571
826.59	-23.077
826.89	-18.605
827.19	-28.000
827.49	-41.176
827.79	-14.583
828.09	-40.541
828.39	-46.667
828.70	-14.634
829.00	-18.605
829.30	-35.714
829.60	-20.588
829.90	-28.261
830.20	-28.571
830.50	-31.034
830.80	-100.000
831.10	-50.000
831.40	-26.471
831.70	-14.286
832.00	-38.710
832.30	-164.706
832.60	-54.167
832.90	-46.154
833.20	-68.421
833.50	-55.000
833.80	-36.842
834.10	-85.714
834.40	0.000
834.70	-21.875
835.00	-54.286
835.30	2.941
835.60	-56.667
835.90	-36.000
836.20	-113.636
836.50	-36.000
836.80	-72.727
837.10	-40.741
837.40	-40.741
837.70	-93.750
838.00	-25.000
838.30	-56.522
838.60	-10.345
838.90	-78.571
839.19	-104.348
839.49	-166.667
839.79	-30.435
840.09	-118.750
840.39	-30.000
840.69	3.226
840.99	-60.714
841.29	-66.667
841.59	-94.737
841.88	5.128
842.18	-50.000
842.48	-250.000
842.78	-70.000
843.08	-10.000
843.38	-9.677
843.68	-61.111
843.97	-17.647
844.27	-68.750
844.57	-52.632
844.87	-160.000
845.17	-93.333
845.47	-33.333
845.76	-38.095
846.06	-166.667
846.36	-105.882
846.66	-46.154
846.96	-120.000
847.25	-52.941
847.55	-21.739
847.85	-40.000
848.15	-70.588
848.44	-100.000
848.74	-19.048
849.04	-79.167
849.34	-56.250
849.63	-17.391
849.93	750.000
850.23	-40.000
850.53	7.692
850.82	-90.909
851.12	-18.182
851.42	0.000
851.71	-61.538
852.01	-115.000
852.31	-38.462
852.61	-57.895
852.90	-125.000
853.20	-50.000
853.50	-177.778
853.79	-90.476
854.09	-81.818
854.39	-191.667
854.68	-61.290
854.98	-38.462
855.28	-33.333
855.57	-14.286
855.87	-28.000
856.17	-36.364
856.46	-33.333
856.76	-66.667
857.05	-43.478
857.35	-75.000
857.65	-107.692
857.94	-38.095
858.24	-11.111
858.53	-13.043
858.83	-52.941
859.13	-23.529
859.42	-100.000
859.72	-35.714
860.01	-45.000
860.31	11.111
860.60	30.000
860.90	-100.000
861.20	-55.556
861.49	-100.000
861.79	-40.000
862.08	-76.923
862.38	-15.625
862.67	-70.588
862.97	6.250
863.26	-233.333
863.56	-120.000
863.85	-145.455
864.15	-11.111
864.44	-433.333
864.74	-64.286
865.03	-118.750
865.33	-180.000
865.62	-41.935
865.92	-9.091
866.21	-26.087
866.51	-107.143
866.80	-400.000
867.10	-150.000
867.39	-166.667
867.69	2300.000
867.98	-185.714
868.27	-52.941
868.57	-3100.000
868.86	-220.000
869.16	-71.429
869.45	4.167
869.75	-63.636
870.04	-242.857
870.33	-50.000
870.63	-242.857
870.92	-200.000
871.22	-287.500
871.51	-90.909
871.80	-900.000
872.10	-550.000
>>>>>End Processed Spectral Data<<<<<
