SpectraSuite Data File
++++++++++++++++++++++++++++++++++++
Date: Thu May 14 14:29:42 PDT 2015
User: schluterlab
Dark Spectrum Present: Yes
Reference Spectrum Present: Yes
Number of Sampled Component Spectra: 1
Spectrometers: USB2E3373
Integration Time (usec): 3000 (USB2E3373)
Spectra Averaged: 3 (USB2E3373)
Boxcar Smoothing: 0 (USB2E3373)
Correct for Electrical Dark: No (USB2E3373)
Strobe/Lamp Enabled: No (USB2E3373)
Correct for Detector Non-linearity: No (USB2E3373)
Correct for Stray Light: No (USB2E3373)
Number of Pixels in Processed Spectrum: 2048
>>>>>Begin Processed Spectral Data<<<<<
178.53	0.000
178.91	-185.714
179.29	-100.000
179.67	1000.000
180.04	14.286
180.42	-230.000
180.80	-140.000
181.18	1400.000
181.56	2500.000
181.94	-375.000
182.31	425.000
182.69	-166.667
183.07	1050.000
183.45	-150.000
183.83	333.333
184.20	166.667
184.58	-1700.000
184.96	300.000
185.34	88.889
185.72	440.000
186.09	-33.333
186.47	-350.000
186.85	-220.000
187.23	-11.111
187.61	1000.000
187.98	-180.000
188.36	-275.000
188.74	475.000
189.12	533.333
189.49	143.750
189.87	162.500
190.25	211.111
190.63	320.000
191.00	0.000
191.38	0.000
191.76	275.000
192.14	283.333
192.51	-750.000
192.89	400.000
193.27	0.000
193.65	171.429
194.02	400.000
194.40	242.857
194.78	-242.857
195.15	0.000
195.53	181.818
195.91	0.000
196.29	750.000
196.66	53.846
197.04	1400.000
197.42	142.857
197.79	1150.000
198.17	200.000
198.55	0.000
198.92	155.556
199.30	175.000
199.68	218.182
200.05	150.000
200.43	500.000
200.81	-71.429
201.18	0.000
201.56	-55.556
201.94	0.000
202.31	-333.333
202.69	55.556
203.07	-1200.000
203.44	133.333
203.82	150.000
204.19	150.000
204.57	283.333
204.95	212.500
205.32	900.000
205.70	-350.000
206.08	333.333
206.45	316.667
206.83	-120.000
207.20	316.667
207.58	180.000
207.96	-16.667
208.33	366.667
208.71	-83.333
209.08	216.667
209.46	0.000
209.84	-116.667
210.21	-450.000
210.59	-500.000
210.96	-33.333
211.34	450.000
211.71	175.000
212.09	1100.000
212.46	0.000
212.84	50.000
213.22	220.000
213.59	375.000
213.97	190.000
214.34	300.000
214.72	-150.000
215.09	375.000
215.47	0.000
215.84	-128.571
216.22	-100.000
216.59	100.000
216.97	300.000
217.34	350.000
217.72	250.000
218.09	550.000
218.47	300.000
218.84	0.000
219.22	-140.000
219.59	52.941
219.97	45.000
220.34	-350.000
220.72	122.222
221.09	153.846
221.47	466.667
221.84	170.000
222.22	171.429
222.59	0.000
222.97	275.000
223.34	120.000
223.72	1100.000
224.09	500.000
224.46	200.000
224.84	380.000
225.21	157.143
225.59	225.000
225.96	250.000
226.34	111.538
226.71	-50.000
227.08	650.000
227.46	180.000
227.83	350.000
228.21	105.263
228.58	-237.500
228.95	-300.000
229.33	116.667
229.70	100.000
230.08	136.842
230.45	-180.000
230.82	1066.667
231.20	78.571
231.57	175.000
231.95	136.364
232.32	218.182
232.69	130.000
233.07	775.000
233.44	105.882
233.81	120.000
234.19	127.778
234.56	59.091
234.93	100.000
235.31	136.842
235.68	138.889
236.05	95.000
236.43	150.000
236.80	76.000
237.17	122.222
237.55	115.152
237.92	200.000
238.29	87.097
238.67	61.364
239.04	102.778
239.41	97.619
239.79	73.913
240.16	68.519
240.53	95.652
240.91	72.549
241.28	81.967
241.65	77.612
242.02	72.973
242.40	72.308
242.77	65.333
243.14	62.195
243.51	75.000
243.89	74.359
244.26	72.277
244.63	61.765
245.00	71.963
245.38	69.298
245.75	65.487
246.12	63.492
246.49	58.140
246.87	65.714
247.24	64.238
247.61	59.211
247.98	65.772
248.36	64.198
248.73	56.442
249.10	56.831
249.47	63.184
249.84	63.351
250.22	66.321
250.59	63.889
250.96	58.636
251.33	63.776
251.70	60.256
252.08	57.500
252.45	60.246
252.82	57.438
253.19	53.906
253.56	58.175
253.94	59.231
254.31	57.955
254.68	58.042
255.05	61.238
255.42	59.524
255.79	58.252
256.16	55.960
256.54	55.629
256.91	61.639
257.28	58.033
257.65	59.873
258.02	55.162
258.39	53.846
258.76	60.245
259.14	60.632
259.51	55.331
259.88	56.091
260.25	59.444
260.62	56.712
260.99	60.656
261.36	57.105
261.73	59.947
262.10	58.791
262.47	59.249
262.85	58.838
263.22	57.143
263.59	58.158
263.96	57.033
264.33	56.522
264.70	57.037
265.07	57.757
265.44	59.637
265.81	53.704
266.18	56.463
266.55	53.795
266.92	57.859
267.29	58.643
267.66	55.211
268.03	57.424
268.40	55.532
268.77	59.909
269.14	56.828
269.51	56.360
269.88	56.148
270.25	51.710
270.62	59.283
270.99	52.727
271.36	53.465
271.73	57.957
272.10	56.513
272.47	58.116
272.84	54.016
273.21	54.309
273.58	56.855
273.95	53.846
274.32	52.471
274.69	53.965
275.06	55.495
275.43	51.941
275.80	53.792
276.17	54.259
276.54	56.157
276.91	54.741
277.28	53.888
277.65	54.039
278.02	54.963
278.39	53.261
278.76	52.724
279.13	56.028
279.50	51.890
279.87	53.309
280.23	49.472
280.60	51.186
280.97	52.303
281.34	52.632
281.71	53.976
282.08	47.508
282.45	53.355
282.82	51.805
283.19	49.919
283.56	51.967
283.92	51.502
284.29	49.921
284.66	51.724
285.03	50.641
285.40	50.696
285.77	49.536
286.14	50.840
286.51	51.142
286.87	48.499
287.24	53.012
287.61	49.626
287.98	50.604
288.35	49.704
288.72	49.704
289.08	49.927
289.45	45.118
289.82	48.343
290.19	47.845
290.56	48.028
290.93	48.074
291.29	46.143
291.66	47.934
292.03	46.404
292.40	44.762
292.77	46.092
293.13	43.843
293.50	44.284
293.87	45.235
294.24	46.000
294.60	41.719
294.97	41.879
295.34	42.766
295.71	40.227
296.08	42.894
296.44	43.015
296.81	42.022
297.18	41.594
297.55	39.741
297.91	40.214
298.28	39.455
298.65	39.477
299.02	40.378
299.38	39.474
299.75	39.603
300.12	38.542
300.48	39.747
300.85	39.483
301.22	37.584
301.59	38.699
301.95	39.322
302.32	39.778
302.69	39.759
303.05	38.847
303.42	36.585
303.79	38.229
304.15	36.698
304.52	37.104
304.89	36.649
305.25	36.853
305.62	37.304
305.99	37.320
306.35	37.198
306.72	38.676
307.09	36.041
307.45	37.992
307.82	37.235
308.19	36.024
308.55	36.837
308.92	37.001
309.29	37.452
309.65	35.478
310.02	35.941
310.38	36.614
310.75	37.379
311.12	38.351
311.48	36.168
311.85	36.277
312.22	36.622
312.58	35.587
312.95	35.851
313.31	36.856
313.68	36.813
314.05	37.308
314.41	36.248
314.78	35.513
315.14	36.751
315.51	35.642
315.87	35.284
316.24	36.347
316.61	36.234
316.97	34.751
317.34	35.714
317.70	36.332
318.07	36.861
318.43	34.864
318.80	35.870
319.16	34.077
319.53	34.190
319.89	35.145
320.26	35.231
320.62	34.131
320.99	34.164
321.35	34.288
321.72	36.186
322.08	34.175
322.45	33.966
322.81	36.101
323.18	34.779
323.54	35.603
323.91	36.655
324.27	34.079
324.64	34.677
325.00	34.080
325.37	34.971
325.73	33.802
326.10	34.793
326.46	34.283
326.83	34.107
327.19	33.543
327.56	34.150
327.92	33.438
328.29	34.032
328.65	34.590
329.01	33.587
329.38	34.878
329.74	35.274
330.11	34.760
330.47	33.698
330.84	34.109
331.20	34.500
331.56	34.662
331.93	34.644
332.29	35.593
332.66	34.801
333.02	33.417
333.38	33.893
333.75	33.165
334.11	33.695
334.48	33.416
334.84	33.985
335.20	33.165
335.57	34.317
335.93	34.711
336.29	33.111
336.66	33.305
337.02	33.612
337.38	34.099
337.75	33.388
338.11	33.474
338.47	34.078
338.84	32.403
339.20	32.519
339.56	32.208
339.93	32.594
340.29	32.770
340.65	31.792
341.02	33.360
341.38	32.741
341.74	30.751
342.11	31.295
342.47	32.407
342.83	32.850
343.20	31.725
343.56	31.997
343.92	33.307
344.28	31.875
344.65	32.481
345.01	33.073
345.37	31.726
345.73	30.475
346.10	31.747
346.46	32.753
346.82	31.461
347.19	32.697
347.55	32.701
347.91	31.129
348.27	31.487
348.63	31.835
349.00	32.588
349.36	31.078
349.72	30.804
350.08	30.906
350.45	31.027
350.81	30.920
351.17	30.902
351.53	30.553
351.89	31.511
352.26	30.522
352.62	31.119
352.98	30.992
353.34	30.471
353.70	30.971
354.07	30.999
354.43	29.461
354.79	30.142
355.15	31.714
355.51	31.140
355.87	30.292
356.24	31.483
356.60	30.007
356.96	29.800
357.32	30.112
357.68	30.234
358.04	31.138
358.40	30.149
358.77	29.605
359.13	30.059
359.49	30.335
359.85	30.094
360.21	29.555
360.57	29.074
360.93	29.972
361.29	31.018
361.66	29.978
362.02	29.784
362.38	30.288
362.74	31.006
363.10	30.399
363.46	29.848
363.82	29.616
364.18	29.697
364.54	29.461
364.90	29.967
365.26	29.931
365.62	29.533
365.98	28.727
366.35	28.993
366.71	30.068
367.07	30.176
367.43	29.547
367.79	29.330
368.15	30.033
368.51	30.108
368.87	29.654
369.23	29.600
369.59	29.781
369.95	28.736
370.31	29.372
370.67	29.367
371.03	29.501
371.39	28.274
371.75	28.955
372.11	29.607
372.47	29.926
372.83	28.927
373.19	28.486
373.55	28.794
373.91	29.721
374.27	28.525
374.63	28.958
374.99	28.647
375.35	29.935
375.71	29.290
376.07	28.147
376.42	29.471
376.78	29.584
377.14	29.070
377.50	28.716
377.86	29.126
378.22	29.401
378.58	28.478
378.94	28.580
379.30	28.998
379.66	28.630
380.02	27.813
380.38	29.608
380.74	28.958
381.09	28.978
381.45	28.580
381.81	29.625
382.17	28.088
382.53	27.778
382.89	28.555
383.25	28.429
383.61	28.241
383.97	28.210
384.32	29.306
384.68	28.712
385.04	29.902
385.40	28.757
385.76	28.957
386.12	28.486
386.48	28.529
386.83	29.261
387.19	27.926
387.55	28.169
387.91	27.683
388.27	28.753
388.62	27.835
388.98	27.750
389.34	28.874
389.70	28.239
390.06	28.774
390.42	28.675
390.77	29.561
391.13	27.641
391.49	29.046
391.85	29.455
392.20	29.004
392.56	28.706
392.92	28.026
393.28	27.861
393.64	27.765
393.99	28.646
394.35	28.037
394.71	28.443
395.07	28.024
395.42	28.270
395.78	28.702
396.14	28.639
396.50	28.444
396.85	28.324
397.21	28.047
397.57	28.269
397.92	27.835
398.28	28.137
398.64	28.146
399.00	27.801
399.35	27.592
399.71	27.989
400.07	28.748
400.42	28.056
400.78	28.704
401.14	27.775
401.49	28.141
401.85	28.372
402.21	28.216
402.57	28.580
402.92	27.778
403.28	26.932
403.63	27.387
403.99	26.960
404.35	27.175
404.70	28.045
405.06	27.880
405.42	28.220
405.77	28.735
406.13	28.309
406.49	27.646
406.84	27.590
407.20	26.942
407.55	27.135
407.91	27.656
408.27	27.267
408.62	27.691
408.98	27.510
409.34	26.569
409.69	27.565
410.05	27.726
410.40	27.030
410.76	27.370
411.11	27.528
411.47	27.641
411.83	27.513
412.18	27.470
412.54	26.675
412.89	27.998
413.25	27.088
413.60	27.858
413.96	27.331
414.31	26.912
414.67	27.728
415.03	26.892
415.38	27.869
415.74	26.756
416.09	28.192
416.45	26.675
416.80	26.928
417.16	28.289
417.51	27.646
417.87	27.652
418.22	27.904
418.58	26.890
418.93	27.765
419.29	26.880
419.64	26.771
420.00	26.884
420.35	27.400
420.71	27.455
421.06	27.717
421.42	26.835
421.77	26.387
422.12	26.110
422.48	26.984
422.83	27.930
423.19	27.109
423.54	27.600
423.90	27.278
424.25	26.773
424.61	26.521
424.96	26.798
425.31	27.335
425.67	26.463
426.02	28.113
426.38	26.464
426.73	27.065
427.09	28.258
427.44	25.833
427.79	26.866
428.15	26.712
428.50	27.640
428.85	26.636
429.21	26.755
429.56	27.147
429.92	26.437
430.27	26.410
430.62	27.064
430.98	26.562
431.33	27.077
431.68	25.814
432.04	26.917
432.39	26.192
432.74	25.685
433.10	28.015
433.45	26.477
433.80	26.878
434.16	26.705
434.51	26.927
434.86	26.710
435.22	26.886
435.57	27.476
435.92	25.821
436.28	27.019
436.63	27.307
436.98	26.355
437.34	26.945
437.69	25.977
438.04	26.071
438.39	26.479
438.75	26.121
439.10	27.537
439.45	26.998
439.81	26.328
440.16	26.810
440.51	26.644
440.86	26.515
441.22	26.259
441.57	27.149
441.92	26.140
442.27	26.919
442.63	26.279
442.98	27.588
443.33	27.091
443.68	26.957
444.03	26.717
444.39	27.092
444.74	26.187
445.09	26.508
445.44	27.239
445.79	27.538
446.15	26.105
446.50	26.770
446.85	26.556
447.20	26.886
447.55	26.569
447.91	25.969
448.26	26.268
448.61	26.621
448.96	27.146
449.31	26.617
449.66	25.109
450.02	26.160
450.37	26.905
450.72	26.857
451.07	27.050
451.42	25.708
451.77	26.515
452.12	26.919
452.47	27.094
452.83	26.802
453.18	26.386
453.53	24.871
453.88	26.449
454.23	26.045
454.58	26.465
454.93	26.092
455.28	26.851
455.63	25.981
455.98	26.872
456.34	26.266
456.69	25.808
457.04	26.182
457.39	25.721
457.74	27.013
458.09	25.975
458.44	26.401
458.79	25.890
459.14	26.114
459.49	26.599
459.84	26.653
460.19	25.486
460.54	26.803
460.89	25.887
461.24	25.402
461.59	25.899
461.94	24.872
462.29	26.428
462.64	25.830
462.99	26.428
463.34	26.347
463.69	25.909
464.04	26.126
464.39	25.392
464.74	25.884
465.09	25.490
465.44	26.878
465.79	25.806
466.14	25.951
466.49	26.368
466.84	25.344
467.19	25.723
467.54	25.852
467.89	25.747
468.24	25.873
468.59	25.478
468.94	25.291
469.29	24.715
469.64	25.874
469.99	24.984
470.34	25.928
470.68	26.384
471.03	26.195
471.38	26.292
471.73	25.423
472.08	26.586
472.43	25.828
472.78	26.196
473.13	25.221
473.48	26.103
473.83	26.524
474.17	25.205
474.52	25.797
474.87	25.526
475.22	25.803
475.57	25.078
475.92	25.784
476.27	25.825
476.61	25.493
476.96	25.078
477.31	26.040
477.66	26.390
478.01	26.029
478.36	25.474
478.70	25.567
479.05	25.920
479.40	25.814
479.75	25.552
480.10	25.533
480.45	26.208
480.79	25.714
481.14	25.551
481.49	25.443
481.84	25.457
482.19	25.376
482.53	25.098
482.88	25.521
483.23	25.834
483.58	25.764
483.92	24.158
484.27	25.360
484.62	25.000
484.97	25.894
485.31	25.308
485.66	24.899
486.01	24.524
486.36	24.889
486.70	25.128
487.05	25.515
487.40	25.981
487.75	26.081
488.09	25.810
488.44	25.154
488.79	26.442
489.13	25.851
489.48	25.243
489.83	25.070
490.17	24.706
490.52	24.836
490.87	25.042
491.22	24.480
491.56	25.299
491.91	25.164
492.26	24.794
492.60	24.486
492.95	24.967
493.30	25.594
493.64	25.099
493.99	24.386
494.34	24.477
494.68	25.096
495.03	25.639
495.37	25.522
495.72	25.397
496.07	25.372
496.41	25.139
496.76	25.229
497.11	24.671
497.45	24.471
497.80	24.922
498.14	24.580
498.49	24.494
498.84	24.817
499.18	24.561
499.53	24.753
499.87	25.099
500.22	24.087
500.56	25.056
500.91	24.577
501.26	24.818
501.60	24.967
501.95	25.185
502.29	24.792
502.64	25.448
502.98	24.590
503.33	25.054
503.67	24.815
504.02	24.781
504.36	24.710
504.71	24.943
505.06	25.466
505.40	24.452
505.75	24.545
506.09	25.184
506.44	24.420
506.78	25.183
507.13	24.574
507.47	24.870
507.82	24.527
508.16	24.140
508.51	24.238
508.85	24.894
509.19	25.012
509.54	24.880
509.88	24.818
510.23	24.915
510.57	24.746
510.92	25.641
511.26	24.579
511.61	24.336
511.95	24.158
512.30	24.717
512.64	23.488
512.98	24.662
513.33	24.345
513.67	24.681
514.02	24.630
514.36	24.859
514.70	25.104
515.05	24.870
515.39	25.092
515.74	25.398
516.08	24.723
516.42	24.123
516.77	24.553
517.11	24.188
517.46	25.027
517.80	24.800
518.14	25.082
518.49	24.783
518.83	23.896
519.17	23.856
519.52	24.476
519.86	24.129
520.20	24.175
520.55	24.096
520.89	24.268
521.23	24.288
521.58	25.085
521.92	24.023
522.26	24.112
522.61	24.537
522.95	25.087
523.29	23.966
523.64	23.935
523.98	24.016
524.32	25.444
524.66	24.986
525.01	24.858
525.35	24.067
525.69	24.420
526.04	24.225
526.38	24.023
526.72	24.394
527.06	24.340
527.41	24.315
527.75	25.594
528.09	24.498
528.43	23.623
528.78	23.988
529.12	23.853
529.46	24.002
529.80	23.913
530.15	24.638
530.49	24.199
530.83	24.321
531.17	24.612
531.51	24.970
531.86	23.678
532.20	24.695
532.54	24.057
532.88	24.424
533.22	24.455
533.57	24.870
533.91	24.579
534.25	24.364
534.59	24.713
534.93	24.618
535.27	24.113
535.62	24.332
535.96	24.811
536.30	24.266
536.64	24.985
536.98	24.723
537.32	24.568
537.66	25.078
538.01	23.323
538.35	23.934
538.69	24.038
539.03	25.383
539.37	24.499
539.71	25.045
540.05	24.640
540.39	24.572
540.73	23.740
541.07	23.728
541.42	24.395
541.76	23.665
542.10	24.005
542.44	24.117
542.78	25.182
543.12	24.672
543.46	23.138
543.80	24.101
544.14	23.818
544.48	24.586
544.82	24.297
545.16	24.031
545.50	24.146
545.84	24.005
546.18	24.815
546.52	24.522
546.86	24.214
547.20	25.127
547.54	24.594
547.88	24.653
548.22	25.205
548.56	24.225
548.90	23.164
549.24	24.742
549.58	24.227
549.92	24.745
550.26	24.595
550.60	24.633
550.94	24.903
551.28	25.215
551.62	24.730
551.96	24.401
552.30	24.793
552.64	24.518
552.98	24.392
553.32	24.823
553.66	23.730
554.00	25.158
554.34	25.225
554.68	23.951
555.02	24.310
555.36	25.049
555.69	23.831
556.03	24.338
556.37	24.406
556.71	24.984
557.05	24.665
557.39	23.889
557.73	23.976
558.07	25.033
558.41	24.385
558.75	23.597
559.08	25.261
559.42	24.074
559.76	24.898
560.10	24.246
560.44	24.736
560.78	24.750
561.12	24.631
561.45	25.608
561.79	25.092
562.13	25.015
562.47	23.859
562.81	24.620
563.15	24.684
563.48	24.674
563.82	25.272
564.16	24.652
564.50	24.434
564.84	24.484
565.17	23.882
565.51	24.396
565.85	23.872
566.19	23.502
566.52	24.693
566.86	24.844
567.20	23.926
567.54	25.173
567.88	24.363
568.21	24.951
568.55	24.892
568.89	24.875
569.23	25.264
569.56	24.853
569.90	25.160
570.24	25.396
570.57	24.631
570.91	25.015
571.25	24.299
571.59	25.299
571.92	24.813
572.26	24.510
572.60	25.061
572.93	25.355
573.27	25.148
573.61	25.040
573.95	25.079
574.28	24.854
574.62	25.011
574.96	24.768
575.29	24.653
575.63	25.341
575.97	25.246
576.30	24.994
576.64	25.221
576.98	25.148
577.31	24.880
577.65	25.444
577.98	25.282
578.32	24.729
578.66	24.727
578.99	25.169
579.33	25.367
579.67	25.295
580.00	25.264
580.34	25.502
580.67	25.419
581.01	25.076
581.35	24.898
581.68	24.720
582.02	25.000
582.35	25.419
582.69	25.197
583.02	25.341
583.36	25.467
583.70	25.540
584.03	26.014
584.37	25.994
584.70	25.281
585.04	25.320
585.37	25.144
585.71	25.156
586.04	24.967
586.38	25.000
586.72	24.693
587.05	25.454
587.39	25.729
587.72	25.407
588.06	25.363
588.39	24.820
588.73	25.450
589.06	25.508
589.40	25.784
589.73	26.125
590.07	25.398
590.40	25.896
590.73	25.557
591.07	25.093
591.40	25.428
591.74	25.358
592.07	24.767
592.41	24.921
592.74	24.459
593.08	25.159
593.41	24.468
593.75	24.971
594.08	25.174
594.41	24.744
594.75	24.643
595.08	24.697
595.42	25.325
595.75	24.960
596.09	25.754
596.42	25.511
596.75	25.280
597.09	25.535
597.42	25.507
597.75	25.323
598.09	25.278
598.42	24.769
598.76	24.570
599.09	24.884
599.42	24.707
599.76	24.067
600.09	24.424
600.42	24.491
600.76	24.802
601.09	24.029
601.42	24.785
601.76	24.931
602.09	24.911
602.42	24.609
602.76	25.055
603.09	25.037
603.42	24.819
603.76	25.546
604.09	25.195
604.42	24.807
604.76	24.353
605.09	25.050
605.42	24.721
605.75	25.423
606.09	24.972
606.42	24.188
606.75	24.550
607.09	23.963
607.42	24.393
607.75	24.893
608.08	24.704
608.42	24.103
608.75	24.959
609.08	24.278
609.41	23.908
609.75	24.286
610.08	24.714
610.41	24.214
610.74	24.538
611.07	24.556
611.41	24.484
611.74	25.173
612.07	25.526
612.40	24.430
612.73	25.477
613.07	23.619
613.40	24.447
613.73	24.121
614.06	24.485
614.39	23.858
614.72	24.745
615.06	23.917
615.39	24.553
615.72	25.166
616.05	24.769
616.38	24.268
616.71	24.660
617.05	24.760
617.38	24.345
617.71	24.136
618.04	24.123
618.37	25.301
618.70	24.661
619.03	24.194
619.36	24.723
619.69	24.343
620.03	24.733
620.36	24.049
620.69	23.504
621.02	25.131
621.35	24.746
621.68	25.163
622.01	23.843
622.34	24.407
622.67	24.399
623.00	23.482
623.33	24.486
623.66	23.930
623.99	23.831
624.32	25.406
624.65	23.810
624.99	24.057
625.32	24.755
625.65	23.803
625.98	23.593
626.31	24.167
626.64	24.103
626.97	24.456
627.30	22.931
627.63	23.931
627.96	24.399
628.29	22.879
628.62	23.594
628.95	24.540
629.28	23.619
629.61	24.747
629.94	22.343
630.26	22.542
630.59	23.230
630.92	22.684
631.25	24.240
631.58	24.670
631.91	22.774
632.24	24.976
632.57	23.150
632.90	24.072
633.23	24.286
633.56	24.286
633.89	23.554
634.22	22.557
634.55	23.591
634.88	24.026
635.20	23.897
635.53	24.181
635.86	22.969
636.19	23.754
636.52	23.312
636.85	24.106
637.18	22.765
637.51	23.226
637.83	24.585
638.16	23.848
638.49	23.944
638.82	23.450
639.15	21.879
639.48	24.134
639.81	23.672
640.13	24.853
640.46	22.424
640.79	22.917
641.12	23.602
641.45	24.467
641.77	24.134
642.10	24.147
642.43	25.133
642.76	24.255
643.09	23.699
643.41	22.269
643.74	23.862
644.07	24.000
644.40	22.207
644.73	23.222
645.05	23.495
645.38	23.165
645.71	24.047
646.04	24.247
646.36	24.088
646.69	24.847
647.02	24.924
647.35	22.901
647.67	24.960
648.00	23.885
648.33	24.324
648.66	21.683
648.98	23.129
649.31	22.733
649.64	22.842
649.96	22.679
650.29	22.949
650.62	23.338
650.94	22.372
651.27	21.108
651.60	22.661
651.92	23.404
652.25	22.431
652.58	22.421
652.90	23.837
653.23	24.225
653.56	24.822
653.88	24.860
654.21	24.225
654.54	26.012
654.86	25.212
655.19	22.459
655.52	22.426
655.84	21.032
656.17	27.331
656.49	39.504
656.82	45.610
657.15	36.284
657.47	27.233
657.80	20.916
658.13	16.572
658.45	22.097
658.78	27.388
659.10	26.979
659.43	27.738
659.75	28.050
660.08	26.723
660.41	26.716
660.73	24.743
661.06	25.404
661.38	24.561
661.71	23.966
662.03	22.751
662.36	23.614
662.68	23.640
663.01	23.894
663.33	24.008
663.66	27.289
663.98	21.346
664.31	23.640
664.63	22.929
664.96	24.138
665.28	22.505
665.61	23.601
665.93	23.929
666.26	23.297
666.58	23.247
666.91	25.607
667.23	22.095
667.56	25.049
667.88	27.200
668.21	22.461
668.53	23.166
668.86	24.951
669.18	23.014
669.50	23.062
669.83	22.800
670.15	23.031
670.48	26.389
670.80	23.136
671.13	22.117
671.45	25.394
671.77	22.222
672.10	20.667
672.42	23.948
672.75	22.581
673.07	23.731
673.39	22.804
673.72	24.832
674.04	25.862
674.37	24.329
674.69	23.986
675.01	23.429
675.34	23.855
675.66	23.221
675.98	21.642
676.31	25.781
676.63	24.715
676.95	25.479
677.28	24.798
677.60	21.457
677.92	26.488
678.25	23.583
678.57	25.089
678.89	23.038
679.22	22.648
679.54	22.051
679.86	21.864
680.18	22.388
680.51	24.057
680.83	24.550
681.15	23.793
681.48	24.007
681.80	23.834
682.12	23.077
682.44	22.538
682.77	24.468
683.09	23.864
683.41	25.000
683.73	23.719
684.06	22.325
684.38	21.467
684.70	26.750
685.02	25.473
685.34	22.962
685.67	22.240
685.99	24.693
686.31	21.512
686.63	23.697
686.96	22.240
687.28	24.919
687.60	22.896
687.92	23.473
688.24	23.873
688.56	22.414
688.89	24.319
689.21	24.266
689.53	21.373
689.85	23.077
690.17	20.741
690.49	23.307
690.82	21.386
691.14	23.887
691.46	23.709
691.78	25.414
692.10	21.284
692.42	21.786
692.74	24.138
693.06	21.667
693.39	23.529
693.71	24.060
694.03	22.119
694.35	23.810
694.67	24.641
694.99	22.340
695.31	23.841
695.63	23.810
695.95	22.153
696.27	23.297
696.59	25.664
696.91	22.297
697.23	24.615
697.56	20.978
697.88	23.485
698.20	24.105
698.52	26.515
698.84	23.285
699.16	24.490
699.48	23.222
699.80	24.043
700.12	23.362
700.44	25.346
700.76	24.703
701.08	23.002
701.40	26.166
701.72	22.637
702.04	25.668
702.36	21.990
702.68	22.983
703.00	23.472
703.32	24.877
703.64	24.205
703.96	23.389
704.28	24.324
704.60	21.519
704.91	24.745
705.23	24.932
705.55	21.448
705.87	25.758
706.19	23.620
706.51	18.976
706.83	20.461
707.15	21.429
707.47	21.963
707.79	22.707
708.11	22.034
708.43	22.366
708.74	23.214
709.06	22.506
709.38	27.230
709.70	24.566
710.02	24.289
710.34	24.468
710.66	20.670
710.98	24.863
711.29	21.429
711.61	25.424
711.93	23.647
712.25	21.351
712.57	26.254
712.89	27.647
713.20	26.331
713.52	23.988
713.84	24.791
714.16	24.737
714.48	23.196
714.80	24.935
715.11	23.885
715.43	23.607
715.75	25.263
716.07	20.994
716.39	24.044
716.70	18.976
717.02	21.967
717.34	20.557
717.66	25.503
717.97	19.178
718.29	24.055
718.61	23.355
718.93	23.625
719.24	24.845
719.56	23.620
719.88	24.324
720.20	24.194
720.51	23.292
720.83	25.000
721.15	26.645
721.46	21.233
721.78	23.333
722.10	21.683
722.42	23.490
722.73	23.548
723.05	23.158
723.37	26.042
723.68	24.731
724.00	24.188
724.32	21.479
724.63	26.224
724.95	30.142
725.27	24.739
725.58	21.555
725.90	26.207
726.22	24.138
726.53	22.078
726.85	27.987
727.16	25.680
727.48	25.994
727.80	25.828
728.11	24.382
728.43	27.273
728.74	23.411
729.06	24.503
729.38	25.325
729.69	28.188
730.01	26.786
730.32	23.636
730.64	25.786
730.96	23.913
731.27	27.654
731.59	25.549
731.90	23.117
732.22	25.000
732.53	20.442
732.85	24.571
733.16	24.633
733.48	23.171
733.80	24.513
734.11	21.652
734.43	24.595
734.74	26.076
735.06	27.387
735.37	27.297
735.69	27.568
736.00	24.294
736.32	25.876
736.63	26.389
736.95	23.851
737.26	23.333
737.58	27.576
737.89	26.765
738.21	21.713
738.52	25.574
738.83	25.597
739.15	22.695
739.46	25.170
739.78	24.540
740.09	20.917
740.41	26.822
740.72	22.333
741.04	25.243
741.35	23.509
741.66	26.667
741.98	25.000
742.29	25.105
742.61	27.193
742.92	27.308
743.23	27.798
743.55	28.682
743.86	26.800
744.18	21.901
744.49	24.473
744.80	26.337
745.12	25.738
745.43	25.203
745.74	20.690
746.06	24.153
746.37	27.426
746.68	26.016
747.00	25.833
747.31	24.034
747.62	26.923
747.94	25.911
748.25	25.703
748.56	22.449
748.88	29.915
749.19	27.155
749.50	24.242
749.82	22.490
750.13	27.758
750.44	22.000
750.75	25.231
751.07	29.846
751.38	22.713
751.69	26.198
752.01	21.036
752.32	25.490
752.63	25.850
752.94	24.913
753.26	23.792
753.57	26.296
753.88	23.221
754.19	23.151
754.51	21.865
754.82	27.010
755.13	24.590
755.44	26.621
755.75	22.039
756.07	26.567
756.38	23.270
756.69	30.120
757.00	21.884
757.31	19.945
757.63	21.483
757.94	24.178
758.25	25.959
758.56	24.837
758.87	23.409
759.18	24.267
759.50	23.513
759.81	23.810
760.12	26.415
760.43	24.740
760.74	23.645
761.05	25.750
761.36	23.373
761.67	24.112
761.99	25.135
762.30	26.524
762.61	23.432
762.92	26.119
763.23	25.468
763.54	26.259
763.85	23.024
764.16	27.609
764.47	24.648
764.78	26.518
765.10	23.167
765.41	27.436
765.72	21.429
766.03	27.684
766.34	24.765
766.65	24.390
766.96	26.693
767.27	28.111
767.58	28.856
767.89	27.885
768.20	28.169
768.51	27.315
768.82	20.080
769.13	20.076
769.44	22.692
769.75	28.159
770.06	24.231
770.37	28.346
770.68	25.106
770.99	22.672
771.30	33.333
771.61	24.715
771.92	22.963
772.23	27.126
772.54	20.370
772.85	29.954
773.16	24.762
773.47	23.810
773.78	23.243
774.09	23.295
774.39	34.000
774.70	31.694
775.01	26.220
775.32	27.647
775.63	26.380
775.94	20.382
776.25	27.097
776.56	26.923
776.87	34.014
777.18	27.586
777.48	28.671
777.79	22.973
778.10	19.853
778.41	25.000
778.72	28.276
779.03	20.370
779.34	27.273
779.65	23.316
779.95	31.667
780.26	28.409
780.57	38.065
780.88	37.681
781.19	31.613
781.50	30.588
781.80	33.333
782.11	31.746
782.42	20.707
782.73	26.347
783.04	23.464
783.34	25.455
783.65	24.837
783.96	30.435
784.27	31.548
784.57	33.113
784.88	32.857
785.19	31.496
785.50	31.496
785.81	36.842
786.11	30.769
786.42	25.180
786.73	33.094
787.04	38.346
787.34	31.967
787.65	31.200
787.96	38.060
788.26	33.566
788.57	36.364
788.88	26.316
789.19	27.451
789.49	30.137
789.80	31.206
790.11	30.709
790.41	26.563
790.72	25.424
791.03	19.417
791.33	27.826
791.64	40.351
791.95	27.679
792.25	31.429
792.56	25.893
792.87	37.500
793.17	36.607
793.48	32.292
793.79	25.301
794.09	30.275
794.40	19.266
794.70	27.891
795.01	22.078
795.32	28.767
795.62	24.648
795.93	30.303
796.23	27.869
796.54	28.571
796.85	27.660
797.15	32.609
797.46	35.616
797.76	32.500
798.07	26.087
798.37	17.526
798.68	35.065
798.99	24.138
799.29	29.213
799.60	38.298
799.90	37.349
800.21	52.308
800.51	34.328
800.82	33.824
801.12	20.548
801.43	26.471
801.73	40.678
802.04	43.939
802.34	35.000
802.65	50.847
802.95	49.254
803.26	32.203
803.56	45.205
803.87	50.000
804.17	39.726
804.48	33.333
804.78	36.111
805.09	27.586
805.39	40.541
805.70	21.127
806.00	37.805
806.30	37.349
806.61	30.137
806.91	25.962
807.22	32.222
807.52	22.989
807.83	34.722
808.13	36.145
808.43	38.202
808.74	42.500
809.04	33.824
809.35	37.333
809.65	38.571
809.95	35.616
810.26	49.123
810.56	44.828
810.86	41.176
811.17	40.351
811.47	37.705
811.77	40.000
812.08	57.627
812.38	38.333
812.69	46.552
812.99	35.849
813.29	15.385
813.59	46.000
813.90	56.140
814.20	49.091
814.50	43.662
814.81	35.897
815.11	39.344
815.41	37.313
815.72	39.655
816.02	51.786
816.32	55.556
816.62	50.000
816.93	35.556
817.23	46.296
817.53	44.681
817.84	66.667
818.14	61.765
818.44	59.184
818.74	35.556
819.04	46.154
819.35	28.571
819.65	57.692
819.95	47.170
820.25	46.667
820.56	45.238
820.86	50.000
821.16	51.282
821.46	34.884
821.76	32.000
822.07	44.643
822.37	50.000
822.67	48.936
822.97	29.730
823.27	45.000
823.57	46.939
823.88	42.222
824.18	65.000
824.48	63.333
824.78	52.000
825.08	69.697
825.38	60.000
825.69	53.191
825.99	38.889
826.29	-5.714
826.59	48.718
826.89	62.791
827.19	44.000
827.49	64.706
827.79	41.667
828.09	35.135
828.39	63.333
828.70	21.951
829.00	72.093
829.30	60.714
829.60	79.412
829.90	52.174
830.20	57.143
830.50	27.586
830.80	111.111
831.10	26.923
831.40	55.882
831.70	128.571
832.00	90.323
832.30	35.294
832.60	45.833
832.90	100.000
833.20	63.158
833.50	40.000
833.80	63.158
834.10	28.571
834.40	33.333
834.70	93.750
835.00	40.000
835.30	79.412
835.60	43.333
835.90	44.000
836.20	54.545
836.50	64.000
836.80	63.636
837.10	29.630
837.40	96.296
837.70	56.250
838.00	78.571
838.30	52.174
838.60	86.207
838.90	114.286
839.19	-13.043
839.49	100.000
839.79	39.130
840.09	56.250
840.39	85.000
840.69	58.065
840.99	35.714
841.29	220.000
841.59	21.053
841.88	84.615
842.18	30.769
842.48	20.000
842.78	55.000
843.08	46.667
843.38	61.290
843.68	66.667
843.97	47.059
844.27	43.750
844.57	73.684
844.87	120.000
845.17	20.000
845.47	109.524
845.76	104.762
846.06	211.111
846.36	82.353
846.66	88.462
846.96	100.000
847.25	129.412
847.55	86.957
847.85	65.000
848.15	100.000
848.44	209.091
848.74	85.714
849.04	58.333
849.34	93.750
849.63	60.870
849.93	-1150.000
850.23	86.667
850.53	134.615
850.82	163.636
851.12	145.455
851.42	100.000
851.71	176.923
852.01	65.000
852.31	123.077
852.61	52.632
852.90	200.000
853.20	94.444
853.50	55.556
853.79	80.952
854.09	86.364
854.39	50.000
854.68	61.290
854.98	46.154
855.28	111.111
855.57	42.857
855.87	72.000
856.17	72.727
856.46	88.889
856.76	72.222
857.05	82.609
857.35	29.167
857.65	107.692
857.94	95.238
858.24	100.000
858.53	117.391
858.83	129.412
859.13	70.588
859.42	170.588
859.72	178.571
860.01	125.000
860.31	222.222
860.60	140.000
860.90	100.000
861.20	72.222
861.49	92.308
861.79	90.000
862.08	84.615
862.38	90.625
862.67	129.412
862.97	100.000
863.26	55.556
863.56	130.000
863.85	81.818
864.15	116.667
864.44	466.667
864.74	21.429
865.03	31.250
865.33	-10.000
865.62	38.710
865.92	127.273
866.21	78.261
866.51	121.429
866.80	240.000
867.10	141.667
867.39	33.333
867.69	-200.000
867.98	228.571
868.27	123.529
868.57	800.000
868.86	80.000
869.16	38.095
869.45	100.000
869.75	118.182
870.04	257.143
870.33	141.667
870.63	171.429
870.92	500.000
871.22	87.500
871.51	81.818
871.80	-66.667
872.10	750.000
>>>>>End Processed Spectral Data<<<<<
