SpectraSuite Data File
++++++++++++++++++++++++++++++++++++
Date: Thu May 14 14:33:01 PDT 2015
User: schluterlab
Dark Spectrum Present: Yes
Reference Spectrum Present: Yes
Number of Sampled Component Spectra: 1
Spectrometers: USB2E3373
Integration Time (usec): 3000 (USB2E3373)
Spectra Averaged: 3 (USB2E3373)
Boxcar Smoothing: 0 (USB2E3373)
Correct for Electrical Dark: No (USB2E3373)
Strobe/Lamp Enabled: No (USB2E3373)
Correct for Detector Non-linearity: No (USB2E3373)
Correct for Stray Light: No (USB2E3373)
Number of Pixels in Processed Spectrum: 2048
>>>>>Begin Processed Spectral Data<<<<<
178.53	0.000
178.91	-300.000
179.29	800.000
179.67	1500.000
180.04	-64.286
180.42	-160.000
180.80	-320.000
181.18	1700.000
181.56	2900.000
181.94	-350.000
182.31	400.000
182.69	-433.333
183.07	900.000
183.45	-425.000
183.83	266.667
184.20	766.667
184.58	-2300.000
184.96	350.000
185.34	177.778
185.72	540.000
186.09	-66.667
186.47	-250.000
186.85	-60.000
187.23	200.000
187.61	1100.000
187.98	-320.000
188.36	-225.000
188.74	275.000
189.12	833.333
189.49	181.250
189.87	262.500
190.25	300.000
190.63	500.000
191.00	188.889
191.38	0.000
191.76	625.000
192.14	200.000
192.51	-450.000
192.89	400.000
193.27	0.000
193.65	342.857
194.02	2000.000
194.40	300.000
194.78	-342.857
195.15	0.000
195.53	209.091
195.91	0.000
196.29	600.000
196.66	176.923
197.04	1500.000
197.42	200.000
197.79	1050.000
198.17	212.500
198.55	128.571
198.92	255.556
199.30	125.000
199.68	154.545
200.05	200.000
200.43	600.000
200.81	-171.429
201.18	0.000
201.56	-166.667
201.94	0.000
202.31	-566.667
202.69	55.556
203.07	-1800.000
203.44	200.000
203.82	550.000
204.19	175.000
204.57	150.000
204.95	175.000
205.32	2400.000
205.70	-375.000
206.08	400.000
206.45	300.000
206.83	-80.000
207.20	333.333
207.58	180.000
207.96	200.000
208.33	466.667
208.71	-108.333
209.08	500.000
209.46	0.000
209.84	-133.333
210.21	-1000.000
210.59	-1100.000
210.96	-433.333
211.34	450.000
211.71	250.000
212.09	900.000
212.46	0.000
212.84	-250.000
213.22	300.000
213.59	750.000
213.97	260.000
214.34	700.000
214.72	-300.000
215.09	550.000
215.47	0.000
215.84	-200.000
216.22	-750.000
216.59	300.000
216.97	340.000
217.34	375.000
217.72	250.000
218.09	375.000
218.47	450.000
218.84	0.000
219.22	-440.000
219.59	135.294
219.97	140.000
220.34	-300.000
220.72	66.667
221.09	223.077
221.47	533.333
221.84	150.000
222.22	200.000
222.59	0.000
222.97	275.000
223.34	300.000
223.72	1800.000
224.09	350.000
224.46	400.000
224.84	560.000
225.21	214.286
225.59	500.000
225.96	425.000
226.34	80.769
226.71	-300.000
227.08	1100.000
227.46	146.667
227.83	325.000
228.21	94.737
228.58	-175.000
228.95	-1400.000
229.33	225.000
229.70	240.000
230.08	163.158
230.45	-130.000
230.82	700.000
231.20	200.000
231.57	108.333
231.95	209.091
232.32	163.636
232.69	125.000
233.07	500.000
233.44	117.647
233.81	220.000
234.19	155.556
234.56	104.545
234.93	96.552
235.31	126.316
235.68	127.778
236.05	75.000
236.43	103.846
236.80	140.000
237.17	70.370
237.55	93.939
237.92	170.000
238.29	67.742
238.67	77.273
239.04	80.556
239.41	54.762
239.79	54.348
240.16	57.407
240.53	73.913
240.91	62.745
241.28	54.098
241.65	67.164
242.02	50.000
242.40	43.077
242.77	52.000
243.14	41.463
243.51	50.000
243.89	53.846
244.26	49.505
244.63	56.863
245.00	42.991
245.38	46.491
245.75	33.628
246.12	49.206
246.49	41.085
246.87	40.000
247.24	35.762
247.61	40.132
247.98	40.268
248.36	42.593
248.73	26.994
249.10	39.344
249.47	37.313
249.84	36.126
250.22	31.088
250.59	40.556
250.96	40.000
251.33	34.694
251.70	35.043
252.08	32.083
252.45	36.885
252.82	31.818
253.19	33.594
253.56	36.502
253.94	32.692
254.31	33.712
254.68	38.811
255.05	32.899
255.42	33.673
255.79	31.392
256.16	32.119
256.54	28.146
256.91	33.443
257.28	34.754
257.65	27.070
258.02	31.563
258.39	33.048
258.76	39.450
259.14	33.908
259.51	33.141
259.88	32.011
260.25	33.333
260.62	32.877
260.99	34.153
261.36	31.367
261.73	29.708
262.10	32.692
262.47	30.295
262.85	34.848
263.22	32.727
263.59	28.158
263.96	32.481
264.33	27.621
264.70	27.407
265.07	34.368
265.44	34.467
265.81	29.630
266.18	33.333
266.55	30.804
266.92	31.207
267.29	31.729
267.66	30.599
268.03	34.279
268.40	31.524
268.77	30.979
269.14	30.837
269.51	29.386
269.88	31.967
270.25	28.974
270.62	31.857
270.99	32.323
271.36	31.683
271.73	29.470
272.10	33.667
272.47	32.064
272.84	31.928
273.21	28.858
273.58	32.056
273.95	26.923
274.32	28.897
274.69	30.754
275.06	32.601
275.43	29.020
275.80	28.042
276.17	29.815
276.54	28.918
276.91	27.013
277.28	29.656
277.65	30.341
278.02	28.676
278.39	29.167
278.76	28.120
279.13	29.433
279.50	28.351
279.87	28.086
280.23	26.408
280.60	30.000
280.97	29.770
281.34	29.542
281.71	31.810
282.08	28.571
282.45	27.005
282.82	27.473
283.19	28.918
283.56	27.213
283.92	30.030
284.29	29.068
284.66	28.571
285.03	26.122
285.40	29.830
285.77	28.173
286.14	30.229
286.51	28.919
286.87	29.068
287.24	27.560
287.61	27.205
287.98	27.946
288.35	27.663
288.72	28.698
289.08	26.061
289.45	25.740
289.82	25.753
290.19	27.874
290.56	26.620
290.93	27.247
291.29	25.482
291.66	25.482
292.03	24.016
292.40	25.306
292.77	24.798
293.13	24.357
293.50	24.179
293.87	23.356
294.24	26.533
294.60	22.630
294.97	23.893
295.34	23.175
295.71	23.203
296.08	22.610
296.44	22.794
296.81	22.290
297.18	22.540
297.55	22.524
297.91	21.945
298.28	22.393
298.65	21.641
299.02	22.668
299.38	20.709
299.75	22.430
300.12	21.065
300.48	21.889
300.85	23.397
301.22	21.812
301.59	20.548
301.95	21.808
302.32	20.333
302.69	19.715
303.05	22.524
303.42	21.951
303.79	20.208
304.15	21.872
304.52	21.353
304.89	20.942
305.25	21.843
305.62	21.108
305.99	20.309
306.35	21.673
306.72	21.820
307.09	21.320
307.45	20.600
307.82	22.402
308.19	21.090
308.55	22.276
308.92	20.643
309.29	22.126
309.65	19.981
310.02	22.376
310.38	21.358
310.75	21.456
311.12	21.956
311.48	20.919
311.85	21.652
312.22	21.822
312.58	20.188
312.95	21.128
313.31	21.229
313.68	21.520
314.05	23.487
314.41	22.587
314.78	21.526
315.14	23.775
315.51	23.453
315.87	23.582
316.24	24.292
316.61	22.735
316.97	23.167
317.34	22.310
317.70	23.406
318.07	24.339
318.43	24.065
318.80	25.251
319.16	23.863
319.53	22.451
319.89	24.277
320.26	26.246
320.62	25.089
320.99	26.316
321.35	24.954
321.72	27.442
322.08	25.518
322.45	27.010
322.81	26.895
323.18	26.549
323.54	28.448
323.91	29.004
324.27	28.141
324.64	27.792
325.00	27.778
325.37	28.337
325.73	28.926
326.10	29.603
326.46	30.782
326.83	31.385
327.19	30.551
327.56	30.830
327.92	30.212
328.29	30.887
328.65	30.737
329.01	33.080
329.38	31.508
329.74	32.192
330.11	33.048
330.47	32.435
330.84	33.161
331.20	33.000
331.56	33.969
331.93	34.310
332.29	33.729
332.66	34.718
333.02	33.836
333.38	33.641
333.75	35.774
334.11	35.446
334.48	35.149
334.84	35.599
335.20	34.845
335.57	35.329
335.93	36.116
336.29	35.857
336.66	36.417
337.02	34.783
337.38	36.565
337.75	35.537
338.11	37.006
338.47	36.063
338.84	36.464
339.20	36.057
339.56	36.079
339.93	36.946
340.29	34.138
340.65	35.685
341.02	36.393
341.38	37.187
341.74	36.723
342.11	37.249
342.47	35.743
342.83	36.876
343.20	37.040
343.56	37.049
343.92	37.790
344.28	37.109
344.65	37.054
345.01	36.817
345.37	37.092
345.73	35.620
346.10	37.441
346.46	36.788
346.82	37.303
347.19	38.350
347.55	38.012
347.91	37.741
348.27	35.736
348.63	37.167
349.00	37.286
349.36	36.729
349.72	37.202
350.08	39.079
350.45	37.719
350.81	38.311
351.17	37.970
351.53	37.756
351.89	37.509
352.26	37.687
352.62	36.716
352.98	37.863
353.34	36.594
353.70	39.753
354.07	38.301
354.43	38.269
354.79	38.444
355.15	38.043
355.51	37.427
355.87	37.846
356.24	39.240
356.60	37.620
356.96	38.992
357.32	38.141
357.68	38.580
358.04	38.997
358.40	39.254
358.77	38.158
359.13	38.774
359.49	39.851
359.85	38.941
360.21	38.953
360.57	39.268
360.93	38.646
361.29	39.930
361.66	40.188
362.02	40.779
362.38	39.775
362.74	40.782
363.10	39.615
363.46	40.928
363.82	41.406
364.18	40.253
364.54	40.387
364.90	40.803
365.26	42.000
365.62	40.733
365.98	41.729
366.35	41.208
366.71	41.905
367.07	41.813
367.43	41.760
367.79	42.933
368.15	42.274
368.51	41.610
368.87	42.391
369.23	42.667
369.59	42.486
369.95	42.596
370.31	41.999
370.67	42.985
371.03	41.620
371.39	42.512
371.75	43.948
372.11	44.851
372.47	43.196
372.83	43.717
373.19	43.296
373.55	43.022
373.91	44.035
374.27	44.308
374.63	44.926
374.99	44.960
375.35	44.675
375.71	44.581
376.07	45.771
376.42	46.285
376.78	46.240
377.14	45.540
377.50	46.300
377.86	46.613
378.22	46.407
378.58	46.968
378.94	46.479
379.30	47.042
379.66	47.619
380.02	47.605
380.38	49.021
380.74	47.831
381.09	48.548
381.45	48.693
381.81	49.532
382.17	48.397
382.53	49.766
382.89	48.984
383.25	51.348
383.61	49.769
383.97	50.883
384.32	52.213
384.68	50.290
385.04	51.822
385.40	52.681
385.76	52.696
386.12	51.107
386.48	51.824
386.83	54.231
387.19	52.202
387.55	51.819
387.91	53.082
388.27	53.464
388.62	53.322
388.98	52.566
389.34	54.685
389.70	54.329
390.06	54.056
390.42	53.313
390.77	54.726
391.13	53.991
391.49	55.374
391.85	56.970
392.20	54.152
392.56	55.995
392.92	55.398
393.28	55.998
393.64	54.916
393.99	56.537
394.35	56.367
394.71	57.665
395.07	56.108
395.42	57.110
395.78	58.684
396.14	57.932
396.50	58.076
396.85	56.470
397.21	56.923
397.57	57.892
397.92	58.362
398.28	57.849
398.64	57.952
399.00	56.649
399.35	57.644
399.71	57.989
400.07	59.012
400.42	58.324
400.78	59.317
401.14	57.769
401.49	59.238
401.85	60.116
402.21	60.429
402.57	60.563
402.92	60.875
403.28	58.431
403.63	60.263
403.99	59.382
404.35	58.385
404.70	61.246
405.06	59.293
405.42	60.012
405.77	60.469
406.13	58.995
406.49	58.784
406.84	60.443
407.20	59.083
407.55	60.448
407.91	60.465
408.27	59.658
408.62	61.024
408.98	61.056
409.34	60.176
409.69	61.372
410.05	62.661
410.40	61.833
410.76	61.582
411.11	60.725
411.47	61.671
411.83	60.788
412.18	62.108
412.54	60.877
412.89	60.652
413.25	61.907
413.60	60.655
413.96	62.238
414.31	60.283
414.67	62.493
415.03	60.000
415.38	62.232
415.74	62.309
416.09	62.184
416.45	60.426
416.80	61.628
417.16	62.963
417.51	63.138
417.87	62.293
418.22	63.234
418.58	63.507
418.93	62.398
419.29	62.454
419.64	62.785
420.00	64.332
420.35	62.212
420.71	61.976
421.06	62.737
421.42	63.761
421.77	62.628
422.12	61.998
422.48	63.697
422.83	64.294
423.19	62.546
423.54	64.436
423.90	63.114
424.25	62.773
424.61	62.687
424.96	62.658
425.31	64.650
425.67	62.641
426.02	63.863
426.38	64.237
426.73	63.170
427.09	64.764
427.44	64.173
427.79	63.958
428.15	64.269
428.50	65.000
428.85	64.811
429.21	65.213
429.56	63.475
429.92	65.455
430.27	66.120
430.62	65.169
430.98	65.421
431.33	64.761
431.68	64.080
432.04	66.684
432.39	64.649
432.74	64.954
433.10	67.280
433.45	65.273
433.80	66.094
434.16	66.116
434.51	66.906
434.86	66.178
435.22	67.216
435.57	68.396
435.92	66.277
436.28	66.724
436.63	68.159
436.98	66.076
437.34	66.855
437.69	66.648
438.04	66.737
438.39	67.777
438.75	66.740
439.10	67.442
439.45	66.965
439.81	67.627
440.16	66.273
440.51	67.503
440.86	65.926
441.22	66.131
441.57	68.187
441.92	66.343
442.27	67.525
442.63	65.723
442.98	67.876
443.33	67.175
443.68	66.650
444.03	68.438
444.39	66.528
444.74	67.637
445.09	66.751
445.44	67.545
445.79	68.870
446.15	67.523
446.50	68.062
446.85	67.558
447.20	68.182
447.55	67.416
447.91	68.691
448.26	66.966
448.61	67.694
448.96	68.294
449.31	67.444
449.66	68.028
450.02	66.983
450.37	67.501
450.72	67.869
451.07	69.191
451.42	67.649
451.77	67.148
452.12	68.905
452.47	66.726
452.83	69.538
453.18	68.184
453.53	69.500
453.88	66.814
454.23	68.701
454.58	68.717
454.93	68.871
455.28	68.995
455.63	66.913
455.98	68.492
456.34	68.198
456.69	68.430
457.04	69.563
457.39	67.794
457.74	69.351
458.09	68.644
458.44	68.265
458.79	66.942
459.14	67.121
459.49	69.044
459.84	67.681
460.19	67.518
460.54	69.506
460.89	69.719
461.24	68.621
461.59	67.958
461.94	67.427
462.29	68.309
462.64	66.083
462.99	68.550
463.34	68.397
463.69	66.589
464.04	68.983
464.39	67.377
464.74	68.244
465.09	67.935
465.44	68.133
465.79	67.689
466.14	66.962
466.49	68.211
466.84	69.642
467.19	67.572
467.54	65.864
467.89	66.149
468.24	66.316
468.59	67.053
468.94	66.667
469.29	67.247
469.64	66.815
469.99	68.133
470.34	67.636
470.68	68.626
471.03	68.959
471.38	68.345
471.73	68.856
472.08	68.020
472.43	67.550
472.78	67.254
473.13	68.268
473.48	67.915
473.83	67.847
474.17	66.002
474.52	68.250
474.87	66.888
475.22	67.718
475.57	68.069
475.92	66.949
476.27	67.199
476.61	66.096
476.96	66.267
477.31	67.574
477.66	69.203
478.01	66.701
478.36	67.797
478.70	66.404
479.05	67.331
479.40	67.621
479.75	66.907
480.10	66.888
480.45	67.138
480.79	66.168
481.14	66.268
481.49	66.970
481.84	66.884
482.19	68.043
482.53	67.337
482.88	67.700
483.23	66.518
483.58	66.943
483.92	67.066
484.27	67.739
484.62	66.997
484.97	66.874
485.31	66.667
485.66	66.541
486.01	66.925
486.36	66.692
486.70	66.474
487.05	65.551
487.40	65.637
487.75	65.394
488.09	65.201
488.44	65.228
488.79	65.126
489.13	65.062
489.48	64.893
489.83	65.755
490.17	64.763
490.52	64.039
490.87	65.355
491.22	64.775
491.56	66.084
491.91	66.594
492.26	65.340
492.60	65.632
492.95	66.169
493.30	66.652
493.64	65.309
493.99	64.825
494.34	65.113
494.68	64.968
495.03	66.344
495.37	65.335
495.72	65.397
496.07	66.126
496.41	65.508
496.76	65.138
497.11	65.435
497.45	64.955
497.80	64.549
498.14	65.986
498.49	65.487
498.84	65.082
499.18	65.722
499.53	64.888
499.87	65.978
500.22	65.850
500.56	65.632
500.91	66.407
501.26	65.545
501.60	64.605
501.95	64.742
502.29	65.204
502.64	65.850
502.98	64.409
503.33	64.363
503.67	65.198
504.02	64.405
504.36	66.801
504.71	65.825
505.06	65.257
505.40	64.534
505.75	64.117
506.09	65.838
506.44	65.692
506.78	66.651
507.13	65.191
507.47	65.656
507.82	64.915
508.16	64.818
508.51	65.166
508.85	65.045
509.19	64.946
509.54	66.042
509.88	64.546
510.23	65.420
510.57	67.327
510.92	65.699
511.26	64.165
511.61	64.317
511.95	63.738
512.30	65.583
512.64	65.167
512.98	65.433
513.33	64.617
513.67	65.120
514.02	66.173
514.36	65.729
514.70	65.625
515.05	66.111
515.39	65.302
515.74	66.225
516.08	65.188
516.42	66.562
516.77	66.193
517.11	63.796
517.46	65.536
517.80	64.939
518.14	66.213
518.49	64.805
518.83	64.556
519.17	64.459
519.52	65.199
519.86	65.681
520.20	64.004
520.55	65.608
520.89	66.104
521.23	63.372
521.58	65.028
521.92	65.722
522.26	64.490
522.61	66.898
522.95	65.744
523.29	65.517
523.64	65.078
523.98	65.944
524.32	66.189
524.66	65.623
525.01	63.986
525.35	63.642
525.69	63.283
526.04	63.720
526.38	66.092
526.72	64.648
527.06	66.393
527.41	64.956
527.75	66.924
528.09	65.880
528.43	65.305
528.78	64.913
529.12	64.163
529.46	65.261
529.80	64.760
530.15	64.174
530.49	65.480
530.83	64.345
531.17	65.830
531.51	65.102
531.86	66.106
532.20	66.707
532.54	63.375
532.88	64.545
533.22	64.820
533.57	64.570
533.91	65.264
534.25	63.991
534.59	65.402
534.93	64.799
535.27	64.338
535.62	65.037
535.96	65.311
536.30	65.217
536.64	64.985
536.98	64.145
537.32	66.358
537.66	65.128
538.01	63.927
538.35	65.043
538.69	64.603
539.03	64.991
539.37	64.134
539.71	64.264
540.05	65.348
540.39	65.037
540.73	63.388
541.07	65.665
541.42	63.674
541.76	63.464
542.10	63.571
542.44	63.642
542.78	64.659
543.12	63.945
543.46	64.286
543.80	63.909
544.14	64.333
544.48	65.485
544.82	64.393
545.16	64.520
545.50	63.691
545.84	64.299
546.18	63.889
546.52	64.076
546.86	63.082
547.20	63.868
547.54	63.608
547.88	64.135
548.22	63.860
548.56	64.716
548.90	64.836
549.24	65.106
549.58	64.795
549.92	63.967
550.26	63.689
550.60	62.540
550.94	64.554
551.28	63.762
551.62	65.768
551.96	63.883
552.30	65.838
552.64	64.779
552.98	64.255
553.32	67.010
553.66	66.302
554.00	64.502
554.34	63.449
554.68	64.622
555.02	63.732
555.36	65.943
555.69	63.613
556.03	63.682
556.37	65.081
556.71	63.855
557.05	63.770
557.39	65.561
557.73	63.078
558.07	64.702
558.41	64.850
558.75	64.368
559.08	65.066
559.42	64.266
559.76	64.179
560.10	64.300
560.44	65.040
560.78	65.312
561.12	64.101
561.45	66.423
561.79	65.018
562.13	65.126
562.47	63.933
562.81	64.620
563.15	64.457
563.48	64.574
563.82	65.236
564.16	63.598
564.50	63.945
564.84	62.891
565.17	64.882
565.51	64.614
565.85	64.727
566.19	63.306
566.52	64.775
566.86	65.931
567.20	63.730
567.54	64.631
567.88	65.189
568.21	64.526
568.55	64.365
568.89	64.185
569.23	64.470
569.56	64.517
569.90	64.825
570.24	65.363
570.57	64.400
570.91	63.380
571.25	62.655
571.59	63.763
571.92	63.539
572.26	63.764
572.60	62.981
572.93	62.677
573.27	63.136
573.61	63.446
573.95	63.826
574.28	62.696
574.62	63.552
574.96	62.263
575.29	61.886
575.63	62.740
575.97	63.042
576.30	61.559
576.64	62.968
576.98	62.574
577.31	62.943
577.65	63.310
577.98	62.519
578.32	62.511
578.66	62.401
578.99	61.970
579.33	62.961
579.67	62.375
580.00	62.935
580.34	62.849
580.67	62.224
581.01	62.787
581.35	63.433
581.68	62.893
582.02	63.404
582.35	63.515
582.69	62.932
583.02	63.521
583.36	62.354
583.70	62.577
584.03	61.651
584.37	62.009
584.70	62.592
585.04	62.451
585.37	63.213
585.71	62.956
586.04	63.408
586.38	62.697
586.72	62.447
587.05	63.008
587.39	63.575
587.72	63.325
588.06	62.911
588.39	63.406
588.73	62.222
589.06	63.544
589.40	62.999
589.73	63.464
590.07	63.760
590.40	63.320
590.73	63.167
591.07	64.445
591.40	63.647
591.74	63.076
592.07	63.703
592.41	63.998
592.74	63.898
593.08	64.490
593.41	63.721
593.75	63.908
594.08	63.950
594.41	64.551
594.75	62.770
595.08	63.358
595.42	63.994
595.75	63.255
596.09	64.080
596.42	63.669
596.75	63.373
597.09	64.121
597.42	62.733
597.75	62.877
598.09	62.937
598.42	62.364
598.76	62.629
599.09	64.009
599.42	63.091
599.76	62.694
600.09	62.529
600.42	62.863
600.76	64.135
601.09	62.828
601.42	62.376
601.76	63.207
602.09	62.652
602.42	62.886
602.76	63.764
603.09	64.060
603.42	64.451
603.76	63.319
604.09	64.230
604.42	62.385
604.76	62.595
605.09	63.702
605.42	63.317
605.75	62.885
606.09	62.859
606.42	62.641
606.75	62.556
607.09	62.596
607.42	62.813
607.75	63.619
608.08	63.220
608.42	63.563
608.75	63.350
609.08	63.115
609.41	62.550
609.75	63.750
610.08	65.259
610.41	63.169
610.74	64.202
611.07	63.188
611.41	63.408
611.74	64.203
612.07	64.610
612.40	64.021
612.73	63.667
613.07	63.716
613.40	63.138
613.73	64.372
614.06	63.346
614.39	63.217
614.72	63.076
615.06	62.897
615.39	63.896
615.72	63.365
616.05	63.720
616.38	64.077
616.71	63.741
617.05	63.206
617.38	63.777
617.71	63.229
618.04	63.788
618.37	64.973
618.70	65.554
619.03	65.233
619.36	64.920
619.69	66.047
620.03	65.286
620.36	64.601
620.69	64.713
621.02	65.617
621.35	66.183
621.68	64.425
622.01	64.982
622.34	64.296
622.67	65.498
623.00	64.103
623.33	65.030
623.66	66.342
623.99	64.714
624.32	65.367
624.65	64.157
624.99	66.125
625.32	65.251
625.65	64.801
625.98	64.814
626.31	65.131
626.64	64.908
626.97	65.491
627.30	65.300
627.63	65.191
627.96	64.790
628.29	65.837
628.62	64.568
628.95	65.118
629.28	67.035
629.61	65.825
629.94	65.523
630.26	65.932
630.59	65.285
630.92	65.714
631.25	67.084
631.58	66.761
631.91	65.979
632.24	68.108
632.57	64.896
632.90	65.597
633.23	65.816
633.56	66.122
633.89	65.909
634.22	65.800
634.55	67.328
634.88	65.909
635.20	66.308
635.53	67.684
635.86	66.631
636.19	65.748
636.52	67.932
636.85	66.292
637.18	64.761
637.51	65.806
637.83	67.442
638.16	66.820
638.49	65.141
638.82	66.629
639.15	67.354
639.48	66.397
639.81	65.473
640.13	66.902
640.46	64.848
640.79	65.441
641.12	64.472
641.45	65.245
641.77	67.266
642.10	67.060
642.43	67.686
642.76	68.022
643.09	67.808
643.41	66.947
643.74	67.586
644.07	69.379
644.40	67.893
644.73	68.215
645.05	69.604
645.38	66.619
645.71	67.595
646.04	66.858
646.36	64.964
646.69	68.865
647.02	70.183
647.35	68.092
647.67	71.014
648.00	71.338
648.33	69.369
648.66	68.331
648.98	66.531
649.31	68.065
649.64	66.932
649.96	66.844
650.29	64.812
650.62	65.912
650.94	67.117
651.27	65.419
651.60	66.228
651.92	68.389
652.25	65.991
652.58	67.538
652.90	65.988
653.23	67.887
653.56	66.476
653.88	64.607
654.21	66.620
654.54	66.908
654.86	66.856
655.19	63.488
655.52	61.931
655.84	60.105
656.17	76.385
656.49	100.042
656.82	100.008
657.15	100.000
657.47	73.827
657.80	48.227
658.13	37.919
658.45	49.932
658.78	59.641
659.10	59.087
659.43	59.156
659.75	61.086
660.08	62.633
660.41	64.103
660.73	66.591
661.06	67.548
661.38	65.710
661.71	67.241
662.03	69.841
662.36	67.800
662.68	68.856
663.01	67.611
663.33	68.242
663.66	67.216
663.98	68.462
664.31	70.544
664.63	67.630
664.96	66.062
665.28	64.791
665.61	70.629
665.93	66.786
666.26	68.100
666.58	65.867
666.91	66.729
667.23	68.381
667.56	69.034
667.88	69.600
668.21	66.016
668.53	67.375
668.86	69.352
669.18	71.487
669.50	68.986
669.83	69.600
670.15	67.323
670.48	71.032
670.80	67.686
671.13	65.974
671.45	69.094
671.77	69.680
672.10	66.333
672.42	66.990
672.75	68.510
673.07	67.761
673.39	65.023
673.72	67.953
674.04	66.207
674.37	67.979
674.69	67.549
675.01	68.571
675.34	70.992
675.66	66.667
675.98	67.351
676.31	68.359
676.63	66.540
676.95	65.517
677.28	64.718
677.60	66.535
677.92	68.330
678.25	68.007
678.57	68.683
678.89	65.870
679.22	64.460
679.54	65.641
679.86	64.915
680.18	66.501
680.51	69.340
680.83	67.594
681.15	66.552
681.48	67.530
681.80	67.530
682.12	68.007
682.44	65.275
682.77	66.667
683.09	68.182
683.41	68.798
683.73	67.932
684.06	64.760
684.38	66.726
684.70	67.864
685.02	69.019
685.34	66.556
685.67	65.615
685.99	66.564
686.31	61.337
686.63	64.297
686.96	65.457
687.28	66.612
687.60	65.657
687.92	66.238
688.24	67.613
688.56	64.138
688.89	65.336
689.21	69.472
689.53	67.059
689.85	67.850
690.17	67.963
690.49	67.131
690.82	64.950
691.14	65.789
691.46	66.730
691.78	66.483
692.10	68.073
692.42	66.607
692.74	65.880
693.06	63.704
693.39	68.121
693.71	67.857
694.03	64.312
694.35	66.095
694.67	66.940
694.99	66.809
695.31	67.991
695.63	67.100
695.95	66.667
696.27	65.275
696.59	66.593
696.91	63.964
697.23	66.813
697.56	67.210
697.88	69.508
698.20	69.492
698.52	70.455
698.84	71.933
699.16	70.000
699.48	68.201
699.80	69.149
700.12	67.031
700.44	67.742
700.76	65.558
701.08	70.218
701.40	72.021
701.72	68.408
702.04	69.519
702.36	65.707
702.68	67.237
703.00	64.059
703.32	66.256
703.64	66.993
703.96	66.826
704.28	64.619
704.60	70.127
704.91	67.347
705.23	70.685
705.55	66.574
705.87	70.303
706.19	72.393
706.51	68.675
706.83	72.046
707.15	65.344
707.47	68.224
707.79	67.467
708.11	69.703
708.43	66.237
708.74	67.411
709.06	67.053
709.38	67.136
709.70	67.990
710.02	68.475
710.34	66.223
710.66	67.877
710.98	66.120
711.29	66.484
711.61	72.881
711.93	68.946
712.25	65.946
712.57	74.041
712.89	70.588
713.20	66.568
713.52	67.341
713.84	66.574
714.16	66.053
714.48	67.784
714.80	70.390
715.11	69.554
715.43	67.109
715.75	65.263
716.07	69.061
716.39	65.847
716.70	67.470
717.02	70.164
717.34	67.944
717.66	69.128
717.97	64.384
718.29	72.165
718.61	67.105
718.93	69.256
719.24	70.497
719.56	71.166
719.88	64.565
720.20	72.581
720.51	66.770
720.83	67.813
721.15	66.447
721.46	68.151
721.78	68.333
722.10	68.932
722.42	69.463
722.73	66.129
723.05	72.632
723.37	72.222
723.68	64.875
724.00	74.368
724.32	65.141
724.63	69.580
724.95	71.986
725.27	70.035
725.58	66.784
725.90	77.586
726.22	65.831
726.53	69.481
726.85	72.013
727.16	68.278
727.48	69.419
727.80	70.861
728.11	72.438
728.43	72.054
728.74	66.221
729.06	68.212
729.38	69.156
729.69	70.805
730.01	66.964
730.32	64.242
730.64	67.296
730.96	70.497
731.27	69.274
731.59	67.033
731.90	65.455
732.22	64.323
732.53	70.442
732.85	63.714
733.16	65.982
733.48	69.207
733.80	63.788
734.11	70.655
734.43	66.216
734.74	69.620
735.06	65.075
735.37	70.270
735.69	66.216
736.00	69.774
736.32	66.038
736.63	67.222
736.95	70.690
737.26	72.121
737.58	67.576
737.89	69.412
738.21	67.584
738.52	66.885
738.83	67.235
739.15	71.277
739.46	70.408
739.78	68.712
740.09	65.616
740.41	76.385
740.72	69.000
741.04	63.107
741.35	66.667
741.66	70.588
741.98	70.902
742.29	76.151
742.61	74.561
742.92	64.615
743.23	72.924
743.55	69.380
743.86	68.000
744.18	68.182
744.49	69.198
744.80	72.840
745.12	72.152
745.43	70.325
745.74	72.845
746.06	74.576
746.37	75.105
746.68	72.764
747.00	71.250
747.31	71.245
747.62	73.846
747.94	71.255
748.25	76.305
748.56	67.755
748.88	73.504
749.19	72.414
749.50	73.160
749.82	75.100
750.13	68.327
750.44	67.333
750.75	70.154
751.07	69.538
751.38	69.085
751.69	68.371
752.01	67.638
752.32	69.608
752.63	69.388
752.94	69.204
753.26	70.632
753.57	70.741
753.88	70.787
754.19	64.309
754.51	68.810
754.82	66.238
755.13	67.869
755.44	69.283
755.75	70.395
756.07	66.866
756.38	68.239
756.69	68.675
757.00	60.111
757.31	65.027
757.63	62.404
757.94	63.850
758.25	66.140
758.56	61.656
758.87	61.364
759.18	65.067
759.50	64.306
759.81	69.748
760.12	68.464
760.43	62.760
760.74	68.719
761.05	65.750
761.36	65.301
761.67	70.051
761.99	66.216
762.30	67.378
762.61	64.356
762.92	69.030
763.23	74.532
763.54	65.108
763.85	65.979
764.16	64.983
764.47	70.070
764.78	67.412
765.10	68.622
765.41	65.897
765.72	63.228
766.03	65.254
766.34	66.458
766.65	63.066
766.96	73.705
767.27	76.037
767.58	65.672
767.89	71.154
768.20	64.319
768.51	68.519
768.82	70.683
769.13	69.318
769.44	60.385
769.75	66.426
770.06	68.846
770.37	67.323
770.68	68.085
770.99	64.372
771.30	74.815
771.61	69.202
771.92	71.481
772.23	78.543
772.54	65.741
772.85	76.037
773.16	69.524
773.47	79.894
773.78	70.811
774.09	75.568
774.39	65.000
774.70	71.038
775.01	73.171
775.32	65.882
775.63	68.098
775.94	70.701
776.25	74.839
776.56	76.923
776.87	72.109
777.18	75.862
777.48	68.531
777.79	68.919
778.10	72.059
778.41	72.917
778.72	66.897
779.03	68.519
779.34	70.303
779.65	70.984
779.95	68.333
780.26	71.591
780.57	72.258
780.88	81.884
781.19	68.387
781.50	72.941
781.80	68.817
782.11	67.196
782.42	59.596
782.73	66.467
783.04	69.274
783.34	71.515
783.65	63.399
783.96	68.944
784.27	65.476
784.57	70.861
784.88	78.571
785.19	71.654
785.50	77.165
785.81	78.947
786.11	84.615
786.42	69.065
786.73	70.504
787.04	81.203
787.34	77.049
787.65	77.600
787.96	75.373
788.26	85.315
788.57	76.923
788.88	68.421
789.19	80.392
789.49	71.233
789.80	73.050
790.11	76.378
790.41	67.969
790.72	72.034
791.03	67.961
791.33	73.913
791.64	74.561
791.95	69.643
792.25	75.238
792.56	75.000
792.87	71.875
793.17	70.536
793.48	70.833
793.79	80.723
794.09	62.385
794.40	88.991
794.70	70.068
795.01	68.182
795.32	70.548
795.62	66.901
795.93	68.182
796.23	70.492
796.54	69.643
796.85	79.787
797.15	72.826
797.46	83.562
797.76	68.750
798.07	73.913
798.37	61.856
798.68	88.312
798.99	66.667
799.29	65.169
799.60	70.213
799.90	81.928
800.21	75.385
800.51	92.537
800.82	86.765
801.12	73.973
801.43	80.882
801.73	83.051
802.04	87.879
802.34	85.000
802.65	96.610
802.95	79.104
803.26	71.186
803.56	84.932
803.87	80.000
804.17	79.452
804.48	75.439
804.78	86.111
805.09	82.759
805.39	81.081
805.70	63.380
806.00	74.390
806.30	69.880
806.61	86.301
806.91	63.462
807.22	86.667
807.52	68.966
807.83	97.222
808.13	80.723
808.43	73.034
808.74	83.750
809.04	76.471
809.35	78.667
809.65	65.714
809.95	68.493
810.26	71.930
810.56	96.552
810.86	86.765
811.17	80.702
811.47	75.410
811.77	88.889
812.08	79.661
812.38	93.333
812.69	75.862
812.99	75.472
813.29	100.000
813.59	86.000
813.90	82.456
814.20	83.636
814.50	84.507
814.81	82.051
815.11	86.885
815.41	79.104
815.72	98.276
816.02	92.857
816.32	108.889
816.62	120.455
816.93	102.222
817.23	96.296
817.53	76.596
817.84	121.429
818.14	141.176
818.44	91.837
818.74	86.667
819.04	82.051
819.35	120.000
819.65	103.846
819.95	83.019
820.25	100.000
820.56	61.905
820.86	121.875
821.16	120.513
821.46	90.698
821.76	86.000
822.07	83.929
822.37	100.000
822.67	78.723
822.97	56.757
823.27	107.500
823.57	104.082
823.88	104.444
824.18	107.500
824.48	130.000
824.78	172.000
825.08	130.303
825.38	86.667
825.69	89.362
825.99	127.778
826.29	102.857
826.59	100.000
826.89	97.674
827.19	78.000
827.49	108.824
827.79	87.500
828.09	97.297
828.39	106.667
828.70	68.293
829.00	67.442
829.30	110.714
829.60	114.706
829.90	115.217
830.20	111.429
830.50	127.586
830.80	161.111
831.10	123.077
831.40	117.647
831.70	152.381
832.00	129.032
832.30	129.412
832.60	129.167
832.90	115.385
833.20	110.526
833.50	130.000
833.80	110.526
834.10	104.762
834.40	102.778
834.70	112.500
835.00	40.000
835.30	76.471
835.60	76.667
835.90	112.000
836.20	63.636
836.50	116.000
836.80	69.697
837.10	125.926
837.40	118.519
837.70	112.500
838.00	96.429
838.30	95.652
838.60	113.793
838.90	235.714
839.19	65.217
839.49	150.000
839.79	108.696
840.09	81.250
840.39	145.000
840.69	70.968
840.99	57.143
841.29	146.667
841.59	157.895
841.88	110.256
842.18	69.231
842.48	200.000
842.78	180.000
843.08	100.000
843.38	109.677
843.68	61.111
843.97	82.353
844.27	143.750
844.57	115.789
844.87	250.000
845.17	146.667
845.47	157.143
845.76	119.048
846.06	277.778
846.36	200.000
846.66	84.615
846.96	140.000
847.25	100.000
847.55	78.261
847.85	65.000
848.15	111.765
848.44	200.000
848.74	138.095
849.04	141.667
849.34	100.000
849.63	108.696
849.93	-850.000
850.23	200.000
850.53	126.923
850.82	190.909
851.12	145.455
851.42	209.091
851.71	169.231
852.01	140.000
852.31	207.692
852.61	126.316
852.90	275.000
853.20	155.556
853.50	33.333
853.79	109.524
854.09	118.182
854.39	166.667
854.68	106.452
854.98	92.308
855.28	161.111
855.57	89.286
855.87	92.000
856.17	113.636
856.46	103.704
856.76	105.556
857.05	130.435
857.35	100.000
857.65	176.923
857.94	152.381
858.24	107.407
858.53	134.783
858.83	176.471
859.13	200.000
859.42	141.176
859.72	142.857
860.01	115.000
860.31	177.778
860.60	180.000
860.90	133.333
861.20	116.667
861.49	184.615
861.79	70.000
862.08	84.615
862.38	71.875
862.67	152.941
862.97	181.250
863.26	255.556
863.56	350.000
863.85	163.636
864.15	161.111
864.44	933.333
864.74	157.143
865.03	125.000
865.33	110.000
865.62	64.516
865.92	159.091
866.21	139.130
866.51	164.286
866.80	260.000
867.10	141.667
867.39	25.000
867.69	-1200.000
867.98	214.286
868.27	182.353
868.57	1400.000
868.86	180.000
869.16	85.714
869.45	100.000
869.75	200.000
870.04	457.143
870.33	200.000
870.63	171.429
870.92	675.000
871.22	50.000
871.51	163.636
871.80	733.333
872.10	1050.000
>>>>>End Processed Spectral Data<<<<<
