SpectraSuite Data File
++++++++++++++++++++++++++++++++++++
Date: Thu May 14 14:41:58 PDT 2015
User: schluterlab
Dark Spectrum Present: Yes
Reference Spectrum Present: Yes
Number of Sampled Component Spectra: 1
Spectrometers: USB2E3373
Integration Time (usec): 3000 (USB2E3373)
Spectra Averaged: 3 (USB2E3373)
Boxcar Smoothing: 0 (USB2E3373)
Correct for Electrical Dark: No (USB2E3373)
Strobe/Lamp Enabled: No (USB2E3373)
Correct for Detector Non-linearity: No (USB2E3373)
Correct for Stray Light: No (USB2E3373)
Number of Pixels in Processed Spectrum: 2048
>>>>>Begin Processed Spectral Data<<<<<
178.53	0.000
178.91	-0.000
179.29	200.000
179.67	400.000
180.04	92.857
180.42	-20.000
180.80	-40.000
181.18	1100.000
181.56	400.000
181.94	-25.000
182.31	75.000
182.69	-266.667
183.07	150.000
183.45	75.000
183.83	100.000
184.20	166.667
184.58	600.000
184.96	-100.000
185.34	44.444
185.72	300.000
186.09	144.444
186.47	-100.000
186.85	120.000
187.23	-22.222
187.61	-400.000
187.98	-180.000
188.36	-50.000
188.74	175.000
189.12	733.333
189.49	106.250
189.87	-25.000
190.25	88.889
190.63	60.000
191.00	33.333
191.38	0.000
191.76	150.000
192.14	116.667
192.51	-400.000
192.89	150.000
193.27	0.000
193.65	128.571
194.02	-200.000
194.40	57.143
194.78	-14.286
195.15	0.000
195.53	63.636
195.91	0.000
196.29	125.000
196.66	53.846
197.04	-300.000
197.42	85.714
197.79	100.000
198.17	37.500
198.55	142.857
198.92	100.000
199.30	137.500
199.68	172.727
200.05	100.000
200.43	100.000
200.81	-14.286
201.18	0.000
201.56	88.889
201.94	0.000
202.31	100.000
202.69	11.111
203.07	-700.000
203.44	77.778
203.82	125.000
204.19	91.667
204.57	116.667
204.95	75.000
205.32	800.000
205.70	-225.000
206.08	83.333
206.45	-33.333
206.83	-20.000
207.20	333.333
207.58	80.000
207.96	-150.000
208.33	0.000
208.71	-16.667
209.08	133.333
209.46	0.000
209.84	216.667
210.21	-400.000
210.59	-100.000
210.96	266.667
211.34	275.000
211.71	-25.000
212.09	-100.000
212.46	0.000
212.84	450.000
213.22	20.000
213.59	-150.000
213.97	80.000
214.34	-100.000
214.72	-116.667
215.09	300.000
215.47	0.000
215.84	-171.429
216.22	300.000
216.59	100.000
216.97	20.000
217.34	175.000
217.72	125.000
218.09	0.000
218.47	200.000
218.84	0.000
219.22	-100.000
219.59	41.176
219.97	90.000
220.34	100.000
220.72	0.000
221.09	92.308
221.47	466.667
221.84	190.000
222.22	-71.429
222.59	0.000
222.97	137.500
223.34	20.000
223.72	800.000
224.09	450.000
224.46	-75.000
224.84	280.000
225.21	114.286
225.59	75.000
225.96	75.000
226.34	30.769
226.71	-100.000
227.08	550.000
227.46	20.000
227.83	25.000
228.21	31.579
228.58	-100.000
228.95	-150.000
229.33	100.000
229.70	50.000
230.08	131.579
230.45	-20.000
230.82	400.000
231.20	28.571
231.57	133.333
231.95	100.000
232.32	172.727
232.69	115.000
233.07	200.000
233.44	52.941
233.81	0.000
234.19	122.222
234.56	95.455
234.93	82.759
235.31	78.947
235.68	100.000
236.05	25.000
236.43	84.615
236.80	64.000
237.17	51.852
237.55	39.394
237.92	80.000
238.29	64.516
238.67	68.182
239.04	38.889
239.41	52.381
239.79	43.478
240.16	46.296
240.53	58.696
240.91	43.137
241.28	50.820
241.65	59.701
242.02	52.703
242.40	53.846
242.77	37.333
243.14	41.463
243.51	38.158
243.89	47.436
244.26	55.446
244.63	47.059
245.00	42.056
245.38	45.614
245.75	41.593
246.12	39.683
246.49	39.535
246.87	45.000
247.24	42.384
247.61	45.395
247.98	48.322
248.36	42.593
248.73	44.172
249.10	41.530
249.47	45.771
249.84	44.503
250.22	41.969
250.59	43.889
250.96	47.273
251.33	40.306
251.70	35.897
252.08	35.833
252.45	45.492
252.82	40.909
253.19	41.016
253.56	44.487
253.94	38.077
254.31	43.182
254.68	40.909
255.05	37.785
255.42	40.136
255.79	37.864
256.16	44.371
256.54	38.411
256.91	41.639
257.28	43.279
257.65	36.624
258.02	35.693
258.39	39.031
258.76	46.483
259.14	45.690
259.51	42.651
259.88	41.643
260.25	36.667
260.62	41.370
260.99	40.984
261.36	43.968
261.73	42.706
262.10	45.604
262.47	43.700
262.85	44.697
263.22	38.701
263.59	37.105
263.96	43.478
264.33	41.944
264.70	42.469
265.07	42.482
265.44	41.043
265.81	39.352
266.18	41.497
266.55	41.964
266.92	38.952
267.29	40.700
267.66	43.902
268.03	42.358
268.40	39.875
268.77	40.091
269.14	38.987
269.51	41.228
269.88	43.033
270.25	40.040
270.62	42.405
270.99	41.212
271.36	39.802
271.73	41.257
272.10	41.483
272.47	41.884
272.84	39.960
273.21	40.080
273.58	39.516
273.95	37.692
274.32	39.734
274.69	39.265
275.06	40.293
275.43	38.078
275.80	40.564
276.17	39.444
276.54	38.060
276.91	38.819
277.28	39.241
277.65	39.856
278.02	39.706
278.39	39.493
278.76	38.137
279.13	39.362
279.50	41.065
279.87	39.893
280.23	36.092
280.60	38.475
280.97	39.145
281.34	38.200
281.71	38.409
282.08	38.040
282.45	38.298
282.82	37.677
283.19	36.349
283.56	37.705
283.92	36.787
284.29	36.967
284.66	39.080
285.03	34.936
285.40	37.867
285.77	36.687
286.14	37.557
286.51	37.139
286.87	38.389
287.24	38.705
287.61	38.266
287.98	35.045
288.35	36.834
288.72	36.095
289.08	33.821
289.45	34.024
289.82	36.446
290.19	36.063
290.56	35.211
290.93	35.521
291.29	33.747
291.66	36.226
292.03	32.700
292.40	35.510
292.77	32.075
293.13	32.206
293.50	32.457
293.87	31.409
294.24	33.867
294.60	33.123
294.97	31.544
295.34	32.138
295.71	30.517
296.08	30.491
296.44	30.515
296.81	30.938
297.18	29.888
297.55	30.660
297.91	29.419
298.28	30.213
298.65	28.656
299.02	28.217
299.38	28.947
299.75	29.089
300.12	28.588
300.48	30.415
300.85	28.121
301.22	28.523
301.59	28.425
301.95	28.588
302.32	27.667
302.69	28.039
303.05	27.530
303.42	27.605
303.79	28.333
304.15	27.760
304.52	27.590
304.89	28.377
305.25	26.294
305.62	29.049
305.99	27.835
306.35	26.714
306.72	26.991
307.09	26.396
307.45	26.190
307.82	27.952
308.19	28.254
308.55	27.772
308.92	26.095
309.29	26.149
309.65	27.096
310.02	26.436
310.38	24.705
310.75	27.670
311.12	25.983
311.48	26.784
311.85	26.211
312.22	27.609
312.58	26.103
312.95	24.092
313.31	27.100
313.68	27.106
314.05	27.100
314.41	25.774
314.78	24.796
315.14	26.134
315.51	25.762
315.87	27.363
316.24	25.753
316.61	25.933
316.97	25.792
317.34	25.926
317.70	26.376
318.07	26.367
318.43	25.595
318.80	26.421
319.16	26.438
319.53	23.822
319.89	23.663
320.26	25.623
320.62	24.823
320.99	25.485
321.35	26.525
321.72	26.698
322.08	24.527
322.45	25.926
322.81	25.903
323.18	24.336
323.54	24.655
323.91	25.178
324.27	25.043
324.64	25.945
325.00	24.295
325.37	24.488
325.73	25.950
326.10	25.872
326.46	26.059
326.83	25.861
327.19	25.276
327.56	26.561
327.92	25.334
328.29	24.597
328.65	25.126
329.01	25.719
329.38	25.442
329.74	25.942
330.11	25.257
330.47	24.431
330.84	24.978
331.20	25.833
331.56	25.043
331.93	26.025
332.29	25.085
332.66	25.664
333.02	24.204
333.38	25.252
333.75	25.758
334.11	23.937
334.48	25.495
334.84	24.894
335.20	24.181
335.57	24.621
335.93	24.793
336.29	23.877
336.66	25.315
337.02	24.080
337.38	24.490
337.75	24.380
338.11	23.886
338.47	24.235
338.84	23.773
339.20	24.094
339.56	24.465
339.93	24.466
340.29	23.188
340.65	24.169
341.02	24.661
341.38	24.252
341.74	25.182
342.11	23.813
342.47	23.828
342.83	24.155
343.20	24.857
343.56	23.737
343.92	24.339
344.28	24.453
344.65	24.419
345.01	24.961
345.37	24.806
345.73	22.292
346.10	24.259
346.46	24.842
346.82	23.745
347.19	24.446
347.55	24.507
347.91	23.180
348.27	23.141
348.63	24.067
349.00	23.192
349.36	24.089
349.72	23.958
350.08	23.180
350.45	23.574
350.81	22.851
351.17	24.737
351.53	25.019
351.89	23.614
352.26	23.955
352.62	23.731
352.98	23.893
353.34	23.077
353.70	23.421
354.07	23.770
354.43	23.994
354.79	23.560
355.15	23.326
355.51	24.342
355.87	23.037
356.24	24.335
356.60	23.208
356.96	24.240
357.32	23.420
357.68	22.987
358.04	23.204
358.40	22.537
358.77	23.904
359.13	22.600
359.49	23.197
359.85	23.568
360.21	23.816
360.57	22.469
360.93	23.343
361.29	23.579
361.66	22.230
362.02	23.521
362.38	22.417
362.74	22.696
363.10	22.696
363.46	22.784
363.82	22.798
364.18	23.153
364.54	22.337
364.90	23.746
365.26	22.414
365.62	23.533
365.98	23.826
366.35	22.685
366.71	23.469
367.07	22.192
367.43	22.850
367.79	22.628
368.15	22.943
368.51	22.260
368.87	22.600
369.23	21.667
369.59	23.907
369.95	22.245
370.31	23.363
370.67	22.558
371.03	22.161
371.39	21.692
371.75	22.558
372.11	22.764
372.47	23.087
372.83	23.429
373.19	21.881
373.55	22.425
373.91	22.018
374.27	21.863
374.63	21.922
374.99	22.215
375.35	22.857
375.71	22.000
376.07	22.143
376.42	22.166
376.78	23.306
377.14	22.271
377.50	22.138
377.86	22.845
378.22	22.455
378.58	22.592
378.94	22.770
379.30	21.675
379.66	22.281
380.02	22.274
380.38	22.235
380.74	22.141
381.09	22.416
381.45	22.500
381.81	23.185
382.17	22.268
382.53	22.515
382.89	21.896
383.25	22.274
383.61	21.644
383.97	21.849
384.32	22.428
384.68	21.636
385.04	22.325
385.40	22.510
385.76	22.743
386.12	22.861
386.48	22.412
386.83	23.182
387.19	22.248
387.55	22.007
387.91	22.032
388.27	22.691
388.62	21.993
388.98	22.561
389.34	22.687
389.70	21.964
390.06	21.906
390.42	22.229
390.77	22.938
391.13	22.124
391.49	22.524
391.85	22.182
392.20	22.242
392.56	22.504
392.92	22.846
393.28	22.775
393.64	22.905
393.99	23.010
394.35	22.664
394.71	22.335
395.07	21.976
395.42	21.816
395.78	22.852
396.14	22.698
396.50	22.565
396.85	22.600
397.21	21.893
397.57	22.026
397.92	22.967
398.28	21.782
398.64	21.453
399.00	22.408
399.35	21.885
399.71	22.228
400.07	21.505
400.42	22.061
400.78	22.280
401.14	22.197
401.49	22.285
401.85	22.849
402.21	22.596
402.57	23.005
402.92	22.400
403.28	21.663
403.63	21.957
403.99	22.209
404.35	23.081
404.70	22.663
405.06	21.739
405.42	22.658
405.77	22.737
406.13	22.366
406.49	22.072
406.84	22.105
407.20	21.968
407.55	22.290
407.91	21.936
408.27	22.026
408.62	23.095
408.98	22.925
409.34	22.053
409.69	22.311
410.05	22.743
410.40	22.680
410.76	21.761
411.11	22.794
411.47	22.727
411.83	23.163
412.18	21.988
412.54	22.407
412.89	22.235
413.25	22.686
413.60	22.286
413.96	22.261
414.31	22.210
414.67	21.765
415.03	22.215
415.38	22.762
415.74	21.564
416.09	22.702
416.45	21.478
416.80	22.338
417.16	22.031
417.51	22.416
417.87	22.318
418.22	22.335
418.58	22.491
418.93	22.526
419.29	22.318
419.64	22.089
420.00	22.611
420.35	22.347
420.71	22.171
421.06	22.312
421.42	21.904
421.77	22.132
422.12	22.780
422.48	21.966
422.83	23.056
423.19	21.220
423.54	21.239
423.90	21.756
424.25	22.773
424.61	22.044
424.96	21.856
425.31	22.771
425.67	21.900
426.02	21.915
426.38	22.905
426.73	23.103
427.09	23.299
427.44	21.518
427.79	22.222
428.15	21.233
428.50	22.472
428.85	22.158
429.21	22.553
429.56	22.507
429.92	21.523
430.27	23.084
430.62	22.081
430.98	21.741
431.33	21.701
431.68	21.743
432.04	22.346
432.39	22.175
432.74	22.032
433.10	22.823
433.45	21.906
433.80	21.674
434.16	22.107
434.51	22.405
434.86	22.693
435.22	23.220
435.57	22.347
435.92	23.261
436.28	22.867
436.63	22.665
436.98	22.437
437.34	22.886
437.69	21.849
438.04	21.840
438.39	22.286
438.75	22.191
439.10	23.097
439.45	22.303
439.81	21.977
440.16	22.091
440.51	22.575
440.86	20.734
441.22	21.651
441.57	22.117
441.92	22.163
442.27	22.374
442.63	21.560
442.98	22.038
443.33	21.568
443.68	22.250
444.03	22.954
444.39	21.822
444.74	23.226
445.09	22.200
445.44	21.970
445.79	22.222
446.15	22.456
446.50	22.739
446.85	23.006
447.20	22.679
447.55	23.013
447.91	22.565
448.26	22.199
448.61	22.051
448.96	22.639
449.31	21.898
449.66	22.222
450.02	22.627
450.37	22.696
450.72	21.851
451.07	22.950
451.42	23.108
451.77	22.679
452.12	22.686
452.47	22.579
452.83	23.142
453.18	22.067
453.53	23.033
453.88	22.032
454.23	21.921
454.58	23.215
454.93	22.633
455.28	22.818
455.63	21.944
455.98	22.793
456.34	22.556
456.69	22.340
457.04	22.577
457.39	22.783
457.74	23.322
458.09	23.284
458.44	24.084
458.79	21.558
459.14	23.230
459.49	22.977
459.84	23.295
460.19	22.210
460.54	23.282
460.89	23.081
461.24	22.644
461.59	23.520
461.94	23.046
462.29	23.292
462.64	22.450
462.99	22.976
463.34	22.842
463.69	22.978
464.04	23.457
464.39	23.374
464.74	22.805
465.09	22.607
465.44	22.747
465.79	23.691
466.14	23.189
466.49	23.368
466.84	22.590
467.19	23.179
467.54	22.973
467.89	21.954
468.24	23.380
468.59	22.814
468.94	22.611
469.29	23.935
469.64	22.823
469.99	23.327
470.34	22.834
470.68	23.308
471.03	23.641
471.38	23.349
471.73	23.212
472.08	23.858
472.43	23.359
472.78	24.055
473.13	23.641
473.48	23.746
473.83	23.680
474.17	24.209
474.52	23.391
474.87	22.924
475.22	23.887
475.57	23.105
475.92	22.897
476.27	22.843
476.61	23.001
476.96	22.888
477.31	23.168
477.66	24.187
478.01	22.623
478.36	23.380
478.70	23.498
479.05	23.415
479.40	23.346
479.75	23.439
480.10	23.259
480.45	23.473
480.79	23.855
481.14	22.702
481.49	22.899
481.84	23.064
482.19	23.355
482.53	23.524
482.88	24.324
483.23	23.610
483.58	23.406
483.92	23.271
484.27	23.751
484.62	22.607
484.97	23.484
485.31	22.668
485.66	22.009
486.01	21.902
486.36	22.118
486.70	22.848
487.05	22.979
487.40	22.429
487.75	22.443
488.09	22.119
488.44	22.041
488.79	22.698
489.13	22.810
489.48	22.641
489.83	22.736
490.17	23.248
490.52	22.947
490.87	22.547
491.22	22.487
491.56	23.763
491.91	24.509
492.26	23.540
492.60	23.262
492.95	23.914
493.30	23.263
493.64	23.565
493.99	23.904
494.34	23.432
494.68	23.812
495.03	23.568
495.37	24.811
495.72	24.626
496.07	23.313
496.41	23.466
496.76	24.520
497.11	24.374
497.45	23.997
497.80	23.723
498.14	24.490
498.49	24.586
498.84	23.857
499.18	23.572
499.53	24.170
499.87	24.440
500.22	23.330
500.56	23.527
500.91	23.890
501.26	24.773
501.60	23.951
501.95	24.577
502.29	24.177
502.64	24.530
502.98	23.727
503.33	22.937
503.67	23.201
504.02	24.256
504.36	24.173
504.71	24.162
505.06	24.011
505.40	23.995
505.75	23.998
506.09	24.355
506.44	25.070
506.78	24.495
507.13	24.205
507.47	24.396
507.82	24.242
508.16	24.426
508.51	24.707
508.85	24.280
509.19	25.012
509.54	25.120
509.88	24.284
510.23	25.741
510.57	25.423
510.92	25.448
511.26	24.435
511.61	24.626
511.95	24.841
512.30	25.357
512.64	24.238
512.98	23.712
513.33	25.050
513.67	24.834
514.02	24.885
514.36	25.422
514.70	24.948
515.05	25.182
515.39	24.934
515.74	25.716
516.08	24.881
516.42	25.798
516.77	25.026
517.11	25.322
517.46	25.451
517.80	25.975
518.14	24.918
518.49	25.813
518.83	25.013
519.17	25.633
519.52	25.943
519.86	25.660
520.20	25.825
520.55	25.082
520.89	25.394
521.23	25.349
521.58	26.271
521.92	26.176
522.26	25.830
522.61	26.157
522.95	25.606
523.29	26.264
523.64	25.897
523.98	26.184
524.32	26.533
524.66	26.238
525.01	25.198
525.35	24.871
525.69	25.406
526.04	26.406
526.38	25.402
526.72	26.067
527.06	25.865
527.41	26.006
527.75	26.663
528.09	26.269
528.43	26.465
528.78	25.491
529.12	25.745
529.46	25.913
529.80	25.915
530.15	26.667
530.49	25.623
530.83	26.446
531.17	26.165
531.51	26.895
531.86	26.442
532.20	27.134
532.54	26.152
532.88	25.879
533.22	26.164
533.57	26.197
533.91	25.926
534.25	26.230
534.59	26.149
534.93	25.354
535.27	25.014
535.62	25.640
535.96	26.438
536.30	25.911
536.64	25.586
536.98	26.445
537.32	25.988
537.66	26.388
538.01	26.042
538.35	25.213
538.69	26.022
539.03	26.548
539.37	26.031
539.71	25.586
540.05	26.379
540.39	25.550
540.73	25.379
541.07	26.364
541.42	25.103
541.76	25.386
542.10	25.754
542.44	25.457
542.78	27.007
543.12	25.566
543.46	24.908
543.80	25.420
544.14	26.272
544.48	26.064
544.82	25.913
545.16	25.880
545.50	25.404
545.84	26.026
546.18	26.481
546.52	24.904
546.86	25.535
547.20	26.018
547.54	26.467
547.88	25.316
548.22	25.029
548.56	26.507
548.90	25.612
549.24	26.261
549.58	26.814
549.92	26.531
550.26	27.443
550.60	26.101
550.94	25.550
551.28	25.677
551.62	26.348
551.96	25.372
552.30	26.259
552.64	26.322
552.98	25.889
553.32	25.659
553.66	26.109
554.00	26.166
554.34	26.641
554.68	25.759
555.02	26.018
555.36	26.759
555.69	26.009
556.03	25.851
556.37	26.220
556.71	26.569
557.05	26.773
557.39	26.941
557.73	26.486
558.07	26.026
558.41	25.847
558.75	26.302
559.08	26.444
559.42	26.337
559.76	26.187
560.10	26.725
560.44	26.517
560.78	26.500
561.12	26.724
561.45	26.277
561.79	26.007
562.13	25.878
562.47	25.339
562.81	25.696
563.15	26.136
563.48	25.606
563.82	25.453
564.16	25.924
564.50	25.924
564.84	25.546
565.17	26.176
565.51	24.914
565.85	25.297
566.19	25.576
566.52	25.102
566.86	25.920
567.20	24.850
567.54	24.642
567.88	25.688
568.21	25.346
568.55	24.796
568.89	25.057
569.23	25.222
569.56	24.502
569.90	24.412
570.24	24.654
570.57	23.637
570.91	23.393
571.25	23.749
571.59	23.490
571.92	23.294
572.26	23.187
572.60	23.560
572.93	23.407
573.27	23.124
573.61	22.896
573.95	23.428
574.28	22.541
574.62	22.397
574.96	22.739
575.29	22.516
575.63	22.823
575.97	22.611
576.30	22.749
576.64	22.763
576.98	22.688
577.31	22.624
577.65	22.720
577.98	22.703
578.32	22.173
578.66	22.069
578.99	22.670
579.33	22.277
579.67	21.940
580.00	22.117
580.34	22.557
580.67	22.595
581.01	22.393
581.35	22.190
581.68	22.130
582.02	22.524
582.35	23.019
582.69	22.819
583.02	22.388
583.36	22.366
583.70	21.972
584.03	21.982
584.37	22.093
584.70	22.543
585.04	21.972
585.37	22.802
585.71	22.524
586.04	22.061
586.38	22.447
586.72	22.437
587.05	22.359
587.39	22.862
587.72	23.206
588.06	22.897
588.39	22.828
588.73	22.328
589.06	22.856
589.40	23.448
589.73	22.879
590.07	23.342
590.40	23.834
590.73	22.694
591.07	23.716
591.40	23.756
591.74	23.887
592.07	23.224
592.41	23.265
592.74	23.074
593.08	23.312
593.41	23.330
593.75	22.615
594.08	23.266
594.41	23.077
594.75	22.982
595.08	23.116
595.42	23.019
595.75	23.119
596.09	23.653
596.42	22.537
596.75	23.234
597.09	23.677
597.42	23.560
597.75	23.246
598.09	23.810
598.42	24.085
598.76	23.194
599.09	23.318
599.42	23.031
599.76	23.638
600.09	23.524
600.42	22.456
600.76	23.052
601.09	23.598
601.42	23.241
601.76	23.310
602.09	23.517
602.42	22.901
602.76	23.542
603.09	22.540
603.42	23.555
603.76	22.727
604.09	24.060
604.42	23.339
604.76	22.869
605.09	23.335
605.42	23.405
605.75	23.385
606.09	22.994
606.42	23.130
606.75	22.976
607.09	23.080
607.42	23.044
607.75	24.072
608.08	23.165
608.42	22.773
608.75	23.507
609.08	23.387
609.41	23.467
609.75	23.170
610.08	24.274
610.41	24.087
610.74	23.908
611.07	24.156
611.41	24.126
611.74	24.249
612.07	24.077
612.40	23.527
612.73	23.961
613.07	23.667
613.40	23.628
613.73	23.881
614.06	24.092
614.39	24.198
614.72	23.823
615.06	23.436
615.39	24.166
615.72	24.313
616.05	24.235
616.38	24.420
616.71	23.824
617.05	24.334
617.38	24.612
617.71	24.298
618.04	24.447
618.37	25.246
618.70	24.717
619.03	23.297
619.36	24.106
619.69	25.304
620.03	25.235
620.36	24.049
620.69	24.553
621.02	25.066
621.35	25.689
621.68	25.886
622.01	26.833
622.34	25.732
622.67	25.430
623.00	24.494
623.33	25.680
623.66	25.551
623.99	24.556
624.32	26.381
624.65	24.131
624.99	25.618
625.32	25.800
625.65	25.219
625.98	25.220
626.31	26.577
626.64	26.154
626.97	25.131
627.30	25.133
627.63	25.281
627.96	26.502
628.29	25.914
628.62	26.029
628.95	27.344
629.28	25.998
629.61	26.094
629.94	25.272
630.26	26.525
630.59	25.475
630.92	26.061
631.25	27.370
631.58	26.271
631.91	26.710
632.24	27.378
632.57	25.806
632.90	26.179
633.23	27.347
633.56	27.041
633.89	26.550
634.22	28.690
634.55	27.140
634.88	27.922
635.20	29.279
635.53	29.718
635.86	27.194
636.19	28.844
636.52	27.954
636.85	27.068
637.18	27.547
637.51	27.097
637.83	27.796
638.16	28.226
638.49	27.230
638.82	26.607
639.15	27.377
639.48	28.637
639.81	28.291
640.13	29.093
640.46	26.545
640.79	28.309
641.12	29.317
641.45	29.486
641.77	30.039
642.10	28.346
642.43	30.851
642.76	28.184
643.09	29.452
643.41	27.591
643.74	29.103
644.07	31.034
644.40	28.289
644.73	29.318
645.05	29.222
645.38	28.489
645.71	28.446
646.04	32.712
646.36	27.737
646.69	30.521
647.02	30.734
647.35	30.076
647.67	29.308
648.00	28.981
648.33	32.583
648.66	28.388
648.98	28.027
649.31	30.041
649.64	28.021
649.96	29.178
650.29	28.234
650.62	29.986
650.94	26.727
651.27	28.293
651.60	28.801
651.92	27.052
652.25	28.799
652.58	29.298
652.90	28.198
653.23	30.282
653.56	27.247
653.88	29.354
654.21	26.901
654.54	30.202
654.86	28.895
655.19	26.474
655.52	25.938
655.84	22.248
656.17	27.348
656.49	37.849
656.82	40.477
657.15	30.385
657.47	22.365
657.80	15.946
658.13	12.221
658.45	16.235
658.78	19.066
659.10	18.618
659.43	19.001
659.75	18.849
660.08	19.496
660.41	22.167
660.73	24.287
661.06	25.257
661.38	26.954
661.71	30.000
662.03	28.219
662.36	32.200
662.68	30.582
663.01	31.858
663.33	31.758
663.66	30.220
663.98	30.385
664.31	31.520
664.63	29.480
664.96	30.309
665.28	29.946
665.61	30.420
665.93	28.929
666.26	30.466
666.58	28.229
666.91	32.336
667.23	30.095
667.56	31.164
667.88	34.800
668.21	31.055
668.53	27.027
668.86	29.666
669.18	30.550
669.50	32.207
669.83	28.400
670.15	29.134
670.48	31.548
670.80	27.725
671.13	26.087
671.45	30.512
671.77	32.203
672.10	27.500
672.42	26.375
672.75	28.571
673.07	28.507
673.39	25.732
673.72	29.362
674.04	28.621
674.37	28.980
674.69	30.864
675.01	29.714
675.34	29.008
675.66	28.277
675.98	32.276
676.31	30.469
676.63	30.989
676.95	32.567
677.28	31.653
677.60	28.150
677.92	28.983
678.25	28.885
678.57	28.470
678.89	29.181
679.22	26.481
679.54	26.496
679.86	26.949
680.18	26.534
680.51	27.201
680.83	28.314
681.15	27.414
681.48	31.088
681.80	28.670
682.12	27.797
682.44	27.880
682.77	29.965
683.09	28.977
683.41	31.977
683.73	29.032
684.06	28.044
684.38	26.834
684.70	28.366
685.02	28.916
685.34	26.123
685.67	28.233
685.99	27.454
686.31	27.035
686.63	26.382
686.96	27.287
687.28	27.036
687.60	28.114
687.92	24.277
688.24	25.876
688.56	26.379
688.89	27.223
689.21	28.963
689.53	27.647
689.85	26.430
690.17	28.333
690.49	28.088
690.82	29.505
691.14	27.935
691.46	26.960
691.78	30.939
692.10	28.257
692.42	25.357
692.74	28.131
693.06	27.222
693.39	27.894
693.71	28.571
694.03	28.253
694.35	27.048
694.67	29.158
694.99	27.021
695.31	29.139
695.63	29.221
695.95	27.950
696.27	27.692
696.59	31.858
696.91	28.153
697.23	29.451
697.56	26.884
697.88	25.947
698.20	30.508
698.52	30.492
698.84	29.314
699.16	31.020
699.48	27.615
699.80	29.149
700.12	31.659
700.44	27.880
700.76	30.404
701.08	31.477
701.40	31.088
701.72	29.353
702.04	33.422
702.36	29.058
702.68	29.584
703.00	30.073
703.32	28.079
703.64	30.807
703.96	29.356
704.28	30.467
704.60	31.646
704.91	27.806
705.23	28.767
705.55	28.969
705.87	28.182
706.19	29.448
706.51	26.807
706.83	33.141
707.15	28.307
707.47	24.766
707.79	25.109
708.11	25.424
708.43	27.527
708.74	26.562
709.06	27.610
709.38	29.108
709.70	31.762
710.02	31.008
710.34	30.851
710.66	26.257
710.98	26.776
711.29	27.747
711.61	30.791
711.93	28.490
712.25	26.216
712.57	31.268
712.89	32.647
713.20	30.178
713.52	31.792
713.84	30.919
714.16	27.632
714.48	30.412
714.80	32.987
715.11	29.921
715.43	27.056
715.75	30.000
716.07	30.939
716.39	30.055
716.70	29.518
717.02	27.869
717.34	25.436
717.66	32.886
717.97	27.740
718.29	30.928
718.61	29.276
718.93	32.362
719.24	33.230
719.56	28.528
719.88	26.126
720.20	29.032
720.51	28.571
720.83	26.875
721.15	30.263
721.46	31.164
721.78	28.000
722.10	24.919
722.42	29.530
722.73	28.387
723.05	32.632
723.37	31.597
723.68	30.108
724.00	28.520
724.32	28.169
724.63	27.622
724.95	30.142
725.27	31.010
725.58	25.088
725.90	29.310
726.22	24.138
726.53	28.247
726.85	31.132
727.16	30.514
727.48	29.969
727.80	29.139
728.11	25.088
728.43	30.640
728.74	28.428
729.06	28.146
729.38	29.545
729.69	27.517
730.01	27.083
730.32	28.182
730.64	28.302
730.96	25.466
731.27	31.006
731.59	27.473
731.90	25.455
732.22	26.823
732.53	25.138
732.85	28.286
733.16	27.566
733.48	26.524
733.80	27.855
734.11	26.781
734.43	26.486
734.74	28.354
735.06	25.377
735.37	27.838
735.69	26.486
736.00	26.554
736.32	27.763
736.63	25.833
736.95	26.149
737.26	29.091
737.58	26.667
737.89	27.941
738.21	24.771
738.52	25.246
738.83	31.399
739.15	25.177
739.46	28.231
739.78	31.288
740.09	25.501
740.41	28.280
740.72	28.667
741.04	29.450
741.35	27.018
741.66	28.235
741.98	33.197
742.29	31.381
742.61	35.965
742.92	28.846
743.23	29.603
743.55	31.395
743.86	28.000
744.18	25.207
744.49	25.316
744.80	29.630
745.12	35.021
745.43	33.740
745.74	33.190
746.06	30.508
746.37	33.333
746.68	33.740
747.00	30.833
747.31	31.330
747.62	34.615
747.94	29.150
748.25	30.120
748.56	29.796
748.88	33.333
749.19	36.638
749.50	33.766
749.82	32.932
750.13	30.605
750.44	28.000
750.75	28.923
751.07	26.769
751.38	29.022
751.69	31.310
752.01	29.126
752.32	28.758
752.63	24.490
752.94	29.412
753.26	31.599
753.57	28.148
753.88	28.464
754.19	30.225
754.51	25.402
754.82	32.476
755.13	28.525
755.44	27.986
755.75	27.961
756.07	28.358
756.38	31.447
756.69	30.120
757.00	25.762
757.31	26.503
757.63	27.877
757.94	27.465
758.25	24.379
758.56	24.837
758.87	25.455
759.18	26.133
759.50	25.779
759.81	28.571
760.12	23.450
760.43	24.479
760.74	27.094
761.05	26.750
761.36	24.819
761.67	24.365
761.99	26.486
762.30	29.573
762.61	24.422
762.92	26.119
763.23	33.708
763.54	28.777
763.85	25.430
764.16	28.956
764.47	28.521
764.78	28.754
765.10	27.273
765.41	27.436
765.72	24.868
766.03	24.294
766.34	26.959
766.65	26.829
766.96	27.888
767.27	28.111
767.58	24.876
767.89	27.404
768.20	29.577
768.51	30.556
768.82	27.309
769.13	27.273
769.44	20.000
769.75	32.852
770.06	28.077
770.37	32.677
770.68	24.681
770.99	24.291
771.30	33.704
771.61	30.038
771.92	27.037
772.23	30.769
772.54	26.389
772.85	34.101
773.16	29.524
773.47	19.577
773.78	25.946
774.09	33.523
774.39	32.500
774.70	30.055
775.01	28.049
775.32	27.059
775.63	36.196
775.94	24.841
776.25	31.613
776.56	35.256
776.87	36.735
777.18	28.276
777.48	38.462
777.79	30.405
778.10	27.941
778.41	28.472
778.72	31.034
779.03	29.630
779.34	35.758
779.65	30.052
779.95	32.778
780.26	31.250
780.57	32.903
780.88	39.130
781.19	35.484
781.50	37.059
781.80	31.183
782.11	31.217
782.42	21.717
782.73	32.335
783.04	32.961
783.34	27.273
783.65	25.490
783.96	32.919
784.27	35.714
784.57	26.490
784.88	31.429
785.19	29.134
785.50	29.921
785.81	32.331
786.11	31.538
786.42	30.216
786.73	25.899
787.04	36.842
787.34	33.607
787.65	32.800
787.96	36.567
788.26	37.762
788.57	37.762
788.88	29.605
789.19	33.987
789.49	33.562
789.80	29.787
790.11	28.346
790.41	33.594
790.72	17.797
791.03	29.126
791.33	39.130
791.64	30.702
791.95	24.107
792.25	40.952
792.56	28.571
792.87	23.958
793.17	40.179
793.48	21.875
793.79	28.916
794.09	29.358
794.40	27.523
794.70	23.129
795.01	22.727
795.32	26.712
795.62	35.211
795.93	28.788
796.23	30.328
796.54	25.893
796.85	23.404
797.15	25.000
797.46	30.137
797.76	35.000
798.07	30.435
798.37	16.495
798.68	42.857
798.99	31.034
799.29	34.831
799.60	39.362
799.90	42.169
800.21	21.538
800.51	41.791
800.82	38.235
801.12	23.288
801.43	27.941
801.73	22.034
802.04	30.303
802.34	30.000
802.65	27.119
802.95	40.299
803.26	37.288
803.56	27.397
803.87	40.000
804.17	43.836
804.48	19.298
804.78	33.333
805.09	32.759
805.39	36.486
805.70	14.085
806.00	41.463
806.30	30.120
806.61	26.027
806.91	25.962
807.22	33.333
807.52	34.483
807.83	43.056
808.13	50.602
808.43	40.449
808.74	27.500
809.04	32.353
809.35	40.000
809.65	34.286
809.95	26.027
810.26	17.544
810.56	22.414
810.86	36.765
811.17	45.614
811.47	31.148
811.77	37.778
812.08	38.983
812.38	43.333
812.69	46.552
812.99	26.415
813.29	20.513
813.59	50.000
813.90	49.123
814.20	20.000
814.50	32.394
814.81	30.769
815.11	50.820
815.41	40.299
815.72	31.034
816.02	46.429
816.32	51.111
816.62	52.273
816.93	35.556
817.23	35.185
817.53	57.447
817.84	23.810
818.14	38.235
818.44	30.612
818.74	51.111
819.04	48.718
819.35	22.857
819.65	3.846
819.95	60.377
820.25	57.778
820.56	40.476
820.86	34.375
821.16	46.154
821.46	48.837
821.76	14.000
822.07	41.071
822.37	28.261
822.67	36.170
822.97	35.135
823.27	40.000
823.57	51.020
823.88	46.667
824.18	42.500
824.48	53.333
824.78	48.000
825.08	42.424
825.38	48.889
825.69	44.681
825.99	61.111
826.29	-5.714
826.59	23.077
826.89	30.233
827.19	42.000
827.49	41.176
827.79	31.250
828.09	8.108
828.39	53.333
828.70	46.341
829.00	18.605
829.30	32.143
829.60	50.000
829.90	21.739
830.20	31.429
830.50	58.621
830.80	55.556
831.10	-3.846
831.40	52.941
831.70	80.952
832.00	58.065
832.30	11.765
832.60	16.667
832.90	38.462
833.20	47.368
833.50	30.000
833.80	52.632
834.10	47.619
834.40	41.667
834.70	56.250
835.00	8.571
835.30	44.118
835.60	36.667
835.90	32.000
836.20	13.636
836.50	52.000
836.80	30.303
837.10	44.444
837.40	51.852
837.70	12.500
838.00	46.429
838.30	21.739
838.60	41.379
838.90	50.000
839.19	0.000
839.49	0.000
839.79	21.739
840.09	12.500
840.39	85.000
840.69	58.065
840.99	53.571
841.29	53.333
841.59	89.474
841.88	64.103
842.18	42.308
842.48	60.000
842.78	40.000
843.08	70.000
843.38	51.613
843.68	-44.444
843.97	82.353
844.27	75.000
844.57	68.421
844.87	80.000
845.17	73.333
845.47	57.143
845.76	28.571
846.06	66.667
846.36	82.353
846.66	50.000
846.96	26.667
847.25	41.176
847.55	47.826
847.85	-10.000
848.15	17.647
848.44	18.182
848.74	47.619
849.04	8.333
849.34	31.250
849.63	39.130
849.93	-350.000
850.23	46.667
850.53	38.462
850.82	63.636
851.12	77.273
851.42	81.818
851.71	69.231
852.01	-5.000
852.31	84.615
852.61	63.158
852.90	58.333
853.20	55.556
853.50	0.000
853.79	61.905
854.09	50.000
854.39	33.333
854.68	51.613
854.98	26.923
855.28	61.111
855.57	28.571
855.87	72.000
856.17	63.636
856.46	37.037
856.76	61.111
857.05	65.217
857.35	62.500
857.65	84.615
857.94	52.381
858.24	96.296
858.53	86.957
858.83	76.471
859.13	47.059
859.42	100.000
859.72	71.429
860.01	35.000
860.31	88.889
860.60	40.000
860.90	80.000
861.20	61.111
861.49	92.308
861.79	80.000
862.08	76.923
862.38	37.500
862.67	76.471
862.97	68.750
863.26	166.667
863.56	80.000
863.85	72.727
864.15	111.111
864.44	233.333
864.74	78.571
865.03	81.250
865.33	70.000
865.62	35.484
865.92	72.727
866.21	95.652
866.51	71.429
866.80	80.000
867.10	16.667
867.39	16.667
867.69	400.000
867.98	85.714
868.27	64.706
868.57	400.000
868.86	40.000
869.16	38.095
869.45	20.833
869.75	100.000
870.04	100.000
870.33	83.333
870.63	-128.571
870.92	100.000
871.22	-37.500
871.51	-9.091
871.80	-366.667
872.10	300.000
>>>>>End Processed Spectral Data<<<<<
