SpectraSuite Data File
++++++++++++++++++++++++++++++++++++
Date: Thu May 14 14:31:18 PDT 2015
User: schluterlab
Dark Spectrum Present: Yes
Reference Spectrum Present: Yes
Number of Sampled Component Spectra: 1
Spectrometers: USB2E3373
Integration Time (usec): 3000 (USB2E3373)
Spectra Averaged: 3 (USB2E3373)
Boxcar Smoothing: 0 (USB2E3373)
Correct for Electrical Dark: No (USB2E3373)
Strobe/Lamp Enabled: No (USB2E3373)
Correct for Detector Non-linearity: No (USB2E3373)
Correct for Stray Light: No (USB2E3373)
Number of Pixels in Processed Spectrum: 2048
>>>>>Begin Processed Spectral Data<<<<<
178.53	0.000
178.91	-128.571
179.29	900.000
179.67	1200.000
180.04	7.143
180.42	-150.000
180.80	-280.000
181.18	1800.000
181.56	2200.000
181.94	-450.000
182.31	700.000
182.69	-733.333
183.07	1350.000
183.45	-400.000
183.83	350.000
184.20	566.667
184.58	-400.000
184.96	225.000
185.34	200.000
185.72	220.000
186.09	-44.444
186.47	-700.000
186.85	-160.000
187.23	44.444
187.61	300.000
187.98	-240.000
188.36	-125.000
188.74	350.000
189.12	633.333
189.49	156.250
189.87	50.000
190.25	266.667
190.63	380.000
191.00	266.667
191.38	0.000
191.76	100.000
192.14	316.667
192.51	-700.000
192.89	350.000
193.27	0.000
193.65	242.857
194.02	200.000
194.40	400.000
194.78	-114.286
195.15	0.000
195.53	154.545
195.91	0.000
196.29	275.000
196.66	130.769
197.04	2400.000
197.42	285.714
197.79	850.000
198.17	87.500
198.55	114.286
198.92	288.889
199.30	175.000
199.68	181.818
200.05	150.000
200.43	650.000
200.81	-128.571
201.18	0.000
201.56	-44.444
201.94	0.000
202.31	-266.667
202.69	211.111
203.07	-1500.000
203.44	177.778
203.82	425.000
204.19	191.667
204.57	150.000
204.95	175.000
205.32	1000.000
205.70	-500.000
206.08	366.667
206.45	150.000
206.83	-120.000
207.20	250.000
207.58	160.000
207.96	166.667
208.33	300.000
208.71	-33.333
209.08	516.667
209.46	0.000
209.84	-150.000
210.21	-700.000
210.59	-800.000
210.96	-100.000
211.34	375.000
211.71	162.500
212.09	1300.000
212.46	0.000
212.84	-350.000
213.22	320.000
213.59	450.000
213.97	260.000
214.34	566.667
214.72	-300.000
215.09	225.000
215.47	0.000
215.84	-328.571
216.22	-300.000
216.59	240.000
216.97	320.000
217.34	425.000
217.72	262.500
218.09	575.000
218.47	475.000
218.84	0.000
219.22	-300.000
219.59	88.235
219.97	125.000
220.34	-800.000
220.72	133.333
221.09	223.077
221.47	700.000
221.84	120.000
222.22	14.286
222.59	0.000
222.97	237.500
223.34	300.000
223.72	1500.000
224.09	150.000
224.46	450.000
224.84	440.000
225.21	285.714
225.59	300.000
225.96	325.000
226.34	80.769
226.71	-166.667
227.08	500.000
227.46	146.667
227.83	750.000
228.21	136.842
228.58	-100.000
228.95	-700.000
229.33	200.000
229.70	190.000
230.08	157.895
230.45	-110.000
230.82	733.333
231.20	121.429
231.57	200.000
231.95	190.909
232.32	227.273
232.69	145.000
233.07	725.000
233.44	147.059
233.81	140.000
234.19	161.111
234.56	136.364
234.93	103.448
235.31	131.579
235.68	144.444
236.05	90.000
236.43	111.538
236.80	136.000
237.17	92.593
237.55	90.909
237.92	200.000
238.29	103.226
238.67	70.455
239.04	66.667
239.41	52.381
239.79	63.043
240.16	51.852
240.53	82.609
240.91	60.784
241.28	60.656
241.65	71.642
242.02	44.595
242.40	60.000
242.77	68.000
243.14	50.000
243.51	23.684
243.89	56.410
244.26	57.426
244.63	54.902
245.00	50.467
245.38	49.123
245.75	34.513
246.12	43.651
246.49	39.535
246.87	40.000
247.24	47.020
247.61	38.816
247.98	42.282
248.36	45.679
248.73	38.650
249.10	42.623
249.47	46.269
249.84	48.168
250.22	37.824
250.59	47.222
250.96	40.909
251.33	34.694
251.70	35.897
252.08	32.917
252.45	40.574
252.82	35.950
253.19	33.203
253.56	39.924
253.94	36.154
254.31	35.227
254.68	38.811
255.05	39.088
255.42	35.714
255.79	32.039
256.16	36.755
256.54	35.430
256.91	37.705
257.28	36.066
257.65	35.350
258.02	29.499
258.39	32.764
258.76	40.367
259.14	37.069
259.51	36.311
259.88	33.144
260.25	32.222
260.62	37.534
260.99	34.153
261.36	36.729
261.73	35.013
262.10	34.341
262.47	36.729
262.85	35.101
263.22	31.429
263.59	32.105
263.96	37.084
264.33	31.458
264.70	33.827
265.07	35.800
265.44	36.281
265.81	34.028
266.18	32.653
266.55	31.250
266.92	33.030
267.29	34.354
267.66	35.477
268.03	33.406
268.40	32.777
268.77	32.574
269.14	30.176
269.51	32.456
269.88	30.943
270.25	30.785
270.62	32.068
270.99	32.727
271.36	32.475
271.73	30.845
272.10	34.269
272.47	32.265
272.84	30.723
273.21	30.661
273.58	30.847
273.95	29.038
274.32	31.369
274.69	30.561
275.06	31.685
275.43	26.802
275.80	31.393
276.17	27.593
276.54	30.224
276.91	29.338
277.28	30.018
277.65	29.982
278.02	29.412
278.39	28.442
278.76	27.241
279.13	30.851
279.50	28.179
279.87	29.338
280.23	27.465
280.60	28.814
280.97	29.441
281.34	30.221
281.71	28.088
282.08	29.402
282.45	28.151
282.82	24.961
283.19	27.302
283.56	27.705
283.92	29.279
284.29	28.594
284.66	28.571
285.03	26.442
285.40	27.821
285.77	27.709
286.14	28.550
286.51	28.463
286.87	25.908
287.24	27.410
287.61	26.457
287.98	26.284
288.35	26.036
288.72	25.592
289.08	27.086
289.45	26.183
289.82	24.096
290.19	26.437
290.56	25.070
290.93	25.535
291.29	24.518
291.66	23.967
292.03	25.373
292.40	26.122
292.77	23.720
293.13	24.493
293.50	23.522
293.87	24.161
294.24	25.200
294.60	23.262
294.97	23.221
295.34	24.200
295.71	22.951
296.08	22.739
296.44	20.833
296.81	23.021
297.18	24.658
297.55	22.288
297.91	20.878
298.28	22.630
298.65	21.403
299.02	23.022
299.38	23.341
299.75	21.729
300.12	22.106
300.48	20.737
300.85	22.385
301.22	22.819
301.59	20.320
301.95	22.147
302.32	21.000
302.69	19.168
303.05	21.436
303.42	21.175
303.79	21.354
304.15	20.820
304.52	20.296
304.89	20.314
305.25	20.807
305.62	20.167
305.99	20.928
306.35	19.960
306.72	22.441
307.09	19.797
307.45	21.222
307.82	20.888
308.19	20.585
308.55	21.697
308.92	22.395
309.29	21.073
309.65	21.345
310.02	20.198
310.38	21.063
310.75	21.068
311.12	21.093
311.48	20.137
311.85	22.222
312.22	19.355
312.58	20.845
312.95	19.312
313.31	21.319
313.68	21.520
314.05	22.313
314.41	21.220
314.78	20.799
315.14	20.962
315.51	20.591
315.87	21.872
316.24	21.553
316.61	20.693
316.97	19.910
317.34	20.547
317.70	22.533
318.07	21.340
318.43	21.684
318.80	23.077
319.16	21.717
319.53	20.137
319.89	20.859
320.26	21.352
320.62	21.188
320.99	20.776
321.35	23.013
321.72	21.116
322.08	21.280
322.45	20.958
322.81	22.653
323.18	20.531
323.54	22.414
323.91	21.441
324.27	21.687
324.64	22.250
325.00	20.730
325.37	21.785
325.73	22.149
326.10	22.303
326.46	21.906
326.83	22.418
327.19	21.260
327.56	21.897
327.92	21.794
328.29	21.210
328.65	20.854
329.01	22.589
329.38	21.735
329.74	21.747
330.11	21.661
330.47	22.325
330.84	22.394
331.20	22.000
331.56	22.097
331.93	22.594
332.29	22.712
332.66	22.259
333.02	21.441
333.38	21.309
333.75	21.801
334.11	22.769
334.48	22.195
334.84	22.090
335.20	21.998
335.57	22.344
335.93	22.314
336.29	22.213
336.66	21.867
337.02	22.910
337.38	21.684
337.75	22.231
338.11	23.381
338.47	22.002
338.84	21.574
339.20	21.567
339.56	21.829
339.93	21.675
340.29	21.095
340.65	21.817
341.02	23.543
341.38	22.312
341.74	21.469
342.11	23.572
342.47	21.128
342.83	22.786
343.20	22.976
343.56	21.251
343.92	21.697
344.28	22.109
344.65	21.860
345.01	22.543
345.37	21.306
345.73	20.889
346.10	21.841
346.46	21.994
346.82	21.798
347.19	23.224
347.55	22.155
347.91	22.808
348.27	21.624
348.63	22.468
349.00	22.073
349.36	21.636
349.72	21.577
350.08	22.734
350.45	22.357
350.81	21.644
351.17	23.083
351.53	22.441
351.89	21.944
352.26	22.239
352.62	22.015
352.98	20.229
353.34	21.135
353.70	22.265
354.07	22.504
354.43	21.109
354.79	21.616
355.15	22.737
355.51	22.515
355.87	20.868
356.24	21.977
356.60	21.656
356.96	21.942
357.32	21.784
357.68	22.108
358.04	21.332
358.40	22.910
358.77	22.222
359.13	21.640
359.49	22.454
359.85	21.827
360.21	21.664
360.57	22.254
360.93	22.567
361.29	22.386
361.66	22.375
362.02	23.382
362.38	22.136
362.74	22.416
363.10	22.902
363.46	22.576
363.82	22.230
364.18	21.464
364.54	22.130
364.90	23.010
365.26	22.828
365.62	22.533
365.98	23.622
366.35	23.154
366.71	24.014
367.07	23.748
367.43	22.390
367.79	23.358
368.15	24.013
368.51	23.748
368.87	22.926
369.23	23.067
369.59	23.087
369.95	23.665
370.31	23.430
370.67	23.384
371.03	23.199
371.39	24.244
371.75	22.971
372.11	23.577
372.47	23.358
372.83	24.804
373.19	23.482
373.55	24.119
373.91	23.040
374.27	24.386
374.63	24.628
374.99	24.867
375.35	24.351
375.71	24.387
376.07	24.080
376.42	24.496
376.78	24.984
377.14	24.704
377.50	25.743
377.86	25.677
378.22	25.090
378.58	25.446
378.94	25.059
379.30	26.011
379.66	25.808
380.02	25.389
380.38	25.979
380.74	26.085
381.09	26.597
381.45	26.023
381.81	27.459
382.17	26.485
382.53	26.550
382.89	27.088
383.25	26.964
383.61	25.579
383.97	26.855
384.32	27.751
384.68	26.508
385.04	28.282
385.40	27.991
385.76	28.429
386.12	27.588
386.48	27.882
386.83	28.665
387.19	28.389
387.55	28.873
387.91	28.881
388.27	29.677
388.62	29.553
388.98	28.708
389.34	30.112
389.70	29.808
390.06	29.544
390.42	29.277
390.77	30.163
391.13	29.930
391.49	30.133
391.85	30.242
392.20	30.190
392.56	30.715
392.92	30.316
393.28	30.514
393.64	29.777
393.99	31.145
394.35	31.776
394.71	31.916
395.07	31.557
395.42	31.182
395.78	32.236
396.14	32.026
396.50	31.354
396.85	31.843
397.21	31.302
397.57	30.860
397.92	33.104
398.28	32.374
398.64	32.265
399.00	31.728
399.35	31.832
399.71	31.576
400.07	32.959
400.42	33.178
400.78	32.812
401.14	33.011
401.49	32.518
401.85	33.256
402.21	33.835
402.57	33.979
402.92	33.688
403.28	33.372
403.63	33.950
403.99	33.789
404.35	34.224
404.70	34.448
405.06	33.750
405.42	34.426
405.77	34.351
406.13	34.738
406.49	33.840
406.84	33.850
407.20	33.371
407.55	33.798
407.91	35.449
408.27	35.100
408.62	35.137
408.98	35.868
409.34	35.308
409.69	35.970
410.05	35.991
410.40	35.441
410.76	35.390
411.11	35.535
411.47	36.548
411.83	36.096
412.18	37.289
412.54	37.582
412.89	35.681
413.25	35.497
413.60	35.095
413.96	35.839
414.31	35.581
414.67	36.017
415.03	35.815
415.38	36.696
415.74	37.141
416.09	37.261
416.45	36.130
416.80	36.291
417.16	36.973
417.51	36.737
417.87	36.726
418.22	37.186
418.58	36.803
418.93	37.835
419.29	37.978
419.64	37.815
420.00	37.448
420.35	37.170
420.71	36.990
421.06	36.573
421.42	37.729
421.77	36.834
422.12	36.469
422.48	36.662
422.83	37.952
423.19	37.188
423.54	38.053
423.90	37.327
424.25	37.973
424.61	37.141
424.96	38.221
425.31	38.482
425.67	39.023
426.02	38.517
426.38	38.921
426.73	39.230
427.09	39.735
427.44	38.558
427.79	38.253
428.15	37.900
428.50	39.101
428.85	38.462
429.21	39.362
429.56	38.944
429.92	38.968
430.27	38.892
430.62	39.424
430.98	39.056
431.33	38.368
431.68	37.644
432.04	39.259
432.39	39.689
432.74	39.326
433.10	39.913
433.45	38.740
433.80	40.182
434.16	39.618
434.51	39.979
434.86	39.577
435.22	40.117
435.57	40.861
435.92	39.789
436.28	40.614
436.63	40.579
436.98	39.882
437.34	40.192
437.69	39.901
438.04	40.032
438.39	39.920
438.75	40.620
439.10	40.539
439.45	39.911
439.81	40.169
440.16	38.981
440.51	41.193
440.86	40.578
441.22	41.801
441.57	42.086
441.92	40.155
442.27	41.212
442.63	40.437
442.98	41.035
443.33	40.663
443.68	40.535
444.03	41.863
444.39	41.331
444.74	41.501
445.09	40.446
445.44	42.466
445.79	42.146
446.15	41.727
446.50	41.240
446.85	41.440
447.20	41.828
447.55	41.736
447.91	41.361
448.26	41.332
448.61	41.977
448.96	41.470
449.31	42.206
449.66	41.503
450.02	42.352
450.37	43.101
450.72	42.680
451.07	41.970
451.42	42.172
451.77	41.801
452.12	42.494
452.47	43.078
452.83	44.257
453.18	42.966
453.53	42.275
453.88	42.573
454.23	43.729
454.58	44.399
454.93	43.568
455.28	44.792
455.63	43.661
455.98	43.911
456.34	43.993
456.69	43.915
457.04	43.558
457.39	43.625
457.74	44.407
458.09	43.767
458.44	44.343
458.79	43.424
459.14	43.262
459.49	45.161
459.84	44.544
460.19	43.642
460.54	44.066
460.89	44.097
461.24	44.138
461.59	44.549
461.94	43.126
462.29	44.681
462.64	45.625
462.99	45.637
463.34	45.036
463.69	45.135
464.04	46.415
464.39	45.404
464.74	45.154
465.09	44.983
465.44	45.815
465.79	44.950
466.14	44.398
466.49	45.211
466.84	44.573
467.19	43.699
467.54	44.418
467.89	45.632
468.24	45.873
468.59	45.339
468.94	45.513
469.29	45.891
469.64	46.535
469.99	45.953
470.34	47.030
470.68	48.667
471.03	47.741
471.38	48.136
471.73	47.269
472.08	48.858
472.43	47.261
472.78	47.544
473.13	47.155
473.48	47.674
473.83	47.882
474.17	47.714
474.52	48.346
474.87	46.622
475.22	48.394
475.57	47.352
475.92	47.586
476.27	47.071
476.61	46.937
476.96	47.810
477.31	47.673
477.66	48.793
478.01	47.687
478.36	46.760
478.70	47.241
479.05	48.466
479.40	49.161
479.75	48.175
480.10	47.892
480.45	48.177
480.79	47.846
481.14	48.208
481.49	47.933
481.84	48.346
482.19	48.602
482.53	48.710
482.88	49.225
483.23	48.199
483.58	48.428
483.92	48.404
484.27	48.518
484.62	48.680
484.97	48.134
485.31	47.870
485.66	46.827
486.01	44.598
486.36	44.069
486.70	44.043
487.05	44.651
487.40	45.972
487.75	46.081
488.09	46.774
488.44	47.318
488.79	48.061
489.13	48.479
489.48	48.000
489.83	48.773
490.17	48.846
490.52	48.974
490.87	49.154
491.22	49.697
491.56	49.360
491.91	50.632
492.26	50.368
492.60	49.016
492.95	49.846
493.30	49.753
493.64	50.460
493.99	50.132
494.34	49.085
494.68	49.936
495.03	50.176
495.37	50.599
495.72	51.338
496.07	51.183
496.41	49.807
496.76	51.418
497.11	50.616
497.45	50.583
497.80	51.311
498.14	50.748
498.49	51.654
498.84	51.691
499.18	51.147
499.53	51.839
499.87	51.560
500.22	51.558
500.56	51.102
500.91	52.128
501.26	52.864
501.60	51.304
501.95	51.194
502.29	52.260
502.64	51.465
502.98	50.863
503.33	51.922
503.67	50.938
504.02	51.839
504.36	51.921
504.71	52.641
505.06	51.387
505.40	52.788
505.75	51.821
506.09	52.993
506.44	53.668
506.78	53.211
507.13	53.204
507.47	53.577
507.82	53.646
508.16	53.776
508.51	52.930
508.85	54.039
509.19	53.529
509.54	53.794
509.88	53.813
510.23	54.638
510.57	54.906
510.92	55.443
511.26	53.968
511.61	53.308
511.95	54.710
512.30	55.194
512.64	54.623
512.98	55.278
513.33	56.401
513.67	55.941
514.02	55.033
514.36	56.317
514.70	55.625
515.05	56.517
515.39	55.853
515.74	57.317
516.08	56.577
516.42	57.561
516.77	57.150
517.11	55.802
517.46	57.476
517.80	57.777
518.14	58.433
518.49	58.189
518.83	57.850
519.17	56.812
519.52	58.071
519.86	57.339
520.20	57.242
520.55	58.598
520.89	58.502
521.23	58.459
521.58	58.927
521.92	58.640
522.26	57.904
522.61	59.549
522.95	59.400
523.29	58.736
523.64	58.128
523.98	60.411
524.32	59.370
524.66	60.501
525.01	58.494
525.35	59.334
525.69	57.831
526.04	58.496
526.38	60.287
526.72	59.054
527.06	59.589
527.41	59.184
527.75	60.036
528.09	60.626
528.43	59.029
528.78	59.249
529.12	58.314
529.46	58.066
529.80	59.840
530.15	59.130
530.49	60.439
530.83	60.035
531.17	58.901
531.51	59.386
531.86	60.877
532.20	60.793
532.54	60.682
532.88	60.364
533.22	59.222
533.57	58.107
533.91	59.259
534.25	58.847
534.59	60.977
534.93	59.819
535.27	58.873
535.62	59.522
535.96	60.314
536.30	59.636
536.64	60.420
536.98	60.701
537.32	60.926
537.66	62.009
538.01	59.517
538.35	58.831
538.69	59.675
539.03	61.006
539.37	58.422
539.71	58.919
540.05	58.753
540.39	58.619
540.73	58.288
541.07	59.595
541.42	59.008
541.76	58.185
542.10	59.288
542.44	60.049
542.78	59.428
543.12	59.416
543.46	59.707
543.80	58.153
544.14	58.648
544.48	60.875
544.82	59.007
545.16	58.378
545.50	58.238
545.84	57.991
546.18	60.988
546.52	59.045
546.86	59.182
547.20	59.987
547.54	59.176
547.88	58.529
548.22	58.070
548.56	58.748
548.90	59.224
549.24	60.182
549.58	60.189
549.92	60.395
550.26	61.230
550.60	60.370
550.94	61.255
551.28	60.528
551.62	61.523
551.96	60.324
552.30	60.867
552.64	59.303
552.98	59.576
553.32	61.415
553.66	60.514
554.00	60.530
554.34	60.039
554.68	59.070
555.02	60.053
555.36	62.788
555.69	59.962
556.03	60.593
556.37	59.262
556.71	60.241
557.05	60.511
557.39	61.248
557.73	61.096
558.07	61.391
558.41	61.196
558.75	61.190
559.08	61.726
559.42	60.151
559.76	59.769
560.10	60.080
560.44	61.412
560.78	60.500
561.12	59.236
561.45	60.036
561.79	60.256
562.13	60.074
562.47	59.186
562.81	60.000
563.15	60.038
563.48	60.224
563.82	59.674
564.16	58.934
564.50	59.356
564.84	57.581
565.17	59.412
565.51	57.710
565.85	60.095
566.19	58.525
566.52	59.567
566.86	58.291
567.20	56.661
567.54	57.515
567.88	57.696
568.21	56.917
568.55	56.547
568.89	56.105
569.23	54.922
569.56	54.513
569.90	53.849
570.24	54.098
570.57	52.726
570.91	52.541
571.25	51.258
571.59	51.406
571.92	51.013
572.26	51.350
572.60	50.969
572.93	51.489
573.27	51.616
573.61	51.906
573.95	51.299
574.28	50.315
574.62	50.819
574.96	49.647
575.29	49.548
575.63	49.619
575.97	50.419
576.30	49.938
576.64	50.465
576.98	49.841
577.31	50.350
577.65	50.413
577.98	49.096
578.32	49.237
578.66	49.529
578.99	49.498
579.33	50.200
579.67	50.113
580.00	49.742
580.34	50.065
580.67	49.735
581.01	50.325
581.35	49.562
581.68	49.423
582.02	48.241
582.35	48.964
582.69	48.991
583.02	49.206
583.36	49.497
583.70	50.193
584.03	49.772
584.37	51.222
584.70	49.902
585.04	49.942
585.37	50.420
585.71	49.924
586.04	49.582
586.38	49.675
586.72	50.163
587.05	50.831
587.39	50.436
587.72	50.526
588.06	49.952
588.39	50.685
588.73	50.053
589.06	51.016
589.40	51.659
589.73	51.639
590.07	52.122
590.40	52.333
590.73	52.245
591.07	52.494
591.40	52.100
591.74	53.140
592.07	53.147
592.41	53.194
592.74	51.438
593.08	51.497
593.41	51.327
593.75	50.718
594.08	50.985
594.41	51.154
594.75	50.482
595.08	51.380
595.42	51.234
595.75	50.533
596.09	51.203
596.42	51.989
596.75	52.374
597.09	52.162
597.42	52.682
597.75	51.705
598.09	52.460
598.42	53.277
598.76	51.357
599.09	51.015
599.42	50.453
599.76	50.512
600.09	50.884
600.42	50.384
600.76	50.462
601.09	50.216
601.42	50.875
601.76	50.897
602.09	51.537
602.42	50.600
602.76	51.365
603.09	51.836
603.42	52.384
603.76	51.163
604.09	52.023
604.42	52.037
604.76	52.359
605.09	52.333
605.42	52.073
605.75	51.192
606.09	50.877
606.42	50.967
606.75	50.825
607.09	50.576
607.42	51.175
607.75	51.387
608.08	50.947
608.42	51.391
608.75	52.032
609.08	52.377
609.41	52.228
609.75	52.411
610.08	52.551
610.41	52.124
610.74	51.134
611.07	52.886
611.41	52.108
611.74	53.256
612.07	53.389
612.40	53.137
612.73	54.181
613.07	53.350
613.40	53.657
613.73	52.335
614.06	52.797
614.39	52.672
614.72	52.159
615.06	52.647
615.39	52.634
615.72	52.844
616.05	52.793
616.38	53.179
616.71	52.821
617.05	53.035
617.38	53.826
617.71	54.320
618.04	54.074
618.37	55.137
618.70	54.977
619.03	55.018
619.36	55.795
619.69	55.862
620.03	55.995
620.36	55.828
620.69	56.385
621.02	56.168
621.35	58.200
621.68	59.002
622.01	56.441
622.34	57.183
622.67	57.251
623.00	56.275
623.33	58.129
623.66	56.420
623.99	56.090
624.32	56.270
624.65	55.598
624.99	57.672
625.32	57.218
625.65	57.249
625.98	55.729
626.31	57.406
626.64	58.168
626.97	57.614
627.30	58.011
627.63	58.140
627.96	58.183
628.29	58.288
628.62	58.774
628.95	60.298
629.28	60.493
629.61	60.269
629.94	59.163
630.26	59.576
630.59	60.104
630.92	58.528
631.25	61.091
631.58	61.864
631.91	63.636
632.24	62.344
632.57	60.626
632.90	62.989
633.23	62.041
633.56	62.755
633.89	62.500
634.22	62.266
634.55	64.405
634.88	63.528
635.20	63.940
635.53	66.328
635.86	61.430
636.19	61.294
636.52	63.186
636.85	61.900
637.18	61.227
637.51	62.258
637.83	63.455
638.16	65.438
638.49	63.850
638.82	62.232
639.15	64.605
639.48	66.282
639.81	62.702
640.13	64.429
640.46	62.303
640.79	61.397
641.12	63.354
641.45	65.496
641.77	66.752
642.10	67.192
642.43	67.952
642.76	67.073
643.09	64.110
643.41	65.546
643.74	64.966
644.07	67.034
644.40	64.356
644.73	66.038
645.05	67.401
645.38	66.906
645.71	67.595
646.04	65.854
646.36	64.380
646.69	69.172
647.02	66.667
647.35	67.328
647.67	71.014
648.00	70.223
648.33	66.667
648.66	63.053
648.98	64.898
649.31	63.194
649.64	65.339
649.96	64.456
650.29	61.057
650.62	64.074
650.94	65.015
651.27	65.719
651.60	66.813
651.92	66.109
652.25	63.386
652.58	61.348
652.90	64.099
653.23	64.366
653.56	63.623
653.88	63.904
654.21	65.070
654.54	64.740
654.86	63.314
655.19	58.218
655.52	51.397
655.84	40.322
656.17	50.072
656.49	70.860
656.82	80.504
657.15	62.833
657.47	47.502
657.80	35.344
658.13	27.903
658.45	37.214
658.78	45.907
659.10	46.464
659.43	46.948
659.75	50.426
660.08	51.821
660.41	54.673
660.73	59.977
661.06	63.583
661.38	63.636
661.71	65.172
662.03	66.843
662.36	68.157
662.68	66.417
663.01	69.381
663.33	70.888
663.66	69.780
663.98	68.269
664.31	67.355
664.63	69.942
664.96	65.517
665.28	65.154
665.61	65.734
665.93	63.750
666.26	66.308
666.58	66.974
666.91	69.720
667.23	65.905
667.56	70.809
667.88	68.400
668.21	65.039
668.53	67.181
668.86	69.352
669.18	71.079
669.50	67.197
669.83	69.400
670.15	67.323
670.48	66.270
670.80	64.245
671.13	67.297
671.45	68.307
671.77	70.056
672.10	63.167
672.42	61.327
672.75	62.519
673.07	60.299
673.39	60.401
673.72	64.094
674.04	65.000
674.37	67.084
674.69	68.078
675.01	65.714
675.34	66.794
675.66	65.730
675.98	65.112
676.31	67.188
676.63	68.061
676.95	68.199
677.28	67.540
677.60	65.748
677.92	63.148
678.25	64.351
678.57	65.302
678.89	64.505
679.22	63.589
679.54	61.368
679.86	59.661
680.18	60.531
680.51	58.176
680.83	59.902
681.15	60.862
681.48	63.731
681.80	61.658
682.12	65.035
682.44	62.104
682.77	63.298
683.09	65.909
683.41	62.791
683.73	60.721
684.06	62.731
684.38	60.286
684.70	64.273
685.02	63.339
685.34	60.732
685.67	57.729
685.99	56.595
686.31	55.378
686.63	57.820
686.96	58.044
687.28	56.678
687.60	61.953
687.92	57.717
688.24	59.265
688.56	58.448
688.89	61.525
689.21	64.579
689.53	61.569
689.85	63.511
690.17	60.000
690.49	62.948
690.82	61.980
691.14	63.158
691.46	63.098
691.78	60.958
692.10	60.367
692.42	57.679
692.74	58.076
693.06	59.444
693.39	61.670
693.71	59.211
694.03	61.152
694.35	62.857
694.67	62.628
694.99	63.830
695.31	63.576
695.63	63.853
695.95	60.663
696.27	65.275
696.59	64.381
696.91	65.991
697.23	63.516
697.56	61.100
697.88	59.470
698.20	57.439
698.52	61.174
698.84	64.033
699.16	61.020
699.48	62.552
699.80	63.404
700.12	61.135
700.44	61.982
700.76	62.708
701.08	61.985
701.40	66.580
701.72	60.945
702.04	66.310
702.36	61.257
702.68	63.570
703.00	65.037
703.32	64.532
703.64	64.303
703.96	60.621
704.28	64.373
704.60	62.532
704.91	62.500
705.23	64.384
705.55	65.181
705.87	68.485
706.19	69.018
706.51	64.157
706.83	67.147
707.15	62.963
707.47	59.346
707.79	59.825
708.11	56.780
708.43	60.860
708.74	60.714
709.06	62.413
709.38	62.441
709.70	61.787
710.02	59.690
710.34	64.096
710.66	67.039
710.98	63.388
711.29	62.363
711.61	62.712
711.93	62.963
712.25	62.432
712.57	65.192
712.89	61.765
713.20	67.160
713.52	66.474
713.84	59.053
714.16	62.895
714.48	60.309
714.80	66.234
715.11	58.005
715.43	59.947
715.75	59.211
716.07	60.773
716.39	59.563
716.70	61.747
717.02	70.820
717.34	66.551
717.66	64.765
717.97	65.753
718.29	62.543
718.61	64.145
718.93	64.401
719.24	63.665
719.56	62.270
719.88	61.261
720.20	66.774
720.51	66.770
720.83	63.438
721.15	64.145
721.46	57.192
721.78	61.000
722.10	57.605
722.42	63.423
722.73	60.323
723.05	64.561
723.37	65.972
723.68	64.516
724.00	65.704
724.32	58.803
724.63	59.441
724.95	63.830
725.27	61.324
725.58	62.544
725.90	68.621
726.22	57.680
726.53	64.935
726.85	62.893
727.16	55.891
727.48	60.550
727.80	60.596
728.11	61.837
728.43	61.953
728.74	62.542
729.06	59.934
729.38	60.390
729.69	64.430
730.01	58.333
730.32	55.152
730.64	61.321
730.96	57.764
731.27	58.101
731.59	54.670
731.90	54.805
732.22	54.427
732.53	55.249
732.85	55.429
733.16	58.944
733.48	54.573
733.80	57.103
734.11	57.550
734.43	55.946
734.74	60.000
735.06	54.774
735.37	59.189
735.69	53.243
736.00	55.367
736.32	55.526
736.63	56.944
736.95	56.034
737.26	56.061
737.58	56.364
737.89	58.529
738.21	54.740
738.52	56.721
738.83	62.116
739.15	62.411
739.46	57.823
739.78	58.896
740.09	54.728
740.41	58.892
740.72	62.667
741.04	58.900
741.35	61.404
741.66	59.216
741.98	63.115
742.29	61.088
742.61	69.298
742.92	61.154
743.23	58.123
743.55	60.465
743.86	58.800
744.18	58.264
744.49	59.916
744.80	64.609
745.12	60.759
745.43	67.886
745.74	61.638
746.06	66.949
746.37	64.135
746.68	64.228
747.00	58.333
747.31	62.232
747.62	66.538
747.94	63.158
748.25	64.257
748.56	57.959
748.88	68.376
749.19	67.672
749.50	66.234
749.82	63.052
750.13	59.786
750.44	59.000
750.75	55.385
751.07	59.692
751.38	60.883
751.69	58.466
752.01	54.369
752.32	58.497
752.63	57.483
752.94	59.516
753.26	59.108
753.57	55.556
753.88	58.052
754.19	54.984
754.51	55.627
754.82	58.842
755.13	59.344
755.44	55.973
755.75	55.921
756.07	56.716
756.38	57.233
756.69	58.133
757.00	46.537
757.31	51.093
757.63	51.918
757.94	48.122
758.25	50.113
758.56	47.495
758.87	47.955
759.18	51.733
759.50	52.691
759.81	51.261
760.12	53.639
760.43	51.562
760.74	50.739
761.05	49.250
761.36	48.434
761.67	48.477
761.99	54.054
762.30	53.963
762.61	51.485
762.92	56.716
763.23	59.176
763.54	51.439
763.85	53.952
764.16	51.515
764.47	57.042
764.78	55.591
765.10	53.079
765.41	52.564
765.72	47.884
766.03	53.390
766.34	57.680
766.65	53.659
766.96	60.159
767.27	58.986
767.58	67.662
767.89	63.942
768.20	55.399
768.51	62.037
768.82	55.823
769.13	55.682
769.44	56.538
769.75	54.152
770.06	56.538
770.37	62.598
770.68	54.043
770.99	48.583
771.30	57.778
771.61	57.795
771.92	53.333
772.23	57.895
772.54	56.481
772.85	63.134
773.16	62.857
773.47	60.317
773.78	64.324
774.09	65.909
774.39	66.000
774.70	58.470
775.01	59.146
775.32	55.294
775.63	61.963
775.94	56.688
776.25	70.968
776.56	64.103
776.87	63.946
777.18	63.448
777.48	65.734
777.79	62.162
778.10	66.176
778.41	56.250
778.72	64.828
779.03	56.173
779.34	58.182
779.65	52.332
779.95	63.333
780.26	59.659
780.57	57.419
780.88	69.565
781.19	63.226
781.50	62.353
781.80	61.290
782.11	51.852
782.42	51.515
782.73	61.677
783.04	55.866
783.34	56.364
783.65	60.784
783.96	60.870
784.27	52.976
784.57	61.589
784.88	67.143
785.19	59.843
785.50	60.630
785.81	46.617
786.11	60.769
786.42	53.237
786.73	59.712
787.04	58.647
787.34	60.656
787.65	63.200
787.96	55.970
788.26	68.531
788.57	69.930
788.88	61.184
789.19	60.131
789.49	56.164
789.80	52.482
790.11	57.480
790.41	54.688
790.72	61.864
791.03	65.049
791.33	63.478
791.64	66.667
791.95	53.571
792.25	69.524
792.56	59.821
792.87	64.583
793.17	58.036
793.48	66.667
793.79	73.494
794.09	59.633
794.40	59.633
794.70	55.782
795.01	51.948
795.32	52.055
795.62	55.634
795.93	50.758
796.23	57.377
796.54	58.929
796.85	72.340
797.15	63.043
797.46	72.603
797.76	75.000
798.07	67.391
798.37	60.825
798.68	68.831
798.99	66.667
799.29	67.416
799.60	67.021
799.90	65.060
800.21	64.615
800.51	73.134
800.82	88.235
801.12	69.863
801.43	66.176
801.73	81.356
802.04	54.545
802.34	71.667
802.65	77.966
802.95	67.164
803.26	71.186
803.56	58.904
803.87	78.571
804.17	79.452
804.48	70.175
804.78	61.111
805.09	79.310
805.39	79.730
805.70	59.155
806.00	64.634
806.30	61.446
806.61	61.644
806.91	54.808
807.22	57.778
807.52	63.218
807.83	83.333
808.13	71.084
808.43	66.292
808.74	65.000
809.04	72.059
809.35	69.333
809.65	67.143
809.95	64.384
810.26	73.684
810.56	68.966
810.86	82.353
811.17	77.193
811.47	52.459
811.77	80.000
812.08	77.966
812.38	65.000
812.69	82.759
812.99	75.472
813.29	69.231
813.59	90.000
813.90	68.421
814.20	98.182
814.50	60.563
814.81	61.538
815.11	67.213
815.41	77.612
815.72	86.207
816.02	91.071
816.32	97.778
816.62	97.727
816.93	82.222
817.23	87.037
817.53	91.489
817.84	104.762
818.14	123.529
818.44	73.469
818.74	84.444
819.04	84.615
819.35	94.286
819.65	138.462
819.95	75.472
820.25	88.889
820.56	85.714
820.86	62.500
821.16	82.051
821.46	72.093
821.76	66.000
822.07	87.500
822.37	65.217
822.67	74.468
822.97	54.054
823.27	60.000
823.57	83.673
823.88	91.111
824.18	110.000
824.48	110.000
824.78	72.000
825.08	112.121
825.38	80.000
825.69	82.979
825.99	86.111
826.29	48.571
826.59	71.795
826.89	55.814
827.19	72.000
827.49	97.059
827.79	72.917
828.09	91.892
828.39	106.667
828.70	100.000
829.00	86.047
829.30	64.286
829.60	114.706
829.90	95.652
830.20	91.429
830.50	96.552
830.80	161.111
831.10	92.308
831.40	82.353
831.70	152.381
832.00	100.000
832.30	117.647
832.60	108.333
832.90	153.846
833.20	168.421
833.50	145.000
833.80	152.632
834.10	47.619
834.40	86.111
834.70	137.500
835.00	51.429
835.30	88.235
835.60	96.667
835.90	108.000
836.20	131.818
836.50	96.000
836.80	63.636
837.10	107.407
837.40	107.407
837.70	137.500
838.00	121.429
838.30	108.696
838.60	127.586
838.90	207.143
839.19	39.130
839.49	133.333
839.79	113.043
840.09	131.250
840.39	135.000
840.69	100.000
840.99	107.143
841.29	206.667
841.59	126.316
841.88	97.436
842.18	126.923
842.48	250.000
842.78	105.000
843.08	103.333
843.38	106.452
843.68	100.000
843.97	111.765
844.27	143.750
844.57	89.474
844.87	160.000
845.17	146.667
845.47	157.143
845.76	138.095
846.06	177.778
846.36	105.882
846.66	107.692
846.96	140.000
847.25	105.882
847.55	121.739
847.85	95.000
848.15	88.235
848.44	263.636
848.74	104.762
849.04	129.167
849.34	75.000
849.63	91.304
849.93	-1000.000
850.23	173.333
850.53	157.692
850.82	227.273
851.12	136.364
851.42	163.636
851.71	215.385
852.01	105.000
852.31	146.154
852.61	115.789
852.90	225.000
853.20	155.556
853.50	188.889
853.79	66.667
854.09	81.818
854.39	158.333
854.68	83.871
854.98	50.000
855.28	111.111
855.57	71.429
855.87	84.000
856.17	140.909
856.46	114.815
856.76	116.667
857.05	73.913
857.35	95.833
857.65	138.462
857.94	166.667
858.24	92.593
858.53	95.652
858.83	188.235
859.13	123.529
859.42	123.529
859.72	178.571
860.01	105.000
860.31	188.889
860.60	160.000
860.90	173.333
861.20	111.111
861.49	192.308
861.79	120.000
862.08	100.000
862.38	93.750
862.67	182.353
862.97	118.750
863.26	211.111
863.56	210.000
863.85	172.727
864.15	122.222
864.44	700.000
864.74	142.857
865.03	118.750
865.33	140.000
865.62	87.097
865.92	113.636
866.21	104.348
866.51	92.857
866.80	420.000
867.10	158.333
867.39	133.333
867.69	-1600.000
867.98	385.714
868.27	129.412
868.57	1600.000
868.86	160.000
869.16	119.048
869.45	112.500
869.75	281.818
870.04	257.143
870.33	191.667
870.63	142.857
870.92	475.000
871.22	187.500
871.51	227.273
871.80	466.667
872.10	500.000
>>>>>End Processed Spectral Data<<<<<
