SpectraSuite Data File
++++++++++++++++++++++++++++++++++++
Date: Thu May 14 14:54:43 PDT 2015
User: schluterlab
Dark Spectrum Present: Yes
Reference Spectrum Present: Yes
Number of Sampled Component Spectra: 1
Spectrometers: USB2E3373
Integration Time (usec): 3000 (USB2E3373)
Spectra Averaged: 3 (USB2E3373)
Boxcar Smoothing: 0 (USB2E3373)
Correct for Electrical Dark: No (USB2E3373)
Strobe/Lamp Enabled: No (USB2E3373)
Correct for Detector Non-linearity: No (USB2E3373)
Correct for Stray Light: No (USB2E3373)
Number of Pixels in Processed Spectrum: 2048
>>>>>Begin Processed Spectral Data<<<<<
178.53	0.000
178.91	228.571
179.29	-1900.000
179.67	-2200.000
180.04	221.429
180.42	240.000
180.80	320.000
181.18	-1500.000
181.56	-900.000
181.94	375.000
182.31	-225.000
182.69	566.667
183.07	-650.000
183.45	500.000
183.83	-100.000
184.20	-600.000
184.58	1100.000
184.96	-475.000
185.34	-222.222
185.72	-100.000
186.09	233.333
186.47	600.000
186.85	480.000
187.23	-144.444
187.61	-2300.000
187.98	320.000
188.36	700.000
188.74	-300.000
189.12	-400.000
189.49	-50.000
189.87	-212.500
190.25	-155.556
190.63	-200.000
191.00	-233.333
191.38	0.000
191.76	-450.000
192.14	-183.333
192.51	1000.000
192.89	-183.333
193.27	0.000
193.65	-257.143
194.02	-2100.000
194.40	-228.571
194.78	57.143
195.15	0.000
195.53	-118.182
195.91	0.000
196.29	-225.000
196.66	-69.231
197.04	-1800.000
197.42	-300.000
197.79	-850.000
198.17	-212.500
198.55	-257.143
198.92	-33.333
199.30	-187.500
199.68	-63.636
200.05	-100.000
200.43	-1300.000
200.81	228.571
201.18	0.000
201.56	144.444
201.94	0.000
202.31	600.000
202.69	-222.222
203.07	600.000
203.44	-133.333
203.82	-200.000
204.19	-83.333
204.57	-383.333
204.95	-250.000
205.32	-1500.000
205.70	200.000
206.08	-150.000
206.45	-33.333
206.83	560.000
207.20	-116.667
207.58	-400.000
207.96	-366.667
208.33	-133.333
208.71	150.000
209.08	-150.000
209.46	0.000
209.84	483.333
210.21	600.000
210.59	650.000
210.96	933.333
211.34	-225.000
211.71	-212.500
212.09	-1700.000
212.46	0.000
212.84	700.000
213.22	-280.000
213.59	-600.000
213.97	-180.000
214.34	-500.000
214.72	266.667
215.09	-500.000
215.47	0.000
215.84	200.000
216.22	1050.000
216.59	-280.000
216.97	-200.000
217.34	-525.000
217.72	-75.000
218.09	-600.000
218.47	-350.000
218.84	0.000
219.22	300.000
219.59	-52.941
219.97	-30.000
220.34	950.000
220.72	-255.556
221.09	-30.769
221.47	-400.000
221.84	-20.000
222.22	-271.429
222.59	0.000
222.97	-62.500
223.34	-340.000
223.72	-1400.000
224.09	-250.000
224.46	-550.000
224.84	-20.000
225.21	-342.857
225.59	-350.000
225.96	-325.000
226.34	-23.077
226.71	283.333
227.08	-950.000
227.46	-73.333
227.83	-550.000
228.21	15.789
228.58	175.000
228.95	950.000
229.33	-58.333
229.70	-90.000
230.08	-5.263
230.45	180.000
230.82	-400.000
231.20	-42.857
231.57	-41.667
231.95	-118.182
232.32	-81.818
232.69	-55.000
233.07	-550.000
233.44	-94.118
233.81	-190.000
234.19	-5.556
234.56	-36.364
234.93	-41.379
235.31	-57.895
235.68	-77.778
236.05	-130.000
236.43	-7.692
236.80	-8.000
237.17	-29.630
237.55	-51.515
237.92	-170.000
238.29	-19.355
238.67	-38.636
239.04	-16.667
239.41	-35.714
239.79	-19.565
240.16	-5.556
240.53	-32.609
240.91	-52.941
241.28	-19.672
241.65	-8.955
242.02	-13.514
242.40	-36.923
242.77	-18.667
243.14	-9.756
243.51	-22.368
243.89	-25.641
244.26	0.000
244.63	-12.745
245.00	-6.542
245.38	-1.754
245.75	-20.354
246.12	-5.556
246.49	-12.403
246.87	-4.286
247.24	-5.960
247.61	-3.947
247.98	-6.040
248.36	-6.173
248.73	-12.883
249.10	-4.918
249.47	-1.493
249.84	3.141
250.22	-5.699
250.59	-6.111
250.96	-1.818
251.33	-8.673
251.70	-0.855
252.08	2.083
252.45	-1.230
252.82	0.413
253.19	-2.734
253.56	1.141
253.94	-4.615
254.31	0.379
254.68	3.147
255.05	-0.651
255.42	0.680
255.79	-2.913
256.16	-4.305
256.54	-3.974
256.91	-1.639
257.28	-2.295
257.65	-2.866
258.02	-2.655
258.39	-3.704
258.76	0.306
259.14	-0.287
259.51	-0.576
259.88	0.850
260.25	-1.389
260.62	0.548
260.99	2.186
261.36	0.268
261.73	-0.531
262.10	-0.275
262.47	-0.268
262.85	2.273
263.22	0.000
263.59	-3.947
263.96	-1.279
264.33	-0.256
264.70	2.469
265.07	2.864
265.44	3.401
265.81	0.926
266.18	0.680
266.55	0.223
266.92	-0.456
267.29	1.094
267.66	0.443
268.03	0.218
268.40	1.461
268.77	-2.050
269.14	-1.762
269.51	-1.096
269.88	1.844
270.25	1.408
270.62	-0.844
270.99	4.646
271.36	2.772
271.73	0.982
272.10	0.200
272.47	-0.802
272.84	1.205
273.21	1.804
273.58	1.613
273.95	0.192
274.32	-1.331
274.69	-0.193
275.06	2.381
275.43	-0.370
275.80	2.469
276.17	0.185
276.54	0.000
276.91	-0.179
277.28	0.904
277.65	0.359
278.02	2.206
278.39	0.725
278.76	-0.176
279.13	-0.709
279.50	2.749
279.87	1.610
280.23	-1.232
280.60	0.847
280.97	-0.329
281.34	-0.340
281.71	1.354
282.08	1.993
282.45	0.164
282.82	1.099
283.19	-1.777
283.56	-0.328
283.92	2.102
284.29	2.528
284.66	1.149
285.03	-0.641
285.40	1.082
285.77	-0.619
286.14	1.069
286.51	1.218
286.87	0.632
287.24	0.904
287.61	2.392
287.98	-0.755
288.35	1.183
288.72	1.479
289.08	1.903
289.45	0.444
289.82	-0.904
290.19	0.575
290.56	1.268
290.93	0.856
291.29	0.826
291.66	0.000
292.03	0.136
292.40	2.721
292.77	0.943
293.13	1.353
293.50	0.788
293.87	-0.403
294.24	2.267
294.60	2.023
294.97	-0.403
295.34	2.177
295.71	1.261
296.08	0.258
296.44	0.980
296.81	0.122
297.18	0.623
297.55	0.943
297.91	1.186
298.28	-0.118
298.65	1.070
299.02	1.181
299.38	1.259
299.75	1.636
300.12	-0.116
300.48	0.922
300.85	1.125
301.22	1.342
301.59	1.484
301.95	2.147
302.32	1.000
302.69	0.876
303.05	1.415
303.42	1.330
303.79	0.625
304.15	2.103
304.52	0.423
304.89	1.780
305.25	1.449
305.62	0.418
305.99	1.340
306.35	1.210
306.72	1.551
307.09	0.305
307.45	1.139
307.82	2.018
308.19	0.303
308.55	2.218
308.92	1.266
309.29	1.533
309.65	0.780
310.02	1.485
310.38	1.181
310.75	2.039
311.12	1.342
311.48	0.978
311.85	0.760
312.22	1.613
312.58	1.972
312.95	1.721
313.31	2.168
313.68	1.923
314.05	2.349
314.41	2.368
314.78	1.544
315.14	2.087
315.51	3.139
315.87	4.140
316.24	3.288
316.61	2.931
316.97	2.353
317.34	3.175
317.70	2.882
318.07	2.910
318.43	4.592
318.80	5.769
319.16	3.691
319.53	3.342
319.89	3.944
320.26	5.872
320.62	4.521
320.99	5.078
321.35	6.100
321.72	6.884
322.08	5.230
322.45	7.046
322.81	6.769
323.18	6.195
323.54	6.983
323.91	7.918
324.27	7.487
324.64	9.824
325.00	8.789
325.37	9.992
325.73	10.165
326.10	11.030
326.46	11.319
326.83	12.250
327.19	10.787
327.56	12.648
327.92	13.297
328.29	12.581
328.65	12.395
329.01	13.959
329.38	13.732
329.74	14.469
330.11	15.497
330.47	14.827
330.84	15.504
331.20	16.250
331.56	16.031
331.93	17.155
332.29	17.119
332.66	16.860
333.02	16.583
333.38	16.191
333.75	16.667
334.11	17.515
334.48	17.574
334.84	18.182
335.20	17.296
335.57	17.116
335.93	18.512
336.29	18.469
336.66	17.578
337.02	18.227
337.38	19.388
337.75	17.686
338.11	19.260
338.47	17.949
338.84	18.528
339.20	18.534
339.56	18.451
339.93	18.719
340.29	18.599
340.65	18.410
341.02	18.356
341.38	17.300
341.74	17.998
342.11	18.584
342.47	17.554
342.83	18.841
343.20	17.907
343.56	18.605
343.92	18.655
344.28	18.828
344.65	17.907
345.01	18.721
345.37	19.984
345.73	18.784
346.10	18.955
346.46	18.275
346.82	18.951
347.19	18.793
347.55	18.361
347.91	18.202
348.27	18.437
348.63	19.193
349.00	17.823
349.36	18.067
349.72	17.783
350.08	18.796
350.45	18.631
350.81	18.024
351.17	17.820
351.53	18.575
351.89	18.679
352.26	18.955
352.62	18.209
352.98	18.550
353.34	17.177
353.70	18.721
354.07	17.437
354.43	18.679
354.79	18.549
355.15	18.690
355.51	18.494
355.87	17.726
356.24	18.403
356.60	18.330
356.96	19.644
357.32	17.398
357.68	17.643
358.04	18.413
358.40	17.761
358.77	18.129
359.13	17.134
359.49	17.249
359.85	18.274
360.21	17.934
360.57	18.449
360.93	18.618
361.29	18.877
361.66	18.755
362.02	18.580
362.38	17.850
362.74	18.366
363.10	19.188
363.46	18.698
363.82	18.040
364.18	18.649
364.54	18.326
364.90	18.528
365.26	18.483
365.62	19.067
365.98	18.924
366.35	18.859
366.71	19.320
367.07	18.403
367.43	18.779
367.79	20.173
368.15	19.197
368.51	18.742
368.87	19.073
369.23	19.000
369.59	18.716
369.95	19.135
370.31	18.839
370.67	19.807
371.03	18.352
371.39	19.678
371.75	19.464
372.11	19.851
372.47	20.108
372.83	20.157
373.19	19.346
373.55	19.309
373.91	19.632
374.27	20.569
374.63	19.080
374.99	20.027
375.35	20.519
375.71	19.484
376.07	19.948
376.42	20.466
376.78	20.820
377.14	20.649
377.50	20.114
377.86	21.798
378.22	21.677
378.58	21.046
378.94	20.129
379.30	20.269
379.66	20.517
380.02	20.485
380.38	21.429
380.74	21.521
381.09	20.964
381.45	21.364
381.81	21.077
382.17	21.615
382.53	20.819
382.89	21.445
383.25	20.868
383.61	21.412
383.97	21.967
384.32	22.069
384.68	21.578
385.04	22.152
385.40	23.217
385.76	22.978
386.12	22.501
386.48	21.824
386.83	23.242
387.19	22.074
387.55	21.948
387.91	22.317
388.27	22.806
388.62	21.993
388.98	22.166
389.34	23.041
389.70	23.417
390.06	22.913
390.42	23.795
390.77	23.480
391.13	22.887
391.49	23.792
391.85	22.364
392.20	23.843
392.56	23.863
392.92	23.501
393.28	23.273
393.64	23.073
393.99	24.346
394.35	24.007
394.71	23.114
395.07	22.874
395.42	22.958
395.78	24.741
396.14	24.183
396.50	23.337
396.85	24.150
397.21	23.728
397.57	23.910
397.92	24.227
398.28	23.574
398.64	24.199
399.00	23.560
399.35	24.346
399.71	24.674
400.07	24.088
400.42	24.040
400.78	24.306
401.14	24.872
401.49	24.559
401.85	25.058
402.21	24.681
402.57	25.469
402.92	25.059
403.28	24.356
403.63	23.508
403.99	25.475
404.35	24.503
404.70	25.326
405.06	25.380
405.42	24.649
405.77	25.682
406.13	25.068
406.49	25.732
406.84	25.762
407.20	25.377
407.55	25.197
407.91	25.707
408.27	25.501
408.62	25.771
408.98	25.595
409.34	25.806
409.69	25.711
410.05	25.674
410.40	26.972
410.76	26.248
411.11	26.593
411.47	25.553
411.83	26.279
412.18	26.687
412.54	26.793
412.89	26.019
413.25	25.790
413.60	26.307
413.96	26.049
414.31	25.779
414.67	26.714
415.03	27.508
415.38	26.986
415.74	27.734
416.09	26.774
416.45	27.301
416.80	26.010
417.16	27.969
417.51	26.712
417.87	28.204
418.22	27.485
418.58	27.076
418.93	28.522
419.29	27.312
419.64	27.491
420.00	27.893
420.35	28.748
420.71	27.341
421.06	26.970
421.42	29.243
421.77	28.002
422.12	28.013
422.48	28.520
422.83	28.587
423.19	28.647
423.54	29.204
423.90	28.216
424.25	28.480
424.61	28.932
424.96	28.666
425.31	29.671
425.67	29.415
426.02	29.496
426.38	28.817
426.73	29.241
427.09	30.046
427.44	29.110
427.79	29.630
428.15	29.167
428.50	30.337
428.85	28.817
429.21	30.479
429.56	29.812
429.92	29.926
430.27	30.795
430.62	30.532
430.98	29.611
431.33	29.717
431.68	29.981
432.04	31.133
432.39	30.316
432.74	30.594
433.10	30.827
433.45	30.881
433.80	30.633
434.16	31.663
434.51	31.398
434.86	32.573
435.22	31.084
435.57	32.193
435.92	31.219
436.28	32.309
436.63	32.551
436.98	31.777
437.34	32.694
437.69	32.526
438.04	32.787
438.39	32.165
438.75	31.433
439.10	33.140
439.45	31.805
439.81	32.938
440.16	32.654
440.51	32.497
440.86	31.907
441.22	31.886
441.57	32.809
441.92	32.202
442.27	33.131
442.63	32.787
442.98	33.404
443.33	33.666
443.68	34.638
444.03	33.302
444.39	33.426
444.74	33.333
445.09	33.198
445.44	33.404
445.79	33.956
446.15	33.248
446.50	33.695
446.85	34.193
447.20	34.139
447.55	33.839
447.91	33.037
448.26	34.144
448.61	33.422
448.96	34.764
449.31	34.624
449.66	34.150
450.02	34.283
450.37	33.617
450.72	33.907
451.07	34.681
451.42	33.680
451.77	34.408
452.12	33.973
452.47	33.868
452.83	34.459
453.18	34.910
453.53	34.061
453.88	35.119
454.23	34.972
454.58	34.939
454.93	33.799
455.28	35.220
455.63	34.565
455.98	35.251
456.34	35.395
456.69	35.685
457.04	35.343
457.39	34.756
457.74	35.682
458.09	34.871
458.44	35.722
458.79	35.121
459.14	34.452
459.49	34.918
459.84	34.837
460.19	34.092
460.54	35.718
460.89	36.474
461.24	34.885
461.59	34.975
461.94	34.626
462.29	35.722
462.64	36.029
462.99	35.342
463.34	35.951
463.69	34.584
464.04	35.742
464.39	35.874
464.74	35.519
465.09	35.755
465.44	35.891
465.79	35.431
466.14	34.862
466.49	35.579
466.84	36.419
467.19	35.491
467.54	34.430
467.89	34.598
468.24	35.623
468.59	35.727
468.94	35.315
469.29	36.713
469.64	35.474
469.99	36.138
470.34	35.149
470.68	35.133
471.03	35.887
471.38	35.906
471.73	35.826
472.08	36.358
472.43	36.424
472.78	35.831
473.13	34.829
473.48	36.556
473.83	37.377
474.17	36.401
474.52	36.260
474.87	35.991
475.22	36.000
475.57	36.293
475.92	36.386
476.27	37.114
476.61	35.981
476.96	36.184
477.31	36.683
477.66	37.671
478.01	36.248
478.36	35.643
478.70	36.010
479.05	37.014
479.40	36.476
479.75	37.224
480.10	37.470
480.45	37.101
480.79	37.143
481.14	36.903
481.49	36.574
481.84	36.684
482.19	37.333
482.53	36.729
482.88	36.774
483.23	37.350
483.58	35.939
483.92	35.771
484.27	37.130
484.62	36.304
484.97	36.664
485.31	35.692
485.66	33.864
486.01	33.647
486.36	35.589
486.70	36.609
487.05	38.114
487.40	36.824
487.75	36.310
488.09	36.292
488.44	34.772
488.79	36.189
489.13	36.459
489.48	35.961
489.83	36.177
490.17	36.695
490.52	35.714
490.87	36.971
491.22	37.565
491.56	37.159
491.91	37.287
492.26	36.651
492.60	36.423
492.95	36.551
493.30	36.710
493.64	36.487
493.99	36.886
494.34	36.803
494.68	36.788
495.03	37.401
495.37	37.328
495.72	36.463
496.07	37.730
496.41	36.765
496.76	37.573
497.11	37.325
497.45	37.419
497.80	37.317
498.14	36.961
498.49	36.811
498.84	36.883
499.18	37.922
499.53	37.668
499.87	38.286
500.22	37.177
500.56	36.527
500.91	37.849
501.26	36.773
501.60	37.251
501.95	37.299
502.29	36.902
502.64	37.691
502.98	37.877
503.33	37.019
503.67	37.026
504.02	36.559
504.36	37.668
504.71	38.126
505.06	36.880
505.40	37.203
505.75	37.659
506.09	37.799
506.44	37.372
506.78	38.165
507.13	37.575
507.47	38.607
507.82	36.884
508.16	36.950
508.51	36.099
508.85	37.506
509.19	37.897
509.54	37.224
509.88	37.300
510.23	37.980
510.57	38.086
510.92	37.736
511.26	37.181
511.61	36.890
511.95	38.214
512.30	37.174
512.64	36.032
512.98	37.569
513.33	38.306
513.67	37.481
514.02	38.017
514.36	37.340
514.70	38.542
515.05	38.790
515.39	37.900
515.74	38.176
516.08	37.612
516.42	38.409
516.77	37.750
517.11	37.390
517.46	38.759
517.80	38.482
518.14	38.901
518.49	37.798
518.83	36.881
519.17	36.672
519.52	37.526
519.86	38.807
520.20	37.700
520.55	37.404
520.89	37.725
521.23	37.577
521.58	38.362
521.92	38.017
522.26	36.942
522.61	37.731
522.95	38.524
523.29	38.103
523.64	38.397
523.98	37.422
524.32	39.427
524.66	37.279
525.01	37.769
525.35	37.392
525.69	36.659
526.04	36.912
526.38	37.356
526.72	37.255
527.06	39.179
527.41	37.784
527.75	38.658
528.09	36.895
528.43	37.951
528.78	36.532
529.12	37.041
529.46	37.324
529.80	36.728
530.15	36.464
530.49	37.782
530.83	38.135
531.17	36.440
531.51	36.342
531.86	37.139
532.20	37.195
532.54	37.223
532.88	36.606
533.22	36.181
533.57	37.276
533.91	35.859
534.25	36.461
534.59	37.184
534.93	36.106
535.27	36.789
535.62	37.294
535.96	36.200
536.30	36.134
536.64	37.357
536.98	37.515
537.32	37.593
537.66	36.868
538.01	35.045
538.35	36.541
538.69	35.757
539.03	36.910
539.37	35.748
539.71	35.315
540.05	36.871
540.39	35.758
540.73	34.973
541.07	35.622
541.42	34.377
541.76	34.994
542.10	35.404
542.44	34.896
542.78	35.097
543.12	35.459
543.46	35.897
543.80	34.712
544.14	34.889
544.48	35.106
544.82	35.368
545.16	34.645
545.50	35.111
545.84	35.334
546.18	35.741
546.52	34.841
546.86	36.352
547.20	33.588
547.54	34.582
547.88	34.057
548.22	34.503
548.56	34.231
548.90	33.194
549.24	35.198
549.58	34.890
549.92	33.929
550.26	34.304
550.60	33.376
550.94	34.994
551.28	35.248
551.62	35.243
551.96	33.074
552.30	34.799
552.64	34.661
552.98	34.311
553.32	34.662
553.66	35.241
554.00	33.859
554.34	33.977
554.68	34.087
555.02	34.363
555.36	34.517
555.69	32.992
556.03	34.552
556.37	33.542
556.71	34.115
557.05	33.802
557.39	33.046
557.73	33.025
558.07	33.775
558.41	33.887
558.75	33.130
559.08	34.656
559.42	32.716
559.76	32.429
560.10	32.150
560.44	33.377
560.78	32.375
561.12	32.635
561.45	31.995
561.79	32.295
562.13	32.286
562.47	31.751
562.81	32.152
563.15	33.018
563.48	32.940
563.82	31.560
564.16	32.465
564.50	31.228
564.84	30.678
565.17	31.882
565.51	31.013
565.85	31.591
566.19	31.740
566.52	31.188
566.86	31.183
567.20	29.908
567.54	29.899
567.88	31.346
568.21	30.731
568.55	30.216
568.89	29.959
569.23	30.249
569.56	29.386
569.90	29.366
570.24	29.747
570.57	28.897
570.91	28.475
571.25	28.580
571.59	28.750
571.92	27.585
572.26	28.428
572.60	27.983
572.93	27.915
573.27	28.154
573.61	27.263
573.95	27.798
574.28	27.657
574.62	27.217
574.96	26.753
575.29	26.900
575.63	27.073
575.97	27.305
576.30	27.362
576.64	26.867
576.98	26.583
577.31	26.413
577.65	26.310
577.98	26.299
578.32	25.887
578.66	26.932
578.99	26.684
579.33	26.612
579.67	26.269
580.00	26.118
580.34	26.331
580.67	25.728
581.01	25.855
581.35	25.580
581.68	25.572
582.02	26.026
582.35	26.258
582.69	26.497
583.02	26.070
583.36	26.083
583.70	26.358
584.03	26.134
584.37	25.599
584.70	25.232
585.04	25.087
585.37	25.077
585.71	25.113
586.04	25.517
586.38	25.627
586.72	25.244
587.05	25.122
587.39	25.405
587.72	25.167
588.06	25.532
588.39	25.566
588.73	25.344
589.06	25.226
589.40	24.831
589.73	25.193
590.07	25.133
590.40	25.693
590.73	25.027
591.07	25.614
591.40	24.767
591.74	24.960
592.07	25.294
592.41	25.276
592.74	24.459
593.08	24.713
593.41	24.993
593.75	24.885
594.08	25.235
594.41	24.936
594.75	24.610
595.08	24.933
595.42	23.994
595.75	23.959
596.09	25.280
596.42	24.400
596.75	24.855
597.09	25.333
597.42	24.116
597.75	24.108
598.09	24.802
598.42	24.125
598.76	23.806
599.09	23.674
599.42	23.299
599.76	24.034
600.09	24.358
600.42	23.857
600.76	23.877
601.09	22.934
601.42	22.932
601.76	23.379
602.09	23.731
602.42	22.828
602.76	23.542
603.09	23.715
603.42	23.338
603.76	22.868
604.09	23.421
604.42	23.633
604.76	22.717
605.09	23.654
605.42	22.927
605.75	23.346
606.09	22.732
606.42	22.255
606.75	22.151
607.09	22.273
607.42	23.083
607.75	22.978
608.08	22.494
608.42	23.176
608.75	22.927
609.08	22.623
609.41	22.276
609.75	22.768
610.08	23.219
610.41	22.727
610.74	22.143
611.07	22.380
611.41	22.735
611.74	22.494
612.07	22.768
612.40	22.481
612.73	22.934
613.07	22.592
613.40	22.474
613.73	22.388
614.06	22.130
614.39	22.741
614.72	21.591
615.06	21.655
615.39	22.426
615.72	21.754
616.05	22.098
616.38	22.906
616.71	22.100
617.05	21.619
617.38	22.204
617.71	21.706
618.04	21.856
618.37	22.951
618.70	21.719
619.03	21.804
619.36	22.133
619.69	21.653
620.03	21.971
620.36	21.718
620.69	21.407
621.02	22.244
621.35	22.424
621.68	22.921
622.01	22.349
622.34	20.572
622.67	21.718
623.00	20.918
623.33	21.898
623.66	22.244
623.99	20.540
624.32	22.807
624.65	21.236
624.99	22.432
625.32	21.685
625.65	22.185
625.98	21.695
626.31	20.978
626.64	21.172
626.97	20.855
627.30	19.894
627.63	20.930
627.96	21.697
628.29	21.712
628.62	20.823
628.95	21.911
629.28	20.901
629.61	21.380
629.94	21.841
630.26	20.593
630.59	21.416
630.92	19.827
631.25	22.004
631.58	22.316
631.91	21.181
632.24	21.422
632.57	20.019
632.90	21.163
633.23	22.551
633.56	20.918
633.89	19.525
634.22	21.622
634.55	21.399
634.88	21.753
635.20	21.421
635.53	22.599
635.86	22.319
636.19	20.573
636.52	21.414
636.85	20.735
637.18	20.998
637.51	20.538
637.83	22.038
638.16	21.659
638.49	21.479
638.82	19.166
639.15	20.504
639.48	21.824
639.81	20.901
640.13	21.555
640.46	19.515
640.79	18.750
641.12	20.497
641.45	20.452
641.77	22.208
642.10	20.079
642.43	22.473
642.76	20.732
643.09	20.137
643.41	20.448
643.74	20.414
644.07	20.690
644.40	21.216
644.73	20.755
645.05	20.411
645.38	19.424
645.71	20.674
646.04	18.651
646.36	20.584
646.69	19.632
647.02	21.713
647.35	20.916
647.67	19.968
648.00	21.656
648.33	20.721
648.66	19.258
648.98	18.231
649.31	20.433
649.64	20.452
649.96	19.363
650.29	18.776
650.62	17.963
650.94	18.168
651.27	17.814
651.60	17.690
651.92	18.085
652.25	18.379
652.58	21.045
652.90	18.023
653.23	18.732
653.56	17.261
653.88	20.927
654.21	18.592
654.54	19.509
654.86	17.989
655.19	16.688
655.52	18.675
655.84	16.793
656.17	19.713
656.49	27.256
656.82	29.846
657.15	23.383
657.47	18.022
657.80	13.206
658.13	10.254
658.45	13.332
658.78	16.527
659.10	15.316
659.43	15.111
659.75	14.066
660.08	14.062
660.41	13.730
660.73	16.306
661.06	16.153
661.38	16.427
661.71	17.759
662.03	17.460
662.36	18.784
662.68	18.011
663.01	17.699
663.33	18.526
663.66	18.681
663.98	19.231
664.31	18.386
664.63	17.534
664.96	16.697
665.28	15.971
665.61	20.804
665.93	16.786
666.26	16.846
666.58	18.635
666.91	17.944
667.23	18.095
667.56	14.596
667.88	18.200
668.21	14.844
668.53	14.672
668.86	17.682
669.18	17.312
669.50	18.290
669.83	15.000
670.15	14.961
670.48	18.452
670.80	16.826
671.13	19.093
671.45	15.748
671.77	17.137
672.10	15.500
672.42	17.314
672.75	15.975
673.07	16.269
673.39	16.025
673.72	16.946
674.04	17.069
674.37	14.848
674.69	16.931
675.01	16.762
675.34	14.504
675.66	13.296
675.98	17.351
676.31	15.430
676.63	17.871
676.95	15.326
677.28	17.540
677.60	13.189
677.92	15.739
678.25	17.002
678.57	16.192
678.89	17.065
679.22	14.634
679.54	13.162
679.86	13.898
680.18	15.257
680.51	14.780
680.83	14.730
681.15	14.310
681.48	15.717
681.80	15.199
682.12	14.336
682.44	15.359
682.77	13.298
683.09	16.288
683.41	15.310
683.73	13.852
684.06	17.343
684.38	13.238
684.70	13.645
685.02	13.941
685.34	11.980
685.67	14.353
685.99	15.184
686.31	13.517
686.63	13.586
686.96	15.142
687.28	13.518
687.60	13.973
687.92	14.630
688.24	16.694
688.56	13.793
688.89	13.793
689.21	14.677
689.53	11.176
689.85	12.426
690.17	12.222
690.49	14.542
690.82	12.277
691.14	12.348
691.46	15.105
691.78	14.733
692.10	12.844
692.42	12.321
692.74	13.430
693.06	12.037
693.39	14.801
693.71	12.406
694.03	12.639
694.35	12.000
694.67	11.910
694.99	11.277
695.31	12.141
695.63	12.338
695.95	14.079
696.27	13.187
696.59	12.611
696.91	12.387
697.23	14.066
697.56	10.387
697.88	11.553
698.20	10.734
698.52	15.152
698.84	13.306
699.16	13.878
699.48	10.879
699.80	10.213
700.12	13.100
700.44	12.673
700.76	11.401
701.08	12.591
701.40	13.212
701.72	10.697
702.04	11.497
702.36	9.948
702.68	11.247
703.00	11.491
703.32	11.330
703.64	13.936
703.96	14.081
704.28	10.074
704.60	15.190
704.91	12.500
705.23	12.877
705.55	11.978
705.87	7.273
706.19	12.270
706.51	11.747
706.83	8.069
707.15	7.937
707.47	8.411
707.79	10.480
708.11	9.534
708.43	9.677
708.74	8.705
709.06	10.673
709.38	12.676
709.70	12.903
710.02	10.853
710.34	11.702
710.66	9.497
710.98	9.563
711.29	10.440
711.61	9.040
711.93	10.256
712.25	11.892
712.57	14.159
712.89	12.647
713.20	13.609
713.52	13.295
713.84	11.421
714.16	10.789
714.48	11.340
714.80	11.688
715.11	9.974
715.43	10.345
715.75	11.316
716.07	8.287
716.39	13.388
716.70	7.831
717.02	7.869
717.34	4.878
717.66	7.383
717.97	6.849
718.29	8.591
718.61	10.526
718.93	6.796
719.24	9.317
719.56	11.656
719.88	7.207
720.20	11.935
720.51	10.870
720.83	9.375
721.15	7.237
721.46	5.137
721.78	9.667
722.10	6.149
722.42	7.718
722.73	8.710
723.05	9.123
723.37	5.208
723.68	7.885
724.00	7.581
724.32	9.507
724.63	7.692
724.95	11.702
725.27	12.544
725.58	7.774
725.90	11.379
726.22	10.031
726.53	9.416
726.85	7.862
727.16	9.970
727.48	11.315
727.80	7.285
728.11	3.534
728.43	5.387
728.74	6.689
729.06	9.934
729.38	12.662
729.69	9.060
730.01	9.524
730.32	6.970
730.64	10.692
730.96	9.317
731.27	11.173
731.59	8.516
731.90	9.870
732.22	8.333
732.53	5.525
732.85	8.857
733.16	7.331
733.48	6.098
733.80	8.635
734.11	10.826
734.43	11.081
734.74	12.152
735.06	9.548
735.37	8.108
735.69	7.027
736.00	8.192
736.32	9.164
736.63	6.944
736.95	7.184
737.26	9.697
737.58	5.455
737.89	8.529
738.21	6.728
738.52	5.902
738.83	11.263
739.15	7.801
739.46	6.463
739.78	9.509
740.09	8.309
740.41	9.913
740.72	8.000
741.04	7.443
741.35	7.018
741.66	6.275
741.98	8.197
742.29	8.368
742.61	7.895
742.92	10.769
743.23	11.191
743.55	8.527
743.86	9.200
744.18	2.479
744.49	2.954
744.80	7.819
745.12	10.127
745.43	10.976
745.74	5.172
746.06	2.966
746.37	8.861
746.68	8.943
747.00	5.833
747.31	6.867
747.62	10.769
747.94	7.287
748.25	6.426
748.56	4.490
748.88	3.846
749.19	9.483
749.50	2.165
749.82	6.827
750.13	10.320
750.44	3.333
750.75	4.615
751.07	6.154
751.38	11.041
751.69	9.585
752.01	5.178
752.32	6.209
752.63	7.143
752.94	7.612
753.26	4.461
753.57	2.593
753.88	4.869
754.19	9.646
754.51	6.752
754.82	11.576
755.13	8.525
755.44	5.802
755.75	5.592
756.07	10.448
756.38	8.176
756.69	9.036
757.00	4.432
757.31	7.377
757.63	4.604
757.94	7.277
758.25	9.255
758.56	5.447
758.87	8.864
759.18	5.333
759.50	8.215
759.81	7.843
760.12	7.547
760.43	5.990
760.74	8.128
761.05	7.250
761.36	4.096
761.67	5.076
761.99	7.297
762.30	4.878
762.61	3.630
762.92	6.716
763.23	7.116
763.54	8.993
763.85	5.498
764.16	3.367
764.47	6.690
764.78	3.834
765.10	5.865
765.41	11.026
765.72	5.556
766.03	8.475
766.34	5.016
766.65	4.181
766.96	6.375
767.27	4.608
767.58	4.478
767.89	6.731
768.20	5.634
768.51	3.704
768.82	5.221
769.13	4.545
769.44	1.154
769.75	7.581
770.06	6.154
770.37	12.598
770.68	0.000
770.99	4.049
771.30	12.222
771.61	4.943
771.92	2.963
772.23	3.239
772.54	0.463
772.85	9.677
773.16	7.143
773.47	0.000
773.78	-2.162
774.09	5.114
774.39	11.000
774.70	5.464
775.01	1.220
775.32	-2.941
775.63	4.294
775.94	1.274
776.25	7.742
776.56	5.769
776.87	3.401
777.18	-2.069
777.48	2.797
777.79	1.351
778.10	-6.618
778.41	0.000
778.72	6.897
779.03	1.852
779.34	5.455
779.65	2.073
779.95	2.222
780.26	8.523
780.57	2.581
780.88	6.522
781.19	5.161
781.50	5.294
781.80	8.065
782.11	4.233
782.42	-0.505
782.73	1.796
783.04	3.911
783.34	-3.030
783.65	-1.961
783.96	-4.348
784.27	2.381
784.57	3.974
784.88	-5.714
785.19	3.937
785.50	2.362
785.81	-3.759
786.11	-0.769
786.42	-4.317
786.73	-4.317
787.04	2.256
787.34	-4.098
787.65	-1.600
787.96	0.000
788.26	-1.399
788.57	6.294
788.88	0.000
789.19	-1.961
789.49	4.110
789.80	0.000
790.11	0.000
790.41	-1.562
790.72	2.542
791.03	-6.796
791.33	6.087
791.64	9.649
791.95	-10.714
792.25	-2.857
792.56	4.464
792.87	0.000
793.17	6.250
793.48	-5.208
793.79	-25.301
794.09	-13.761
794.40	-4.587
794.70	7.483
795.01	-7.143
795.32	4.110
795.62	7.746
795.93	-6.061
796.23	0.820
796.54	-11.607
796.85	1.064
797.15	-10.870
797.46	-9.589
797.76	-5.000
798.07	-10.870
798.37	-5.155
798.68	-18.182
798.99	-3.448
799.29	2.247
799.60	2.128
799.90	-13.253
800.21	-9.231
800.51	-16.418
800.82	-13.235
801.12	-16.438
801.43	-23.529
801.73	-16.949
802.04	-16.667
802.34	-13.333
802.65	-6.780
802.95	-1.493
803.26	-11.864
803.56	-21.918
803.87	-14.286
804.17	-13.699
804.48	-22.807
804.78	-15.278
805.09	-20.690
805.39	-6.757
805.70	-23.944
806.00	-9.756
806.30	-6.024
806.61	-10.959
806.91	-2.885
807.22	-5.556
807.52	-12.644
807.83	-1.389
808.13	2.410
808.43	-3.371
808.74	-23.750
809.04	-33.824
809.35	-8.000
809.65	-20.000
809.95	-12.329
810.26	-35.088
810.56	-22.414
810.86	-7.353
811.17	-21.053
811.47	-29.508
811.77	-37.778
812.08	-8.475
812.38	-18.333
812.69	-8.621
812.99	-30.189
813.29	-53.846
813.59	6.000
813.90	-26.316
814.20	-16.364
814.50	12.676
814.81	0.000
815.11	-9.836
815.41	-11.940
815.72	-10.345
816.02	-17.857
816.32	-17.778
816.62	-25.000
816.93	-17.778
817.23	-11.111
817.53	-8.511
817.84	-7.143
818.14	-41.176
818.44	0.000
818.74	-11.111
819.04	-51.282
819.35	-57.143
819.65	-76.923
819.95	-22.642
820.25	-13.333
820.56	-9.524
820.86	-34.375
821.16	-33.333
821.46	-20.930
821.76	-22.000
822.07	-7.143
822.37	-41.304
822.67	-12.766
822.97	-56.757
823.27	-35.000
823.57	-6.122
823.88	-17.778
824.18	-27.500
824.48	-36.667
824.78	-52.000
825.08	-60.606
825.38	0.000
825.69	-14.894
825.99	-16.667
826.29	-77.143
826.59	-41.026
826.89	-41.860
827.19	-20.000
827.49	-38.235
827.79	-12.500
828.09	-37.838
828.39	-60.000
828.70	-39.024
829.00	-34.884
829.30	-114.286
829.60	-29.412
829.90	-13.043
830.20	-60.000
830.50	-75.862
830.80	-61.111
831.10	-53.846
831.40	-32.353
831.70	-42.857
832.00	-9.677
832.30	-164.706
832.60	-41.667
832.90	-130.769
833.20	-68.421
833.50	-135.000
833.80	-84.211
834.10	-147.619
834.40	-19.444
834.70	-6.250
835.00	-60.000
835.30	-32.353
835.60	-46.667
835.90	-36.000
836.20	-90.909
836.50	-48.000
836.80	-39.394
837.10	-48.148
837.40	-77.778
837.70	-162.500
838.00	-35.714
838.30	-26.087
838.60	-17.241
838.90	-164.286
839.19	-126.087
839.49	-216.667
839.79	-21.739
840.09	-81.250
840.39	-85.000
840.69	-22.581
840.99	-42.857
841.29	-146.667
841.59	-78.947
841.88	7.692
842.18	-46.154
842.48	-90.000
842.78	-80.000
843.08	-6.667
843.38	-6.452
843.68	-127.778
843.97	-8.824
844.27	-137.500
844.57	-84.211
844.87	-220.000
845.17	-106.667
845.47	9.524
845.76	-47.619
846.06	-233.333
846.36	-141.176
846.66	-38.462
846.96	-146.667
847.25	-58.824
847.55	4.348
847.85	-110.000
848.15	-17.647
848.44	-154.545
848.74	-42.857
849.04	-54.167
849.34	-162.500
849.63	-52.174
849.93	1200.000
850.23	-40.000
850.53	-7.692
850.82	-136.364
851.12	-4.545
851.42	-100.000
851.71	-15.385
852.01	-50.000
852.31	-61.538
852.61	-84.211
852.90	-91.667
853.20	-66.667
853.50	-266.667
853.79	-80.952
854.09	-104.545
854.39	-200.000
854.68	-70.968
854.98	-84.615
855.28	-55.556
855.57	-53.571
855.87	-40.000
856.17	-68.182
856.46	-59.259
856.76	-72.222
857.05	-73.913
857.35	-104.167
857.65	-138.462
857.94	-28.571
858.24	-11.111
858.53	-56.522
858.83	-88.235
859.13	-111.765
859.42	-100.000
859.72	-92.857
860.01	-95.000
860.31	-122.222
860.60	-90.000
860.90	-126.667
861.20	-88.889
861.49	-146.154
861.79	3.333
862.08	-107.692
862.38	-25.000
862.67	-58.824
862.97	-87.500
863.26	-188.889
863.56	-80.000
863.85	-136.364
864.15	-50.000
864.44	-466.667
864.74	-100.000
865.03	-93.750
865.33	-230.000
865.62	-45.161
865.92	-22.727
866.21	-47.826
866.51	-92.857
866.80	-300.000
867.10	-166.667
867.39	-200.000
867.69	2500.000
867.98	-228.571
868.27	-82.353
868.57	-1700.000
868.86	-180.000
869.16	-47.619
869.45	-29.167
869.75	-72.727
870.04	-285.714
870.33	-100.000
870.63	-457.143
870.92	-200.000
871.22	-387.500
871.51	-163.636
871.80	-833.333
872.10	-1000.000
>>>>>End Processed Spectral Data<<<<<
