SpectraSuite Data File
++++++++++++++++++++++++++++++++++++
Date: Thu May 14 15:05:33 PDT 2015
User: schluterlab
Dark Spectrum Present: Yes
Reference Spectrum Present: Yes
Number of Sampled Component Spectra: 1
Spectrometers: USB2E3373
Integration Time (usec): 3000 (USB2E3373)
Spectra Averaged: 3 (USB2E3373)
Boxcar Smoothing: 0 (USB2E3373)
Correct for Electrical Dark: No (USB2E3373)
Strobe/Lamp Enabled: No (USB2E3373)
Correct for Detector Non-linearity: No (USB2E3373)
Correct for Stray Light: No (USB2E3373)
Number of Pixels in Processed Spectrum: 2048
>>>>>Begin Processed Spectral Data<<<<<
178.53	0.000
178.91	371.429
179.29	-3500.000
179.67	-3000.000
180.04	321.429
180.42	240.000
180.80	680.000
181.18	-2200.000
181.56	-2000.000
181.94	675.000
182.31	-750.000
182.69	933.333
183.07	-1050.000
183.45	750.000
183.83	-400.000
184.20	-766.667
184.58	2200.000
184.96	-725.000
185.34	-300.000
185.72	-300.000
186.09	411.111
186.47	1350.000
186.85	780.000
187.23	-388.889
187.61	-3500.000
187.98	560.000
188.36	725.000
188.74	-700.000
189.12	-533.333
189.49	-68.750
189.87	-387.500
190.25	-366.667
190.63	-500.000
191.00	-344.444
191.38	0.000
191.76	-775.000
192.14	-500.000
192.51	1350.000
192.89	-300.000
193.27	0.000
193.65	-314.286
194.02	-3500.000
194.40	-285.714
194.78	542.857
195.15	0.000
195.53	-172.727
195.91	0.000
196.29	-450.000
196.66	-138.462
197.04	-3400.000
197.42	-414.286
197.79	-1100.000
198.17	-337.500
198.55	-471.429
198.92	-300.000
199.30	-350.000
199.68	-209.091
200.05	-142.857
200.43	-1250.000
200.81	471.429
201.18	0.000
201.56	400.000
201.94	0.000
202.31	1133.333
202.69	-344.444
203.07	1700.000
203.44	-255.556
203.82	-700.000
204.19	-225.000
204.57	-433.333
204.95	-412.500
205.32	-2600.000
205.70	700.000
206.08	-433.333
206.45	-366.667
206.83	840.000
207.20	-466.667
207.58	-620.000
207.96	-566.667
208.33	-466.667
208.71	250.000
209.08	-383.333
209.46	0.000
209.84	600.000
210.21	1100.000
210.59	950.000
210.96	1133.333
211.34	-475.000
211.71	-375.000
212.09	-1800.000
212.46	0.000
212.84	1750.000
213.22	-680.000
213.59	-675.000
213.97	-250.000
214.34	-933.333
214.72	566.667
215.09	-850.000
215.47	0.000
215.84	385.714
216.22	1500.000
216.59	-460.000
216.97	-500.000
217.34	-525.000
217.72	-350.000
218.09	-525.000
218.47	-825.000
218.84	0.000
219.22	540.000
219.59	-135.294
219.97	-100.000
220.34	1900.000
220.72	-288.889
221.09	-184.615
221.47	-1033.333
221.84	-240.000
222.22	-457.143
222.59	0.000
222.97	-237.500
223.34	-660.000
223.72	-2500.000
224.09	-825.000
224.46	-1025.000
224.84	-420.000
225.21	-371.429
225.59	-750.000
225.96	-650.000
226.34	-30.769
226.71	566.667
227.08	-1350.000
227.46	-133.333
227.83	-750.000
228.21	-131.579
228.58	437.500
228.95	1750.000
229.33	-183.333
229.70	-240.000
230.08	-73.684
230.45	320.000
230.82	-866.667
231.20	-164.286
231.57	-241.667
231.95	-263.636
232.32	-145.455
232.69	-70.000
233.07	-900.000
233.44	-129.412
233.81	-260.000
234.19	-83.333
234.56	-113.636
234.93	-58.621
235.31	-152.632
235.68	-127.778
236.05	-170.000
236.43	-65.385
236.80	-80.000
237.17	-77.778
237.55	-96.970
237.92	-330.000
238.29	-93.548
238.67	-47.727
239.04	-55.556
239.41	-80.952
239.79	-63.043
240.16	-48.148
240.53	-56.522
240.91	-58.824
241.28	-47.541
241.65	-25.373
242.02	-28.378
242.40	-43.077
242.77	-36.000
243.14	-36.585
243.51	-44.737
243.89	-41.026
244.26	-19.802
244.63	-28.431
245.00	-15.888
245.38	-18.421
245.75	-30.973
246.12	-16.667
246.49	-25.581
246.87	-20.000
247.24	-15.232
247.61	-15.132
247.98	-15.436
248.36	-19.753
248.73	-19.632
249.10	-11.475
249.47	-13.433
249.84	-10.995
250.22	-13.472
250.59	-16.667
250.96	-4.091
251.33	-17.347
251.70	-11.538
252.08	-8.750
252.45	-8.607
252.82	-7.851
253.19	-9.375
253.56	-9.125
253.94	-12.692
254.31	-10.227
254.68	-6.294
255.05	-3.583
255.42	-7.483
255.79	-10.356
256.16	-9.272
256.54	-9.272
256.91	-8.525
257.28	-7.213
257.65	-9.236
258.02	-10.914
258.39	-7.977
258.76	-4.893
259.14	-5.172
259.51	-7.781
259.88	-7.649
260.25	-8.333
260.62	-9.315
260.99	-4.918
261.36	-4.290
261.73	-7.162
262.10	-10.165
262.47	-7.507
262.85	-3.030
263.22	-8.052
263.59	-6.842
263.96	-3.836
264.33	-6.650
264.70	-6.420
265.07	-4.535
265.44	-2.268
265.81	-5.556
266.18	-5.215
266.55	-6.027
266.92	-7.517
267.29	-3.939
267.66	-3.326
268.03	-5.677
268.40	-4.175
268.77	-7.745
269.14	-6.167
269.51	-5.044
269.88	-3.689
270.25	-2.012
270.62	-3.586
270.99	-2.424
271.36	-3.564
271.73	-2.554
272.10	-2.004
272.47	-5.010
272.84	-4.418
273.21	-3.607
273.58	-3.226
273.95	-3.846
274.32	-4.943
274.69	-4.642
275.06	-4.029
275.43	-4.067
275.80	-1.587
276.17	-5.000
276.54	-4.851
276.91	-4.114
277.28	-3.797
277.65	-2.873
278.02	-3.860
278.39	-5.616
278.76	-4.394
279.13	-4.787
279.50	-2.062
279.87	-3.041
280.23	-6.514
280.60	-2.203
280.97	-4.276
281.34	-5.603
281.71	-1.861
282.08	-2.824
282.45	-4.255
282.82	-3.611
283.19	-4.847
283.56	-4.262
283.92	-3.303
284.29	-1.896
284.66	-2.299
285.03	-5.288
285.40	-2.937
285.77	-5.263
286.14	-1.527
286.51	-4.414
286.87	-3.633
287.24	-3.313
287.61	-4.335
287.98	-5.438
288.35	-2.811
288.72	-4.438
289.08	-2.050
289.45	-3.254
289.82	-3.313
290.19	-3.448
290.56	-2.113
290.93	-3.994
291.29	-3.030
291.66	-3.306
292.03	-4.071
292.40	-2.041
292.77	-3.774
293.13	-2.842
293.50	-4.336
293.87	-3.490
294.24	-2.667
294.60	-1.391
294.97	-4.698
295.34	-1.408
295.71	-3.026
296.08	-3.359
296.44	-3.431
296.81	-2.314
297.18	-3.113
297.55	-3.302
297.91	-3.084
298.28	-3.555
298.65	-2.140
299.02	-2.834
299.38	-2.975
299.75	-2.336
300.12	-3.125
300.48	-2.189
300.85	-2.362
301.22	-2.461
301.59	-3.539
301.95	-3.164
302.32	-1.111
302.69	-1.862
303.05	-1.632
303.42	-2.550
303.79	-2.812
304.15	-1.788
304.52	-2.854
304.89	-2.513
305.25	-2.277
305.62	-1.672
305.99	-2.062
306.35	-1.915
306.72	-2.275
307.09	-2.437
307.45	-1.967
307.82	-1.615
308.19	-2.725
308.55	-1.446
308.92	-2.045
309.29	-1.628
309.65	-2.339
310.02	-2.376
310.38	-1.870
310.75	-1.845
311.12	-0.671
311.48	-2.053
311.85	-1.614
312.22	-1.423
312.58	-1.690
312.95	-2.390
313.31	-0.903
313.68	-0.275
314.05	0.271
314.41	-0.638
314.78	-0.908
315.14	0.091
315.51	-0.923
315.87	0.090
316.24	-0.457
316.61	-0.178
316.97	-0.905
317.34	-0.705
317.70	0.524
318.07	-0.176
318.43	1.276
318.80	1.672
319.16	0.429
319.53	-0.086
319.89	0.088
320.26	0.890
320.62	0.355
320.99	1.847
321.35	0.092
321.72	2.698
322.08	0.812
322.45	1.084
322.81	1.354
323.18	0.265
323.54	2.069
323.91	1.335
324.27	1.893
324.64	3.107
325.00	1.741
325.37	3.112
325.73	2.149
326.10	3.244
326.46	3.583
326.83	3.283
327.19	2.835
327.56	4.269
327.92	3.777
328.29	3.710
328.65	3.266
329.01	3.299
329.38	5.055
329.74	4.366
330.11	5.137
330.47	4.634
330.84	4.393
331.20	5.667
331.56	4.679
331.93	5.188
332.29	6.186
332.66	6.478
333.02	4.690
333.38	4.279
333.75	5.724
334.11	5.505
334.48	6.518
334.84	6.032
335.20	4.534
335.57	5.734
335.93	5.620
336.29	5.408
336.66	6.140
337.02	6.020
337.38	6.293
337.75	5.207
338.11	6.140
338.47	5.542
338.84	5.415
339.20	4.886
339.56	5.437
339.93	5.911
340.29	6.441
340.65	6.732
341.02	7.183
341.38	6.144
341.74	5.892
342.11	5.712
342.47	5.957
342.83	5.233
343.20	6.868
343.56	6.255
343.92	6.725
344.28	7.266
344.65	7.054
345.01	6.396
345.37	6.376
345.73	5.768
346.10	7.800
346.46	6.013
346.82	7.790
347.19	7.181
347.55	8.042
347.91	6.612
348.27	6.753
348.63	7.312
349.00	6.339
349.36	8.327
349.72	7.068
350.08	7.429
350.45	6.464
350.81	7.164
351.17	6.767
351.53	6.520
351.89	7.821
352.26	7.090
352.62	6.642
352.98	7.176
353.34	7.095
353.70	7.550
354.07	7.899
354.43	7.213
354.79	8.227
355.15	8.241
355.51	7.895
355.87	8.302
356.24	8.365
356.60	7.613
356.96	8.747
357.32	7.063
357.68	8.272
358.04	7.710
358.40	7.388
358.77	8.553
359.13	7.829
359.49	7.509
359.85	7.832
360.21	7.532
360.57	7.609
360.93	8.815
361.29	8.351
361.66	8.182
362.02	9.464
362.38	8.573
362.74	8.869
363.10	9.285
363.46	9.418
363.82	7.528
364.18	8.234
364.54	9.405
364.90	9.699
365.26	9.379
365.62	9.533
365.98	8.713
366.35	8.993
366.71	9.796
367.07	8.931
367.43	9.127
367.79	9.622
368.15	9.164
368.51	9.472
368.87	9.798
369.23	9.267
369.59	10.041
369.95	10.683
370.31	10.533
370.67	10.248
371.03	8.864
371.39	9.604
371.75	10.316
372.11	10.908
372.47	10.494
372.83	11.322
373.19	11.074
373.55	10.840
373.91	10.770
374.27	11.449
374.63	10.622
374.99	11.273
375.35	12.532
375.71	11.355
376.07	11.168
376.42	11.335
376.78	11.933
377.14	11.229
377.50	11.259
377.86	12.377
378.22	12.216
378.58	12.485
378.94	12.383
379.30	13.005
379.66	12.757
380.02	12.983
380.38	13.306
380.74	12.789
381.09	12.892
381.45	13.580
381.81	14.344
382.17	14.192
382.53	13.977
382.89	13.939
383.25	13.599
383.61	12.153
383.97	13.722
384.32	13.876
384.68	13.515
385.04	14.633
385.40	14.614
385.76	15.358
386.12	14.782
386.48	14.765
386.83	15.316
387.19	14.368
387.55	14.495
387.91	14.726
388.27	15.473
388.62	14.891
388.98	15.116
389.34	15.321
389.70	15.166
390.06	15.275
390.42	15.422
390.77	16.616
391.13	16.138
391.49	16.787
391.85	14.970
392.20	16.251
392.56	16.184
392.92	16.031
393.28	16.418
393.64	15.475
393.99	16.676
394.35	15.713
394.71	16.587
395.07	15.928
395.42	15.363
395.78	17.002
396.14	16.518
396.50	15.796
396.85	15.921
397.21	16.805
397.57	16.372
397.92	16.781
398.28	15.915
398.64	16.247
399.00	16.126
399.35	16.702
399.71	16.359
400.07	16.620
400.42	16.997
400.78	16.493
401.14	16.904
401.49	15.520
401.85	16.977
402.21	15.527
402.57	16.960
402.92	17.494
403.28	15.749
403.63	15.752
403.99	16.686
404.35	15.918
404.70	16.827
405.06	15.924
405.42	15.984
405.77	16.467
406.13	16.316
406.49	15.935
406.84	16.343
407.20	15.204
407.55	16.354
407.91	16.279
408.27	16.608
408.62	15.998
408.98	15.612
409.34	14.721
409.69	16.131
410.05	15.826
410.40	16.647
410.76	16.096
411.11	16.540
411.47	15.233
411.83	16.167
412.18	15.663
412.54	15.768
412.89	16.473
413.25	16.591
413.60	16.600
413.96	15.909
414.31	16.771
414.67	15.623
415.03	14.769
415.38	15.826
415.74	16.127
416.09	16.903
416.45	15.654
416.80	15.361
417.16	16.092
417.51	16.874
417.87	16.677
418.22	15.150
418.58	15.551
418.93	16.065
419.29	15.351
419.64	16.927
420.00	15.727
420.35	16.227
420.71	15.738
421.06	16.101
421.42	16.227
421.77	15.994
422.12	17.019
422.48	16.436
422.83	17.087
423.19	15.225
423.54	16.869
423.90	15.903
424.25	16.747
424.61	16.073
424.96	16.035
425.31	17.410
425.67	16.694
426.02	16.215
426.38	17.279
426.73	16.350
427.09	17.878
427.44	16.275
427.79	16.639
428.15	15.468
428.50	17.135
428.85	16.303
429.21	17.553
429.56	16.091
429.92	16.953
430.27	17.783
430.62	17.049
430.98	17.905
431.33	16.960
431.68	16.379
432.04	17.268
432.39	17.783
432.74	17.123
433.10	17.793
433.45	16.332
433.80	17.275
434.16	17.355
434.51	17.883
434.86	17.807
435.22	17.800
435.57	17.807
435.92	17.974
436.28	17.008
436.63	17.695
436.98	17.284
437.34	17.475
437.69	18.052
438.04	17.240
438.39	18.208
438.75	16.381
439.10	18.763
439.45	17.663
439.81	17.458
440.16	17.212
440.51	18.339
440.86	16.954
441.22	18.006
441.57	17.400
441.92	17.895
442.27	18.939
442.63	18.679
442.98	18.250
443.33	18.096
443.68	19.326
444.03	18.627
444.39	18.215
444.74	18.632
445.09	17.486
445.44	17.597
445.79	18.295
446.15	18.140
446.50	18.295
446.85	18.288
447.20	18.327
447.55	18.672
447.91	18.010
448.26	18.393
448.61	19.075
448.96	18.777
449.31	18.399
449.66	16.721
450.02	18.724
450.37	19.073
450.72	18.138
451.07	18.166
451.42	18.140
451.77	18.066
452.12	18.002
452.47	17.409
452.83	17.849
453.18	17.630
453.53	17.174
453.88	17.891
454.23	17.910
454.58	18.398
454.93	17.051
455.28	17.339
455.63	19.102
455.98	18.659
456.34	18.610
456.69	17.872
457.04	17.967
457.39	18.016
457.74	18.568
458.09	17.902
458.44	18.966
458.79	18.308
459.14	18.825
459.49	18.563
459.84	18.048
460.19	18.046
460.54	18.512
460.89	18.475
461.24	18.218
461.59	18.318
461.94	17.798
462.29	17.917
462.64	18.407
462.99	18.267
463.34	17.975
463.69	17.702
464.04	18.344
464.39	18.890
464.74	17.731
465.09	17.878
465.44	18.401
465.79	18.826
466.14	17.978
466.49	18.895
466.84	18.898
467.19	18.382
467.54	16.627
467.89	17.874
468.24	17.673
468.59	17.429
468.94	17.599
469.29	17.097
469.64	18.118
469.99	17.527
470.34	18.007
470.68	18.387
471.03	18.664
471.38	18.705
471.73	17.555
472.08	17.132
472.43	17.941
472.78	18.703
473.13	17.952
473.48	18.852
473.83	18.746
474.17	17.995
474.52	18.100
474.87	18.992
475.22	18.648
475.57	19.055
475.92	18.517
476.27	18.584
476.61	17.134
476.96	18.457
477.31	18.218
477.66	18.153
478.01	19.065
478.36	18.146
478.70	18.768
479.05	19.018
479.40	18.411
479.75	18.876
480.10	18.759
480.45	19.052
480.79	18.685
481.14	18.934
481.49	19.037
481.84	18.842
482.19	18.667
482.53	18.321
482.88	19.185
483.23	19.342
483.58	18.035
483.92	18.395
484.27	18.671
484.62	18.606
484.97	19.207
485.31	18.515
485.66	17.121
486.01	17.932
486.36	19.026
486.70	20.279
487.05	20.424
487.40	19.642
487.75	19.211
488.09	18.597
488.44	18.372
488.79	18.347
489.13	18.139
489.48	17.864
489.83	18.109
490.17	17.618
490.52	18.391
490.87	17.851
491.22	17.938
491.56	18.174
491.91	18.317
492.26	18.434
492.60	19.152
492.95	18.780
493.30	17.840
493.64	19.054
493.99	18.289
494.34	18.946
494.68	18.501
495.03	18.150
495.37	18.509
495.72	18.186
496.07	18.536
496.41	18.018
496.76	18.932
497.11	18.641
497.45	18.817
497.80	18.036
498.14	18.730
498.49	18.658
498.84	18.967
499.18	18.264
499.53	18.744
499.87	18.681
500.22	17.631
500.56	18.444
500.91	18.581
501.26	18.545
501.60	18.206
501.95	19.192
502.29	19.131
502.64	18.758
502.98	19.025
503.33	18.488
503.67	18.404
504.02	19.440
504.36	18.767
504.71	18.695
505.06	18.554
505.40	18.739
505.75	19.444
506.09	19.429
506.44	19.777
506.78	18.899
507.13	18.903
507.47	19.943
507.82	19.034
508.16	19.407
508.51	18.847
508.85	19.036
509.19	19.375
509.54	19.549
509.88	18.844
510.23	19.670
510.57	19.720
510.92	20.077
511.26	19.913
511.61	19.604
511.95	19.131
512.30	20.827
512.64	19.540
512.98	19.760
513.33	20.262
513.67	19.531
514.02	19.366
514.36	19.488
514.70	19.740
515.05	20.125
515.39	20.315
515.74	20.732
516.08	20.180
516.42	21.455
516.77	20.347
517.11	19.288
517.46	20.467
517.80	20.738
518.14	20.947
518.49	21.095
518.83	20.649
519.17	19.978
519.52	20.545
519.86	20.697
520.20	21.246
520.55	20.920
520.89	20.664
521.23	20.659
521.58	20.678
521.92	20.793
522.26	21.306
522.61	21.007
522.95	20.877
523.29	20.230
523.64	21.693
523.98	21.848
524.32	22.120
524.66	20.433
525.01	20.951
525.35	20.448
525.69	21.404
526.04	20.781
526.38	20.747
526.72	20.127
527.06	21.584
527.41	20.466
527.75	21.793
528.09	20.425
528.43	20.959
528.78	20.520
529.12	21.617
529.46	20.630
529.80	20.881
530.15	21.739
530.49	20.819
530.83	21.015
531.17	21.864
531.51	20.878
531.86	21.755
532.20	21.463
532.54	21.065
532.88	21.879
533.22	21.273
533.57	21.062
533.91	21.437
534.25	21.255
534.59	21.437
534.93	21.109
535.27	20.789
535.62	21.376
535.96	21.557
536.30	20.623
536.64	22.523
536.98	21.279
537.32	20.556
537.66	22.333
538.01	20.483
538.35	20.646
538.69	20.613
539.03	21.459
539.37	21.908
539.71	21.562
540.05	20.923
540.39	20.782
540.73	21.069
541.07	22.011
541.42	20.851
541.76	20.819
542.10	20.567
542.44	20.889
542.78	20.864
543.12	21.395
543.46	21.612
543.80	21.583
544.14	20.407
544.48	20.567
544.82	21.544
545.16	21.228
545.50	20.731
545.84	21.372
546.18	21.790
546.52	20.892
546.86	21.195
547.20	20.802
547.54	20.474
547.88	20.253
548.22	20.409
548.56	21.065
548.90	20.716
549.24	21.094
549.58	20.694
549.92	19.834
550.26	21.036
550.60	19.911
550.94	21.604
551.28	20.198
551.62	21.765
551.96	21.230
552.30	21.287
552.64	20.971
552.98	20.898
553.32	20.450
553.66	21.222
554.00	20.870
554.34	20.335
554.68	20.465
555.02	21.682
555.36	21.696
555.69	20.692
556.03	19.861
556.37	21.464
556.71	20.419
557.05	21.342
557.39	20.571
557.73	21.004
558.07	21.126
558.41	21.130
558.75	21.028
559.08	19.903
559.42	20.988
559.76	20.963
560.10	21.098
560.44	20.449
560.78	21.062
561.12	20.443
561.45	21.472
561.79	21.245
562.13	21.380
562.47	21.085
562.81	22.215
563.15	21.338
563.48	20.758
563.82	20.314
564.16	20.412
564.50	20.620
564.84	21.003
565.17	20.059
565.51	20.771
565.85	20.784
566.19	20.795
566.52	20.948
566.86	20.430
567.20	19.304
567.54	20.605
567.88	20.948
568.21	20.998
568.55	21.247
568.89	20.654
569.23	20.617
569.56	20.672
569.90	21.062
570.24	20.776
570.57	20.943
570.91	20.392
571.25	20.104
571.59	20.568
571.92	20.309
572.26	20.355
572.60	20.229
572.93	20.345
573.27	20.202
573.61	20.064
573.95	20.078
574.28	19.972
574.62	20.282
574.96	19.916
575.29	19.828
575.63	19.727
575.97	20.192
576.30	19.220
576.64	19.661
576.98	19.636
577.31	20.083
577.65	20.429
577.98	20.350
578.32	20.114
578.66	20.185
578.99	20.193
579.33	20.120
579.67	19.719
580.00	19.622
580.34	19.699
580.67	19.638
581.01	19.775
581.35	19.930
581.68	19.645
582.02	20.163
582.35	20.569
582.69	20.424
583.02	20.239
583.36	20.127
583.70	20.018
584.03	19.750
584.37	19.180
584.70	19.242
585.04	19.089
585.37	19.487
585.71	19.590
586.04	20.189
586.38	19.847
586.72	19.228
587.05	19.673
587.39	19.995
587.72	20.383
588.06	19.923
588.39	20.139
588.73	19.841
589.06	20.598
589.40	19.975
589.73	20.019
590.07	19.828
590.40	20.115
590.73	20.148
591.07	20.141
591.40	19.635
591.74	19.595
592.07	19.610
592.41	19.992
592.74	19.879
593.08	20.255
593.41	21.172
593.75	20.402
594.08	20.388
594.41	20.321
594.75	19.861
595.08	19.448
595.42	19.740
595.75	19.438
596.09	19.959
596.42	19.240
596.75	20.031
597.09	20.444
597.42	20.024
597.75	19.757
598.09	20.159
598.42	19.542
598.76	19.144
599.09	19.865
599.42	19.410
599.76	19.809
600.09	19.820
600.42	19.686
600.76	19.287
601.09	20.080
601.42	19.567
601.76	19.655
602.09	19.621
602.42	19.302
602.76	19.114
603.09	19.971
603.42	19.725
603.76	19.309
604.09	20.440
604.42	19.596
604.76	19.330
605.09	19.505
605.42	20.056
605.75	19.346
606.09	19.784
606.42	19.190
606.75	19.378
607.09	19.508
607.42	19.422
607.75	19.539
608.08	18.863
608.42	19.347
608.75	19.444
609.08	19.694
609.41	19.277
609.75	19.330
610.08	19.965
610.41	19.244
610.74	19.664
611.07	19.494
611.41	19.507
611.74	19.446
612.07	20.009
612.40	19.106
612.73	19.462
613.07	18.778
613.40	19.105
613.73	19.355
614.06	18.744
614.39	19.971
614.72	19.360
615.06	19.490
615.39	19.285
615.72	19.526
616.05	19.330
616.38	19.879
616.71	20.272
617.05	18.264
617.38	19.262
617.71	20.032
618.04	19.374
618.37	19.071
618.70	19.683
619.03	18.698
619.36	19.482
619.69	19.090
620.03	19.335
620.36	19.018
620.69	18.322
621.02	19.226
621.35	19.448
621.68	18.872
622.01	18.577
622.34	18.828
622.67	18.969
623.00	18.556
623.33	19.376
623.66	19.650
623.99	18.894
624.32	19.233
624.65	18.533
624.99	18.921
625.32	20.771
625.65	19.420
625.98	19.051
626.31	18.214
626.64	18.901
626.97	19.205
627.30	16.932
627.63	18.755
627.96	21.021
628.29	18.988
628.62	17.884
628.95	19.281
629.28	18.352
629.61	19.781
629.94	17.908
630.26	18.220
630.59	19.257
630.92	17.576
631.25	19.052
631.58	19.962
631.91	19.400
632.24	18.156
632.57	18.880
632.90	18.054
633.23	18.878
633.56	18.061
633.89	17.665
634.22	19.023
634.55	19.207
634.88	17.641
635.20	19.053
635.53	19.322
635.86	18.743
636.19	20.148
636.52	19.304
636.85	18.897
637.18	18.607
637.51	19.032
637.83	19.380
638.16	19.470
638.49	17.723
638.82	18.940
639.15	18.900
639.48	19.169
639.81	19.746
640.13	20.377
640.46	17.455
640.79	17.770
641.12	18.634
641.45	17.817
641.77	20.282
642.10	17.979
642.43	19.814
642.76	19.241
643.09	18.082
643.41	16.387
643.74	20.414
644.07	20.000
644.40	18.246
644.73	15.820
645.05	17.915
645.38	18.417
645.71	17.302
646.04	20.947
646.36	17.518
646.69	18.865
647.02	19.266
647.35	18.626
647.67	17.552
648.00	18.312
648.33	18.769
648.66	17.974
648.98	17.007
649.31	17.591
649.64	19.124
649.96	18.966
650.29	16.134
650.62	17.680
650.94	16.967
651.27	15.269
651.60	17.690
651.92	17.325
652.25	18.090
652.58	16.506
652.90	16.570
653.23	17.746
653.56	16.833
653.88	19.101
654.21	18.169
654.54	18.208
654.86	16.997
655.19	15.935
655.52	19.473
655.84	20.703
656.17	23.463
656.49	32.892
656.82	34.869
657.15	26.557
657.47	19.651
657.80	14.156
658.13	10.703
658.45	13.495
658.78	15.726
659.10	14.567
659.43	14.273
659.75	14.228
660.08	13.109
660.41	12.324
660.73	13.569
661.06	14.391
661.38	14.992
661.71	16.552
662.03	17.460
662.36	15.564
662.68	16.510
663.01	14.690
663.33	16.635
663.66	18.498
663.98	16.731
664.31	17.824
664.63	13.102
664.96	18.693
665.28	14.701
665.61	17.308
665.93	15.714
666.26	17.025
666.58	15.314
666.91	18.131
667.23	17.905
667.56	15.976
667.88	14.600
668.21	15.039
668.53	13.320
668.86	18.075
669.18	16.904
669.50	17.495
669.83	15.600
670.15	14.370
670.48	19.841
670.80	12.237
671.13	17.202
671.45	14.173
671.77	16.949
672.10	15.500
672.42	17.152
672.75	17.358
673.07	16.716
673.39	15.254
673.72	16.107
674.04	17.414
674.37	15.742
674.69	18.695
675.01	14.095
675.34	15.458
675.66	14.607
675.98	16.045
676.31	14.648
676.63	18.441
676.95	16.667
677.28	14.516
677.60	13.976
677.92	14.587
678.25	16.636
678.57	16.548
678.89	17.577
679.22	14.460
679.54	16.752
679.86	14.746
680.18	15.589
680.51	16.667
680.83	15.385
681.15	14.138
681.48	16.408
681.80	14.335
682.12	13.986
682.44	14.691
682.77	13.830
683.09	15.909
683.41	15.116
683.73	13.852
684.06	16.605
684.38	13.059
684.70	14.183
685.02	17.040
685.34	14.143
685.67	14.196
685.99	16.871
686.31	15.262
686.63	14.060
686.96	16.246
687.28	16.775
687.60	12.963
687.92	12.379
688.24	16.861
688.56	16.207
688.89	13.793
689.21	16.634
689.53	13.922
689.85	11.045
690.17	13.889
690.49	15.139
690.82	16.634
691.14	13.765
691.46	16.635
691.78	15.101
692.10	13.761
692.42	13.036
692.74	11.797
693.06	11.111
693.39	16.129
693.71	12.970
694.03	14.870
694.35	14.286
694.67	17.248
694.99	13.617
695.31	13.687
695.63	14.069
695.95	15.321
696.27	14.945
696.59	15.929
696.91	13.514
697.23	14.945
697.56	11.609
697.88	14.583
698.20	14.878
698.52	14.394
698.84	12.890
699.16	14.694
699.48	14.435
699.80	12.766
700.12	14.192
700.44	15.668
700.76	16.390
701.08	13.317
701.40	12.953
701.72	15.174
702.04	12.834
702.36	12.565
702.68	11.002
703.00	13.692
703.32	9.113
703.64	12.714
703.96	14.081
704.28	14.988
704.60	13.671
704.91	11.735
705.23	10.137
705.55	13.928
705.87	11.515
706.19	12.883
706.51	8.133
706.83	13.256
707.15	12.169
707.47	12.150
707.79	12.009
708.11	12.288
708.43	11.828
708.74	8.259
709.06	12.993
709.38	14.085
709.70	13.400
710.02	12.403
710.34	13.564
710.66	11.732
710.98	10.929
711.29	7.418
711.61	10.734
711.93	11.111
712.25	12.432
712.57	17.404
712.89	12.353
713.20	7.692
713.52	10.983
713.84	13.928
714.16	14.211
714.48	10.567
714.80	11.169
715.11	12.861
715.43	13.263
715.75	13.158
716.07	11.326
716.39	11.749
716.70	9.337
717.02	10.492
717.34	8.711
717.66	10.403
717.97	7.877
718.29	13.058
718.61	7.237
718.93	11.003
719.24	11.491
719.56	9.202
719.88	10.210
720.20	10.968
720.51	15.839
720.83	9.375
721.15	8.224
721.46	9.247
721.78	13.667
722.10	5.178
722.42	6.040
722.73	8.065
723.05	7.719
723.37	12.153
723.68	11.470
724.00	7.581
724.32	9.507
724.63	8.741
724.95	13.830
725.27	8.711
725.58	5.300
725.90	10.000
726.22	12.853
726.53	10.390
726.85	11.321
727.16	9.970
727.48	12.232
727.80	11.589
728.11	7.420
728.43	9.428
728.74	10.033
729.06	8.940
729.38	9.416
729.69	11.074
730.01	10.714
730.32	10.303
730.64	7.547
730.96	7.453
731.27	10.056
731.59	14.011
731.90	10.130
732.22	8.854
732.53	4.972
732.85	9.143
733.16	9.677
733.48	9.451
733.80	10.306
734.11	9.117
734.43	11.622
734.74	12.152
735.06	9.548
735.37	9.459
735.69	10.541
736.00	9.040
736.32	9.434
736.63	9.722
736.95	9.195
737.26	8.485
737.58	9.697
737.89	11.176
738.21	8.257
738.52	3.934
738.83	6.826
739.15	11.348
739.46	8.163
739.78	9.509
740.09	9.456
740.41	11.662
740.72	6.667
741.04	12.621
741.35	9.825
741.66	7.451
741.98	5.738
742.29	3.347
742.61	7.895
742.92	2.692
743.23	11.552
743.55	8.140
743.86	5.600
744.18	3.719
744.49	3.376
744.80	9.465
745.12	7.595
745.43	10.163
745.74	8.190
746.06	8.051
746.37	10.970
746.68	13.008
747.00	6.667
747.31	7.296
747.62	11.538
747.94	8.097
748.25	4.418
748.56	6.531
748.88	3.846
749.19	9.052
749.50	7.792
749.82	8.032
750.13	11.032
750.44	5.000
750.75	8.000
751.07	7.385
751.38	7.571
751.69	7.987
752.01	9.709
752.32	7.516
752.63	7.143
752.94	8.997
753.26	6.691
753.57	2.222
753.88	5.993
754.19	6.752
754.51	6.752
754.82	10.932
755.13	13.770
755.44	8.874
755.75	11.513
756.07	10.746
756.38	10.377
756.69	10.843
757.00	7.202
757.31	10.383
757.63	8.951
757.94	7.512
758.25	10.158
758.56	7.190
758.87	13.182
759.18	8.267
759.50	10.765
759.81	11.485
760.12	8.356
760.43	8.594
760.74	9.360
761.05	8.250
761.36	8.434
761.67	8.122
761.99	7.838
762.30	9.756
762.61	6.601
762.92	4.851
763.23	5.993
763.54	5.396
763.85	7.216
764.16	9.428
764.47	9.155
764.78	9.265
765.10	10.264
765.41	14.359
765.72	8.466
766.03	9.887
766.34	4.702
766.65	5.923
766.96	7.171
767.27	5.069
767.58	-0.498
767.89	4.808
768.20	0.469
768.51	4.630
768.82	9.237
769.13	8.333
769.44	1.538
769.75	7.942
770.06	6.154
770.37	9.055
770.68	2.979
770.99	-0.405
771.30	9.259
771.61	4.563
771.92	5.185
772.23	2.834
772.54	-1.389
772.85	5.530
773.16	11.905
773.47	0.000
773.78	-3.243
774.09	5.682
774.39	11.000
774.70	4.372
775.01	-5.488
775.32	1.176
775.63	-3.067
775.94	-3.822
776.25	3.226
776.56	-0.641
776.87	4.082
777.18	-7.586
777.48	-4.196
777.79	3.378
778.10	-5.147
778.41	3.472
778.72	8.966
779.03	0.000
779.34	3.636
779.65	5.181
779.95	2.778
780.26	5.682
780.57	1.290
780.88	-2.174
781.19	0.000
781.50	0.000
781.80	3.226
782.11	6.349
782.42	3.030
782.73	-0.599
783.04	3.352
783.34	-1.818
783.65	-9.150
783.96	1.863
784.27	2.976
784.57	0.000
784.88	2.857
785.19	-10.236
785.50	-8.661
785.81	-4.511
786.11	-3.077
786.42	-9.353
786.73	-8.633
787.04	-2.256
787.34	-5.738
787.65	0.800
787.96	0.000
788.26	-3.497
788.57	5.594
788.88	-5.921
789.19	1.307
789.49	-4.110
789.80	0.000
790.11	-3.937
790.41	-5.469
790.72	-2.542
791.03	-20.388
791.33	-8.696
791.64	-4.386
791.95	-6.250
792.25	-7.619
792.56	-0.893
792.87	-10.417
793.17	-7.143
793.48	-12.500
793.79	-25.301
794.09	-21.101
794.40	-7.339
794.70	-4.762
795.01	-3.896
795.32	-5.479
795.62	-0.704
795.93	-7.576
796.23	-3.279
796.54	-3.571
796.85	-4.255
797.15	-16.304
797.46	-28.767
797.76	-17.500
798.07	-16.304
798.37	-20.619
798.68	-18.182
798.99	-16.092
799.29	-20.225
799.60	-7.447
799.90	-20.482
800.21	-24.615
800.51	-22.388
800.82	-30.882
801.12	-31.507
801.43	-41.176
801.73	-40.678
802.04	-10.606
802.34	-41.667
802.65	-37.288
802.95	-13.433
803.26	-27.119
803.56	-21.918
803.87	-24.286
804.17	-10.959
804.48	-49.123
804.78	-19.444
805.09	-37.931
805.39	-12.162
805.70	-38.028
806.00	-17.073
806.30	-8.434
806.61	-16.438
806.91	-11.538
807.22	-15.556
807.52	-26.437
807.83	-18.056
808.13	-20.482
808.43	-10.112
808.74	-21.250
809.04	-26.471
809.35	-21.333
809.65	-31.429
809.95	-17.808
810.26	-35.088
810.56	-27.586
810.86	-27.941
811.17	-31.579
811.47	-37.705
811.77	-71.111
812.08	-32.203
812.38	-21.667
812.69	-13.793
812.99	-39.623
813.29	-71.795
813.59	-22.000
813.90	-22.807
814.20	-30.909
814.50	-9.859
814.81	-8.974
815.11	-26.230
815.41	-29.851
815.72	-24.138
816.02	-16.071
816.32	-35.556
816.62	-45.455
816.93	-40.000
817.23	-25.926
817.53	-38.298
817.84	-28.571
818.14	-82.353
818.44	-38.776
818.74	-55.556
819.04	-66.667
819.35	-68.571
819.65	-76.923
819.95	-15.094
820.25	-20.000
820.56	-35.714
820.86	-71.875
821.16	-69.231
821.46	-39.535
821.76	-60.000
822.07	-37.500
822.37	-45.652
822.67	-51.064
822.97	-70.270
823.27	-47.500
823.57	-36.735
823.88	-35.556
824.18	-25.000
824.48	-70.000
824.78	-108.000
825.08	-54.545
825.38	-33.333
825.69	-14.894
825.99	-41.667
826.29	-102.857
826.59	-69.231
826.89	-65.116
827.19	-26.000
827.49	-67.647
827.79	-43.750
828.09	-64.865
828.39	-73.333
828.70	-51.220
829.00	-41.860
829.30	-107.143
829.60	-61.765
829.90	-45.652
830.20	-48.571
830.50	-72.414
830.80	-138.889
831.10	-100.000
831.40	-70.588
831.70	-128.571
832.00	-54.839
832.30	-152.941
832.60	-125.000
832.90	-315.385
833.20	-126.316
833.50	-100.000
833.80	-84.211
834.10	-161.905
834.40	-33.333
834.70	-65.625
835.00	-74.286
835.30	-70.588
835.60	-96.667
835.90	-108.000
836.20	-177.273
836.50	-80.000
836.80	-57.576
837.10	-77.778
837.40	-70.370
837.70	-243.750
838.00	-71.429
838.30	-117.391
838.60	-51.724
838.90	-135.714
839.19	-147.826
839.49	-283.333
839.79	-104.348
840.09	-212.500
840.39	-125.000
840.69	-67.742
840.99	-125.000
841.29	-186.667
841.59	-168.421
841.88	-43.590
842.18	-103.846
842.48	-300.000
842.78	-115.000
843.08	-83.333
843.38	-25.806
843.68	-144.444
843.97	-50.000
844.27	-175.000
844.57	-147.368
844.87	-270.000
845.17	-180.000
845.47	-85.714
845.76	-152.381
846.06	-322.222
846.36	-176.471
846.66	-107.692
846.96	-166.667
847.25	-123.529
847.55	-91.304
847.85	-120.000
848.15	-94.118
848.44	-236.364
848.74	-95.238
849.04	-125.000
849.34	-162.500
849.63	-95.652
849.93	1450.000
850.23	-126.667
850.53	-65.385
850.82	-218.182
851.12	-90.909
851.42	-200.000
851.71	-138.462
852.01	-145.000
852.31	-138.462
852.61	-152.632
852.90	-183.333
853.20	-127.778
853.50	-377.778
853.79	-142.857
854.09	-140.909
854.39	-266.667
854.68	-77.419
854.98	-84.615
855.28	-100.000
855.57	-75.000
855.87	-84.000
856.17	-118.182
856.46	-70.370
856.76	-127.778
857.05	-108.696
857.35	-79.167
857.65	-246.154
857.94	-85.714
858.24	-81.481
858.53	-86.957
858.83	-135.294
859.13	-147.059
859.42	-117.647
859.72	-171.429
860.01	-120.000
860.31	-288.889
860.60	-250.000
860.90	-193.333
861.20	-83.333
861.49	-215.385
861.79	-50.000
862.08	-253.846
862.38	-50.000
862.67	-94.118
862.97	-168.750
863.26	-300.000
863.56	-380.000
863.85	-245.455
864.15	-161.111
864.44	-900.000
864.74	-128.571
865.03	-212.500
865.33	-280.000
865.62	-67.742
865.92	-72.727
866.21	-95.652
866.51	-171.429
866.80	-600.000
867.10	-250.000
867.39	-216.667
867.69	3300.000
867.98	-285.714
868.27	-135.294
868.57	-3900.000
868.86	-380.000
869.16	-71.429
869.45	-75.000
869.75	-172.727
870.04	-371.429
870.33	-150.000
870.63	-485.714
870.92	-525.000
871.22	-337.500
871.51	-309.091
871.80	-1200.000
872.10	-1600.000
>>>>>End Processed Spectral Data<<<<<
