SpectraSuite Data File
++++++++++++++++++++++++++++++++++++
Date: Thu May 14 14:43:33 PDT 2015
User: schluterlab
Dark Spectrum Present: Yes
Reference Spectrum Present: Yes
Number of Sampled Component Spectra: 1
Spectrometers: USB2E3373
Integration Time (usec): 3000 (USB2E3373)
Spectra Averaged: 3 (USB2E3373)
Boxcar Smoothing: 0 (USB2E3373)
Correct for Electrical Dark: No (USB2E3373)
Strobe/Lamp Enabled: No (USB2E3373)
Correct for Detector Non-linearity: No (USB2E3373)
Correct for Stray Light: No (USB2E3373)
Number of Pixels in Processed Spectrum: 2048
>>>>>Begin Processed Spectral Data<<<<<
178.53	0.000
178.91	57.143
179.29	-800.000
179.67	-1000.000
180.04	128.571
180.42	60.000
180.80	-40.000
181.18	-300.000
181.56	1000.000
181.94	-75.000
182.31	150.000
182.69	-166.667
183.07	-150.000
183.45	200.000
183.83	-16.667
184.20	100.000
184.58	-400.000
184.96	-125.000
185.34	33.333
185.72	280.000
186.09	77.778
186.47	300.000
186.85	100.000
187.23	-88.889
187.61	100.000
187.98	-180.000
188.36	125.000
188.74	150.000
189.12	233.333
189.49	6.250
189.87	25.000
190.25	111.111
190.63	40.000
191.00	-22.222
191.38	0.000
191.76	-50.000
192.14	183.333
192.51	-50.000
192.89	66.667
193.27	0.000
193.65	100.000
194.02	-400.000
194.40	0.000
194.78	14.286
195.15	0.000
195.53	45.455
195.91	0.000
196.29	325.000
196.66	53.846
197.04	-200.000
197.42	-14.286
197.79	250.000
198.17	-37.500
198.55	-71.429
198.92	33.333
199.30	50.000
199.68	9.091
200.05	92.857
200.43	100.000
200.81	142.857
201.18	0.000
201.56	44.444
201.94	0.000
202.31	-33.333
202.69	-88.889
203.07	-200.000
203.44	-33.333
203.82	25.000
204.19	16.667
204.57	133.333
204.95	0.000
205.32	600.000
205.70	-275.000
206.08	-83.333
206.45	66.667
206.83	120.000
207.20	50.000
207.58	120.000
207.96	-16.667
208.33	166.667
208.71	66.667
209.08	116.667
209.46	0.000
209.84	-16.667
210.21	100.000
210.59	50.000
210.96	-33.333
211.34	25.000
211.71	-100.000
212.09	400.000
212.46	0.000
212.84	550.000
213.22	-100.000
213.59	75.000
213.97	80.000
214.34	-133.333
214.72	150.000
215.09	0.000
215.47	0.000
215.84	-57.143
216.22	-200.000
216.59	60.000
216.97	-100.000
217.34	350.000
217.72	87.500
218.09	50.000
218.47	-200.000
218.84	0.000
219.22	-100.000
219.59	64.706
219.97	60.000
220.34	300.000
220.72	0.000
221.09	46.154
221.47	66.667
221.84	0.000
222.22	-57.143
222.59	0.000
222.97	75.000
223.34	-140.000
223.72	100.000
224.09	50.000
224.46	-300.000
224.84	-20.000
225.21	-100.000
225.59	-150.000
225.96	-125.000
226.34	53.846
226.71	183.333
227.08	0.000
227.46	73.333
227.83	75.000
228.21	5.263
228.58	87.500
228.95	500.000
229.33	75.000
229.70	-20.000
230.08	89.474
230.45	-40.000
230.82	200.000
231.20	135.714
231.57	58.333
231.95	-36.364
232.32	36.364
232.69	10.000
233.07	125.000
233.44	23.529
233.81	-10.000
234.19	33.333
234.56	54.545
234.93	48.276
235.31	21.053
235.68	50.000
236.05	-35.000
236.43	38.462
236.80	40.000
237.17	22.222
237.55	15.152
237.92	-90.000
238.29	-6.452
238.67	6.818
239.04	2.778
239.41	0.000
239.79	6.522
240.16	12.963
240.53	0.000
240.91	-23.529
241.28	8.197
241.65	-2.985
242.02	17.568
242.40	1.538
242.77	5.333
243.14	-4.878
243.51	-6.579
243.89	0.000
244.26	16.832
244.63	4.902
245.00	9.346
245.38	5.263
245.75	-1.770
246.12	3.968
246.49	-2.326
246.87	14.286
247.24	4.636
247.61	3.289
247.98	3.356
248.36	6.790
248.73	1.227
249.10	3.825
249.47	6.468
249.84	8.901
250.22	-2.591
250.59	2.222
250.96	5.000
251.33	2.551
251.70	6.838
252.08	5.417
252.45	4.508
252.82	-0.413
253.19	4.297
253.56	1.901
253.94	-0.385
254.31	4.924
254.68	6.993
255.05	8.469
255.42	3.061
255.79	0.971
256.16	3.974
256.54	0.000
256.91	2.295
257.28	3.934
257.65	0.318
258.02	1.475
258.39	2.564
258.76	5.199
259.14	5.747
259.51	4.611
259.88	0.000
260.25	2.222
260.62	5.205
260.99	5.738
261.36	7.775
261.73	2.122
262.10	3.022
262.47	0.536
262.85	7.828
263.22	0.779
263.59	-0.263
263.96	3.581
264.33	-0.512
264.70	3.457
265.07	4.535
265.44	5.896
265.81	2.778
266.18	2.268
266.55	2.009
266.92	0.456
267.29	5.470
267.66	5.100
268.03	3.712
268.40	2.505
268.77	0.228
269.14	0.441
269.51	3.070
269.88	2.664
270.25	1.408
270.62	2.532
270.99	5.253
271.36	4.950
271.73	2.947
272.10	2.806
272.47	2.405
272.84	3.815
273.21	3.206
273.58	1.613
273.95	1.154
274.32	2.471
274.69	2.515
275.06	3.114
275.43	1.664
275.80	4.409
276.17	1.667
276.54	1.493
276.91	1.789
277.28	3.255
277.65	1.616
278.02	3.309
278.39	3.804
278.76	0.703
279.13	1.418
279.50	3.780
279.87	6.082
280.23	0.176
280.60	2.542
280.97	1.974
281.34	0.849
281.71	3.892
282.08	1.993
282.45	1.309
282.82	1.099
283.19	0.323
283.56	1.475
283.92	2.853
284.29	4.581
284.66	4.105
285.03	2.885
285.40	2.937
285.77	2.941
286.14	3.359
286.51	1.674
286.87	1.738
287.24	3.916
287.61	1.794
287.98	2.870
288.35	1.775
288.72	3.402
289.08	5.564
289.45	2.959
289.82	1.506
290.19	1.868
290.56	3.380
290.93	1.284
291.29	1.653
291.66	1.515
292.03	1.357
292.40	3.537
292.77	1.887
293.13	1.624
293.50	1.708
293.87	1.477
294.24	4.000
294.60	5.057
294.97	0.000
295.34	3.841
295.71	2.522
296.08	2.067
296.44	2.696
296.81	1.705
297.18	2.242
297.55	2.241
297.91	2.135
298.28	2.133
298.65	2.497
299.02	2.597
299.38	3.089
299.75	1.986
300.12	1.389
300.48	1.843
300.85	3.262
301.22	3.691
301.59	2.968
301.95	3.277
302.32	4.556
302.69	2.519
303.05	3.373
303.42	2.993
303.79	1.458
304.15	2.629
304.52	2.220
304.89	2.827
305.25	3.727
305.62	2.717
305.99	2.990
306.35	3.226
306.72	3.413
307.09	1.827
307.45	3.623
307.82	2.825
308.19	2.624
308.55	4.050
308.92	3.116
309.29	3.065
309.65	3.411
310.02	3.465
310.38	3.445
310.75	3.107
311.12	4.027
311.48	3.128
311.85	2.849
312.22	4.269
312.58	4.038
312.95	4.111
313.31	3.794
313.68	4.579
314.05	4.336
314.41	5.556
314.78	4.995
315.14	5.626
315.51	5.540
315.87	5.311
316.24	6.119
316.61	6.750
316.97	4.434
317.34	4.762
317.70	6.900
318.07	6.173
318.43	7.398
318.80	7.609
319.16	6.695
319.53	5.141
319.89	7.450
320.26	6.940
320.62	6.206
320.99	6.648
321.35	8.410
321.72	8.651
322.08	8.566
322.45	8.401
322.81	8.935
323.18	9.204
323.54	8.448
323.91	8.808
324.27	9.897
324.64	10.411
325.00	9.701
325.37	9.582
325.73	11.074
326.10	10.624
326.46	10.179
326.83	12.410
327.19	10.866
327.56	11.858
327.92	10.779
328.29	11.290
328.65	11.977
329.01	12.860
329.38	13.227
329.74	14.041
330.11	13.185
330.47	11.794
330.84	13.264
331.20	14.750
331.56	13.951
331.93	14.310
332.29	13.220
332.66	15.199
333.02	14.489
333.38	14.178
333.75	15.320
334.11	15.096
334.48	14.934
334.84	15.038
335.20	14.106
335.57	15.767
335.93	15.702
336.29	14.809
336.66	15.559
337.02	16.304
337.38	15.391
337.75	16.777
338.11	15.643
338.47	15.964
338.84	14.636
339.20	14.996
339.56	17.381
339.93	15.517
340.29	16.425
340.65	16.058
341.02	15.722
341.38	16.653
341.74	16.868
342.11	16.331
342.47	15.488
342.83	16.908
343.20	16.844
343.56	16.359
343.92	16.013
344.28	15.547
344.65	15.504
345.01	16.459
345.37	16.407
345.73	16.368
346.10	16.147
346.46	15.823
346.82	17.603
347.19	16.883
347.55	17.527
347.91	17.088
348.27	15.857
348.63	17.517
349.00	16.480
349.36	16.803
349.72	16.815
350.08	16.865
350.45	17.262
350.81	17.195
351.17	17.293
351.53	17.362
351.89	16.629
352.26	16.269
352.62	17.015
352.98	16.565
353.34	16.430
353.70	16.795
354.07	16.393
354.43	16.781
354.79	17.277
355.15	17.145
355.51	17.617
355.87	17.502
356.24	17.186
356.60	16.778
356.96	17.939
357.32	16.803
357.68	15.739
358.04	16.617
358.40	16.791
358.77	16.886
359.13	17.282
359.49	15.985
359.85	17.259
360.21	17.934
360.57	17.588
360.93	17.983
361.29	18.035
361.66	17.958
362.02	18.928
362.38	17.498
362.74	17.737
363.10	17.675
363.46	18.698
363.82	18.608
364.18	18.015
364.54	19.156
364.90	18.930
365.26	18.069
365.62	18.467
365.98	19.197
366.35	19.597
366.71	18.503
367.07	18.606
367.43	19.238
367.79	19.310
368.15	19.398
368.51	19.553
368.87	19.399
369.23	19.600
369.59	20.287
369.95	20.014
370.31	20.797
370.67	19.188
371.03	19.737
371.39	18.737
371.75	20.289
372.11	20.393
372.47	20.718
372.83	20.942
373.19	20.614
373.55	20.799
373.91	19.632
374.27	20.440
374.63	20.501
374.99	20.159
375.35	21.753
375.71	22.129
376.07	21.498
376.42	22.544
376.78	20.883
377.14	21.522
377.50	21.569
377.86	22.229
378.22	22.455
378.58	22.057
378.94	22.124
379.30	22.027
379.66	22.693
380.02	22.735
380.38	22.753
380.74	22.254
381.09	23.229
381.45	23.125
381.81	24.649
382.17	23.694
382.53	23.509
382.89	23.928
383.25	23.036
383.61	23.380
383.97	23.498
384.32	24.163
384.68	23.724
385.04	24.870
385.40	24.926
385.76	25.967
386.12	24.297
386.48	25.176
386.83	26.162
387.19	25.319
387.55	24.648
387.91	26.256
388.27	25.751
388.62	25.200
388.98	25.042
389.34	26.517
389.70	27.135
390.06	27.413
390.42	25.964
390.77	27.393
391.13	25.528
391.49	27.657
391.85	26.667
392.20	27.224
392.56	27.702
392.92	26.990
393.28	26.755
393.64	27.039
393.99	27.600
394.35	28.797
394.71	27.725
395.07	27.006
395.42	27.356
395.78	28.580
396.14	28.818
396.50	27.791
396.85	28.682
397.21	27.751
397.57	28.269
397.92	27.950
398.28	28.028
398.64	28.032
399.00	27.435
399.35	28.325
399.71	29.185
400.07	28.916
400.42	29.220
400.78	28.935
401.14	29.368
401.49	29.278
401.85	28.953
402.21	29.490
402.57	29.930
402.92	29.196
403.28	28.396
403.63	28.580
403.99	28.919
404.35	28.653
404.70	29.405
405.06	28.424
405.42	29.742
405.77	30.316
406.13	28.687
406.49	29.392
406.84	29.917
407.20	29.514
407.55	29.982
407.91	29.415
408.27	29.270
408.62	31.297
408.98	29.541
409.34	29.501
409.69	29.666
410.05	29.601
410.40	30.394
410.76	29.893
411.11	30.742
411.47	30.958
411.83	30.276
412.18	30.843
412.54	31.002
412.89	30.559
413.25	30.361
413.60	30.844
413.96	31.002
414.31	29.632
414.67	31.544
415.03	30.954
415.38	31.337
415.74	30.605
416.09	31.277
416.45	31.246
416.80	31.212
417.16	31.865
417.51	31.009
417.87	30.411
418.22	31.737
418.58	31.413
418.93	31.723
419.29	32.182
419.64	31.212
420.00	31.751
420.35	32.229
420.71	31.591
421.06	31.915
421.42	32.970
421.77	32.202
422.12	32.981
422.48	32.514
422.83	33.352
423.19	32.838
423.54	33.850
423.90	33.352
424.25	33.707
424.61	33.525
424.96	33.388
425.31	34.342
425.67	33.494
426.02	35.141
426.38	34.271
426.73	32.533
427.09	34.833
427.44	33.971
427.79	33.776
428.15	34.703
428.50	35.000
428.85	34.730
429.21	35.479
429.56	34.452
429.92	34.152
430.27	35.181
430.62	35.467
430.98	35.711
431.33	36.119
431.68	35.201
432.04	36.160
432.39	35.565
432.74	35.959
433.10	36.344
433.45	35.786
433.80	35.515
434.16	36.054
434.51	36.691
434.86	37.242
435.22	37.035
435.57	37.677
435.92	36.784
436.28	37.201
436.63	37.684
436.98	36.769
437.34	38.444
437.69	37.534
438.04	38.763
438.39	37.852
438.75	37.687
439.10	37.896
439.45	38.234
439.81	38.644
440.16	37.158
440.51	38.462
440.86	37.243
441.22	38.371
441.57	38.889
441.92	38.361
442.27	38.232
442.63	38.798
442.98	38.847
443.33	38.348
443.68	38.999
444.03	39.652
444.39	39.621
444.74	39.663
445.09	38.723
445.44	39.831
445.79	40.038
446.15	39.466
446.50	39.690
446.85	38.813
447.20	39.797
447.55	39.749
447.91	39.948
448.26	39.641
448.61	39.851
448.96	41.309
449.31	39.979
449.66	38.617
450.02	41.192
450.37	40.064
450.72	39.612
451.07	40.490
451.42	40.497
451.77	40.078
452.12	40.519
452.47	39.810
452.83	41.948
453.18	41.506
453.53	41.758
453.88	39.923
454.23	41.525
454.58	41.497
454.93	41.262
455.28	41.240
455.63	40.932
455.98	41.173
456.34	41.166
456.69	41.093
457.04	42.199
457.39	41.408
457.74	40.940
458.09	42.175
458.44	41.972
458.79	40.330
459.14	41.846
459.49	42.388
459.84	41.868
460.19	41.644
460.54	42.873
460.89	42.615
461.24	41.379
461.59	42.723
461.94	41.244
462.29	43.561
462.64	43.150
462.99	42.436
463.34	42.440
463.69	41.676
464.04	42.913
464.39	41.648
464.74	42.018
465.09	41.926
465.44	41.685
465.79	41.883
466.14	41.376
466.49	42.211
466.84	42.975
467.19	43.121
467.54	41.657
467.89	42.874
468.24	41.662
468.59	41.343
468.94	41.841
469.29	41.992
469.64	43.102
469.99	43.276
470.34	43.379
470.68	43.746
471.03	43.811
471.38	42.838
471.73	43.693
472.08	43.211
472.43	43.468
472.78	42.884
473.13	43.616
473.48	44.411
473.83	43.122
474.17	43.083
474.52	43.295
474.87	43.798
475.22	44.000
475.57	43.718
475.92	43.156
476.27	43.344
476.61	43.043
476.96	44.369
477.31	44.109
477.66	44.491
478.01	43.976
478.36	42.772
478.70	43.300
479.05	45.910
479.40	43.830
479.75	43.228
480.10	43.818
480.45	45.032
480.79	43.628
481.14	43.980
481.49	44.025
481.84	44.256
482.19	44.086
482.53	45.343
482.88	44.395
483.23	45.887
483.58	44.410
483.92	44.060
484.27	44.030
484.62	43.482
484.97	43.468
485.31	43.224
485.66	40.886
486.01	39.538
486.36	40.533
486.70	42.309
487.05	43.978
487.40	44.300
487.75	43.919
488.09	44.632
488.44	44.513
488.79	44.553
489.13	45.402
489.48	44.233
489.83	43.662
490.17	43.499
490.52	44.171
490.87	44.332
491.22	43.934
491.56	44.454
491.91	44.919
492.26	44.526
492.60	44.600
492.95	45.810
493.30	44.688
493.64	45.072
493.99	44.912
494.34	44.817
494.68	43.983
495.03	45.286
495.37	45.850
495.72	44.853
496.07	45.399
496.41	44.959
496.76	45.455
497.11	44.883
497.45	45.317
497.80	45.402
498.14	44.898
498.49	44.945
498.84	45.384
499.18	45.479
499.53	45.291
499.87	45.187
500.22	44.791
500.56	44.714
500.91	44.897
501.26	45.545
501.60	43.968
501.95	44.551
502.29	45.459
502.64	45.168
502.98	44.133
503.33	44.190
503.67	45.137
504.02	44.221
504.36	45.666
504.71	45.338
505.06	45.430
505.40	45.658
505.75	45.082
506.09	45.442
506.44	46.147
506.78	45.413
507.13	46.012
507.47	45.713
507.82	46.591
508.16	44.598
508.51	45.054
508.85	45.678
509.19	46.187
509.54	46.734
509.88	46.479
510.23	46.479
510.57	47.559
510.92	46.202
511.26	45.551
511.61	46.982
511.95	45.632
512.30	45.692
512.64	46.177
512.98	45.873
513.33	46.321
513.67	46.507
514.02	47.164
514.36	46.445
514.70	46.927
515.05	47.237
515.39	47.559
515.74	47.826
516.08	47.861
516.42	47.043
516.77	46.951
517.11	46.106
517.46	47.614
517.80	47.622
518.14	47.497
518.49	48.915
518.83	46.408
519.17	47.119
519.52	47.222
519.86	47.413
520.20	46.645
520.55	46.440
520.89	48.142
521.23	47.627
521.58	48.701
521.92	47.592
522.26	47.709
522.61	47.396
522.95	48.443
523.29	48.563
523.64	47.646
523.98	48.774
524.32	49.169
524.66	48.606
525.01	47.395
525.35	47.731
525.69	47.564
526.04	47.072
526.38	48.276
526.72	48.212
527.06	48.211
527.41	48.571
527.75	48.694
528.09	47.580
528.43	47.425
528.78	47.457
529.12	49.197
529.46	47.049
529.80	47.883
530.15	47.942
530.49	47.983
530.83	48.170
531.17	47.491
531.51	48.676
531.86	48.317
532.20	48.659
532.54	49.132
532.88	48.061
533.22	47.613
533.57	47.663
533.91	46.465
534.25	47.089
534.59	47.529
534.93	48.217
535.27	46.761
535.62	48.209
535.96	48.228
536.30	47.239
536.64	48.649
536.98	48.155
537.32	49.877
537.66	49.033
538.01	47.130
538.35	46.772
538.69	47.296
539.03	47.885
539.37	47.291
539.71	48.228
540.05	47.422
540.39	47.127
540.73	47.662
541.07	48.743
541.42	46.486
541.76	46.916
542.10	46.622
542.44	48.295
542.78	47.324
543.12	47.378
543.46	46.703
543.80	47.062
544.14	46.738
544.48	47.459
544.82	47.756
545.16	47.406
545.50	47.334
545.84	46.540
546.18	48.642
546.52	47.834
546.86	48.113
547.20	46.692
547.54	47.815
547.88	46.835
548.22	46.550
548.56	45.933
548.90	47.940
549.24	48.511
549.58	47.508
549.92	48.724
550.26	47.961
550.60	48.117
550.94	48.254
551.28	47.327
551.62	48.922
551.96	48.608
552.30	48.438
552.64	47.853
552.98	46.725
553.32	49.132
553.66	48.682
554.00	47.730
554.34	48.134
554.68	47.515
555.02	47.700
555.36	48.784
555.69	47.149
556.03	46.154
556.37	47.997
556.71	48.193
557.05	47.220
557.39	49.104
557.73	47.820
558.07	47.815
558.41	48.306
558.75	47.938
559.08	48.086
559.42	48.628
559.76	47.829
560.10	48.024
560.44	46.966
560.78	47.625
561.12	47.352
561.45	47.506
561.79	47.436
562.13	47.505
562.47	47.411
562.81	47.911
563.15	47.790
563.48	48.850
563.82	47.884
564.16	47.547
564.50	47.855
564.84	47.906
565.17	46.824
565.51	46.893
565.85	47.862
566.19	46.889
566.52	45.933
566.86	47.255
567.20	46.384
567.54	46.097
567.88	48.063
568.21	46.196
568.55	45.659
568.89	44.530
569.23	45.078
569.56	45.096
569.90	43.906
570.24	43.204
570.57	43.361
570.91	42.958
571.25	42.638
571.59	43.446
571.92	43.150
572.26	42.668
572.60	42.725
572.93	42.805
573.27	42.990
573.61	42.774
573.95	42.510
574.28	41.766
574.62	41.905
574.96	41.619
575.29	41.529
575.63	42.435
575.97	42.539
576.30	41.673
576.64	42.448
576.98	42.460
577.31	42.094
577.65	42.262
577.98	41.642
578.32	40.798
578.66	41.689
578.99	42.023
579.33	42.552
579.67	41.727
580.00	41.807
580.34	42.103
580.67	41.461
581.01	41.519
581.35	40.970
581.68	40.834
582.02	40.814
582.35	41.960
582.69	41.652
583.02	42.272
583.36	42.350
583.70	42.808
584.03	42.861
584.37	41.916
584.70	42.469
585.04	41.362
585.37	42.002
585.71	40.798
586.04	42.096
586.38	41.992
586.72	42.116
587.05	42.696
587.39	42.084
587.72	42.488
588.06	42.408
588.39	42.594
588.73	41.852
589.06	43.002
589.40	43.516
589.73	43.702
590.07	43.568
590.40	44.388
590.73	44.256
591.07	44.415
591.40	44.246
591.74	45.072
592.07	44.255
592.41	43.730
592.74	43.060
593.08	42.452
593.41	42.461
593.75	42.874
594.08	42.926
594.41	42.981
594.75	42.909
595.08	44.717
595.42	43.442
595.75	43.461
596.09	43.477
596.42	43.712
596.75	44.732
597.09	44.121
597.42	43.345
597.75	43.669
598.09	43.730
598.42	44.190
598.76	43.179
599.09	42.827
599.42	42.072
599.76	42.093
600.09	42.442
600.42	43.043
600.76	43.032
601.09	42.715
601.42	43.186
601.76	43.000
602.09	43.388
602.42	43.693
602.76	43.542
603.09	43.355
603.42	43.678
603.76	42.319
604.09	44.287
604.42	43.450
604.76	42.960
605.09	44.037
605.42	43.620
605.75	43.654
606.09	43.524
606.42	43.159
606.75	42.579
607.09	42.435
607.42	43.160
607.75	44.002
608.08	43.489
608.42	42.967
608.75	44.486
609.08	43.846
609.41	44.817
609.75	45.268
610.08	45.031
610.41	44.138
610.74	43.487
611.07	44.760
611.41	44.798
611.74	45.312
612.07	44.133
612.40	44.534
612.73	45.281
613.07	45.086
613.40	44.995
613.73	44.921
614.06	45.093
614.39	44.849
614.72	44.881
615.06	44.370
615.39	43.934
615.72	44.171
616.05	44.973
616.38	44.803
616.71	45.611
617.05	44.622
617.38	46.388
617.71	45.518
618.04	45.494
618.37	45.246
618.70	46.097
619.03	45.460
619.36	45.684
619.69	46.381
620.03	46.642
620.36	46.196
620.69	46.700
621.02	46.260
621.35	48.621
621.68	49.747
622.01	47.189
622.34	47.280
622.67	46.735
623.00	45.479
623.33	47.777
623.66	47.082
623.99	46.346
624.32	47.238
624.65	45.624
624.99	47.139
625.32	47.812
625.65	47.404
625.98	46.305
626.31	47.697
626.64	46.520
626.97	47.562
627.30	45.862
627.63	47.262
627.96	49.174
628.29	47.782
628.62	48.699
628.95	50.570
629.28	48.938
629.61	48.569
629.94	48.536
630.26	48.644
630.59	48.187
630.92	48.918
631.25	49.642
631.58	50.282
631.91	50.609
632.24	50.336
632.57	49.526
632.90	51.755
633.23	52.347
633.56	51.327
633.89	50.723
634.22	50.520
634.55	52.088
634.88	51.840
635.20	51.776
635.53	54.915
635.86	52.438
636.19	50.477
636.52	51.582
636.85	50.255
637.18	51.663
637.51	51.398
637.83	52.049
638.16	52.074
638.49	53.052
638.82	51.184
639.15	51.890
639.48	52.771
639.81	49.769
640.13	53.828
640.46	51.636
640.79	52.574
641.12	53.540
641.45	51.694
641.77	55.071
642.10	51.444
642.43	55.053
642.76	52.846
643.09	51.507
643.41	53.501
643.74	54.069
644.07	54.759
644.40	54.314
644.73	53.556
645.05	54.772
645.38	54.676
645.71	54.545
646.04	53.659
646.36	52.847
646.69	56.748
647.02	53.976
647.35	53.588
647.67	56.522
648.00	58.599
648.33	56.006
648.66	53.923
648.98	50.340
649.31	53.857
649.64	51.926
649.96	52.520
650.29	52.156
650.62	52.192
650.94	54.955
651.27	51.497
651.60	52.924
651.92	51.824
652.25	51.230
652.58	51.307
652.90	52.180
653.23	53.521
653.56	53.495
653.88	52.528
654.21	50.986
654.54	50.145
654.86	50.850
655.19	49.812
655.52	44.773
655.84	37.151
656.17	44.134
656.49	61.760
656.82	69.212
657.15	54.897
657.47	42.906
657.80	32.053
658.13	25.698
658.45	34.256
658.78	42.157
659.10	41.874
659.43	41.712
659.75	42.278
660.08	42.577
660.41	44.582
660.73	48.119
661.06	52.423
661.38	52.313
661.71	56.379
662.03	52.381
662.36	54.741
662.68	54.972
663.01	53.451
663.33	56.144
663.66	60.806
663.98	54.615
664.31	58.912
664.63	54.335
664.96	56.080
665.28	54.265
665.61	51.748
665.93	50.893
666.26	56.631
666.58	51.845
666.91	56.449
667.23	55.429
667.56	55.424
667.88	53.800
668.21	54.492
668.53	54.440
668.86	55.992
669.18	53.768
669.50	52.286
669.83	54.400
670.15	53.740
670.48	58.135
670.80	54.302
671.13	53.686
671.45	55.118
671.77	54.426
672.10	53.167
672.42	50.485
672.75	52.074
673.07	48.657
673.39	51.464
673.72	53.020
674.04	54.310
674.37	53.131
674.69	53.968
675.01	53.714
675.34	53.817
675.66	52.247
675.98	52.985
676.31	54.492
676.63	55.513
676.95	56.897
677.28	55.242
677.60	50.787
677.92	52.015
678.25	51.554
678.57	51.423
678.89	53.072
679.22	48.432
679.54	49.231
679.86	48.305
680.18	49.420
680.51	51.730
680.83	48.445
681.15	50.517
681.48	50.432
681.80	53.022
682.12	49.476
682.44	51.419
682.77	53.014
683.09	53.788
683.41	55.039
683.73	54.080
684.06	51.292
684.38	49.911
684.70	53.321
685.02	50.602
685.34	47.421
685.67	48.107
685.99	48.160
686.31	45.494
686.63	48.973
686.96	47.476
687.28	49.186
687.60	51.010
687.92	46.463
688.24	50.918
688.56	48.966
688.89	48.276
689.21	54.795
689.53	50.392
689.85	54.043
690.17	49.444
690.49	50.797
690.82	52.277
691.14	51.822
691.46	50.096
691.78	49.171
692.10	50.092
692.42	45.714
692.74	50.454
693.06	47.222
693.39	50.474
693.71	51.128
694.03	48.327
694.35	50.286
694.67	52.156
694.99	47.872
695.31	53.422
695.63	51.515
695.95	49.689
696.27	54.505
696.59	51.327
696.91	52.027
697.23	51.868
697.56	50.916
697.88	47.159
698.20	51.412
698.52	51.326
698.84	50.104
699.16	50.816
699.48	49.372
699.80	49.787
700.12	52.402
700.44	50.461
700.76	52.257
701.08	51.090
701.40	56.995
701.72	50.498
702.04	52.674
702.36	54.450
702.68	47.677
703.00	54.034
703.32	50.000
703.64	51.834
703.96	49.165
704.28	49.877
704.60	51.899
704.91	52.296
705.23	52.877
705.55	53.203
705.87	57.879
706.19	60.429
706.51	51.205
706.83	54.467
707.15	50.529
707.47	51.636
707.79	48.472
708.11	41.525
708.43	46.667
708.74	45.982
709.06	48.492
709.38	50.000
709.70	50.620
710.02	53.230
710.34	52.394
710.66	51.676
710.98	47.814
711.29	50.824
711.61	52.260
711.93	51.567
712.25	48.919
712.57	50.737
712.89	54.412
713.20	51.479
713.52	55.202
713.84	51.532
714.16	47.895
714.48	52.062
714.80	50.909
715.11	49.344
715.43	48.541
715.75	51.316
716.07	50.552
716.39	49.180
716.70	49.398
717.02	51.475
717.34	51.568
717.66	56.040
717.97	46.233
718.29	51.890
718.61	52.961
718.93	46.926
719.24	53.416
719.56	51.227
719.88	48.348
720.20	52.581
720.51	51.863
720.83	48.438
721.15	49.671
721.46	50.342
721.78	50.000
722.10	49.191
722.42	45.302
722.73	48.387
723.05	51.930
723.37	52.431
723.68	54.122
724.00	53.430
724.32	48.239
724.63	50.000
724.95	53.901
725.27	49.129
725.58	49.823
725.90	52.069
726.22	50.157
726.53	47.403
726.85	48.742
727.16	44.411
727.48	49.541
727.80	46.358
728.11	51.237
728.43	51.515
728.74	50.167
729.06	50.000
729.38	48.377
729.69	46.980
730.01	48.512
730.32	42.727
730.64	44.969
730.96	48.758
731.27	50.000
731.59	46.703
731.90	43.377
732.22	44.271
732.53	41.713
732.85	44.571
733.16	48.680
733.48	44.817
733.80	43.733
734.11	47.578
734.43	46.216
734.74	47.595
735.06	43.467
735.37	46.216
735.69	45.676
736.00	46.893
736.32	44.474
736.63	45.556
736.95	43.966
737.26	48.182
737.58	49.394
737.89	44.118
738.21	42.813
738.52	47.213
738.83	49.147
739.15	47.872
739.46	46.259
739.78	46.319
740.09	43.266
740.41	49.563
740.72	48.667
741.04	47.896
741.35	44.211
741.66	47.451
741.98	49.590
742.29	42.678
742.61	58.772
742.92	46.154
743.23	48.375
743.55	48.837
743.86	48.000
744.18	49.174
744.49	47.679
744.80	47.325
745.12	48.945
745.43	49.187
745.74	44.828
746.06	51.695
746.37	55.274
746.68	52.033
747.00	48.333
747.31	49.785
747.62	53.462
747.94	47.368
748.25	51.807
748.56	50.204
748.88	51.709
749.19	51.293
749.50	47.619
749.82	52.610
750.13	50.890
750.44	47.000
750.75	44.000
751.07	43.692
751.38	47.003
751.69	43.770
752.01	37.864
752.32	48.039
752.63	46.599
752.94	44.983
753.26	45.725
753.57	46.296
753.88	43.446
754.19	43.730
754.51	43.087
754.82	44.695
755.13	47.869
755.44	48.464
755.75	44.408
756.07	46.269
756.38	42.138
756.69	42.470
757.00	41.828
757.31	41.530
757.63	39.130
757.94	38.732
758.25	40.406
758.56	39.216
758.87	38.636
759.18	41.067
759.50	43.626
759.81	42.857
760.12	42.049
760.43	44.271
760.74	41.872
761.05	42.250
761.36	40.241
761.67	41.117
761.99	42.432
762.30	46.951
762.61	44.224
762.92	43.657
763.23	47.940
763.54	42.446
763.85	44.330
764.16	42.761
764.47	45.070
764.78	44.089
765.10	43.109
765.41	42.051
765.72	39.418
766.03	42.655
766.34	43.574
766.65	41.463
766.96	46.215
767.27	52.535
767.58	51.244
767.89	52.404
768.20	49.765
768.51	41.667
768.82	46.988
769.13	43.939
769.44	36.923
769.75	43.321
770.06	45.000
770.37	44.094
770.68	37.872
770.99	39.271
771.30	47.407
771.61	46.388
771.92	37.778
772.23	42.105
772.54	41.667
772.85	50.230
773.16	51.905
773.47	41.270
773.78	47.568
774.09	49.432
774.39	48.500
774.70	51.366
775.01	58.537
775.32	42.941
775.63	49.080
775.94	40.764
776.25	54.839
776.56	48.077
776.87	47.619
777.18	44.828
777.48	46.853
777.79	48.649
778.10	40.441
778.41	50.000
778.72	55.862
779.03	44.444
779.34	44.848
779.65	46.114
779.95	46.667
780.26	44.318
780.57	43.871
780.88	57.971
781.19	45.161
781.50	55.294
781.80	48.925
782.11	46.032
782.42	36.869
782.73	40.120
783.04	42.458
783.34	41.818
783.65	49.673
783.96	44.099
784.27	44.048
784.57	42.384
784.88	49.286
785.19	44.094
785.50	44.882
785.81	42.857
786.11	44.615
786.42	40.288
786.73	40.288
787.04	49.624
787.34	41.803
787.65	49.600
787.96	43.284
788.26	48.252
788.57	48.951
788.88	38.158
789.19	42.484
789.49	46.575
789.80	44.681
790.11	45.669
790.41	48.438
790.72	53.390
791.03	25.243
791.33	46.957
791.64	39.474
791.95	37.500
792.25	52.381
792.56	36.607
792.87	52.083
793.17	36.607
793.48	45.833
793.79	45.783
794.09	49.541
794.40	41.284
794.70	44.898
795.01	33.766
795.32	44.521
795.62	48.592
795.93	35.606
796.23	37.705
796.54	39.286
796.85	50.000
797.15	44.565
797.46	35.616
797.76	43.750
798.07	50.000
798.37	36.082
798.68	37.662
798.99	45.977
799.29	44.944
799.60	40.426
799.90	48.193
800.21	38.462
800.51	40.299
800.82	47.059
801.12	34.247
801.43	45.588
801.73	45.763
802.04	50.000
802.34	56.667
802.65	49.153
802.95	65.672
803.26	50.847
803.56	50.685
803.87	37.143
804.17	56.164
804.48	50.877
804.78	52.778
805.09	34.483
805.39	54.054
805.70	45.070
806.00	39.024
806.30	34.940
806.61	39.726
806.91	39.423
807.22	38.889
807.52	34.483
807.83	55.556
808.13	40.964
808.43	43.820
808.74	43.750
809.04	30.882
809.35	48.000
809.65	51.429
809.95	34.247
810.26	31.579
810.56	44.828
810.86	33.824
811.17	31.579
811.47	29.508
811.77	44.444
812.08	33.898
812.38	48.333
812.69	56.897
812.99	35.849
813.29	48.718
813.59	64.000
813.90	47.368
814.20	45.455
814.50	50.704
814.81	51.282
815.11	44.262
815.41	35.821
815.72	58.621
816.02	37.500
816.32	75.556
816.62	56.818
816.93	68.889
817.23	44.444
817.53	53.191
817.84	83.333
818.14	50.000
818.44	46.939
818.74	55.556
819.04	25.641
819.35	31.429
819.65	53.846
819.95	32.075
820.25	35.556
820.56	40.476
820.86	46.875
821.16	30.769
821.46	39.535
821.76	26.000
822.07	33.929
822.37	15.217
822.67	46.809
822.97	18.919
823.27	62.500
823.57	40.816
823.88	62.222
824.18	60.000
824.48	36.667
824.78	52.000
825.08	57.576
825.38	44.444
825.69	57.447
825.99	61.111
826.29	25.714
826.59	48.718
826.89	32.558
827.19	42.000
827.49	50.000
827.79	22.917
828.09	48.649
828.39	53.333
828.70	31.707
829.00	37.209
829.30	71.429
829.60	52.941
829.90	32.609
830.20	42.857
830.50	51.724
830.80	55.556
831.10	88.462
831.40	38.235
831.70	57.143
832.00	90.323
832.30	-29.412
832.60	33.333
832.90	7.692
833.20	15.789
833.50	35.000
833.80	57.895
834.10	19.048
834.40	44.444
834.70	50.000
835.00	14.286
835.30	52.941
835.60	56.667
835.90	48.000
836.20	54.545
836.50	52.000
836.80	36.364
837.10	37.037
837.40	62.963
837.70	37.500
838.00	78.571
838.30	47.826
838.60	44.828
838.90	-14.286
839.19	-26.087
839.49	41.667
839.79	43.478
840.09	31.250
840.39	10.000
840.69	64.516
840.99	53.571
841.29	86.667
841.59	31.579
841.88	53.846
842.18	19.231
842.48	40.000
842.78	30.000
843.08	53.333
843.38	38.710
843.68	-11.111
843.97	20.588
844.27	75.000
844.57	57.895
844.87	10.000
845.17	73.333
845.47	47.619
845.76	19.048
846.06	144.444
846.36	23.529
846.66	50.000
846.96	13.333
847.25	5.882
847.55	78.261
847.85	55.000
848.15	58.824
848.44	9.091
848.74	66.667
849.04	58.333
849.34	75.000
849.63	43.478
849.93	-50.000
850.23	26.667
850.53	88.462
850.82	0.000
851.12	31.818
851.42	27.273
851.71	84.615
852.01	45.000
852.31	23.077
852.61	52.632
852.90	33.333
853.20	55.556
853.50	-22.222
853.79	57.143
854.09	36.364
854.39	-16.667
854.68	12.903
854.98	30.769
855.28	38.889
855.57	50.000
855.87	68.000
856.17	50.000
856.46	25.926
856.76	100.000
857.05	65.217
857.35	45.833
857.65	38.462
857.94	19.048
858.24	66.667
858.53	91.304
858.83	76.471
859.13	82.353
859.42	88.235
859.72	21.429
860.01	55.000
860.31	-77.778
860.60	40.000
860.90	46.667
861.20	55.556
861.49	92.308
861.79	33.333
862.08	23.077
862.38	59.375
862.67	47.059
862.97	50.000
863.26	33.333
863.56	60.000
863.85	36.364
864.15	66.667
864.44	433.333
864.74	71.429
865.03	-6.250
865.33	10.000
865.62	12.903
865.92	40.909
866.21	26.087
866.51	-21.429
866.80	-20.000
867.10	16.667
867.39	25.000
867.69	200.000
867.98	142.857
868.27	41.176
868.57	400.000
868.86	-30.000
869.16	42.857
869.45	79.167
869.75	27.273
870.04	0.000
870.33	50.000
870.63	28.571
870.92	225.000
871.22	-87.500
871.51	63.636
871.80	33.333
872.10	-150.000
>>>>>End Processed Spectral Data<<<<<
