SpectraSuite Data File
++++++++++++++++++++++++++++++++++++
Date: Thu May 14 15:03:57 PDT 2015
User: schluterlab
Dark Spectrum Present: Yes
Reference Spectrum Present: Yes
Number of Sampled Component Spectra: 1
Spectrometers: USB2E3373
Integration Time (usec): 3000 (USB2E3373)
Spectra Averaged: 3 (USB2E3373)
Boxcar Smoothing: 0 (USB2E3373)
Correct for Electrical Dark: No (USB2E3373)
Strobe/Lamp Enabled: No (USB2E3373)
Correct for Detector Non-linearity: No (USB2E3373)
Correct for Stray Light: No (USB2E3373)
Number of Pixels in Processed Spectrum: 2048
>>>>>Begin Processed Spectral Data<<<<<
178.53	0.000
178.91	400.000
179.29	-3400.000
179.67	-3200.000
180.04	292.857
180.42	150.000
180.80	500.000
181.18	-2500.000
181.56	-1600.000
181.94	450.000
182.31	-450.000
182.69	733.333
183.07	-700.000
183.45	750.000
183.83	-283.333
184.20	-666.667
184.58	2700.000
184.96	-650.000
185.34	-288.889
185.72	-120.000
186.09	400.000
186.47	1500.000
186.85	660.000
187.23	-266.667
187.61	-1900.000
187.98	360.000
188.36	575.000
188.74	-700.000
189.12	-466.667
189.49	-100.000
189.87	-325.000
190.25	-177.778
190.63	-400.000
191.00	-333.333
191.38	0.000
191.76	-550.000
192.14	-466.667
192.51	1250.000
192.89	-366.667
193.27	0.000
193.65	-128.571
194.02	-3300.000
194.40	-300.000
194.78	357.143
195.15	0.000
195.53	-145.455
195.91	0.000
196.29	-350.000
196.66	-176.923
197.04	-3100.000
197.42	-385.714
197.79	-1250.000
198.17	-250.000
198.55	-414.286
198.92	-211.111
199.30	-300.000
199.68	-127.273
200.05	-100.000
200.43	-1500.000
200.81	342.857
201.18	0.000
201.56	444.444
201.94	0.000
202.31	866.667
202.69	-222.222
203.07	1400.000
203.44	-222.222
203.82	-425.000
204.19	-183.333
204.57	-433.333
204.95	-237.500
205.32	-2300.000
205.70	550.000
206.08	-533.333
206.45	-333.333
206.83	680.000
207.20	-300.000
207.58	-640.000
207.96	-366.667
208.33	-366.667
208.71	150.000
209.08	-133.333
209.46	0.000
209.84	383.333
210.21	1000.000
210.59	1600.000
210.96	1000.000
211.34	-525.000
211.71	-337.500
212.09	-3200.000
212.46	0.000
212.84	1900.000
213.22	-520.000
213.59	-375.000
213.97	-240.000
214.34	-800.000
214.72	466.667
215.09	-750.000
215.47	0.000
215.84	342.857
216.22	1600.000
216.59	-480.000
216.97	-380.000
217.34	-600.000
217.72	-250.000
218.09	-525.000
218.47	-600.000
218.84	0.000
219.22	300.000
219.59	-147.059
219.97	-95.000
220.34	1550.000
220.72	-333.333
221.09	-123.077
221.47	-800.000
221.84	-140.000
222.22	-400.000
222.59	0.000
222.97	-175.000
223.34	-460.000
223.72	-2100.000
224.09	-450.000
224.46	-650.000
224.84	-180.000
225.21	-385.714
225.59	-600.000
225.96	-725.000
226.34	-80.769
226.71	550.000
227.08	-1300.000
227.46	-146.667
227.83	-500.000
228.21	-121.053
228.58	337.500
228.95	1500.000
229.33	-91.667
229.70	-140.000
230.08	-31.579
230.45	220.000
230.82	-933.333
231.20	-164.286
231.57	-150.000
231.95	-200.000
232.32	-127.273
232.69	-80.000
233.07	-450.000
233.44	-117.647
233.81	-260.000
234.19	-50.000
234.56	-50.000
234.93	-31.034
235.31	-57.895
235.68	-77.778
236.05	-100.000
236.43	-19.231
236.80	-8.000
237.17	-33.333
237.55	-42.424
237.92	-240.000
238.29	-70.968
238.67	-40.909
239.04	-25.000
239.41	-47.619
239.79	-41.304
240.16	-27.778
240.53	-28.261
240.91	-31.373
241.28	-31.148
241.65	-13.433
242.02	-10.811
242.40	-12.308
242.77	-6.667
243.14	-1.220
243.51	-19.737
243.89	-10.256
244.26	1.980
244.63	-0.980
245.00	8.411
245.38	-2.632
245.75	0.000
246.12	8.730
246.49	1.550
246.87	7.143
247.24	9.272
247.61	9.868
247.98	11.409
248.36	5.556
248.73	7.975
249.10	13.115
249.47	11.443
249.84	13.613
250.22	9.326
250.59	5.556
250.96	15.909
251.33	7.143
251.70	14.530
252.08	12.083
252.45	16.803
252.82	16.116
253.19	12.109
253.56	12.928
253.94	8.462
254.31	17.424
254.68	13.287
255.05	17.264
255.42	12.925
255.79	17.152
256.16	14.238
256.54	11.258
256.91	17.705
257.28	16.393
257.65	14.650
258.02	12.094
258.39	13.390
258.76	17.737
259.14	16.092
259.51	14.409
259.88	13.031
260.25	13.333
260.62	16.164
260.99	18.306
261.36	19.303
261.73	16.711
262.10	15.934
262.47	16.086
262.85	19.192
263.22	15.584
263.59	12.632
263.96	16.880
264.33	16.880
264.70	16.296
265.07	18.854
265.44	20.635
265.81	19.444
266.18	17.234
266.55	16.518
266.92	14.806
267.29	17.068
267.66	18.625
268.03	19.214
268.40	17.328
268.77	14.579
269.14	16.079
269.51	17.105
269.88	18.648
270.25	17.304
270.62	17.932
270.99	19.192
271.36	19.406
271.73	15.324
272.10	18.236
272.47	19.639
272.84	17.871
273.21	17.435
273.58	17.137
273.95	16.731
274.32	14.449
274.69	15.474
275.06	15.568
275.43	13.678
275.80	16.931
276.17	15.185
276.54	15.485
276.91	15.385
277.28	18.626
277.65	17.774
278.02	17.463
278.39	15.217
278.76	17.223
279.13	17.730
279.50	17.526
279.87	16.458
280.23	13.204
280.60	16.949
280.97	16.447
281.34	15.959
281.71	18.443
282.08	15.615
282.45	17.512
282.82	16.954
283.19	15.024
283.56	16.230
283.92	17.718
284.29	18.641
284.66	16.749
285.03	14.263
285.40	16.692
285.77	16.409
286.14	17.863
286.51	16.591
286.87	17.852
287.24	15.813
287.61	17.489
287.98	15.106
288.35	16.568
288.72	15.533
289.08	16.105
289.45	14.349
289.82	15.060
290.19	15.230
290.56	16.056
290.93	16.976
291.29	16.529
291.66	15.702
292.03	13.297
292.40	15.510
292.77	15.094
293.13	14.479
293.50	14.586
293.87	13.691
294.24	15.333
294.60	14.791
294.97	12.752
295.34	14.853
295.71	14.754
296.08	12.661
296.44	13.480
296.81	12.911
297.18	12.329
297.55	12.972
297.91	13.879
298.28	13.744
298.65	13.080
299.02	14.404
299.38	12.929
299.75	14.486
300.12	11.343
300.48	14.401
300.85	12.373
301.22	13.758
301.59	13.356
301.95	11.186
302.32	13.444
302.69	13.143
303.05	13.493
303.42	14.745
303.79	12.188
304.15	13.460
304.52	13.742
304.89	12.984
305.25	12.733
305.62	12.539
305.99	13.299
306.35	12.500
306.72	12.616
307.09	13.503
307.45	14.182
307.82	13.824
308.19	13.623
308.55	13.308
308.92	13.437
309.29	12.261
309.65	13.450
310.02	12.871
310.38	13.091
310.75	13.689
311.12	13.327
311.48	13.783
311.85	12.061
312.22	13.662
312.58	14.178
312.95	14.054
313.31	13.460
313.68	14.286
314.05	15.266
314.41	14.117
314.78	14.351
315.14	13.249
315.51	15.512
315.87	13.681
316.24	15.616
316.61	15.631
316.97	14.661
317.34	14.374
317.70	14.847
318.07	15.168
318.43	14.881
318.80	15.719
319.16	15.193
319.53	14.225
319.89	13.585
320.26	15.658
320.62	15.071
320.99	15.789
321.35	15.619
321.72	17.209
322.08	16.050
322.45	17.706
322.81	17.870
323.18	17.522
323.54	17.759
323.91	18.327
324.27	17.126
324.64	16.373
325.00	15.837
325.37	18.346
325.73	16.860
326.10	17.518
326.46	17.671
326.83	18.094
327.19	18.425
327.56	18.656
327.92	17.703
328.29	17.581
328.65	17.588
329.01	17.936
329.38	18.197
329.74	18.408
330.11	18.236
330.47	17.523
330.84	18.002
331.20	18.083
331.56	17.678
331.93	18.661
332.29	18.644
332.66	17.276
333.02	16.834
333.38	17.953
333.75	17.593
334.11	17.181
334.48	18.399
334.84	19.116
335.20	18.892
335.57	19.562
335.93	18.512
336.29	18.053
336.66	17.998
337.02	17.726
337.38	17.857
337.75	18.017
338.11	18.335
338.47	18.362
338.84	17.936
339.20	17.692
339.56	18.040
339.93	17.734
340.29	17.069
340.65	18.086
341.02	18.595
341.38	18.593
341.74	17.433
342.11	17.860
342.47	17.236
342.83	18.921
343.20	18.561
343.56	17.803
343.92	17.934
344.28	18.125
344.65	17.132
345.01	18.331
345.37	17.574
345.73	17.537
346.10	18.955
346.46	17.959
346.82	19.026
347.19	18.029
347.55	17.754
347.91	17.979
348.27	17.375
348.63	19.573
349.00	17.748
349.36	18.216
349.72	18.676
350.08	17.979
350.45	17.871
350.81	17.647
351.17	17.594
351.53	17.968
351.89	19.286
352.26	18.209
352.62	18.284
352.98	17.939
353.34	17.476
353.70	19.183
354.07	17.809
354.43	17.388
354.79	18.100
355.15	17.366
355.51	19.079
355.87	17.128
356.24	18.555
356.60	18.256
356.96	18.458
357.32	19.257
357.68	18.668
358.04	17.141
358.40	18.358
358.77	18.567
359.13	18.316
359.49	18.587
359.85	18.202
360.21	19.082
360.57	18.880
360.93	18.547
361.29	19.158
361.66	18.682
362.02	19.137
362.38	18.271
362.74	18.645
363.10	18.432
363.46	18.629
363.82	18.963
364.18	19.423
364.54	19.087
364.90	20.334
365.26	19.379
365.62	19.933
365.98	18.584
366.35	18.792
366.71	19.524
367.07	19.147
367.43	18.779
367.79	20.106
368.15	20.870
368.51	19.824
368.87	19.007
369.23	18.933
369.59	18.921
369.95	19.878
370.31	19.716
370.67	19.188
371.03	19.460
371.39	19.208
371.75	19.188
372.11	19.648
372.47	19.634
372.83	20.288
373.19	20.280
373.55	20.664
373.91	19.359
374.27	20.440
374.63	20.433
374.99	19.430
375.35	21.039
375.71	20.710
376.07	20.077
376.42	20.970
376.78	20.820
377.14	20.025
377.50	21.126
377.86	21.244
378.22	21.198
378.58	20.927
378.94	21.009
379.30	20.035
379.66	21.105
380.02	20.542
380.38	21.774
380.74	21.127
381.09	21.603
381.45	21.932
381.81	21.721
382.17	21.200
382.53	21.988
382.89	21.219
383.25	22.098
383.61	21.528
383.97	21.967
384.32	22.249
384.68	21.056
385.04	21.805
385.40	22.098
385.76	22.802
386.12	21.724
386.48	22.000
386.83	22.825
387.19	22.074
387.55	21.596
387.91	22.432
388.27	22.806
388.62	22.050
388.98	22.448
389.34	23.394
389.70	22.719
390.06	22.202
390.42	22.711
390.77	22.757
391.13	21.890
391.49	22.886
391.85	22.424
392.20	22.776
392.56	23.036
392.92	23.773
393.28	23.273
393.64	22.291
393.99	23.242
394.35	23.715
394.71	23.593
395.07	22.455
395.42	23.073
395.78	23.461
396.14	22.935
396.50	23.100
396.85	23.017
397.21	22.544
397.57	22.615
397.92	23.883
398.28	22.596
398.64	22.368
399.00	22.723
399.35	23.246
399.71	23.424
400.07	23.638
400.42	24.563
400.78	24.190
401.14	23.108
401.49	23.479
401.85	23.023
402.21	24.508
402.57	24.472
402.92	23.582
403.28	23.829
403.63	22.315
403.99	23.694
404.35	23.366
404.70	23.626
405.06	22.826
405.42	24.766
405.77	24.155
406.13	24.095
406.49	23.367
406.84	23.435
407.20	23.477
407.55	23.319
407.91	24.513
408.27	23.675
408.62	23.444
408.98	23.622
409.34	22.757
409.69	23.609
410.05	24.326
410.40	23.724
410.76	23.444
411.11	24.313
411.47	23.771
411.83	23.927
412.18	23.916
412.54	23.889
412.89	24.214
413.25	22.686
413.60	22.746
413.96	23.310
414.31	23.513
414.67	24.210
415.03	23.877
415.38	24.590
415.74	23.885
416.09	24.738
416.45	24.483
416.80	23.990
417.16	24.010
417.51	23.786
417.87	24.954
418.22	24.611
418.58	24.473
418.93	24.854
419.29	24.168
419.64	24.490
420.00	24.214
420.35	24.649
420.71	24.469
421.06	24.267
421.42	26.089
421.77	24.394
422.12	24.841
422.48	24.834
422.83	26.123
423.19	25.676
423.54	25.996
423.90	25.345
424.25	26.507
424.61	23.881
424.96	25.755
425.31	26.539
425.67	25.443
426.02	25.678
426.38	25.201
426.73	26.004
427.09	26.240
427.44	25.177
427.79	25.815
428.15	25.856
428.50	25.337
428.85	25.488
429.21	26.011
429.56	26.012
429.92	25.799
430.27	25.928
430.62	26.282
430.98	26.562
431.33	27.615
431.68	26.724
432.04	26.816
432.39	27.531
432.74	27.226
433.10	27.150
433.45	26.756
433.80	26.556
434.16	26.963
434.51	26.721
434.86	27.362
435.22	27.896
435.57	28.833
435.92	27.268
436.28	28.157
436.63	27.854
436.98	27.858
437.34	27.339
437.69	26.912
438.04	27.710
438.39	28.317
438.75	27.504
439.10	28.013
439.45	27.837
439.81	27.966
440.16	28.633
440.51	27.815
440.86	27.682
441.22	27.599
441.57	28.040
441.92	27.740
442.27	28.384
442.63	27.919
442.98	28.655
443.33	28.248
443.68	28.394
444.03	29.868
444.39	29.820
444.74	28.688
445.09	28.130
445.44	28.556
445.79	28.209
446.15	29.188
446.50	28.630
446.85	29.572
447.20	29.110
447.55	28.870
447.91	28.796
448.26	28.594
448.61	29.118
448.96	29.989
449.31	27.996
449.66	29.194
450.02	28.586
450.37	29.622
450.72	29.279
451.07	28.815
451.42	28.712
451.77	29.850
452.12	29.571
452.47	28.283
452.83	28.941
453.18	29.072
453.53	28.662
453.88	29.542
454.23	30.113
454.58	29.425
454.93	29.369
455.28	30.163
455.63	29.335
455.98	30.000
456.34	29.329
456.69	29.101
457.04	29.492
457.39	29.712
457.74	29.418
458.09	30.313
458.44	29.203
458.79	28.365
459.14	29.470
459.49	30.390
459.84	30.325
460.19	28.207
460.54	29.926
460.89	30.492
461.24	29.368
461.59	29.386
461.94	28.408
462.29	30.403
462.64	29.028
462.99	30.132
463.34	29.721
463.69	29.250
464.04	30.017
464.39	30.661
464.74	29.532
465.09	29.354
465.44	29.292
465.79	30.090
466.14	29.859
466.49	30.000
466.84	31.074
467.19	30.867
467.54	29.318
467.89	29.713
468.24	29.584
468.59	29.589
468.94	29.371
469.29	29.514
469.64	29.816
469.99	30.402
470.34	30.384
470.68	30.485
471.03	30.386
471.38	31.851
471.73	30.234
472.08	30.711
472.43	30.644
472.78	30.793
473.13	30.278
473.48	30.937
473.83	30.934
474.17	29.660
474.52	31.149
474.87	29.513
475.22	30.254
475.57	30.010
475.92	31.010
476.27	30.724
476.61	30.374
476.96	30.709
477.31	31.040
477.66	31.217
478.01	30.859
478.36	29.661
478.70	30.296
479.05	31.084
479.40	30.948
479.75	31.460
480.10	31.265
480.45	29.854
480.79	30.839
481.14	30.653
481.49	31.486
481.84	31.245
482.19	31.355
482.53	31.745
482.88	31.989
483.23	30.992
483.58	30.873
483.92	30.452
484.27	30.567
484.62	30.281
484.97	31.221
485.31	30.095
485.66	28.571
486.01	26.851
486.36	28.578
486.70	30.877
487.05	33.023
487.40	32.343
487.75	32.901
488.09	32.347
488.44	32.121
488.79	31.838
489.13	31.173
489.48	31.301
489.83	30.664
490.17	31.106
490.52	30.542
490.87	30.795
491.22	30.243
491.56	31.570
491.91	31.705
492.26	30.939
492.60	31.701
492.95	31.637
493.30	31.376
493.64	30.311
493.99	31.447
494.34	31.141
494.68	30.707
495.03	31.674
495.37	31.336
495.72	31.383
496.07	31.069
496.41	30.845
496.76	30.984
497.11	31.295
497.45	30.600
497.80	31.675
498.14	31.293
498.49	31.204
498.84	30.713
499.18	30.769
499.53	31.749
499.87	31.736
500.22	31.211
500.56	30.994
500.91	31.945
501.26	31.409
501.60	31.374
501.95	32.175
502.29	31.330
502.64	31.832
502.98	31.234
503.33	31.317
503.67	31.923
504.02	31.524
504.36	32.350
504.71	30.960
505.06	32.697
505.40	32.221
505.75	32.195
506.09	32.643
506.44	32.080
506.78	32.248
507.13	31.720
507.47	31.928
507.82	31.771
508.16	31.501
508.51	31.411
508.85	32.026
509.19	32.165
509.54	33.285
509.88	32.103
510.23	33.560
510.57	33.543
510.92	32.172
511.26	32.997
511.61	31.965
511.95	32.064
512.30	32.447
512.64	31.634
512.98	32.716
513.33	32.863
513.67	33.809
514.02	32.959
514.36	33.350
514.70	32.969
515.05	34.463
515.39	33.963
515.74	34.093
516.08	33.281
516.42	32.967
516.77	34.595
517.11	34.244
517.46	33.298
517.80	34.367
518.14	34.657
518.49	34.436
518.83	33.475
519.17	33.118
519.52	32.809
519.86	34.055
520.20	34.824
520.55	33.571
520.89	34.403
521.23	34.003
521.58	34.294
521.92	34.561
522.26	34.536
522.61	35.359
522.95	35.006
523.29	34.540
523.64	34.417
523.98	34.740
524.32	35.301
524.66	34.149
525.01	34.145
525.35	34.348
525.69	33.933
526.04	34.501
526.38	33.851
526.72	34.314
527.06	34.663
527.41	35.743
527.75	35.392
528.09	34.534
528.43	35.938
528.78	33.931
529.12	33.888
529.46	35.357
529.80	35.526
530.15	34.551
530.49	34.401
530.83	35.242
531.17	34.707
531.51	35.560
531.86	35.096
532.20	34.451
532.54	35.787
532.88	34.848
533.22	34.237
533.57	34.334
533.91	35.634
534.25	36.066
534.59	35.402
534.93	35.031
535.27	34.986
535.62	35.077
535.96	34.166
536.30	35.546
536.64	36.156
536.98	35.916
537.32	35.432
537.66	36.432
538.01	34.683
538.35	34.531
538.69	35.216
539.03	35.622
539.37	34.629
539.71	35.135
540.05	35.372
540.39	34.780
540.73	35.519
541.07	35.990
541.42	35.027
541.76	34.401
542.10	35.464
542.44	34.592
542.78	35.280
543.12	36.174
543.46	34.982
543.80	34.472
544.14	35.189
544.48	34.752
544.82	35.009
545.16	36.136
545.50	35.291
545.84	34.538
546.18	36.235
546.52	35.796
546.86	34.591
547.20	35.751
547.54	34.769
547.88	35.262
548.22	34.035
548.56	35.401
548.90	36.000
549.24	36.109
549.58	35.962
549.92	36.288
550.26	36.181
550.60	34.780
550.94	35.382
551.28	35.446
551.62	35.377
551.96	35.793
552.30	35.373
552.64	35.221
552.98	35.933
553.32	36.785
553.66	36.977
554.00	35.939
554.34	35.521
554.68	35.571
555.02	36.005
555.36	35.240
555.69	34.721
556.03	35.372
556.37	36.796
556.71	36.652
557.05	36.166
557.39	36.297
557.73	35.997
558.07	35.563
558.41	36.545
558.75	36.646
559.08	35.769
559.42	35.460
559.76	36.771
560.10	35.365
560.44	36.478
560.78	35.875
561.12	36.022
561.45	36.192
561.79	36.020
562.13	36.106
562.47	35.697
562.81	35.443
563.15	36.364
563.48	35.985
563.82	36.094
564.16	35.554
564.50	35.638
564.84	35.575
565.17	36.059
565.51	35.673
565.85	34.857
566.19	35.081
566.52	34.933
566.86	35.710
567.20	35.237
567.54	35.369
567.88	35.576
568.21	34.783
568.55	35.444
568.89	34.907
569.23	35.615
569.56	34.154
569.90	33.713
570.24	34.368
570.57	34.157
570.91	33.864
571.25	33.526
571.59	34.011
571.92	34.062
572.26	33.563
572.60	34.589
572.93	34.623
573.27	34.139
573.61	33.986
573.95	33.503
574.28	33.544
574.62	33.470
574.96	33.547
575.29	33.377
575.63	34.488
575.97	34.299
576.30	33.407
576.64	33.978
576.98	34.123
577.31	33.728
577.65	33.430
577.98	33.415
578.32	32.635
578.66	33.509
578.99	34.221
579.33	34.971
579.67	34.565
580.00	34.277
580.34	33.748
580.67	32.944
581.01	33.817
581.35	32.807
581.68	32.884
582.02	32.948
582.35	33.986
582.69	34.092
583.02	34.386
583.36	34.935
583.70	34.992
584.03	35.037
584.37	34.757
584.70	34.279
585.04	33.527
585.37	33.694
585.71	33.441
586.04	33.686
586.38	34.703
586.72	34.796
587.05	34.510
587.39	34.256
587.72	34.761
588.06	34.429
588.39	35.200
588.73	34.788
589.06	35.384
589.40	35.372
589.73	34.897
590.07	35.080
590.40	35.463
590.73	35.419
591.07	36.076
591.40	35.303
591.74	35.135
592.07	35.363
592.41	35.055
592.74	34.150
593.08	34.299
593.41	34.296
593.75	34.282
594.08	35.565
594.41	35.897
594.75	35.503
595.08	34.926
595.42	35.032
595.75	35.228
596.09	35.649
596.42	36.044
596.75	35.932
597.09	36.606
597.42	34.923
597.75	34.849
598.09	34.683
598.42	36.108
598.76	35.231
599.09	34.389
599.42	34.294
599.76	34.533
600.09	35.135
600.42	34.401
600.76	35.799
601.09	34.783
601.42	34.775
601.76	35.138
602.09	35.525
602.42	35.478
602.76	34.502
603.09	35.756
603.42	35.947
603.76	34.919
604.09	35.699
604.42	36.000
604.76	36.301
605.09	35.461
605.42	35.526
605.75	34.808
606.09	35.013
606.42	34.622
606.75	34.445
607.09	34.716
607.42	34.913
607.75	35.170
608.08	35.833
608.42	35.913
608.75	35.489
609.08	35.144
609.41	36.480
609.75	35.491
610.08	35.708
610.41	34.962
610.74	35.504
611.07	36.501
611.41	35.785
611.74	35.520
612.07	36.793
612.40	35.504
612.73	37.164
613.07	35.599
613.40	36.141
613.73	35.676
614.06	35.672
614.39	34.742
614.72	34.886
615.06	35.515
615.39	35.186
615.72	35.403
616.05	35.017
616.38	36.478
616.71	37.409
617.05	36.262
617.38	36.597
617.71	36.825
618.04	36.643
618.37	37.049
618.70	37.161
619.03	36.977
619.36	37.115
619.69	37.668
620.03	36.660
620.36	35.767
620.69	36.336
621.02	36.942
621.35	38.316
621.68	38.106
622.01	36.512
622.34	35.844
622.67	37.388
623.00	35.290
623.33	36.762
623.66	36.900
623.99	36.669
624.32	37.362
624.65	36.744
624.99	37.971
625.32	37.231
625.65	37.424
625.98	37.424
626.31	38.412
626.64	38.022
626.97	36.084
627.30	36.674
627.63	36.384
627.96	38.138
628.29	37.354
628.62	37.615
628.95	39.176
629.28	38.233
629.61	37.205
629.94	36.820
630.26	37.712
630.59	37.910
630.92	36.970
631.25	39.535
631.58	39.548
631.91	39.175
632.24	38.713
632.57	37.571
632.90	37.513
633.23	38.163
633.56	39.082
633.89	37.190
634.22	39.813
634.55	39.040
634.88	38.745
635.20	39.720
635.53	40.565
635.86	38.570
636.19	37.646
636.52	39.030
636.85	36.159
637.18	37.942
637.51	37.634
637.83	38.760
638.16	41.129
638.49	40.141
638.82	39.459
639.15	38.373
639.48	39.030
639.81	39.376
640.13	38.163
640.46	37.091
640.79	38.358
641.12	38.634
641.45	38.018
641.77	40.180
642.10	40.814
642.43	41.622
642.76	37.669
643.09	36.027
643.41	39.216
643.74	40.552
644.07	40.552
644.40	39.038
644.73	40.639
645.05	39.648
645.38	40.719
645.71	40.029
646.04	41.320
646.36	38.686
646.69	40.031
647.02	40.520
647.35	42.290
647.67	44.283
648.00	38.057
648.33	37.688
648.66	39.800
648.98	38.367
649.31	39.648
649.64	39.841
649.96	39.655
650.29	38.387
650.62	37.341
650.94	37.538
651.27	40.120
651.60	39.327
651.92	39.210
652.25	40.232
652.58	38.790
652.90	36.628
653.23	40.282
653.56	38.659
653.88	40.449
654.21	37.324
654.54	38.873
654.86	39.235
655.19	37.390
655.52	38.468
655.84	35.015
656.17	39.181
656.49	55.208
656.82	61.814
657.15	50.552
657.47	40.344
657.80	30.763
658.13	24.298
658.45	32.525
658.78	39.441
659.10	38.103
659.43	36.625
659.75	34.982
660.08	33.445
660.41	35.070
660.73	34.550
661.06	38.032
661.38	41.148
661.71	41.207
662.03	39.330
662.36	38.283
662.68	37.711
663.01	39.115
663.33	40.832
663.66	41.575
663.98	39.615
664.31	40.713
664.63	39.884
664.96	39.383
665.28	41.198
665.61	40.210
665.93	41.607
666.26	40.860
666.58	38.930
666.91	42.056
667.23	41.905
667.56	38.856
667.88	42.400
668.21	39.453
668.53	37.066
668.86	39.882
669.18	41.344
669.50	41.948
669.83	39.000
670.15	37.008
670.48	40.675
670.80	40.918
671.13	37.807
671.45	41.535
671.77	41.055
672.10	39.333
672.42	38.350
672.75	37.634
673.07	37.313
673.39	38.213
673.72	39.094
674.04	41.724
674.37	40.072
674.69	41.093
675.01	41.143
675.34	39.504
675.66	39.888
675.98	41.045
676.31	39.844
676.63	38.023
676.95	42.337
677.28	41.935
677.60	40.354
677.92	38.388
678.25	39.305
678.57	37.900
678.89	38.908
679.22	36.411
679.54	37.436
679.86	37.627
680.18	36.816
680.51	39.151
680.83	40.589
681.15	40.517
681.48	40.069
681.80	42.487
682.12	39.510
682.44	37.563
682.77	37.766
683.09	37.311
683.41	40.891
683.73	39.658
684.06	37.638
684.38	37.925
684.70	37.163
685.02	38.210
685.34	38.270
685.67	35.647
685.99	35.123
686.31	35.174
686.63	36.651
686.96	38.328
687.28	39.739
687.60	37.374
687.92	36.977
688.24	38.397
688.56	36.724
688.89	38.657
689.21	39.530
689.53	34.314
689.85	37.673
690.17	37.037
690.49	38.645
690.82	39.802
691.14	37.449
691.46	38.050
691.78	40.516
692.10	36.514
692.42	36.964
692.74	36.298
693.06	34.259
693.39	39.658
693.71	37.218
694.03	39.219
694.35	36.952
694.67	39.425
694.99	38.723
695.31	38.190
695.63	37.446
695.95	36.439
696.27	38.022
696.59	35.398
696.91	37.387
697.23	38.462
697.56	37.475
697.88	35.606
698.20	37.665
698.52	39.773
698.84	37.214
699.16	38.367
699.48	38.494
699.80	38.085
700.12	37.336
700.44	38.249
700.76	40.143
701.08	37.046
701.40	39.119
701.72	38.308
702.04	37.166
702.36	39.791
702.68	35.697
703.00	35.697
703.32	37.192
703.64	39.853
703.96	36.516
704.28	38.329
704.60	38.987
704.91	35.714
705.23	40.548
705.55	37.604
705.87	42.121
706.19	34.663
706.51	35.241
706.83	35.159
707.15	37.302
707.47	31.776
707.79	34.498
708.11	34.110
708.43	32.473
708.74	35.491
709.06	38.283
709.38	38.028
709.70	38.213
710.02	36.434
710.34	39.362
710.66	35.475
710.98	37.432
711.29	38.187
711.61	36.158
711.93	34.473
712.25	36.757
712.57	38.938
712.89	37.059
713.20	31.361
713.52	39.595
713.84	36.769
714.16	37.895
714.48	34.794
714.80	42.857
715.11	36.745
715.43	35.809
715.75	35.000
716.07	37.017
716.39	36.612
716.70	34.940
717.02	38.033
717.34	34.146
717.66	34.228
717.97	34.932
718.29	33.333
718.61	34.539
718.93	33.333
719.24	35.404
719.56	36.503
719.88	33.934
720.20	38.065
720.51	35.714
720.83	37.813
721.15	32.895
721.46	33.562
721.78	36.000
722.10	33.333
722.42	32.886
722.73	35.161
723.05	37.193
723.37	34.028
723.68	34.409
724.00	33.935
724.32	35.563
724.63	33.217
724.95	35.816
725.27	31.707
725.58	37.809
725.90	34.828
726.22	33.229
726.53	37.013
726.85	36.792
727.16	32.628
727.48	35.474
727.80	37.748
728.11	33.569
728.43	34.680
728.74	34.114
729.06	35.099
729.38	33.117
729.69	32.215
730.01	34.821
730.32	34.848
730.64	34.277
730.96	31.988
731.27	35.754
731.59	32.143
731.90	33.766
732.22	32.552
732.53	31.215
732.85	32.857
733.16	29.619
733.48	33.232
733.80	32.869
734.11	30.484
734.43	34.324
734.74	37.722
735.06	33.166
735.37	33.784
735.69	29.189
736.00	33.898
736.32	32.075
736.63	33.611
736.95	30.747
737.26	34.848
737.58	27.273
737.89	33.824
738.21	28.440
738.52	28.197
738.83	31.741
739.15	30.142
739.46	32.993
739.78	35.583
740.09	30.372
740.41	32.653
740.72	32.333
741.04	34.304
741.35	37.895
741.66	32.941
741.98	36.885
742.29	39.749
742.61	30.263
742.92	36.154
743.23	35.379
743.55	35.271
743.86	30.800
744.18	28.926
744.49	30.802
744.80	30.864
745.12	32.911
745.43	34.959
745.74	29.741
746.06	35.593
746.37	33.333
746.68	36.585
747.00	35.833
747.31	30.901
747.62	30.000
747.94	33.603
748.25	28.916
748.56	28.571
748.88	28.205
749.19	32.759
749.50	31.602
749.82	33.735
750.13	31.673
750.44	29.667
750.75	34.154
751.07	29.231
751.38	34.385
751.69	33.227
752.01	28.155
752.32	32.026
752.63	31.293
752.94	33.564
753.26	30.112
753.57	29.630
753.88	29.213
754.19	32.154
754.51	36.656
754.82	35.691
755.13	35.738
755.44	34.471
755.75	30.921
756.07	29.851
756.38	33.648
756.69	33.735
757.00	30.194
757.31	30.874
757.63	28.389
757.94	28.873
758.25	31.151
758.56	30.937
758.87	30.455
759.18	29.600
759.50	30.595
759.81	33.613
760.12	35.310
760.43	31.250
760.74	30.788
761.05	32.000
761.36	32.048
761.67	28.680
761.99	30.000
762.30	29.573
762.61	27.393
762.92	28.731
763.23	35.581
763.54	28.777
763.85	36.426
764.16	28.283
764.47	33.451
764.78	29.712
765.10	30.205
765.41	33.590
765.72	27.778
766.03	31.073
766.34	29.154
766.65	31.010
766.96	26.693
767.27	28.111
767.58	26.368
767.89	34.615
768.20	29.108
768.51	29.167
768.82	31.325
769.13	29.167
769.44	27.308
769.75	30.325
770.06	27.308
770.37	33.465
770.68	27.234
770.99	25.101
771.30	36.667
771.61	27.757
771.92	31.852
772.23	29.960
772.54	26.852
772.85	33.180
773.16	32.857
773.47	27.513
773.78	25.405
774.09	30.682
774.39	35.500
774.70	34.426
775.01	28.659
775.32	17.059
775.63	28.221
775.94	18.471
776.25	23.871
776.56	26.923
776.87	29.252
777.18	22.069
777.48	23.077
777.79	25.000
778.10	27.206
778.41	18.056
778.72	25.517
779.03	20.988
779.34	26.061
779.65	25.389
779.95	22.778
780.26	18.750
780.57	23.871
780.88	28.986
781.19	25.161
781.50	27.059
781.80	34.946
782.11	25.926
782.42	24.242
782.73	24.551
783.04	22.905
783.34	21.818
783.65	22.222
783.96	24.224
784.27	16.071
784.57	18.543
784.88	20.000
785.19	19.685
785.50	22.047
785.81	24.060
786.11	25.385
786.42	13.669
786.73	23.022
787.04	24.060
787.34	28.689
787.65	22.400
787.96	20.896
788.26	29.371
788.57	30.070
788.88	24.342
789.19	28.105
789.49	22.603
789.80	15.603
790.11	29.921
790.41	25.000
790.72	27.119
791.03	13.592
791.33	18.261
791.64	21.930
791.95	19.643
792.25	20.952
792.56	9.821
792.87	8.333
793.17	16.964
793.48	9.375
793.79	3.614
794.09	20.183
794.40	18.349
794.70	21.769
795.01	20.779
795.32	15.753
795.62	21.831
795.93	21.212
796.23	25.410
796.54	16.964
796.85	17.021
797.15	19.565
797.46	9.589
797.76	18.750
798.07	14.130
798.37	5.155
798.68	9.091
798.99	8.046
799.29	16.854
799.60	19.149
799.90	9.639
800.21	6.154
800.51	-5.970
800.82	1.471
801.12	6.849
801.43	-8.824
801.73	8.475
802.04	6.061
802.34	8.333
802.65	10.169
802.95	-4.478
803.26	-6.780
803.56	12.329
803.87	15.714
804.17	15.068
804.48	-17.544
804.78	6.944
805.09	-3.448
805.39	8.108
805.70	-9.859
806.00	20.732
806.30	13.253
806.61	4.110
806.91	12.500
807.22	5.556
807.52	-2.299
807.83	29.167
808.13	14.458
808.43	8.989
808.74	1.250
809.04	-8.824
809.35	-1.333
809.65	0.000
809.95	4.110
810.26	-12.281
810.56	-3.448
810.86	-1.471
811.17	12.281
811.47	-1.639
811.77	-6.667
812.08	6.780
812.38	-3.333
812.69	-3.448
812.99	-13.208
813.29	-28.205
813.59	-2.000
813.90	14.035
814.20	3.636
814.50	7.042
814.81	3.846
815.11	8.197
815.41	2.985
815.72	1.724
816.02	-5.357
816.32	8.889
816.62	-20.455
816.93	-33.333
817.23	3.704
817.53	-19.149
817.84	-11.905
818.14	-26.471
818.44	8.163
818.74	-6.667
819.04	-38.462
819.35	-40.000
819.65	-57.692
819.95	-3.774
820.25	-22.222
820.56	-2.381
820.86	-21.875
821.16	-2.564
821.46	-20.930
821.76	-24.000
822.07	-3.571
822.37	-13.043
822.67	4.255
822.97	-43.243
823.27	-22.500
823.57	12.245
823.88	2.222
824.18	-15.000
824.48	-70.000
824.78	-68.000
825.08	-12.121
825.38	17.778
825.69	-17.021
825.99	-44.444
826.29	-74.286
826.59	-28.205
826.89	-39.535
827.19	2.000
827.49	-20.588
827.79	-8.333
828.09	-29.730
828.39	-36.667
828.70	-9.756
829.00	-11.628
829.30	-46.429
829.60	-29.412
829.90	-15.217
830.20	-37.143
830.50	-55.172
830.80	-88.889
831.10	-57.692
831.40	-38.235
831.70	-85.714
832.00	-32.258
832.30	-117.647
832.60	-75.000
832.90	-215.385
833.20	-42.105
833.50	-85.000
833.80	-73.684
834.10	-85.714
834.40	-19.444
834.70	-15.625
835.00	-57.143
835.30	-52.941
835.60	-50.000
835.90	-60.000
836.20	-100.000
836.50	-64.000
836.80	-39.394
837.10	-59.259
837.40	-51.852
837.70	-156.250
838.00	-39.286
838.30	-65.217
838.60	-20.690
838.90	-107.143
839.19	-113.043
839.49	-183.333
839.79	-78.261
840.09	-125.000
840.39	-45.000
840.69	-16.129
840.99	-92.857
841.29	-126.667
841.59	-84.211
841.88	-5.128
842.18	-92.308
842.48	-130.000
842.78	-85.000
843.08	-53.333
843.38	12.903
843.68	-144.444
843.97	-58.824
844.27	-93.750
844.57	-115.789
844.87	-300.000
845.17	-166.667
845.47	-28.571
845.76	-85.714
846.06	-188.889
846.36	-88.235
846.66	-69.231
846.96	-160.000
847.25	-70.588
847.55	-52.174
847.85	-120.000
848.15	-88.235
848.44	-190.909
848.74	-38.095
849.04	-66.667
849.34	-143.750
849.63	-52.174
849.93	1200.000
850.23	-173.333
850.53	-61.538
850.82	-200.000
851.12	-72.727
851.42	-218.182
851.71	-61.538
852.01	-125.000
852.31	-176.923
852.61	-105.263
852.90	-158.333
853.20	-88.889
853.50	-355.556
853.79	-128.571
854.09	-77.273
854.39	-183.333
854.68	-41.935
854.98	-73.077
855.28	-100.000
855.57	-53.571
855.87	-76.000
856.17	-63.636
856.46	-22.222
856.76	-33.333
857.05	-73.913
857.35	-54.167
857.65	-169.231
857.94	-90.476
858.24	-51.852
858.53	-47.826
858.83	-17.647
859.13	-100.000
859.42	-29.412
859.72	-157.143
860.01	-80.000
860.31	-222.222
860.60	-220.000
860.90	-153.333
861.20	-138.889
861.49	-169.231
861.79	-60.000
862.08	-153.846
862.38	-12.500
862.67	-111.765
862.97	-93.750
863.26	-244.444
863.56	-120.000
863.85	-200.000
864.15	-44.444
864.44	-700.000
864.74	-100.000
865.03	-93.750
865.33	-260.000
865.62	-41.935
865.92	-54.545
866.21	-39.130
866.51	-107.143
866.80	-280.000
867.10	-225.000
867.39	-225.000
867.69	2600.000
867.98	-328.571
868.27	-88.235
868.57	-3000.000
868.86	-240.000
869.16	-119.048
869.45	-58.333
869.75	-127.273
870.04	-357.143
870.33	-183.333
870.63	-300.000
870.92	-450.000
871.22	-412.500
871.51	-254.545
871.80	-1000.000
872.10	-1400.000
>>>>>End Processed Spectral Data<<<<<
