SpectraSuite Data File
++++++++++++++++++++++++++++++++++++
Date: Thu May 14 15:16:36 PDT 2015
User: schluterlab
Dark Spectrum Present: Yes
Reference Spectrum Present: Yes
Number of Sampled Component Spectra: 1
Spectrometers: USB2E3373
Integration Time (usec): 3000 (USB2E3373)
Spectra Averaged: 3 (USB2E3373)
Boxcar Smoothing: 0 (USB2E3373)
Correct for Electrical Dark: No (USB2E3373)
Strobe/Lamp Enabled: No (USB2E3373)
Correct for Detector Non-linearity: No (USB2E3373)
Correct for Stray Light: No (USB2E3373)
Number of Pixels in Processed Spectrum: 2048
>>>>>Begin Processed Spectral Data<<<<<
178.53	0.000
178.91	557.143
179.29	-5000.000
179.67	-4500.000
180.04	442.857
180.42	490.000
180.80	900.000
181.18	-4100.000
181.56	-3400.000
181.94	1250.000
182.31	-1025.000
182.69	1600.000
183.07	-1800.000
183.45	1025.000
183.83	-700.000
184.20	-1500.000
184.58	4300.000
184.96	-1175.000
185.34	-388.889
185.72	-580.000
186.09	555.556
186.47	2250.000
186.85	980.000
187.23	-477.778
187.61	-4600.000
187.98	860.000
188.36	1100.000
188.74	-925.000
189.12	-1166.667
189.49	-181.250
189.87	-525.000
190.25	-388.889
190.63	-680.000
191.00	-600.000
191.38	0.000
191.76	-1225.000
192.14	-650.000
192.51	2000.000
192.89	-466.667
193.27	0.000
193.65	-557.143
194.02	-5100.000
194.40	-528.571
194.78	642.857
195.15	0.000
195.53	-309.091
195.91	0.000
196.29	-900.000
196.66	-292.308
197.04	-5000.000
197.42	-628.571
197.79	-2200.000
198.17	-400.000
198.55	-585.714
198.92	-366.667
199.30	-500.000
199.68	-309.091
200.05	-264.286
200.43	-2150.000
200.81	614.286
201.18	0.000
201.56	511.111
201.94	0.000
202.31	1533.333
202.69	-522.222
203.07	4500.000
203.44	-422.222
203.82	-1050.000
204.19	-358.333
204.57	-733.333
204.95	-512.500
205.32	-4000.000
205.70	1025.000
206.08	-666.667
206.45	-683.333
206.83	1020.000
207.20	-733.333
207.58	-840.000
207.96	-766.667
208.33	-766.667
208.71	341.667
209.08	-400.000
209.46	0.000
209.84	850.000
210.21	2150.000
210.59	1550.000
210.96	1533.333
211.34	-825.000
211.71	-537.500
212.09	-4400.000
212.46	0.000
212.84	1900.000
213.22	-820.000
213.59	-1000.000
213.97	-410.000
214.34	-1533.333
214.72	866.667
215.09	-1075.000
215.47	0.000
215.84	657.143
216.22	2100.000
216.59	-720.000
216.97	-740.000
217.34	-875.000
217.72	-450.000
218.09	-1200.000
218.47	-1150.000
218.84	0.000
219.22	720.000
219.59	-235.294
219.97	-170.000
220.34	2000.000
220.72	-433.333
221.09	-253.846
221.47	-1200.000
221.84	-430.000
222.22	-685.714
222.59	0.000
222.97	-350.000
223.34	-860.000
223.72	-3200.000
224.09	-950.000
224.46	-1000.000
224.84	-700.000
225.21	-628.571
225.59	-1225.000
225.96	-1025.000
226.34	-111.538
226.71	800.000
227.08	-2100.000
227.46	-233.333
227.83	-1075.000
228.21	-200.000
228.58	487.500
228.95	2450.000
229.33	-283.333
229.70	-360.000
230.08	-131.579
230.45	420.000
230.82	-1366.667
231.20	-228.571
231.57	-283.333
231.95	-381.818
232.32	-227.273
232.69	-180.000
233.07	-975.000
233.44	-164.706
233.81	-370.000
234.19	-166.667
234.56	-181.818
234.93	-117.241
235.31	-215.789
235.68	-172.222
236.05	-225.000
236.43	-111.538
236.80	-140.000
237.17	-129.630
237.55	-106.061
237.92	-380.000
238.29	-125.806
238.67	-90.909
239.04	-91.667
239.41	-107.143
239.79	-89.130
240.16	-70.370
240.53	-86.957
240.91	-78.431
241.28	-68.852
241.65	-41.791
242.02	-32.432
242.40	-63.077
242.77	-56.000
243.14	-53.659
243.51	-71.053
243.89	-55.128
244.26	-37.624
244.63	-29.412
245.00	-33.645
245.38	-43.860
245.75	-50.442
246.12	-28.571
246.49	-27.132
246.87	-23.571
247.24	-25.166
247.61	-24.342
247.98	-28.859
248.36	-24.691
248.73	-22.699
249.10	-20.219
249.47	-15.423
249.84	-17.801
250.22	-21.762
250.59	-25.000
250.96	-17.273
251.33	-22.959
251.70	-13.248
252.08	-13.750
252.45	-16.803
252.82	-16.529
253.19	-15.625
253.56	-12.928
253.94	-18.462
254.31	-13.258
254.68	-11.189
255.05	-9.772
255.42	-15.986
255.79	-16.828
256.16	-14.238
256.54	-14.570
256.91	-10.820
257.28	-16.066
257.65	-17.834
258.02	-16.519
258.39	-9.687
258.76	-9.480
259.14	-7.184
259.51	-10.951
259.88	-11.898
260.25	-9.167
260.62	-7.123
260.99	-9.016
261.36	-6.702
261.73	-12.467
262.10	-10.165
262.47	-9.920
262.85	-5.303
263.22	-10.909
263.59	-11.842
263.96	-8.951
264.33	-10.742
264.70	-11.852
265.07	-7.637
265.44	-3.855
265.81	-9.722
266.18	-6.803
266.55	-4.688
266.92	-10.023
267.29	-5.033
267.66	-6.430
268.03	-6.332
268.40	-6.263
268.77	-8.428
269.14	-8.370
269.51	-7.237
269.88	-5.328
270.25	-5.433
270.62	-6.751
270.99	-5.051
271.36	-3.960
271.73	-5.697
272.10	-5.210
272.47	-6.413
272.84	-7.430
273.21	-7.014
273.58	-6.048
273.95	-7.692
274.32	-7.795
274.69	-8.124
275.06	-3.663
275.43	-5.730
275.80	-4.233
276.17	-6.852
276.54	-5.410
276.91	-5.903
277.28	-5.063
277.65	-5.386
278.02	-4.963
278.39	-6.159
278.76	-5.975
279.13	-5.142
279.50	-3.780
279.87	-5.903
280.23	-7.923
280.60	-6.271
280.97	-5.921
281.34	-6.452
281.71	-3.892
282.08	-4.817
282.45	-6.547
282.82	-5.181
283.19	-7.431
283.56	-5.246
283.92	-2.703
284.29	-4.739
284.66	-6.076
285.03	-7.051
285.40	-3.555
285.77	-6.347
286.14	-3.359
286.51	-5.632
286.87	-4.739
287.24	-5.873
287.61	-4.933
287.98	-4.532
288.35	-5.769
288.72	-3.994
289.08	-3.514
289.45	-5.178
289.82	-5.422
290.19	-4.741
290.56	-4.648
290.93	-4.708
291.29	-4.408
291.66	-5.096
292.03	-5.970
292.40	-3.537
292.77	-5.121
293.13	-2.165
293.50	-4.599
293.87	-3.758
294.24	-2.933
294.60	-2.402
294.97	-5.369
295.34	-3.457
295.71	-3.657
296.08	-2.842
296.44	-3.799
296.81	-4.019
297.18	-3.113
297.55	-4.245
297.91	-3.559
298.28	-4.384
298.65	-2.616
299.02	-3.188
299.38	-2.174
299.75	-3.388
300.12	-4.167
300.48	-3.571
300.85	-2.700
301.22	-3.132
301.59	-3.425
301.95	-3.616
302.32	-3.111
302.69	-3.286
303.05	-2.938
303.42	-2.661
303.79	-2.604
304.15	-2.313
304.52	-3.911
304.89	-2.618
305.25	-2.692
305.62	-3.239
305.99	-2.268
306.35	-3.024
306.72	-2.896
307.09	-3.858
307.45	-3.209
307.82	-2.422
308.19	-3.330
308.55	-1.446
308.92	-2.142
309.29	-2.107
309.65	-2.437
310.02	-2.376
310.38	-3.445
310.75	-3.107
311.12	-1.726
311.48	-3.324
311.85	-2.849
312.22	-1.898
312.58	-1.033
312.95	-2.008
313.31	-1.084
313.68	-1.465
314.05	0.000
314.41	0.182
314.78	-1.362
315.14	-1.180
315.51	-1.016
315.87	-0.630
316.24	0.457
316.61	0.089
316.97	-0.362
317.34	-0.970
317.70	-0.262
318.07	0.353
318.43	0.850
318.80	2.676
319.16	0.858
319.53	-0.171
319.89	0.876
320.26	1.246
320.62	0.532
320.99	1.847
321.35	1.109
321.72	2.512
322.08	1.262
322.45	1.897
322.81	2.166
323.18	2.920
323.54	2.414
323.91	3.203
324.27	3.356
324.64	5.206
325.00	3.980
325.37	5.242
325.73	5.207
326.10	5.677
326.46	6.678
326.83	6.886
327.19	7.008
327.56	7.352
327.92	6.137
328.29	7.742
328.65	7.705
329.01	8.206
329.38	9.688
329.74	8.990
330.11	9.932
330.47	10.110
330.84	9.044
331.20	11.417
331.56	11.352
331.93	11.548
332.29	13.559
332.66	11.877
333.02	10.720
333.38	11.661
333.75	12.374
334.11	13.344
334.48	12.954
334.84	12.659
335.20	13.098
335.57	13.659
335.93	14.050
336.29	12.396
336.66	13.793
337.02	13.211
337.38	13.776
337.75	14.132
338.11	14.298
338.47	14.475
338.84	12.944
339.20	13.564
339.56	13.180
339.93	14.204
340.29	13.688
340.65	13.869
341.02	15.563
341.38	16.006
341.74	13.721
342.11	14.964
342.47	13.741
342.83	14.815
343.20	14.064
343.56	13.873
343.92	14.972
344.28	14.766
344.65	14.651
345.01	14.041
345.37	14.386
345.73	14.497
346.10	14.275
346.46	14.399
346.82	15.206
347.19	15.126
347.55	14.643
347.91	13.596
348.27	14.795
348.63	14.775
349.00	14.691
349.36	14.349
349.72	14.732
350.08	14.710
350.45	14.144
350.81	13.952
351.17	14.962
351.53	15.390
351.89	14.882
352.26	15.448
352.62	14.552
352.98	15.496
353.34	15.011
353.70	15.254
354.07	15.052
354.43	14.427
354.79	14.884
355.15	15.968
355.51	15.351
355.87	14.061
356.24	16.046
356.60	14.043
356.96	16.234
357.32	15.613
357.68	14.641
358.04	14.521
358.40	14.104
358.77	15.058
359.13	14.919
359.49	14.052
359.85	14.793
360.21	15.280
360.57	15.291
360.93	16.432
361.29	16.000
361.66	15.713
362.02	16.771
362.38	16.093
362.74	15.642
363.10	15.681
363.46	15.443
363.82	15.341
364.18	15.482
364.54	15.975
364.90	15.987
365.26	16.000
365.62	16.133
365.98	16.678
366.35	15.839
366.71	16.871
367.07	16.982
367.43	15.890
367.79	17.651
368.15	17.057
368.51	17.659
368.87	17.897
369.23	16.733
369.59	16.735
369.95	16.092
370.31	17.218
370.67	16.781
371.03	17.105
371.39	16.185
371.75	17.400
372.11	17.480
372.47	17.739
372.83	18.259
373.19	18.412
373.55	17.751
373.91	17.110
374.27	17.206
374.63	18.133
374.99	18.170
375.35	19.545
375.71	18.581
376.07	19.109
376.42	20.025
376.78	18.769
377.14	18.902
377.50	18.786
377.86	19.828
378.22	20.838
378.58	20.273
378.94	19.425
379.30	20.269
379.66	19.812
380.02	21.177
380.38	20.565
380.74	20.169
381.09	20.093
381.45	20.682
381.81	21.780
382.17	21.378
382.53	21.053
382.89	21.219
383.25	22.157
383.61	21.181
383.97	21.555
384.32	21.770
384.68	21.172
385.04	23.077
385.40	23.394
385.76	22.802
386.12	22.442
386.48	22.824
386.83	23.659
387.19	22.538
387.55	22.300
387.91	23.345
388.27	22.864
388.62	23.081
388.98	23.012
389.34	23.748
389.70	23.184
390.06	23.505
390.42	23.012
390.77	23.901
391.13	24.120
391.49	24.336
391.85	23.697
392.20	22.954
392.56	24.454
392.92	24.700
393.28	24.544
393.64	23.240
393.99	24.230
394.35	24.299
394.71	24.491
395.07	23.832
395.42	24.672
395.78	25.107
396.14	24.718
396.50	24.822
396.85	25.343
397.21	23.964
397.57	24.971
397.92	25.773
398.28	24.986
398.64	24.199
399.00	25.236
399.35	26.335
399.71	25.978
400.07	25.267
400.42	24.913
400.78	25.174
401.14	25.157
401.49	25.753
401.85	26.628
402.21	26.593
402.57	26.232
402.92	25.473
403.28	24.649
403.63	25.119
403.99	25.772
404.35	24.673
404.70	26.006
405.06	25.761
405.42	26.405
405.77	26.881
406.13	27.499
406.49	26.577
406.84	26.260
407.20	25.992
407.55	25.318
407.91	26.021
408.27	26.266
408.62	26.585
408.98	26.001
409.34	25.044
409.69	27.318
410.05	25.791
410.40	26.914
410.76	26.304
411.11	27.060
411.47	25.921
411.83	26.279
412.18	26.205
412.54	26.912
412.89	26.542
413.25	26.693
413.60	26.709
413.96	27.273
414.31	26.686
414.67	26.834
415.03	26.154
415.38	27.049
415.74	25.657
416.09	27.020
416.45	26.738
416.80	26.438
417.16	27.075
417.51	27.210
417.87	27.223
418.22	26.766
418.58	26.146
418.93	27.881
419.29	27.250
419.64	26.531
420.00	26.706
420.35	26.670
420.71	26.939
421.06	26.797
421.42	27.752
421.77	27.248
422.12	27.960
422.48	27.855
422.83	28.423
423.19	26.844
423.54	27.489
423.90	27.554
424.25	27.893
424.61	27.268
424.96	27.622
425.31	27.601
425.67	27.966
426.02	27.892
426.38	27.325
426.73	27.623
427.09	28.374
427.44	27.690
427.79	27.695
428.15	27.511
428.50	26.854
428.85	27.268
429.21	28.511
429.56	27.789
429.92	28.157
430.27	28.530
430.62	28.285
430.98	28.923
431.33	27.566
431.68	27.874
432.04	28.746
432.39	29.459
432.74	28.767
433.10	28.286
433.45	28.149
433.80	28.112
434.16	28.202
434.51	28.417
434.86	29.479
435.22	29.065
435.57	29.009
435.92	29.104
436.28	27.873
436.63	28.072
436.98	28.502
437.34	28.410
437.69	28.398
438.04	28.609
438.39	28.719
438.75	28.445
439.10	28.858
439.45	29.961
439.81	29.718
440.16	28.633
440.51	29.320
440.86	28.905
441.22	29.528
441.57	29.088
441.92	29.728
442.27	29.091
442.63	29.111
442.98	29.349
443.33	28.827
443.68	29.980
444.03	29.821
444.39	30.051
444.74	30.117
445.09	29.853
445.44	29.926
445.79	29.598
446.15	30.010
446.50	29.819
446.85	30.058
447.20	28.772
447.55	30.439
447.91	29.424
448.26	29.545
448.61	29.596
448.96	30.418
449.31	29.480
449.66	29.194
450.02	29.747
450.37	28.876
450.72	29.548
451.07	29.328
451.42	29.232
451.77	28.905
452.12	30.023
452.47	28.758
452.83	30.856
453.18	28.780
453.53	29.810
453.88	28.769
454.23	29.322
454.58	29.600
454.93	30.036
455.28	30.464
455.63	30.017
455.98	30.503
456.34	29.800
456.69	29.747
457.04	29.255
457.39	29.878
457.74	29.698
458.09	29.379
458.44	30.334
458.79	29.397
459.14	30.047
459.49	29.202
459.84	30.430
460.19	29.706
460.54	30.097
460.89	29.328
461.24	29.368
461.59	30.105
461.94	30.348
462.29	29.899
462.64	29.451
462.99	30.069
463.34	30.435
463.69	29.308
464.04	30.239
464.39	29.933
464.74	29.304
465.09	30.046
465.44	29.131
465.79	29.244
466.14	29.964
466.49	29.947
466.84	29.917
467.19	30.058
467.54	28.848
467.89	29.138
468.24	29.917
468.59	29.010
468.94	29.021
469.29	28.614
469.64	29.116
469.99	29.509
470.34	28.651
470.68	30.075
471.03	30.386
471.38	29.366
471.73	29.714
472.08	29.188
472.43	29.862
472.78	29.849
473.13	29.962
473.48	29.547
473.83	29.948
474.17	30.246
474.52	30.487
474.87	30.842
475.22	30.028
475.57	29.180
475.92	29.766
476.27	29.766
476.61	29.647
476.96	29.145
477.31	30.446
477.66	31.060
478.01	28.927
478.36	28.714
478.70	30.099
479.05	30.419
479.40	29.516
479.75	30.115
480.10	30.317
480.45	29.809
480.79	30.113
481.14	29.871
481.49	29.986
481.84	30.287
482.19	29.978
482.53	30.695
482.88	31.192
483.23	29.924
483.58	29.345
483.92	29.344
484.27	29.932
484.62	29.827
484.97	30.171
485.31	29.884
485.66	27.437
486.01	27.202
486.36	29.190
486.70	30.812
487.05	32.567
487.40	31.437
487.75	31.399
488.09	30.459
488.44	29.778
488.79	29.241
489.13	29.290
489.48	29.282
489.83	29.416
490.17	29.121
490.52	30.090
490.87	30.499
491.22	30.459
491.56	29.480
491.91	29.874
492.26	30.030
492.60	29.864
492.95	29.794
493.30	29.314
493.64	29.391
493.99	29.561
494.34	29.443
494.68	29.079
495.03	30.925
495.37	30.848
495.72	29.841
496.07	30.237
496.41	29.858
496.76	29.024
497.11	29.682
497.45	30.600
497.80	30.342
498.14	29.751
498.49	29.504
498.84	28.885
499.18	30.049
499.53	30.269
499.87	30.066
500.22	29.252
500.56	29.375
500.91	30.297
501.26	30.409
501.60	28.723
501.95	30.091
502.29	29.925
502.64	30.083
502.98	29.077
503.33	29.201
503.67	29.045
504.02	29.291
504.36	29.982
504.71	30.363
505.06	29.513
505.40	29.479
505.75	29.918
506.09	29.236
506.44	29.573
506.78	29.358
507.13	30.567
507.47	29.370
507.82	30.066
508.16	29.015
508.51	28.880
508.85	28.767
509.19	28.896
509.54	29.731
509.88	29.432
510.23	29.772
510.57	30.208
510.92	29.463
511.26	28.860
511.61	28.392
511.95	29.185
512.30	29.887
512.64	29.085
512.98	28.964
513.33	30.141
513.67	29.781
514.02	29.433
514.36	29.668
514.70	29.479
515.05	28.884
515.39	29.869
515.74	29.692
516.08	29.160
516.42	30.246
516.77	29.600
517.11	29.242
517.46	29.162
517.80	29.556
518.14	30.250
518.49	30.206
518.83	29.377
519.17	29.348
519.52	28.459
519.86	29.620
520.20	30.032
520.55	28.916
520.89	29.899
521.23	28.587
521.58	29.040
521.92	29.745
522.26	29.210
522.61	29.514
522.95	29.296
523.29	28.908
523.64	28.307
523.98	29.835
524.32	29.971
524.66	28.913
525.01	29.445
525.35	28.719
525.69	29.234
526.04	28.760
526.38	29.713
526.72	28.258
527.06	29.677
527.41	29.096
527.75	28.147
528.09	28.217
528.43	28.597
528.78	28.092
529.12	29.014
529.46	28.049
529.80	27.346
530.15	28.406
530.49	29.419
530.83	29.339
531.17	27.838
531.51	28.400
531.86	28.005
532.20	28.110
532.54	27.289
532.88	27.636
533.22	27.814
533.57	28.217
533.91	27.834
534.25	27.982
534.59	27.989
534.93	28.014
535.27	27.887
535.62	27.402
535.96	28.704
536.30	27.438
536.64	28.649
536.98	27.245
537.32	27.099
537.66	28.384
538.01	26.586
538.35	27.832
538.69	27.524
539.03	27.223
539.37	27.032
539.71	27.267
540.05	26.918
540.39	27.262
540.73	26.533
541.07	26.977
541.42	26.167
541.76	26.868
542.10	26.538
542.44	26.553
542.78	27.311
543.12	26.877
543.46	26.618
543.80	25.779
544.14	25.733
544.48	27.482
544.82	26.272
545.16	27.251
545.50	25.584
545.84	26.883
546.18	27.160
546.52	26.497
546.86	26.226
547.20	26.654
547.54	26.217
547.88	26.160
548.22	25.088
548.56	25.629
548.90	25.910
549.24	26.322
549.58	25.552
549.92	26.658
550.26	25.696
550.60	26.037
550.94	26.455
551.28	25.743
551.62	26.213
551.96	26.019
552.30	26.386
552.64	25.638
552.98	25.702
553.32	26.495
553.66	25.145
554.00	25.158
554.34	25.740
554.68	24.984
555.02	25.558
555.36	26.561
555.69	24.343
556.03	25.032
556.37	25.845
556.71	25.618
557.05	25.431
557.39	25.547
557.73	25.165
558.07	25.232
558.41	25.714
558.75	25.490
559.08	25.331
559.42	25.103
559.76	24.288
560.10	24.313
560.44	25.594
560.78	25.125
561.12	25.924
561.45	24.939
561.79	25.580
562.13	25.385
562.47	24.846
562.81	24.810
563.15	25.379
563.48	24.674
563.82	24.365
564.16	24.228
564.50	24.255
564.84	23.540
565.17	25.000
565.51	23.936
565.85	24.169
566.19	23.963
566.52	23.464
566.86	23.995
567.20	23.274
567.54	23.367
567.88	23.955
568.21	24.111
568.55	24.029
568.89	24.467
569.23	23.574
569.56	23.603
569.90	23.236
570.24	23.845
570.57	23.028
570.91	22.443
571.25	22.332
571.59	22.794
571.92	22.601
572.26	22.605
572.60	22.659
572.93	22.599
573.27	23.068
573.61	22.737
573.95	22.603
574.28	22.635
574.62	22.237
574.96	22.011
575.29	22.274
575.63	22.407
575.97	22.419
576.30	21.959
576.64	22.405
576.98	22.118
577.31	22.032
577.65	22.018
577.98	22.214
578.32	21.732
578.66	22.069
578.99	22.138
579.33	21.854
579.67	22.257
580.00	21.488
580.34	21.728
580.67	21.889
581.01	21.527
581.35	21.196
581.68	21.384
582.02	21.547
582.35	22.262
582.69	21.912
583.02	22.351
583.36	21.832
583.70	21.609
584.03	20.830
584.37	21.328
584.70	20.831
585.04	21.437
585.37	21.255
585.71	21.208
586.04	21.510
586.38	21.588
586.72	21.083
587.05	21.233
587.39	21.665
587.72	21.316
588.06	21.180
588.39	21.210
588.73	21.190
589.06	20.739
589.40	21.235
589.73	21.015
590.07	20.656
590.40	21.907
590.73	20.785
591.07	21.593
591.40	20.879
591.74	20.628
592.07	21.112
592.41	20.386
592.74	20.767
593.08	21.497
593.41	21.202
593.75	21.379
594.08	21.115
594.41	21.122
594.75	20.591
595.08	20.861
595.42	20.584
595.75	20.665
596.09	21.281
596.42	20.566
596.75	20.147
597.09	21.818
597.42	20.818
597.75	20.502
598.09	20.198
598.42	21.110
598.76	19.947
599.09	20.363
599.42	19.745
599.76	20.370
600.09	20.621
600.42	20.821
600.76	21.169
601.09	20.544
601.42	20.357
601.76	20.966
602.09	20.014
602.42	19.920
602.76	20.886
603.09	20.117
603.42	20.340
603.76	19.873
604.09	20.546
604.42	20.220
604.76	19.901
605.09	20.303
605.42	19.976
605.75	19.769
606.09	19.672
606.42	19.372
606.75	19.378
607.09	19.547
607.42	20.501
607.75	20.516
608.08	19.455
608.42	19.549
608.75	19.818
609.08	19.779
609.41	20.688
609.75	19.688
610.08	20.141
610.41	19.881
610.74	19.664
611.07	19.982
611.41	20.493
611.74	20.370
612.07	20.664
612.40	19.914
612.73	19.804
613.07	19.756
613.40	19.971
613.73	19.740
614.06	19.823
614.39	19.242
614.72	19.117
615.06	19.538
615.39	19.140
615.72	19.621
616.05	19.767
616.38	20.585
616.71	20.533
617.05	19.276
617.38	19.636
617.71	20.140
618.04	19.698
618.37	19.781
618.70	19.966
619.03	20.191
619.36	19.112
619.69	18.834
620.03	19.523
620.36	19.509
620.69	20.234
621.02	19.948
621.35	19.884
621.68	19.957
622.01	20.214
622.34	19.805
622.67	19.313
623.00	18.286
623.33	20.438
623.66	19.131
623.99	18.828
624.32	19.818
624.65	19.112
624.99	19.506
625.32	19.791
625.65	20.027
625.98	18.983
626.31	19.490
626.64	18.315
626.97	18.605
627.30	17.995
627.63	18.905
627.96	20.871
628.29	19.922
628.62	18.640
628.95	18.755
629.28	18.862
629.61	18.434
629.94	18.912
630.26	18.559
630.59	18.480
630.92	18.268
631.25	20.483
631.58	18.267
631.91	19.963
632.24	19.212
632.57	18.406
632.90	19.057
633.23	17.857
633.56	17.551
633.89	19.525
634.22	17.672
634.55	18.998
634.88	17.749
635.20	18.730
635.53	19.548
635.86	18.852
636.19	19.830
636.52	17.827
636.85	20.020
637.18	17.983
637.51	18.387
637.83	19.712
638.16	18.433
638.49	19.718
638.82	18.489
639.15	18.671
639.48	19.977
639.81	19.746
640.13	17.903
640.46	17.333
640.79	18.505
641.12	18.012
641.45	17.064
641.77	20.924
642.10	16.798
642.43	20.745
642.76	18.293
643.09	17.534
643.41	17.227
643.74	16.690
644.07	20.552
644.40	17.256
644.73	17.562
645.05	18.796
645.38	18.849
645.71	15.836
646.04	20.803
646.36	17.810
646.69	16.258
647.02	19.878
647.35	17.863
647.67	17.230
648.00	17.834
648.33	17.568
648.66	16.833
648.98	17.143
649.31	16.644
649.64	18.061
649.96	16.844
650.29	15.577
650.62	17.539
650.94	16.667
651.27	15.120
651.60	18.860
651.92	16.717
652.25	17.656
652.58	16.094
652.90	13.663
653.23	16.620
653.56	16.548
653.88	18.399
654.21	16.056
654.54	18.786
654.86	18.697
655.19	15.056
655.52	18.356
655.84	18.748
656.17	21.562
656.49	29.649
656.82	32.001
657.15	24.860
657.47	18.870
657.80	13.605
658.13	10.466
658.45	13.481
658.78	15.882
659.10	14.590
659.43	14.063
659.75	12.687
660.08	12.605
660.41	12.490
660.73	13.455
661.06	13.803
661.38	15.630
661.71	15.690
662.03	15.344
662.36	18.605
662.68	15.760
663.01	14.867
663.33	17.769
663.66	16.667
663.98	13.654
664.31	17.073
664.63	15.029
664.96	16.878
665.28	15.426
665.61	16.608
665.93	15.714
666.26	15.233
666.58	16.236
666.91	16.636
667.23	14.286
667.56	16.371
667.88	16.000
668.21	14.062
668.53	12.934
668.86	13.556
669.18	13.238
669.50	13.917
669.83	13.000
670.15	13.976
670.48	17.857
670.80	13.384
671.13	13.800
671.45	12.205
671.77	16.573
672.10	12.333
672.42	12.783
672.75	15.361
673.07	12.687
673.39	13.713
673.72	13.926
674.04	14.655
674.37	14.669
674.69	16.931
675.01	12.952
675.34	12.595
675.66	15.169
675.98	15.299
676.31	14.258
676.63	17.490
676.95	13.985
677.28	13.911
677.60	12.205
677.92	14.012
678.25	13.528
678.57	13.879
678.89	16.041
679.22	13.415
679.54	15.214
679.86	13.559
680.18	12.935
680.51	14.937
680.83	15.221
681.15	11.379
681.48	13.126
681.80	13.126
682.12	12.762
682.44	11.853
682.77	13.830
683.09	13.258
683.41	15.310
683.73	13.093
684.06	12.731
684.38	13.775
684.70	14.542
685.02	13.941
685.34	12.479
685.67	13.249
685.99	15.031
686.31	12.064
686.63	15.640
686.96	13.722
687.28	11.889
687.60	10.606
687.92	12.540
688.24	12.521
688.56	11.207
688.89	14.882
689.21	11.937
689.53	11.961
689.85	13.412
690.17	14.074
690.49	11.952
690.82	13.069
691.14	9.514
691.46	13.958
691.78	12.707
692.10	12.661
692.42	11.250
692.74	13.249
693.06	12.593
693.39	11.954
693.71	11.842
694.03	11.152
694.35	11.048
694.67	10.883
694.99	11.915
695.31	11.479
695.63	12.554
695.95	10.973
696.27	10.549
696.59	13.053
696.91	13.063
697.23	12.308
697.56	9.980
697.88	10.417
698.20	9.793
698.52	12.879
698.84	13.098
699.16	13.061
699.48	10.879
699.80	8.723
700.12	11.135
700.44	11.290
700.76	8.314
701.08	11.622
701.40	9.585
701.72	9.701
702.04	11.497
702.36	9.424
702.68	12.714
703.00	6.601
703.32	8.867
703.64	8.068
703.96	9.785
704.28	9.337
704.60	10.886
704.91	9.949
705.23	7.945
705.55	13.649
705.87	9.394
706.19	11.350
706.51	6.928
706.83	8.357
707.15	4.762
707.47	8.645
707.79	9.170
708.11	9.746
708.43	8.817
708.74	8.929
709.06	10.209
709.38	11.268
709.70	8.437
710.02	8.269
710.34	11.170
710.66	5.866
710.98	8.470
711.29	6.868
711.61	8.192
711.93	6.838
712.25	7.568
712.57	8.555
712.89	9.412
713.20	5.917
713.52	7.514
713.84	9.749
714.16	11.579
714.48	8.247
714.80	10.649
715.11	5.512
715.43	7.427
715.75	6.579
716.07	6.906
716.39	8.197
716.70	6.024
717.02	3.934
717.34	5.923
717.66	2.685
717.97	2.740
718.29	3.780
718.61	6.579
718.93	4.854
719.24	3.106
719.56	4.908
719.88	5.405
720.20	6.129
720.51	5.590
720.83	6.562
721.15	4.276
721.46	2.397
721.78	4.667
722.10	3.883
722.42	5.705
722.73	1.935
723.05	1.053
723.37	-0.347
723.68	7.168
724.00	7.581
724.32	3.521
724.63	4.895
724.95	8.511
725.27	3.484
725.58	0.353
725.90	6.552
726.22	2.194
726.53	3.896
726.85	5.975
727.16	5.438
727.48	7.951
727.80	5.298
728.11	2.827
728.43	5.051
728.74	3.344
729.06	2.318
729.38	4.545
729.69	4.362
730.01	6.845
730.32	5.455
730.64	5.660
730.96	5.901
731.27	8.380
731.59	4.945
731.90	5.455
732.22	7.812
732.53	1.657
732.85	4.571
733.16	4.399
733.48	0.915
733.80	3.064
734.11	3.134
734.43	8.108
734.74	8.354
735.06	6.784
735.37	6.486
735.69	4.324
736.00	5.932
736.32	4.852
736.63	2.778
736.95	4.023
737.26	4.545
737.58	1.212
737.89	7.059
738.21	3.976
738.52	-1.639
738.83	7.509
739.15	3.901
739.46	3.061
739.78	6.135
740.09	0.573
740.41	3.790
740.72	1.333
741.04	3.236
741.35	4.211
741.66	3.529
741.98	2.869
742.29	2.510
742.61	4.825
742.92	5.000
743.23	6.137
743.55	1.938
743.86	0.400
744.18	0.000
744.49	-1.688
744.80	0.823
745.12	6.329
745.43	3.659
745.74	-0.431
746.06	5.085
746.37	6.751
746.68	2.439
747.00	-2.917
747.31	0.000
747.62	6.538
747.94	4.049
748.25	-0.402
748.56	-2.449
748.88	-5.983
749.19	1.724
749.50	-2.597
749.82	4.418
750.13	5.694
750.44	-0.667
750.75	4.308
751.07	5.231
751.38	7.256
751.69	0.639
752.01	0.971
752.32	2.288
752.63	2.041
752.94	0.346
753.26	0.372
753.57	3.333
753.88	4.120
754.19	2.572
754.51	1.929
754.82	1.929
755.13	5.246
755.44	2.730
755.75	5.263
756.07	8.657
756.38	1.258
756.69	6.627
757.00	1.385
757.31	4.098
757.63	2.046
757.94	4.695
758.25	6.546
758.56	2.832
758.87	5.000
759.18	3.467
759.50	6.799
759.81	5.322
760.12	4.852
760.43	5.469
760.74	4.926
761.05	3.750
761.36	3.614
761.67	4.569
761.99	2.162
762.30	2.134
762.61	0.330
762.92	-2.985
763.23	2.996
763.54	5.755
763.85	-1.031
764.16	1.347
764.47	2.817
764.78	3.195
765.10	3.519
765.41	5.641
765.72	1.058
766.03	2.542
766.34	0.627
766.65	-2.787
766.96	-2.789
767.27	-5.069
767.58	-9.453
767.89	3.846
768.20	-3.756
768.51	-4.167
768.82	0.000
769.13	-0.379
769.44	-0.769
769.75	2.888
770.06	-3.462
770.37	0.787
770.68	-6.809
770.99	-4.049
771.30	7.407
771.61	-3.042
771.92	-3.704
772.23	0.000
772.54	-4.167
772.85	-1.843
773.16	0.000
773.47	-9.524
773.78	-14.054
774.09	-6.818
774.39	1.500
774.70	-0.546
775.01	-13.415
775.32	-11.765
775.63	-9.202
775.94	-16.561
776.25	-7.097
776.56	-4.487
776.87	-6.122
777.18	-8.276
777.48	-15.385
777.79	-11.486
778.10	-13.971
778.41	-11.806
778.72	-18.621
779.03	-8.642
779.34	-10.303
779.65	-4.663
779.95	-2.778
780.26	-10.795
780.57	-6.452
780.88	-5.797
781.19	-7.742
781.50	-4.118
781.80	-4.301
782.11	-7.937
782.42	-11.616
782.73	-14.970
783.04	-11.732
783.34	-8.485
783.65	-16.340
783.96	-9.317
784.27	-11.310
784.57	-11.258
784.88	-15.000
785.19	-22.835
785.50	-17.323
785.81	-8.271
786.11	-13.846
786.42	-10.072
786.73	-15.827
787.04	-9.023
787.34	-21.311
787.65	-18.400
787.96	-10.448
788.26	-11.189
788.57	-6.993
788.88	-13.816
789.19	-11.111
789.49	-9.589
789.80	-14.894
790.11	-12.598
790.41	-13.281
790.72	-27.119
791.03	-28.155
791.33	-18.261
791.64	-21.053
791.95	-21.429
792.25	-23.810
792.56	-18.750
792.87	-30.208
793.17	-12.500
793.48	-31.250
793.79	-45.783
794.09	-27.523
794.40	-22.936
794.70	-8.844
795.01	-11.039
795.32	-12.329
795.62	-15.493
795.93	-10.606
796.23	-14.754
796.54	-26.786
796.85	-30.851
797.15	-38.043
797.46	-43.836
797.76	-35.000
798.07	-23.913
798.37	-27.835
798.68	-33.766
798.99	-34.483
799.29	-29.213
799.60	-25.532
799.90	-33.735
800.21	-61.538
800.51	-56.716
800.82	-48.529
801.12	-45.205
801.43	-61.765
801.73	-66.102
802.04	-50.000
802.34	-61.667
802.65	-62.712
802.95	-47.761
803.26	-49.153
803.56	-50.685
803.87	-40.000
804.17	-36.986
804.48	-63.158
804.78	-37.500
805.09	-62.069
805.39	-28.378
805.70	-43.662
806.00	-36.585
806.30	-42.169
806.61	-52.055
806.91	-18.269
807.22	-35.556
807.52	-41.379
807.83	-33.333
808.13	-25.301
808.43	-35.955
808.74	-33.750
809.04	-61.765
809.35	-44.000
809.65	-51.429
809.95	-36.986
810.26	-70.175
810.56	-53.448
810.86	-27.941
811.17	-64.912
811.47	-73.770
811.77	-88.889
812.08	-52.542
812.38	-48.333
812.69	-51.724
812.99	-67.925
813.29	-92.308
813.59	-38.000
813.90	-47.368
814.20	-67.273
814.50	-39.437
814.81	-29.487
815.11	-36.066
815.41	-35.821
815.72	-41.379
816.02	-55.357
816.32	-84.444
816.62	-50.000
816.93	-77.778
817.23	-61.111
817.53	-82.979
817.84	-78.571
818.14	-102.941
818.44	-71.429
818.74	-82.222
819.04	-125.641
819.35	-108.571
819.65	-157.692
819.95	-64.151
820.25	-40.000
820.56	-73.810
820.86	-131.250
821.16	-102.564
821.46	-104.651
821.76	-86.000
822.07	-50.000
822.37	-71.739
822.67	-68.085
822.97	-110.811
823.27	-112.500
823.57	-53.061
823.88	-84.444
824.18	-70.000
824.48	-110.000
824.78	-156.000
825.08	-112.121
825.38	-42.222
825.69	-68.085
825.99	-97.222
826.29	-145.714
826.59	-74.359
826.89	-106.977
827.19	-72.000
827.49	-100.000
827.79	-62.500
828.09	-89.189
828.39	-103.333
828.70	-75.610
829.00	-93.023
829.30	-139.286
829.60	-114.706
829.90	-63.043
830.20	-120.000
830.50	-131.034
830.80	-216.667
831.10	-126.923
831.40	-97.059
831.70	-185.714
832.00	-119.355
832.30	-317.647
832.60	-212.500
832.90	-323.077
833.20	-142.105
833.50	-200.000
833.80	-210.526
834.10	-247.619
834.40	-77.778
834.70	-81.250
835.00	-125.714
835.30	-85.294
835.60	-130.000
835.90	-144.000
836.20	-240.909
836.50	-136.000
836.80	-157.576
837.10	-155.556
837.40	-170.370
837.70	-287.500
838.00	-114.286
838.30	-165.217
838.60	-127.586
838.90	-235.714
839.19	-208.696
839.49	-333.333
839.79	-130.435
840.09	-300.000
840.39	-175.000
840.69	-116.129
840.99	-139.286
841.29	-226.667
841.59	-152.632
841.88	-61.538
842.18	-150.000
842.48	-400.000
842.78	-185.000
843.08	-130.000
843.38	-96.774
843.68	-322.222
843.97	-70.588
844.27	-193.750
844.57	-184.211
844.87	-420.000
845.17	-233.333
845.47	-176.190
845.76	-209.524
846.06	-466.667
846.36	-223.529
846.66	-126.923
846.96	-240.000
847.25	-252.941
847.55	-182.609
847.85	-180.000
848.15	-211.765
848.44	-300.000
848.74	-123.810
849.04	-158.333
849.34	-218.750
849.63	-86.957
849.93	1750.000
850.23	-266.667
850.53	-119.231
850.82	-400.000
851.12	-104.545
851.42	-372.727
851.71	-361.538
852.01	-245.000
852.31	-261.538
852.61	-215.789
852.90	-350.000
853.20	-233.333
853.50	-511.111
853.79	-214.286
854.09	-190.909
854.39	-383.333
854.68	-125.806
854.98	-153.846
855.28	-161.111
855.57	-117.857
855.87	-148.000
856.17	-186.364
856.46	-133.333
856.76	-222.222
857.05	-165.217
857.35	-141.667
857.65	-353.846
857.94	-152.381
858.24	-118.519
858.53	-108.696
858.83	-194.118
859.13	-229.412
859.42	-229.412
859.72	-257.143
860.01	-160.000
860.31	-444.444
860.60	-420.000
860.90	-220.000
861.20	-177.778
861.49	-292.308
861.79	-126.667
862.08	-323.077
862.38	-78.125
862.67	-176.471
862.97	-212.500
863.26	-566.667
863.56	-360.000
863.85	-381.818
864.15	-188.889
864.44	-1366.667
864.74	-285.714
865.03	-275.000
865.33	-500.000
865.62	-96.774
865.92	-136.364
866.21	-126.087
866.51	-278.571
866.80	-880.000
867.10	-333.333
867.39	-375.000
867.69	4700.000
867.98	-457.143
868.27	-205.882
868.57	-4400.000
868.86	-460.000
869.16	-185.714
869.45	-125.000
869.75	-318.182
870.04	-542.857
870.33	-300.000
870.63	-728.571
870.92	-1125.000
871.22	-650.000
871.51	-363.636
871.80	-1633.333
872.10	-2200.000
>>>>>End Processed Spectral Data<<<<<
