SpectraSuite Data File
++++++++++++++++++++++++++++++++++++
Date: Thu May 14 14:53:34 PDT 2015
User: schluterlab
Dark Spectrum Present: Yes
Reference Spectrum Present: Yes
Number of Sampled Component Spectra: 1
Spectrometers: USB2E3373
Integration Time (usec): 3000 (USB2E3373)
Spectra Averaged: 3 (USB2E3373)
Boxcar Smoothing: 0 (USB2E3373)
Correct for Electrical Dark: No (USB2E3373)
Strobe/Lamp Enabled: No (USB2E3373)
Correct for Detector Non-linearity: No (USB2E3373)
Correct for Stray Light: No (USB2E3373)
Number of Pixels in Processed Spectrum: 2048
>>>>>Begin Processed Spectral Data<<<<<
178.53	0.000
178.91	28.571
179.29	-2400.000
179.67	-1000.000
180.04	142.857
180.42	150.000
180.80	320.000
181.18	-1500.000
181.56	-1000.000
181.94	350.000
182.31	-125.000
182.69	300.000
183.07	-250.000
183.45	350.000
183.83	-333.333
184.20	-333.333
184.58	400.000
184.96	-450.000
185.34	-133.333
185.72	20.000
186.09	222.222
186.47	500.000
186.85	520.000
187.23	-222.222
187.61	-1500.000
187.98	180.000
188.36	500.000
188.74	-250.000
189.12	-533.333
189.49	-18.750
189.87	-137.500
190.25	-122.222
190.63	-60.000
191.00	-88.889
191.38	0.000
191.76	-500.000
192.14	-250.000
192.51	300.000
192.89	-50.000
193.27	0.000
193.65	-85.714
194.02	-2700.000
194.40	-271.429
194.78	185.714
195.15	0.000
195.53	-45.455
195.91	0.000
196.29	-150.000
196.66	-138.462
197.04	-2400.000
197.42	-128.571
197.79	-550.000
198.17	-150.000
198.55	-285.714
198.92	-44.444
199.30	-87.500
199.68	45.455
200.05	7.143
200.43	-550.000
200.81	342.857
201.18	0.000
201.56	255.556
201.94	0.000
202.31	700.000
202.69	-222.222
203.07	1400.000
203.44	-166.667
203.82	-225.000
204.19	-91.667
204.57	-266.667
204.95	-187.500
205.32	-1000.000
205.70	175.000
206.08	-133.333
206.45	-66.667
206.83	360.000
207.20	-216.667
207.58	-480.000
207.96	-366.667
208.33	-100.000
208.71	175.000
209.08	-133.333
209.46	0.000
209.84	133.333
210.21	300.000
210.59	350.000
210.96	800.000
211.34	-350.000
211.71	-87.500
212.09	-1700.000
212.46	0.000
212.84	950.000
213.22	-360.000
213.59	-200.000
213.97	-120.000
214.34	-300.000
214.72	283.333
215.09	-475.000
215.47	0.000
215.84	100.000
216.22	900.000
216.59	-200.000
216.97	-300.000
217.34	-350.000
217.72	-62.500
218.09	-250.000
218.47	-400.000
218.84	0.000
219.22	260.000
219.59	-35.294
219.97	-20.000
220.34	300.000
220.72	-166.667
221.09	-23.077
221.47	-333.333
221.84	-30.000
222.22	-242.857
222.59	0.000
222.97	-125.000
223.34	-120.000
223.72	-1500.000
224.09	-450.000
224.46	-350.000
224.84	-220.000
225.21	-171.429
225.59	-400.000
225.96	-400.000
226.34	-7.692
226.71	233.333
227.08	-250.000
227.46	20.000
227.83	-400.000
228.21	-15.789
228.58	87.500
228.95	850.000
229.33	-75.000
229.70	10.000
230.08	68.421
230.45	190.000
230.82	-266.667
231.20	-35.714
231.57	-66.667
231.95	-63.636
232.32	-72.727
232.69	10.000
233.07	-75.000
233.44	-70.588
233.81	-160.000
234.19	-16.667
234.56	-31.818
234.93	0.000
235.31	-57.895
235.68	-44.444
236.05	-85.000
236.43	15.385
236.80	4.000
237.17	-14.815
237.55	-9.091
237.92	-100.000
238.29	-9.677
238.67	-4.545
239.04	-5.556
239.41	9.524
239.79	0.000
240.16	-16.667
240.53	-15.217
240.91	1.961
241.28	-8.197
241.65	17.910
242.02	8.108
242.40	3.077
242.77	10.667
243.14	14.634
243.51	-7.895
243.89	3.846
244.26	21.782
244.63	17.647
245.00	15.888
245.38	21.930
245.75	10.619
246.12	17.460
246.49	8.527
246.87	17.857
247.24	17.219
247.61	17.763
247.98	20.805
248.36	16.667
248.73	20.245
249.10	20.219
249.47	19.403
249.84	17.801
250.22	19.689
250.59	18.889
250.96	19.091
251.33	15.816
251.70	18.803
252.08	20.000
252.45	20.902
252.82	16.529
253.19	20.703
253.56	20.152
253.94	16.923
254.31	22.348
254.68	23.776
255.05	23.127
255.42	20.408
255.79	19.417
256.16	20.530
256.54	19.205
256.91	20.984
257.28	21.311
257.65	18.153
258.02	20.944
258.39	22.792
258.76	24.159
259.14	23.851
259.51	19.885
259.88	23.229
260.25	20.833
260.62	23.014
260.99	24.863
261.36	24.397
261.73	22.812
262.10	21.154
262.47	23.861
262.85	24.495
263.22	21.039
263.59	19.737
263.96	23.274
264.33	20.972
264.70	22.222
265.07	21.718
265.44	27.211
265.81	18.056
266.18	24.717
266.55	22.545
266.92	23.462
267.29	22.976
267.66	21.286
268.03	26.201
268.40	20.877
268.77	19.818
269.14	18.943
269.51	23.026
269.88	23.975
270.25	21.932
270.62	23.207
270.99	24.848
271.36	22.376
271.73	23.379
272.10	22.846
272.47	21.443
272.84	20.683
273.21	22.244
273.58	22.379
273.95	23.462
274.32	19.392
274.69	20.116
275.06	22.344
275.43	20.518
275.80	23.104
276.17	20.741
276.54	23.321
276.91	21.467
277.28	21.881
277.65	21.903
278.02	23.346
278.39	20.109
278.76	22.496
279.13	21.631
279.50	22.509
279.87	21.825
280.23	18.662
280.60	21.525
280.97	22.697
281.34	21.392
281.71	23.689
282.08	21.429
282.45	21.440
282.82	21.350
283.19	20.840
283.56	20.492
283.92	22.823
284.29	21.485
284.66	22.496
285.03	20.192
285.40	19.938
285.77	20.743
286.14	21.069
286.51	22.070
286.87	19.431
287.24	20.934
287.61	20.628
287.98	19.335
288.35	20.562
288.72	19.822
289.08	23.133
289.45	19.822
289.82	19.729
290.19	19.540
290.56	22.113
290.93	21.541
291.29	20.386
291.66	19.008
292.03	18.860
292.40	21.224
292.77	18.194
293.13	20.974
293.50	18.791
293.87	18.792
294.24	19.867
294.60	18.584
294.97	18.255
295.34	18.822
295.71	18.159
296.08	18.088
296.44	17.770
296.81	17.661
297.18	16.936
297.55	18.278
297.91	17.200
298.28	16.943
298.65	18.549
299.02	17.001
299.38	17.162
299.75	16.822
300.12	16.088
300.48	17.742
300.85	17.548
301.22	17.673
301.59	17.123
301.95	17.853
302.32	19.000
302.69	16.758
303.05	17.410
303.42	16.962
303.79	16.875
304.15	17.876
304.52	16.490
304.89	17.382
305.25	17.702
305.62	16.928
305.99	17.938
306.35	17.036
306.72	19.338
307.09	17.462
307.45	17.909
307.82	18.063
308.19	17.457
308.55	19.672
308.92	19.864
309.29	18.008
309.65	17.251
310.02	17.426
310.38	17.717
310.75	19.223
311.12	18.792
311.48	18.964
311.85	18.898
312.22	19.070
312.58	19.624
312.95	18.642
313.31	19.422
313.68	19.597
314.05	21.229
314.41	21.494
314.78	21.253
315.14	22.232
315.51	20.591
315.87	22.862
316.24	21.735
316.61	22.202
316.97	22.715
317.34	22.222
317.70	24.367
318.07	24.956
318.43	24.830
318.80	25.167
319.16	24.979
319.53	24.850
319.89	25.679
320.26	26.512
320.62	26.773
320.99	27.239
321.35	27.819
321.72	28.465
322.08	27.051
322.45	28.907
322.81	30.054
323.18	28.850
323.54	30.517
323.91	32.473
324.27	31.067
324.64	32.074
325.00	33.250
325.37	33.743
325.73	34.545
326.10	34.388
326.46	35.831
326.83	36.509
327.19	36.299
327.56	36.759
327.92	35.641
328.29	36.210
328.65	38.275
329.01	38.663
329.38	38.500
329.74	40.068
330.11	39.812
330.47	39.174
330.84	39.535
331.20	40.583
331.56	40.815
331.93	41.255
332.29	41.525
332.66	41.611
333.02	40.704
333.38	42.282
333.75	40.825
334.11	41.451
334.48	41.914
334.84	41.801
335.20	41.394
335.57	42.833
335.93	42.645
336.29	41.098
336.66	41.968
337.02	43.896
337.38	43.622
337.75	42.479
338.11	42.809
338.47	42.763
338.84	41.286
339.20	42.039
339.56	42.998
339.93	44.089
340.29	42.029
340.65	42.174
341.02	42.298
341.38	42.603
341.74	41.808
342.11	42.880
342.47	42.097
342.83	43.317
343.20	42.845
343.56	42.342
343.92	41.954
344.28	42.812
344.65	42.481
345.01	41.888
345.37	42.846
345.73	41.777
346.10	43.370
346.46	42.326
346.82	41.798
347.19	42.475
347.55	42.944
347.91	42.719
348.27	42.792
348.63	41.813
349.00	41.611
349.36	42.900
349.72	41.741
350.08	43.091
350.45	42.738
350.81	42.534
351.17	42.857
351.53	42.456
351.89	44.343
352.26	41.493
352.62	43.209
352.98	42.137
353.34	41.897
353.70	42.835
354.07	42.474
354.43	43.204
354.79	42.633
355.15	43.267
355.51	44.371
355.87	43.156
356.24	43.194
356.60	42.203
356.96	43.069
357.32	41.859
357.68	42.753
358.04	42.665
358.40	43.134
358.77	43.713
359.13	42.024
359.49	43.569
359.85	43.510
360.21	43.687
360.57	43.288
360.93	42.102
361.29	42.246
361.66	43.302
362.02	44.259
362.38	44.343
362.74	43.575
363.10	44.704
363.46	43.837
363.82	43.111
364.18	44.335
364.54	43.983
364.90	44.281
365.26	44.069
365.62	44.333
365.98	44.520
366.35	45.168
366.71	44.626
367.07	43.572
367.43	42.613
367.79	45.255
368.15	44.548
368.51	44.452
368.87	45.069
369.23	45.000
369.59	45.697
369.95	43.746
370.31	46.455
370.67	44.360
371.03	44.737
371.39	44.594
371.75	46.355
372.11	44.106
372.47	44.956
372.83	45.942
373.19	44.163
373.55	45.190
373.91	46.421
374.27	44.825
374.63	47.226
374.99	46.088
375.35	46.039
375.71	45.484
376.07	45.965
376.42	46.285
376.78	46.489
377.14	45.041
377.50	47.691
377.86	46.860
378.22	46.048
378.58	47.206
378.94	46.185
379.30	46.163
379.66	46.972
380.02	48.067
380.38	48.618
380.74	47.662
381.09	47.503
381.45	47.273
381.81	48.419
382.17	49.050
382.53	48.246
382.89	47.573
383.25	48.124
383.61	47.801
383.97	48.174
384.32	48.325
384.68	46.926
385.04	48.583
385.40	47.967
385.76	49.472
386.12	48.354
386.48	48.235
386.83	49.583
387.19	48.610
387.55	48.709
387.91	48.402
388.27	49.711
388.62	48.053
388.98	48.167
389.34	49.087
389.70	49.448
390.06	49.319
390.42	49.217
390.77	49.849
391.13	50.176
391.49	50.242
391.85	49.697
392.20	48.577
392.56	50.620
392.92	50.164
393.28	50.304
393.64	49.497
393.99	50.610
394.35	50.584
394.71	50.419
395.07	50.838
395.42	50.657
395.78	50.762
396.14	51.456
396.50	50.534
396.85	52.057
397.21	48.994
397.57	50.942
397.92	51.317
398.28	50.516
398.64	51.087
399.00	49.738
399.35	50.105
399.71	50.109
400.07	51.769
400.42	51.339
400.78	51.157
401.14	50.996
401.49	51.734
401.85	52.035
402.21	51.622
402.57	51.995
402.92	51.537
403.28	50.820
403.63	52.088
403.99	50.772
404.35	50.085
404.70	50.935
405.06	50.435
405.42	51.815
405.77	51.963
406.13	51.108
406.49	52.196
406.84	51.634
407.20	52.320
407.55	52.150
407.91	53.174
408.27	51.178
408.62	51.891
408.98	51.422
409.34	51.378
409.69	52.905
410.05	52.814
410.40	53.248
410.76	52.776
411.11	53.068
411.47	52.457
411.83	52.792
412.18	52.892
412.54	52.519
412.89	52.794
413.25	51.524
413.60	54.049
413.96	52.914
414.31	51.615
414.67	52.534
415.03	53.538
415.38	52.963
415.74	53.390
416.09	53.054
416.45	52.411
416.80	53.550
417.16	53.895
417.51	53.985
417.87	53.587
418.22	53.533
418.58	52.664
418.93	53.551
419.29	54.747
419.64	55.162
420.00	53.412
420.35	53.172
420.71	52.901
421.06	54.054
421.42	54.931
421.77	52.773
422.12	53.488
422.48	55.300
422.83	55.148
423.19	54.218
423.54	55.863
423.90	55.163
424.25	56.640
424.61	54.535
424.96	55.409
425.31	54.830
425.67	54.214
426.02	56.502
426.38	55.224
426.73	54.353
427.09	57.151
427.44	55.707
427.79	56.164
428.15	55.594
428.50	56.404
428.85	55.741
429.21	57.181
429.56	55.084
429.92	55.332
430.27	56.337
430.62	56.326
430.98	56.813
431.33	55.621
431.68	55.603
432.04	56.475
432.39	57.258
432.74	57.078
433.10	56.950
433.45	55.741
433.80	57.296
434.16	56.405
434.51	57.914
434.86	60.261
435.22	58.342
435.57	58.667
435.92	57.485
436.28	57.167
436.63	59.312
436.98	56.468
437.34	58.512
437.69	57.788
438.04	58.593
438.39	58.989
438.75	58.052
439.10	58.245
439.45	57.854
439.81	57.853
440.16	57.426
440.51	58.919
440.86	57.977
441.22	58.307
441.57	59.067
441.92	58.196
442.27	59.192
442.63	59.712
442.98	59.232
443.33	58.180
443.68	59.663
444.03	60.160
444.39	59.639
444.74	58.550
445.09	58.895
445.44	60.906
445.79	59.531
446.15	58.839
446.50	60.103
446.85	58.706
447.20	59.913
447.55	60.303
447.91	60.105
448.26	59.567
448.61	59.086
448.96	61.749
449.31	59.438
449.66	59.423
450.02	60.443
450.37	59.510
450.72	60.280
451.07	59.169
451.42	60.312
451.77	59.700
452.12	61.061
452.47	58.883
452.83	61.092
453.18	59.545
453.53	60.597
453.88	59.359
454.23	60.395
454.58	61.579
454.93	60.498
455.28	60.506
455.63	59.352
455.98	61.006
456.34	60.483
456.69	60.376
457.04	61.939
457.39	60.477
457.74	62.081
458.09	59.912
458.44	60.776
458.79	58.896
459.14	59.990
459.49	62.083
459.84	60.756
460.19	60.022
460.54	62.465
460.89	61.038
461.24	61.149
461.59	61.372
461.94	59.498
462.29	61.814
462.64	61.979
462.99	61.707
463.34	62.103
463.69	59.789
464.04	61.312
464.39	60.314
464.74	60.376
465.09	61.246
465.44	60.998
465.79	60.867
466.14	61.647
466.49	60.579
466.84	62.094
467.19	61.850
467.54	60.341
467.89	61.667
468.24	61.163
468.59	60.162
468.94	60.897
469.29	60.408
469.64	60.013
469.99	62.460
470.34	61.881
470.68	64.252
471.03	61.755
471.38	61.674
471.73	61.769
472.08	62.437
472.43	61.770
472.78	61.776
473.13	61.378
473.48	61.027
473.83	61.172
474.17	60.492
474.52	61.876
474.87	59.967
475.22	61.634
475.57	61.059
475.92	60.229
476.27	61.502
476.61	60.125
476.96	61.105
477.31	62.228
477.66	63.641
478.01	61.617
478.36	60.269
478.70	62.660
479.05	62.219
479.40	60.809
479.75	60.903
480.10	61.582
480.45	61.167
480.79	61.859
481.14	61.581
481.49	61.563
481.84	62.054
482.19	61.333
482.53	61.522
482.88	62.029
483.23	61.983
483.58	60.262
483.92	60.594
484.27	60.542
484.62	60.107
484.97	60.731
485.31	60.718
485.66	56.576
486.01	57.211
486.36	58.503
486.70	61.802
487.05	63.055
487.40	62.108
487.75	61.069
488.09	60.242
488.44	60.111
488.79	59.562
489.13	59.486
489.48	59.767
489.83	59.517
490.17	60.267
490.52	60.345
490.87	61.464
491.22	62.088
491.56	61.135
491.91	59.878
492.26	61.618
492.60	61.041
492.95	61.167
493.30	60.959
493.64	61.498
493.99	60.132
494.34	60.148
494.68	60.000
495.03	60.396
495.37	60.497
495.72	60.590
496.07	60.911
496.41	59.974
496.76	61.301
497.11	62.420
497.45	60.682
497.80	61.040
498.14	61.542
498.49	60.340
498.84	60.786
499.18	60.009
499.53	61.928
499.87	61.582
500.22	60.730
500.56	61.673
500.91	62.197
501.26	61.273
501.60	59.920
501.95	60.313
502.29	61.299
502.64	62.527
502.98	59.577
503.33	60.778
503.67	59.922
504.02	59.807
504.36	61.796
504.71	61.231
505.06	61.346
505.40	61.106
505.75	60.200
506.09	60.635
506.44	62.488
506.78	60.550
507.13	60.350
507.47	61.251
507.82	61.411
508.16	62.141
508.51	60.103
508.85	62.447
509.19	62.198
509.54	62.440
509.88	61.486
510.23	62.992
510.57	61.962
510.92	61.538
511.26	60.414
511.61	60.406
511.95	60.761
512.30	61.054
512.64	59.770
512.98	61.431
513.33	62.198
513.67	61.652
514.02	61.983
514.36	61.637
514.70	62.813
515.05	62.304
515.39	61.942
515.74	62.407
516.08	61.807
516.42	61.852
516.77	62.408
517.11	60.753
517.46	62.566
517.80	61.785
518.14	61.861
518.49	62.907
518.83	61.895
519.17	61.389
519.52	61.268
519.86	62.936
520.20	61.555
520.55	63.198
520.89	61.824
521.23	62.591
521.58	63.107
521.92	62.040
522.26	61.913
522.61	62.269
522.95	62.745
523.29	62.529
523.64	62.276
523.98	63.377
524.32	64.355
524.66	62.436
525.01	61.835
525.35	61.172
525.69	62.645
526.04	61.998
526.38	63.908
526.72	61.361
527.06	61.935
527.41	62.682
527.75	62.648
528.09	61.983
528.43	62.226
528.78	61.098
529.12	62.271
529.46	62.114
529.80	61.899
530.15	61.971
530.49	61.625
530.83	61.570
531.17	61.888
531.51	61.613
531.86	63.161
532.20	62.561
532.54	61.460
532.88	62.727
533.22	61.167
533.57	60.473
533.91	60.662
534.25	61.391
534.59	61.782
534.93	62.422
535.27	60.958
535.62	60.773
535.96	62.812
536.30	60.635
536.64	62.402
536.98	62.177
537.32	61.790
537.66	62.009
538.01	60.000
538.35	60.171
538.69	60.156
539.03	61.373
539.37	60.542
539.71	61.381
540.05	61.571
540.39	61.002
540.73	59.745
541.07	61.557
541.42	58.240
541.76	59.609
542.10	60.314
542.44	60.536
542.78	59.428
543.12	59.654
543.46	59.463
543.80	58.393
544.14	59.246
544.48	59.752
544.82	59.007
545.16	59.869
545.50	60.995
545.84	59.645
546.18	60.185
546.52	60.764
546.86	59.748
547.20	60.623
547.54	59.551
547.88	59.795
548.22	59.649
548.56	58.104
548.90	59.821
549.24	60.000
549.58	59.621
549.92	59.375
550.26	60.971
550.60	59.413
550.94	59.120
551.28	59.472
551.62	59.771
551.96	58.447
552.30	60.293
552.64	59.925
552.98	60.387
553.32	60.386
553.66	60.322
554.00	58.953
554.34	59.717
554.68	59.135
555.02	59.067
555.36	60.289
555.69	56.951
556.03	60.151
556.37	58.135
556.71	58.656
557.05	58.786
557.39	58.660
557.73	60.172
558.07	60.000
558.41	59.668
558.75	59.905
559.08	59.499
559.42	59.739
559.76	59.294
560.10	58.607
560.44	59.103
560.78	59.187
561.12	59.914
561.45	59.063
561.79	59.402
562.13	59.766
562.47	58.508
562.81	58.481
563.15	58.270
563.48	58.608
563.82	56.771
564.16	58.389
564.50	58.641
564.84	57.345
565.17	59.294
565.51	56.214
565.85	58.789
566.19	56.970
566.52	58.806
566.86	58.178
567.20	56.879
567.54	57.727
567.88	56.371
568.21	57.510
568.55	56.595
568.89	56.559
569.23	55.471
569.56	55.842
569.90	54.918
570.24	55.481
570.57	54.779
570.91	54.072
571.25	53.457
571.59	53.465
571.92	52.985
572.26	53.600
572.60	53.071
572.93	53.743
573.27	52.992
573.61	53.388
573.95	52.221
574.28	52.324
574.62	52.683
574.96	51.257
575.29	52.038
575.63	52.368
575.97	52.790
576.30	51.493
576.64	51.420
576.98	51.617
577.31	51.927
577.65	52.249
577.98	51.167
578.32	51.167
578.66	51.451
578.99	51.935
579.33	51.912
579.67	51.564
580.00	50.865
580.34	51.243
580.67	50.861
581.01	51.493
581.35	50.497
581.68	50.399
582.02	50.489
582.35	52.072
582.69	51.984
583.02	51.149
583.36	51.407
583.70	51.170
584.03	51.500
584.37	51.568
584.70	50.318
585.04	49.640
585.37	50.663
585.71	50.874
586.04	50.661
586.38	51.393
586.72	50.815
587.05	50.678
587.39	51.733
587.72	51.459
588.06	51.306
588.39	50.859
588.73	50.529
589.06	51.157
589.40	52.028
589.73	51.125
590.07	51.658
590.40	50.879
590.73	51.608
591.07	51.936
591.40	52.488
591.74	50.874
592.07	52.416
592.41	51.696
592.74	51.118
593.08	52.006
593.41	51.327
593.75	51.178
594.08	51.772
594.41	52.212
594.75	51.179
595.08	51.480
595.42	51.526
595.75	51.082
596.09	51.135
596.42	50.806
596.75	51.833
597.09	51.394
597.42	51.212
597.75	50.608
598.09	50.516
598.42	51.789
598.76	49.713
599.09	50.196
599.42	49.883
599.76	48.960
600.09	50.184
600.42	50.050
600.76	50.396
601.09	49.884
601.42	50.292
601.76	49.966
602.09	50.751
602.42	50.164
602.76	49.779
603.09	51.248
603.42	50.470
603.76	49.930
604.09	50.781
604.42	49.248
604.76	49.886
605.09	49.821
605.42	50.837
605.75	49.769
606.09	49.720
606.42	49.544
606.75	48.988
607.09	49.194
607.42	48.632
607.75	49.277
608.08	49.250
608.42	49.778
608.75	50.456
609.08	49.278
609.41	49.493
609.75	51.161
610.08	50.836
610.41	49.108
610.74	48.571
611.07	50.355
611.41	48.341
611.74	50.577
612.07	49.930
612.40	49.762
612.73	50.660
613.07	50.171
613.40	50.674
613.73	50.169
614.06	51.325
614.39	50.000
614.72	49.830
615.06	49.808
615.39	49.541
615.72	50.427
616.05	49.733
616.38	51.211
616.71	50.784
617.05	49.042
617.38	49.706
617.71	50.594
618.04	50.675
618.37	51.257
618.70	52.036
619.03	51.016
619.36	50.062
619.69	50.993
620.03	51.475
620.36	50.675
620.69	51.141
621.02	52.165
621.35	53.048
621.68	52.422
622.01	51.673
622.34	51.255
622.67	50.309
623.00	50.607
623.33	50.033
623.66	51.556
623.99	50.428
624.32	52.697
624.65	49.485
624.99	50.780
625.32	50.555
625.65	51.854
625.98	50.034
626.31	51.453
626.64	50.989
626.97	51.313
627.30	52.620
627.63	50.788
627.96	51.051
628.29	51.907
628.62	51.721
628.95	54.777
629.28	51.827
629.61	52.441
629.94	51.046
630.26	51.610
630.59	50.950
630.92	50.909
631.25	53.578
631.58	54.896
631.91	53.702
632.24	54.371
632.57	51.423
632.90	51.956
633.23	52.551
633.56	52.755
633.89	53.099
634.22	54.054
634.55	54.280
634.88	52.814
635.20	53.606
635.53	55.819
635.86	52.438
636.19	53.552
636.52	53.481
636.85	52.605
637.18	52.703
637.51	53.226
637.83	52.935
638.16	54.032
638.49	51.643
638.82	53.551
639.15	51.317
639.48	53.464
639.81	51.617
640.13	54.299
640.46	53.939
640.79	52.451
641.12	52.919
641.45	53.325
641.77	53.659
642.10	55.118
642.43	54.255
642.76	54.878
643.09	52.877
643.41	54.902
643.74	52.552
644.07	53.379
644.40	52.051
644.73	54.136
645.05	52.863
645.38	53.094
645.71	55.279
646.04	54.089
646.36	53.869
646.69	54.141
647.02	56.422
647.35	54.351
647.67	54.911
648.00	56.688
648.33	54.955
648.66	53.923
648.98	52.789
649.31	52.639
649.64	56.175
649.96	51.061
650.29	50.487
650.62	49.222
650.94	52.553
651.27	50.898
651.60	51.754
651.92	52.736
652.25	52.533
652.58	52.407
652.90	51.163
653.23	51.972
653.56	50.927
653.88	52.949
654.21	52.817
654.54	51.590
654.86	52.975
655.19	48.683
655.52	50.359
655.84	45.711
656.17	51.845
656.49	72.371
656.82	78.247
657.15	60.558
657.47	46.417
657.80	34.088
658.13	26.554
658.45	34.869
658.78	41.532
659.10	39.696
659.43	39.617
659.75	39.603
660.08	38.431
660.41	40.778
660.73	44.584
661.06	48.018
661.38	47.209
661.71	51.897
662.03	52.381
662.36	53.667
662.68	54.784
663.01	51.150
663.33	56.522
663.66	54.945
663.98	54.231
664.31	53.096
664.63	51.252
664.96	52.450
665.28	50.817
665.61	53.846
665.93	52.143
666.26	51.434
666.58	48.524
666.91	54.206
667.23	52.381
667.56	53.846
667.88	54.800
668.21	50.977
668.53	49.614
668.86	52.456
669.18	53.360
669.50	53.082
669.83	54.000
670.15	50.394
670.48	54.563
670.80	48.566
671.13	52.741
671.45	54.134
671.77	53.861
672.10	46.000
672.42	50.000
672.75	49.616
673.07	49.104
673.39	47.766
673.72	49.497
674.04	50.172
674.37	50.268
674.69	51.852
675.01	50.286
675.34	53.053
675.66	47.191
675.98	50.933
676.31	52.734
676.63	51.331
676.95	50.958
677.28	51.008
677.60	48.819
677.92	52.399
678.25	51.005
678.57	52.491
678.89	50.000
679.22	47.387
679.54	48.889
679.86	47.627
680.18	48.756
680.51	49.214
680.83	46.481
681.15	48.621
681.48	49.050
681.80	50.259
682.12	50.175
682.44	49.082
682.77	48.404
683.09	48.864
683.41	46.899
683.73	46.490
684.06	45.387
684.38	45.081
684.70	48.294
685.02	50.430
685.34	49.085
685.67	47.792
685.99	45.859
686.31	45.640
686.63	46.288
686.96	46.688
687.28	47.720
687.60	47.475
687.92	42.444
688.24	46.912
688.56	46.207
688.89	47.368
689.21	49.315
689.53	48.039
689.85	46.548
690.17	44.815
690.49	47.809
690.82	49.109
691.14	48.178
691.46	47.992
691.78	48.435
692.10	47.156
692.42	43.214
692.74	45.009
693.06	44.259
693.39	48.197
693.71	46.241
694.03	47.398
694.35	45.714
694.67	47.639
694.99	48.298
695.31	47.903
695.63	47.619
695.95	46.998
696.27	48.132
696.59	46.460
696.91	45.270
697.23	48.791
697.56	46.843
697.88	45.455
698.20	46.704
698.52	46.402
698.84	49.480
699.16	45.510
699.48	46.444
699.80	46.596
700.12	47.817
700.44	45.622
700.76	49.169
701.08	50.847
701.40	50.259
701.72	46.020
702.04	49.198
702.36	48.429
702.68	42.543
703.00	47.433
703.32	43.350
703.64	48.655
703.96	47.733
704.28	47.420
704.60	48.354
704.91	45.918
705.23	47.671
705.55	44.847
705.87	46.667
706.19	45.706
706.51	49.096
706.83	45.821
707.15	47.884
707.47	42.757
707.79	45.633
708.11	39.619
708.43	43.441
708.74	43.080
709.06	47.100
709.38	43.192
709.70	45.161
710.02	48.579
710.34	46.543
710.66	43.296
710.98	47.268
711.29	43.132
711.61	40.678
711.93	47.578
712.25	45.946
712.57	47.198
712.89	47.353
713.20	47.041
713.52	46.532
713.84	47.632
714.16	45.000
714.48	46.134
714.80	44.156
715.11	44.357
715.43	44.562
715.75	46.316
716.07	46.685
716.39	46.995
716.70	43.373
717.02	44.590
717.34	43.554
717.66	49.664
717.97	42.808
718.29	39.519
718.61	47.368
718.93	46.926
719.24	46.273
719.56	41.718
719.88	42.042
720.20	46.452
720.51	45.031
720.83	44.063
721.15	42.763
721.46	40.068
721.78	44.667
722.10	43.042
722.42	39.262
722.73	41.613
723.05	47.368
723.37	40.625
723.68	44.086
724.00	45.126
724.32	39.437
724.63	42.657
724.95	43.617
725.27	41.115
725.58	42.403
725.90	47.241
726.22	42.006
726.53	47.727
726.85	44.969
727.16	41.994
727.48	41.284
727.80	41.391
728.11	43.110
728.43	43.434
728.74	41.472
729.06	40.397
729.38	45.130
729.69	46.309
730.01	38.393
730.32	40.606
730.64	43.711
730.96	43.168
731.27	40.782
731.59	41.209
731.90	40.779
732.22	40.365
732.53	38.398
732.85	41.429
733.16	40.469
733.48	42.683
733.80	38.440
734.11	37.892
734.43	41.622
734.74	42.785
735.06	39.447
735.37	39.459
735.69	38.378
736.00	41.243
736.32	39.353
736.63	40.833
736.95	38.793
737.26	38.788
737.58	37.879
737.89	40.588
738.21	37.615
738.52	39.672
738.83	43.003
739.15	38.652
739.46	41.497
739.78	38.650
740.09	38.395
740.41	38.776
740.72	44.667
741.04	41.100
741.35	41.053
741.66	41.961
741.98	44.262
742.29	36.820
742.61	39.035
742.92	41.538
743.23	42.960
743.55	38.372
743.86	42.400
744.18	32.231
744.49	38.397
744.80	41.152
745.12	39.241
745.43	39.024
745.74	45.259
746.06	44.492
746.37	40.928
746.68	47.967
747.00	39.167
747.31	42.918
747.62	42.308
747.94	39.271
748.25	39.759
748.56	38.776
748.88	38.034
749.19	49.138
749.50	42.424
749.82	45.783
750.13	42.349
750.44	40.333
750.75	41.846
751.07	38.769
751.38	38.801
751.69	37.380
752.01	40.453
752.32	41.176
752.63	39.116
752.94	40.484
753.26	37.918
753.57	38.519
753.88	34.831
754.19	36.334
754.51	36.977
754.82	39.228
755.13	37.705
755.44	40.956
755.75	38.487
756.07	40.597
756.38	38.679
756.69	43.373
757.00	32.410
757.31	36.885
757.63	34.783
757.94	35.446
758.25	35.214
758.56	35.512
758.87	37.045
759.18	37.333
759.50	38.244
759.81	38.936
760.12	39.084
760.43	40.885
760.74	33.498
761.05	35.750
761.36	33.976
761.67	32.741
761.99	32.973
762.30	38.720
762.61	35.644
762.92	40.299
763.23	39.700
763.54	32.734
763.85	37.113
764.16	38.721
764.47	40.845
764.78	37.061
765.10	34.018
765.41	35.897
765.72	35.979
766.03	37.006
766.34	34.796
766.65	37.979
766.96	37.849
767.27	41.014
767.58	37.811
767.89	38.942
768.20	34.742
768.51	34.259
768.82	39.357
769.13	35.606
769.44	34.615
769.75	32.852
770.06	35.769
770.37	40.945
770.68	31.915
770.99	33.198
771.30	44.444
771.61	36.122
771.92	34.074
772.23	38.057
772.54	32.407
772.85	38.710
773.16	35.714
773.47	35.979
773.78	35.135
774.09	34.659
774.39	35.000
774.70	36.066
775.01	40.854
775.32	27.647
775.63	31.902
775.94	26.752
776.25	42.581
776.56	44.231
776.87	32.653
777.18	35.862
777.48	29.371
777.79	31.081
778.10	38.235
778.41	33.333
778.72	36.552
779.03	32.716
779.34	30.909
779.65	36.788
779.95	38.333
780.26	31.250
780.57	30.968
780.88	35.507
781.19	40.000
781.50	38.824
781.80	34.409
782.11	35.450
782.42	28.283
782.73	28.743
783.04	29.609
783.34	26.061
783.65	27.451
783.96	32.919
784.27	32.143
784.57	31.788
784.88	40.714
785.19	25.197
785.50	33.071
785.81	30.827
786.11	40.000
786.42	25.180
786.73	33.813
787.04	27.820
787.34	27.049
787.65	25.600
787.96	32.090
788.26	35.664
788.57	30.070
788.88	26.316
789.19	31.373
789.49	24.658
789.80	27.660
790.11	37.795
790.41	25.781
790.72	19.492
791.03	23.301
791.33	25.217
791.64	34.211
791.95	35.714
792.25	27.619
792.56	26.786
792.87	27.083
793.17	26.786
793.48	23.958
793.79	24.096
794.09	26.606
794.40	33.945
794.70	32.653
795.01	27.922
795.32	21.918
795.62	37.324
795.93	24.242
796.23	28.689
796.54	32.143
796.85	19.149
797.15	14.130
797.46	19.178
797.76	23.750
798.07	29.348
798.37	26.804
798.68	16.883
798.99	20.690
799.29	19.101
799.60	27.660
799.90	31.325
800.21	30.769
800.51	28.358
800.82	27.941
801.12	10.959
801.43	20.588
801.73	25.424
802.04	24.242
802.34	23.333
802.65	16.949
802.95	35.821
803.26	5.085
803.56	23.288
803.87	30.000
804.17	24.658
804.48	19.298
804.78	27.778
805.09	18.966
805.39	32.432
805.70	15.493
806.00	25.610
806.30	12.048
806.61	27.397
806.91	16.346
807.22	20.000
807.52	20.690
807.83	38.889
808.13	28.916
808.43	26.966
808.74	28.750
809.04	17.647
809.35	22.667
809.65	18.571
809.95	15.068
810.26	5.263
810.56	3.448
810.86	23.529
811.17	10.526
811.47	13.115
811.77	-8.889
812.08	10.169
812.38	16.667
812.69	24.138
812.99	0.000
813.29	-5.128
813.59	20.000
813.90	19.298
814.20	16.364
814.50	26.761
814.81	25.641
815.11	14.754
815.41	17.910
815.72	20.690
816.02	26.786
816.32	40.000
816.62	20.455
816.93	8.889
817.23	22.222
817.53	21.277
817.84	26.190
818.14	44.118
818.44	14.286
818.74	15.556
819.04	-25.641
819.35	8.571
819.65	-38.462
819.95	3.774
820.25	35.556
820.56	30.952
820.86	-25.000
821.16	25.641
821.46	18.605
821.76	-6.000
822.07	19.643
822.37	2.174
822.67	6.383
822.97	-5.405
823.27	7.500
823.57	2.041
823.88	8.889
824.18	-5.000
824.48	6.667
824.78	4.000
825.08	21.212
825.38	26.667
825.69	8.511
825.99	27.778
826.29	-17.143
826.59	17.949
826.89	9.302
827.19	16.000
827.49	-14.706
827.79	8.333
828.09	18.919
828.39	23.333
828.70	9.756
829.00	20.930
829.30	-14.286
829.60	14.706
829.90	4.348
830.20	5.714
830.50	0.000
830.80	-5.556
831.10	-19.231
831.40	5.882
831.70	19.048
832.00	9.677
832.30	-35.294
832.60	-29.167
832.90	-84.615
833.20	0.000
833.50	15.000
833.80	-42.105
834.10	-90.476
834.40	22.222
834.70	21.875
835.00	-20.000
835.30	-20.588
835.60	-6.667
835.90	-24.000
836.20	-36.364
836.50	-20.000
836.80	-21.212
837.10	-29.630
837.40	3.704
837.70	-37.500
838.00	0.000
838.30	-21.739
838.60	41.379
838.90	-28.571
839.19	-82.609
839.49	-91.667
839.79	-30.435
840.09	-43.750
840.39	-25.000
840.69	-3.226
840.99	3.571
841.29	-26.667
841.59	5.263
841.88	5.128
842.18	-3.846
842.48	-110.000
842.78	-15.000
843.08	30.000
843.38	25.806
843.68	-77.778
843.97	35.294
844.27	-12.500
844.57	-10.526
844.87	-110.000
845.17	-40.000
845.47	0.000
845.76	-38.095
846.06	-100.000
846.36	-117.647
846.66	-23.077
846.96	-33.333
847.25	0.000
847.55	-21.739
847.85	-30.000
848.15	-23.529
848.44	-72.727
848.74	28.571
849.04	-4.167
849.34	-37.500
849.63	13.043
849.93	500.000
850.23	-40.000
850.53	34.615
850.82	-54.545
851.12	-13.636
851.42	-190.909
851.71	-7.692
852.01	-45.000
852.31	-115.385
852.61	-21.053
852.90	8.333
853.20	-5.556
853.50	-200.000
853.79	-57.143
854.09	-54.545
854.39	-108.333
854.68	-12.903
854.98	-11.538
855.28	5.556
855.57	-10.714
855.87	8.000
856.17	-27.273
856.46	-18.519
856.76	-38.889
857.05	-17.391
857.35	-66.667
857.65	-46.154
857.94	-19.048
858.24	0.000
858.53	21.739
858.83	-29.412
859.13	-47.059
859.42	11.765
859.72	-28.571
860.01	-30.000
860.31	-88.889
860.60	-30.000
860.90	-26.667
861.20	-33.333
861.49	-76.923
861.79	-36.667
862.08	-84.615
862.38	-12.500
862.67	-35.294
862.97	6.250
863.26	-144.444
863.56	-170.000
863.85	-100.000
864.15	-50.000
864.44	-266.667
864.74	-42.857
865.03	-93.750
865.33	-260.000
865.62	-22.581
865.92	9.091
866.21	-13.043
866.51	-71.429
866.80	-380.000
867.10	-83.333
867.39	-125.000
867.69	2800.000
867.98	-57.143
868.27	23.529
868.57	-1300.000
868.86	-300.000
869.16	-47.619
869.45	-20.833
869.75	-54.545
870.04	-114.286
870.33	41.667
870.63	-157.143
870.92	-225.000
871.22	-175.000
871.51	-27.273
871.80	-433.333
872.10	-550.000
>>>>>End Processed Spectral Data<<<<<
