SpectraSuite Data File
++++++++++++++++++++++++++++++++++++
Date: Thu May 14 14:31:32 PDT 2015
User: schluterlab
Dark Spectrum Present: Yes
Reference Spectrum Present: Yes
Number of Sampled Component Spectra: 1
Spectrometers: USB2E3373
Integration Time (usec): 3000 (USB2E3373)
Spectra Averaged: 3 (USB2E3373)
Boxcar Smoothing: 0 (USB2E3373)
Correct for Electrical Dark: No (USB2E3373)
Strobe/Lamp Enabled: No (USB2E3373)
Correct for Detector Non-linearity: No (USB2E3373)
Correct for Stray Light: No (USB2E3373)
Number of Pixels in Processed Spectrum: 2048
>>>>>Begin Processed Spectral Data<<<<<
178.53	0.000
178.91	-185.714
179.29	800.000
179.67	1600.000
180.04	-14.286
180.42	-180.000
180.80	-260.000
181.18	1300.000
181.56	1300.000
181.94	-525.000
182.31	600.000
182.69	-800.000
183.07	1250.000
183.45	-300.000
183.83	300.000
184.20	733.333
184.58	-1000.000
184.96	300.000
185.34	188.889
185.72	440.000
186.09	-77.778
186.47	-150.000
186.85	-280.000
187.23	144.444
187.61	1300.000
187.98	-400.000
188.36	-225.000
188.74	325.000
189.12	533.333
189.49	175.000
189.87	287.500
190.25	255.556
190.63	260.000
191.00	144.444
191.38	0.000
191.76	400.000
192.14	300.000
192.51	-750.000
192.89	416.667
193.27	0.000
193.65	214.286
194.02	800.000
194.40	300.000
194.78	-328.571
195.15	0.000
195.53	154.545
195.91	0.000
196.29	550.000
196.66	138.462
197.04	1100.000
197.42	428.571
197.79	900.000
198.17	187.500
198.55	100.000
198.92	277.778
199.30	275.000
199.68	163.636
200.05	178.571
200.43	800.000
200.81	-185.714
201.18	0.000
201.56	-100.000
201.94	0.000
202.31	-266.667
202.69	266.667
203.07	-2100.000
203.44	133.333
203.82	225.000
204.19	83.333
204.57	200.000
204.95	175.000
205.32	1500.000
205.70	-425.000
206.08	283.333
206.45	316.667
206.83	80.000
207.20	400.000
207.58	420.000
207.96	166.667
208.33	300.000
208.71	-25.000
209.08	300.000
209.46	0.000
209.84	-116.667
210.21	-600.000
210.59	-550.000
210.96	-200.000
211.34	650.000
211.71	225.000
212.09	300.000
212.46	0.000
212.84	-150.000
213.22	240.000
213.59	450.000
213.97	230.000
214.34	633.333
214.72	-183.333
215.09	475.000
215.47	0.000
215.84	-214.286
216.22	-50.000
216.59	320.000
216.97	160.000
217.34	400.000
217.72	300.000
218.09	225.000
218.47	225.000
218.84	0.000
219.22	-380.000
219.59	105.882
219.97	160.000
220.34	-550.000
220.72	133.333
221.09	138.462
221.47	733.333
221.84	160.000
222.22	100.000
222.59	0.000
222.97	262.500
223.34	200.000
223.72	1200.000
224.09	450.000
224.46	250.000
224.84	300.000
225.21	171.429
225.59	325.000
225.96	250.000
226.34	92.308
226.71	33.333
227.08	950.000
227.46	180.000
227.83	225.000
228.21	147.368
228.58	-100.000
228.95	-850.000
229.33	158.333
229.70	190.000
230.08	157.895
230.45	-180.000
230.82	566.667
231.20	121.429
231.57	158.333
231.95	118.182
232.32	181.818
232.69	95.000
233.07	225.000
233.44	82.353
233.81	190.000
234.19	138.889
234.56	81.818
234.93	75.862
235.31	121.053
235.68	105.556
236.05	75.000
236.43	103.846
236.80	116.000
237.17	77.778
237.55	36.364
237.92	130.000
238.29	32.258
238.67	54.545
239.04	30.556
239.41	54.762
239.79	45.652
240.16	33.333
240.53	41.304
240.91	21.569
241.28	11.475
241.65	47.761
242.02	31.081
242.40	15.385
242.77	28.000
243.14	12.195
243.51	23.684
243.89	24.359
244.26	21.782
244.63	11.765
245.00	19.626
245.38	13.158
245.75	10.619
246.12	20.635
246.49	14.729
246.87	24.286
247.24	13.907
247.61	9.211
247.98	12.752
248.36	14.198
248.73	8.589
249.10	14.208
249.47	18.905
249.84	17.277
250.22	12.435
250.59	11.667
250.96	15.000
251.33	13.776
251.70	13.248
252.08	12.083
252.45	13.525
252.82	13.636
253.19	12.500
253.56	9.886
253.94	4.615
254.31	11.364
254.68	11.888
255.05	12.052
255.42	8.163
255.79	9.385
256.16	10.927
256.54	8.609
256.91	8.525
257.28	7.213
257.65	6.369
258.02	9.145
258.39	10.541
258.76	12.232
259.14	11.782
259.51	9.798
259.88	9.632
260.25	6.667
260.62	10.411
260.99	11.749
261.36	12.332
261.73	9.549
262.10	6.593
262.47	8.043
262.85	10.354
263.22	6.753
263.59	6.842
263.96	8.696
264.33	7.161
264.70	9.630
265.07	10.501
265.44	7.710
265.81	7.870
266.18	10.204
266.55	8.482
266.92	8.200
267.29	8.534
267.66	5.543
268.03	5.677
268.40	8.142
268.77	8.200
269.14	6.167
269.51	9.649
269.88	7.377
270.25	8.853
270.62	8.017
270.99	8.687
271.36	9.703
271.73	7.269
272.10	10.220
272.47	8.216
272.84	8.635
273.21	5.812
273.58	6.452
273.95	7.308
274.32	7.224
274.69	6.770
275.06	7.875
275.43	7.024
275.80	7.937
276.17	5.370
276.54	5.037
276.91	5.546
277.28	7.776
277.65	7.361
278.02	7.904
278.39	6.884
278.76	4.569
279.13	4.255
279.50	6.873
279.87	7.513
280.23	5.106
280.60	8.136
280.97	5.592
281.34	5.603
281.71	8.968
282.08	6.312
282.45	5.401
282.82	4.710
283.19	4.200
283.56	5.246
283.92	7.958
284.29	7.425
284.66	8.703
285.03	3.846
285.40	6.646
285.77	4.954
286.14	8.092
286.51	4.871
286.87	4.739
287.24	6.928
287.61	4.335
287.98	3.172
288.35	6.657
288.72	6.361
289.08	6.735
289.45	5.769
289.82	6.476
290.19	7.040
290.56	7.324
290.93	6.562
291.29	5.234
291.66	6.061
292.03	5.156
292.40	5.986
292.77	5.526
293.13	5.954
293.50	5.782
293.87	6.980
294.24	7.467
294.60	6.448
294.97	5.369
295.34	6.658
295.71	6.053
296.08	5.685
296.44	5.882
296.81	6.212
297.18	5.853
297.55	6.250
297.91	4.982
298.28	3.791
298.65	6.302
299.02	6.021
299.38	6.293
299.75	7.243
300.12	5.208
300.48	5.645
300.85	5.624
301.22	8.166
301.59	6.735
301.95	5.876
302.32	6.778
302.69	5.915
303.05	6.638
303.42	5.987
303.79	6.042
304.15	7.781
304.52	5.497
304.89	6.283
305.25	6.315
305.62	6.270
305.99	6.598
306.35	5.444
306.72	6.515
307.09	5.685
307.45	5.901
307.82	7.064
308.19	6.761
308.55	7.522
308.92	6.134
309.29	6.705
309.65	5.653
310.02	7.030
310.38	6.791
310.75	6.311
311.12	6.999
311.48	7.331
311.85	7.217
312.22	7.306
312.58	6.948
312.95	7.553
313.31	6.594
313.68	8.150
314.05	9.395
314.41	9.199
314.78	8.174
315.14	8.711
315.51	7.664
315.87	8.641
316.24	9.041
316.61	9.503
316.97	7.240
317.34	8.907
317.70	9.258
318.07	8.289
318.43	10.204
318.80	10.619
319.16	9.270
319.53	9.426
319.89	8.589
320.26	10.587
320.62	9.309
320.99	9.695
321.35	9.057
321.72	11.256
322.08	9.107
322.45	9.756
322.81	10.830
323.18	10.531
323.54	10.948
323.91	10.409
324.27	11.360
324.64	12.175
325.00	11.277
325.37	12.121
325.73	11.818
326.10	13.625
326.46	13.029
326.83	13.531
327.19	13.071
327.56	13.439
327.92	12.825
328.29	13.145
328.65	12.730
329.01	13.536
329.38	13.311
329.74	14.041
330.11	15.068
330.47	14.827
330.84	14.987
331.20	14.667
331.56	14.905
331.93	14.895
332.29	15.339
332.66	15.532
333.02	14.992
333.38	14.597
333.75	16.582
334.11	15.013
334.48	15.759
334.84	14.783
335.20	15.953
335.57	15.936
335.93	15.868
336.29	15.058
336.66	14.550
337.02	15.719
337.38	15.731
337.75	15.537
338.11	16.653
338.47	14.806
338.84	15.398
339.20	15.249
339.56	16.063
339.93	15.681
340.29	15.459
340.65	16.139
341.02	16.600
341.38	16.572
341.74	15.658
342.11	15.607
342.47	14.376
342.83	16.506
343.20	16.599
343.56	15.397
343.92	16.093
344.28	16.406
344.65	15.891
345.01	15.601
345.37	16.330
345.73	14.341
346.10	16.459
346.46	15.032
346.82	16.105
347.19	15.966
347.55	16.313
347.91	16.270
348.27	15.630
348.63	15.385
349.00	15.585
349.36	15.093
349.72	15.030
350.08	16.270
350.45	14.449
350.81	15.686
351.17	15.564
351.53	16.300
351.89	15.869
352.26	15.821
352.62	15.821
352.98	15.802
353.34	13.966
353.70	15.716
354.07	16.393
354.43	15.869
354.79	15.258
355.15	15.968
355.51	16.447
355.87	15.557
356.24	15.589
356.60	15.891
356.96	15.493
357.32	15.613
357.68	16.325
358.04	14.970
358.40	15.597
358.77	15.716
359.13	15.510
359.49	15.167
359.85	16.534
360.21	16.284
360.57	15.721
360.93	16.008
361.29	17.193
361.66	16.003
362.02	17.397
362.38	16.514
362.74	16.411
363.10	16.369
363.46	16.482
363.82	15.696
364.18	15.623
364.54	16.252
364.90	16.923
365.26	15.586
365.62	17.067
365.98	16.814
366.35	17.047
366.71	16.463
367.07	16.915
367.43	17.597
367.79	17.585
368.15	17.391
368.51	17.253
368.87	16.852
369.23	17.000
369.59	17.418
369.95	17.715
370.31	17.961
370.67	17.194
371.03	17.521
371.39	17.260
371.75	17.607
372.11	17.209
372.47	18.077
372.83	18.586
373.19	17.879
373.55	18.564
373.91	16.633
374.27	17.658
374.63	18.674
374.99	18.302
375.35	18.896
375.71	17.871
376.07	18.205
376.42	18.829
376.78	19.080
377.14	18.528
377.50	18.596
377.86	20.135
378.22	19.521
378.58	18.668
378.94	19.718
379.30	19.566
379.66	19.694
380.02	19.965
380.38	20.104
380.74	19.887
381.09	20.093
381.45	20.227
381.81	20.960
382.17	21.615
382.53	20.468
382.89	21.896
383.25	20.692
383.61	20.370
383.97	21.673
384.32	21.770
384.68	21.172
385.04	22.383
385.40	22.157
385.76	22.098
386.12	21.783
386.48	21.765
386.83	23.004
387.19	22.538
387.55	22.242
387.91	22.717
388.27	22.806
388.62	22.394
388.98	22.955
389.34	22.923
389.70	22.894
390.06	23.564
390.42	24.217
390.77	23.420
391.13	23.298
391.49	23.732
391.85	23.091
392.20	23.310
392.56	24.217
392.92	24.373
393.28	23.825
393.64	22.905
393.99	24.985
394.35	25.292
394.71	24.790
395.07	22.695
395.42	24.557
395.78	25.838
396.14	24.421
396.50	24.881
396.85	24.866
397.21	23.905
397.57	25.206
397.92	24.800
398.28	24.715
398.64	24.771
399.00	24.031
399.35	24.346
399.71	24.837
400.07	25.491
400.42	24.738
400.78	26.273
401.14	25.213
401.49	25.469
401.85	25.174
402.21	25.550
402.57	25.939
402.92	25.000
403.28	24.005
403.63	25.060
403.99	24.822
404.35	25.128
404.70	25.552
405.06	24.130
405.42	25.703
405.77	24.755
406.13	25.662
406.49	26.014
406.84	24.100
407.20	25.266
407.55	24.652
407.91	25.079
408.27	25.206
408.62	25.771
408.98	25.827
409.34	24.985
409.69	25.711
410.05	25.088
410.40	25.928
410.76	25.014
411.11	25.365
411.47	25.737
411.83	26.220
412.18	25.301
412.54	25.370
412.89	26.019
413.25	25.451
413.60	24.986
413.96	25.699
414.31	25.156
414.67	25.581
415.03	24.985
415.38	26.230
415.74	26.268
416.09	26.403
416.45	24.922
416.80	24.786
417.16	25.670
417.51	26.027
417.87	26.426
418.22	25.928
418.58	26.022
418.93	26.426
419.29	26.572
419.64	24.730
420.00	26.113
420.35	26.277
420.71	25.790
421.06	25.819
421.42	26.778
421.77	26.064
422.12	26.216
422.48	25.806
422.83	27.108
423.19	26.897
423.54	26.327
423.90	26.229
424.25	26.773
424.61	25.832
424.96	27.512
425.31	27.282
425.67	26.355
426.02	27.227
426.38	28.243
426.73	26.283
427.09	27.739
427.44	26.215
427.79	26.368
428.15	26.826
428.50	27.697
428.85	26.923
429.21	27.660
429.56	27.098
429.92	27.371
430.27	27.663
430.62	27.846
430.98	27.644
431.33	27.028
431.68	27.059
432.04	27.882
432.39	27.852
432.74	27.169
433.10	27.258
433.45	27.258
433.80	28.970
434.16	27.944
434.51	28.314
434.86	28.827
435.22	28.959
435.57	28.243
435.92	28.047
436.28	28.100
436.63	28.236
436.98	28.878
437.34	27.790
437.69	27.848
438.04	28.609
438.39	29.236
438.75	28.556
439.10	29.175
439.45	29.067
439.81	28.531
440.16	28.418
440.51	28.205
440.86	29.016
441.22	28.992
441.57	29.088
441.92	28.468
442.27	29.646
442.63	29.061
442.98	29.616
443.33	28.932
443.68	29.633
444.03	29.398
444.39	29.589
444.74	29.250
445.09	29.245
445.44	28.504
445.79	29.789
446.15	28.983
446.50	29.147
446.85	29.961
447.20	29.400
447.55	30.387
447.91	29.319
448.26	29.228
448.61	29.649
448.96	31.330
449.31	30.064
449.66	29.085
450.02	29.800
450.37	30.155
450.72	29.763
451.07	29.784
451.42	29.636
451.77	29.350
452.12	30.756
452.47	29.768
452.83	30.574
453.18	29.539
453.53	29.925
453.88	30.425
454.23	31.186
454.58	30.122
454.93	29.430
455.28	30.524
455.63	30.529
455.98	30.615
456.34	30.448
456.69	30.100
457.04	31.324
457.39	30.710
457.74	30.872
458.09	29.874
458.44	30.711
458.79	30.015
459.14	30.152
459.49	30.900
459.84	30.955
460.19	29.817
460.54	30.778
460.89	30.598
461.24	30.230
461.59	30.603
461.94	30.177
462.29	30.235
462.64	30.356
462.99	30.760
463.34	30.954
463.69	31.243
464.04	31.073
464.39	30.269
464.74	30.502
465.09	30.681
465.44	30.311
465.79	31.253
466.14	29.964
466.49	30.684
466.84	30.909
467.19	30.983
467.54	30.259
467.89	31.034
468.24	31.191
468.59	29.994
468.94	30.769
469.29	30.714
469.64	30.706
469.99	31.485
470.34	32.240
470.68	30.690
471.03	31.500
471.38	31.393
471.73	30.754
472.08	31.028
472.43	31.668
472.78	32.116
473.13	31.922
473.48	32.749
473.83	31.225
474.17	30.481
474.52	31.630
474.87	30.952
475.22	31.493
475.57	30.218
475.92	31.608
476.27	31.470
476.61	31.256
476.96	29.979
477.31	31.337
477.66	32.581
478.01	31.622
478.36	31.356
478.70	31.872
479.05	31.902
479.40	31.491
479.75	31.748
480.10	32.165
480.45	32.133
480.79	31.746
481.14	31.847
481.49	31.622
481.84	31.854
482.19	32.000
482.53	32.182
482.88	31.901
483.23	32.414
483.58	32.096
483.92	31.294
484.27	31.880
484.62	30.858
484.97	31.921
485.31	31.890
485.66	30.948
486.01	30.729
486.36	30.690
486.70	30.796
487.05	31.101
487.40	31.669
487.75	31.501
488.09	32.122
488.44	31.350
488.79	32.040
489.13	32.187
489.48	31.689
489.83	31.227
490.17	31.754
490.52	30.870
490.87	31.345
491.22	32.062
491.56	31.314
491.91	31.574
492.26	31.026
492.60	31.788
492.95	31.417
493.30	31.869
493.64	31.406
493.99	31.096
494.34	31.315
494.68	31.863
495.03	31.101
495.37	32.135
495.72	31.746
496.07	31.551
496.41	31.789
496.76	31.693
497.11	31.847
497.45	31.895
497.80	32.075
498.14	31.701
498.49	31.939
498.84	30.987
499.18	31.759
499.53	32.646
499.87	32.440
500.22	31.656
500.56	32.344
500.91	32.174
501.26	32.636
501.60	32.081
501.95	32.653
502.29	32.514
502.64	33.013
502.98	32.399
503.33	32.311
503.67	31.662
504.02	32.618
504.36	33.199
504.71	32.706
505.06	31.696
505.40	32.084
505.75	32.605
506.09	32.689
506.44	32.730
506.78	32.844
507.13	32.042
507.47	33.254
507.82	32.055
508.16	32.027
508.51	32.443
508.85	33.160
509.19	33.112
509.54	33.189
509.88	32.977
510.23	33.123
510.57	34.123
510.92	33.478
511.26	32.660
511.61	31.434
511.95	33.382
512.30	33.924
512.64	32.434
512.98	32.816
513.33	34.728
513.67	32.942
514.02	33.878
514.36	33.555
514.70	32.969
515.05	33.316
515.39	33.753
515.74	33.669
516.08	32.805
516.42	33.490
516.77	34.963
517.11	33.161
517.46	33.828
517.80	34.580
518.14	33.896
518.49	33.568
518.83	33.369
519.17	33.118
519.52	33.386
519.86	32.682
520.20	33.546
520.55	34.009
520.89	33.840
521.23	34.227
521.58	34.011
521.92	33.484
522.26	33.448
522.61	33.912
522.95	34.775
523.29	33.448
523.64	34.641
523.98	34.626
524.32	35.186
524.66	35.003
525.01	33.975
525.35	32.567
525.69	33.701
526.04	33.352
526.38	34.310
526.72	33.852
527.06	34.194
527.41	33.586
527.75	34.620
528.09	34.652
528.43	33.866
528.78	34.277
529.12	33.601
529.46	33.390
529.80	34.325
530.15	34.783
530.49	34.164
530.83	34.829
531.17	34.409
531.51	34.958
531.86	34.615
532.20	34.512
532.54	33.273
532.88	34.182
533.22	34.119
533.57	33.814
533.91	34.175
534.25	34.539
534.59	33.736
534.93	33.277
535.27	34.085
535.62	33.826
535.96	33.818
536.30	34.959
536.64	34.835
536.98	34.686
537.32	34.136
537.66	33.874
538.01	33.776
538.35	33.557
538.69	33.353
539.03	34.825
539.37	34.747
539.71	35.195
540.05	34.053
540.39	33.985
540.73	33.333
541.07	34.519
541.42	34.554
541.76	33.037
542.10	33.896
542.44	33.069
542.78	34.367
543.12	33.850
543.46	34.493
543.80	33.813
544.14	34.111
544.48	33.865
544.82	34.470
545.16	34.705
545.50	34.871
545.84	33.925
546.18	35.432
546.52	34.968
546.86	33.522
547.20	34.097
547.54	34.332
547.88	33.574
548.22	33.918
548.56	33.821
548.90	34.746
549.24	35.076
549.58	33.565
549.92	33.482
550.26	35.081
550.60	34.971
550.94	34.541
551.28	34.323
551.62	34.771
551.96	32.945
552.30	33.588
552.64	34.225
552.98	34.498
553.32	34.727
553.66	34.019
554.00	34.111
554.34	34.492
554.68	34.345
555.02	33.574
555.36	34.320
555.69	33.120
556.03	34.552
556.37	33.980
556.71	34.940
557.05	32.971
557.39	34.705
557.73	33.752
558.07	34.570
558.41	34.086
558.75	34.009
559.08	34.656
559.42	33.951
559.76	33.921
560.10	33.490
560.44	34.301
560.78	35.062
561.12	34.113
561.45	34.246
561.79	33.455
562.13	34.750
562.47	33.970
562.81	33.861
563.15	34.091
563.48	34.307
563.82	32.830
564.16	33.979
564.50	33.492
564.84	34.100
565.17	33.471
565.51	33.429
565.85	33.967
566.19	33.468
566.52	34.465
566.86	34.522
567.20	34.149
567.54	33.457
567.88	33.894
568.21	34.486
568.55	33.477
568.89	34.907
569.23	33.545
569.56	34.115
569.90	33.607
570.24	33.761
570.57	33.258
570.91	32.854
571.25	32.803
571.59	33.482
571.92	32.783
572.26	33.377
572.60	33.333
572.93	33.176
573.27	33.212
573.61	32.954
573.95	33.163
574.28	33.030
574.62	33.311
574.96	32.708
575.29	32.871
575.63	33.218
575.97	33.485
576.30	32.568
576.64	33.524
576.98	32.802
577.31	33.465
577.65	33.512
577.98	32.982
578.32	32.304
578.66	32.868
578.99	32.705
579.33	33.148
579.67	32.706
580.00	32.974
580.34	32.788
580.67	33.054
581.01	33.016
581.35	32.749
581.68	32.653
582.02	32.720
582.35	32.835
582.69	33.202
583.02	32.928
583.36	33.498
583.70	33.129
584.03	32.661
584.37	33.671
584.70	33.130
585.04	33.109
585.37	32.744
585.71	32.923
586.04	32.453
586.38	32.962
586.72	32.339
587.05	33.231
587.39	32.536
587.72	33.636
588.06	33.075
588.39	32.860
588.73	32.937
589.06	33.409
589.40	33.559
589.73	32.680
590.07	33.820
590.40	33.435
590.73	33.934
591.07	33.433
591.40	33.165
591.74	33.625
592.07	33.374
592.41	33.202
592.74	32.907
593.08	33.631
593.41	32.692
593.75	32.356
594.08	33.354
594.41	32.981
594.75	32.414
595.08	32.402
595.42	32.825
595.75	33.226
596.09	34.022
596.42	33.751
596.75	32.844
597.09	33.616
597.42	32.698
597.75	33.516
598.09	32.619
598.42	33.253
598.76	32.365
599.09	32.965
599.42	32.216
599.76	32.321
600.09	32.766
600.42	31.798
600.76	32.034
601.09	31.995
601.42	32.544
601.76	33.414
602.09	33.024
602.42	32.715
602.76	32.546
603.09	32.709
603.42	32.659
603.76	32.629
604.09	33.357
604.42	32.294
604.76	32.648
605.09	32.509
605.42	33.134
605.75	32.615
606.09	32.699
606.42	32.360
606.75	32.384
607.09	31.874
607.42	32.678
607.75	32.747
608.08	32.281
608.42	32.164
608.75	32.629
609.08	32.088
609.41	31.760
609.75	32.411
610.08	32.410
610.41	32.073
610.74	32.143
611.07	32.948
611.41	33.094
611.74	32.979
612.07	32.959
612.40	32.747
612.73	33.007
613.07	33.105
613.40	32.387
613.73	32.595
614.06	32.581
614.39	31.876
614.72	32.460
615.06	31.328
615.39	31.851
615.72	31.991
616.05	32.346
616.38	32.341
616.71	32.759
617.05	31.203
617.38	32.263
617.71	31.695
618.04	31.894
618.37	32.514
618.70	33.032
619.03	31.183
619.36	32.306
619.69	32.351
620.03	31.701
620.36	31.902
620.69	32.141
621.02	33.268
621.35	32.293
621.68	32.176
622.01	31.886
622.34	30.544
622.67	31.271
623.00	30.162
623.33	32.050
623.66	32.361
623.99	31.205
624.32	33.073
624.65	30.888
624.99	33.290
625.32	32.201
625.65	31.490
625.98	31.525
626.31	32.459
626.64	31.355
626.97	31.058
627.30	31.587
627.63	31.208
627.96	32.958
628.29	30.973
628.62	32.410
628.95	32.165
629.28	31.691
629.61	32.576
629.94	31.464
630.26	30.508
630.59	31.434
630.92	31.082
631.25	32.111
631.58	33.333
631.91	32.521
632.24	30.740
632.57	31.120
632.90	31.795
633.23	31.837
633.56	30.306
633.89	31.302
634.22	31.393
634.55	31.211
634.88	30.411
635.20	31.970
635.53	32.316
635.86	31.311
636.19	31.389
636.52	31.118
636.85	30.644
637.18	31.289
637.51	31.720
637.83	33.001
638.16	32.949
638.49	30.986
638.82	31.680
639.15	30.011
639.48	32.217
639.81	32.679
640.13	32.509
640.46	30.424
640.79	30.025
641.12	32.795
641.45	30.866
641.77	32.478
642.10	31.365
642.43	32.048
642.76	30.623
643.09	30.411
643.41	32.493
643.74	30.207
644.07	33.379
644.40	31.400
644.73	31.350
645.05	31.865
645.38	34.101
645.71	33.578
646.04	29.699
646.36	30.949
646.69	32.055
647.02	33.028
647.35	32.672
647.67	32.528
648.00	31.847
648.33	32.132
648.66	31.526
648.98	30.476
649.31	30.717
649.64	32.669
649.96	29.973
650.29	30.876
650.62	32.673
650.94	31.381
651.27	29.042
651.60	30.556
651.92	28.875
652.25	31.548
652.58	30.399
652.90	31.250
653.23	29.859
653.56	29.387
653.88	31.882
654.21	29.437
654.54	30.491
654.86	31.020
655.19	30.740
655.52	28.970
655.84	25.616
656.17	33.404
656.49	47.347
656.82	54.153
657.15	42.472
657.47	31.923
657.80	23.953
658.13	18.904
658.45	24.673
658.78	30.729
659.10	30.258
659.43	31.059
659.75	32.590
660.08	32.717
660.41	32.093
660.73	33.181
661.06	30.984
661.38	29.346
661.71	31.724
662.03	30.511
662.36	33.453
662.68	30.582
663.01	29.912
663.33	31.191
663.66	32.601
663.98	30.192
664.31	31.332
664.63	33.141
664.96	31.034
665.28	30.853
665.61	31.818
665.93	31.607
666.26	28.853
666.58	28.598
666.91	33.458
667.23	30.476
667.56	31.953
667.88	30.800
668.21	30.078
668.53	29.344
668.86	30.845
669.18	29.735
669.50	32.008
669.83	31.000
670.15	29.724
670.48	31.151
670.80	30.784
671.13	30.624
671.45	30.512
671.77	32.015
672.10	30.000
672.42	30.097
672.75	29.186
673.07	29.552
673.39	28.968
673.72	30.034
674.04	31.034
674.37	31.306
674.69	30.159
675.01	31.048
675.34	31.107
675.66	28.652
675.98	30.037
676.31	30.273
676.63	31.559
676.95	32.184
677.28	29.435
677.60	29.528
677.92	30.518
678.25	29.616
678.57	30.783
678.89	31.570
679.22	27.875
679.54	29.573
679.86	27.627
680.18	28.358
680.51	29.874
680.83	30.442
681.15	28.966
681.48	32.124
681.80	29.706
682.12	29.895
682.44	30.217
682.77	29.255
683.09	29.924
683.41	29.070
683.73	30.740
684.06	28.229
684.38	28.623
684.70	30.880
685.02	28.055
685.34	26.955
685.67	28.549
685.99	29.294
686.31	28.198
686.63	28.436
686.96	29.338
687.28	28.664
687.60	28.956
687.92	29.260
688.24	29.382
688.56	27.931
688.89	29.038
689.21	29.159
689.53	27.647
689.85	27.022
690.17	28.333
690.49	28.287
690.82	26.733
691.14	27.530
691.46	30.975
691.78	31.860
692.10	31.743
692.42	28.393
692.74	28.494
693.06	29.815
693.39	28.653
693.71	30.075
694.03	30.669
694.35	28.381
694.67	30.390
694.99	27.021
695.31	27.594
695.63	29.654
695.95	27.743
696.27	31.429
696.59	30.088
696.91	27.928
697.23	28.352
697.56	27.088
697.88	28.409
698.20	30.132
698.52	30.871
698.84	30.353
699.16	30.612
699.48	27.824
699.80	28.723
700.12	29.913
700.44	24.654
700.76	29.929
701.08	30.266
701.40	30.570
701.72	27.114
702.04	33.690
702.36	25.131
702.68	27.139
703.00	29.340
703.32	27.340
703.64	29.095
703.96	31.026
704.28	27.273
704.60	29.873
704.91	28.827
705.23	28.219
705.55	29.526
705.87	32.727
706.19	33.742
706.51	24.699
706.83	27.666
707.15	26.455
707.47	26.869
707.79	28.166
708.11	25.212
708.43	25.591
708.74	25.893
709.06	29.002
709.38	28.873
709.70	32.258
710.02	27.390
710.34	28.723
710.66	28.212
710.98	30.601
711.29	28.571
711.61	28.531
711.93	31.339
712.25	27.838
712.57	29.794
712.89	32.647
713.20	28.107
713.52	27.457
713.84	24.234
714.16	29.474
714.48	26.804
714.80	30.909
715.11	28.084
715.43	26.525
715.75	28.684
716.07	27.348
716.39	29.508
716.70	27.711
717.02	30.164
717.34	30.662
717.66	27.517
717.97	29.110
718.29	29.210
718.61	26.974
718.93	28.803
719.24	26.087
719.56	28.221
719.88	28.529
720.20	27.419
720.51	25.155
720.83	28.750
721.15	25.329
721.46	26.027
721.78	25.667
722.10	29.773
722.42	25.168
722.73	25.806
723.05	28.421
723.37	29.167
723.68	27.599
724.00	27.076
724.32	28.521
724.63	27.972
724.95	31.915
725.27	28.571
725.58	26.502
725.90	32.414
726.22	28.213
726.53	25.325
726.85	27.987
727.16	30.211
727.48	30.887
727.80	28.146
728.11	25.795
728.43	29.630
728.74	28.094
729.06	27.483
729.38	28.247
729.69	26.510
730.01	26.786
730.32	25.455
730.64	26.415
730.96	27.640
731.27	29.609
731.59	30.220
731.90	25.974
732.22	26.042
732.53	27.901
732.85	28.857
733.16	28.152
733.48	26.524
733.80	28.412
734.11	23.932
734.43	30.270
734.74	31.139
735.06	26.382
735.37	27.838
735.69	26.216
736.00	29.096
736.32	25.876
736.63	25.833
736.95	28.161
737.26	25.758
737.58	26.364
737.89	29.118
738.21	26.606
738.52	27.213
738.83	29.693
739.15	24.113
739.46	28.912
739.78	26.687
740.09	26.648
740.41	27.988
740.72	26.667
741.04	24.919
741.35	30.877
741.66	26.667
741.98	34.016
742.29	28.452
742.61	31.579
742.92	24.615
743.23	27.076
743.55	21.318
743.86	28.400
744.18	26.860
744.49	24.895
744.80	30.453
745.12	34.177
745.43	26.016
745.74	25.000
746.06	27.119
746.37	29.958
746.68	26.423
747.00	28.750
747.31	30.472
747.62	29.615
747.94	25.101
748.25	28.112
748.56	27.347
748.88	26.068
749.19	30.172
749.50	25.974
749.82	28.916
750.13	29.893
750.44	26.000
750.75	27.692
751.07	27.077
751.38	24.606
751.69	23.642
752.01	26.214
752.32	28.431
752.63	26.190
752.94	27.682
753.26	26.022
753.57	26.296
753.88	26.966
754.19	25.723
754.51	23.794
754.82	29.582
755.13	25.574
755.44	28.669
755.75	29.934
756.07	27.463
756.38	27.987
756.69	28.012
757.00	24.100
757.31	24.590
757.63	23.274
757.94	25.587
758.25	22.799
758.56	22.440
758.87	25.682
759.18	25.867
759.50	25.779
759.81	28.011
760.12	25.876
760.43	27.865
760.74	26.108
761.05	25.000
761.36	22.169
761.67	24.619
761.99	23.514
762.30	25.305
762.61	25.743
762.92	29.478
763.23	31.086
763.54	30.576
763.85	25.086
764.16	26.263
764.47	28.873
764.78	29.393
765.10	24.340
765.41	26.667
765.72	25.397
766.03	31.073
766.34	24.138
766.65	24.739
766.96	31.873
767.27	28.571
767.58	27.363
767.89	33.654
768.20	29.108
768.51	31.944
768.82	27.711
769.13	27.652
769.44	19.231
769.75	26.354
770.06	30.000
770.37	27.559
770.68	28.936
770.99	23.077
771.30	31.481
771.61	27.376
771.92	24.444
772.23	29.960
772.54	27.778
772.85	36.866
773.16	29.524
773.47	21.693
773.78	28.649
774.09	34.091
774.39	34.000
774.70	31.694
775.01	31.707
775.32	27.059
775.63	34.356
775.94	29.299
776.25	34.194
776.56	32.692
776.87	34.014
777.18	27.586
777.48	34.266
777.79	23.649
778.10	25.000
778.41	28.472
778.72	31.724
779.03	30.864
779.34	30.909
779.65	28.497
779.95	28.333
780.26	31.818
780.57	33.548
780.88	28.986
781.19	33.548
781.50	34.706
781.80	29.570
782.11	29.101
782.42	24.747
782.73	23.952
783.04	31.285
783.34	22.424
783.65	25.490
783.96	32.298
784.27	29.167
784.57	32.450
784.88	35.714
785.19	33.071
785.50	26.772
785.81	30.827
786.11	33.077
786.42	28.058
786.73	32.374
787.04	36.090
787.34	31.148
787.65	34.400
787.96	31.343
788.26	35.664
788.57	34.266
788.88	29.605
789.19	32.680
789.49	36.301
789.80	27.660
790.11	33.858
790.41	28.906
790.72	38.136
791.03	28.155
791.33	28.696
791.64	43.860
791.95	25.893
792.25	41.905
792.56	33.036
792.87	38.542
793.17	35.714
793.48	33.333
793.79	27.711
794.09	23.853
794.40	37.615
794.70	24.490
795.01	24.675
795.32	37.671
795.62	32.394
795.93	34.091
796.23	37.705
796.54	38.393
796.85	34.043
797.15	38.043
797.46	42.466
797.76	27.500
798.07	38.043
798.37	27.835
798.68	45.455
798.99	36.782
799.29	37.079
799.60	32.979
799.90	40.964
800.21	43.077
800.51	32.836
800.82	23.529
801.12	23.288
801.43	33.824
801.73	35.593
802.04	31.818
802.34	53.333
802.65	45.763
802.95	31.343
803.26	37.288
803.56	38.356
803.87	32.857
804.17	31.507
804.48	24.561
804.78	37.500
805.09	32.759
805.39	45.946
805.70	30.986
806.00	32.927
806.30	32.530
806.61	30.137
806.91	38.462
807.22	34.444
807.52	26.437
807.83	44.444
808.13	39.759
808.43	31.461
808.74	37.500
809.04	35.294
809.35	40.000
809.65	37.143
809.95	45.205
810.26	47.368
810.56	46.552
810.86	54.412
811.17	36.842
811.47	54.098
811.77	37.778
812.08	49.153
812.38	58.333
812.69	44.828
812.99	47.170
813.29	43.590
813.59	52.000
813.90	38.596
814.20	49.091
814.50	53.521
814.81	44.872
815.11	42.623
815.41	43.284
815.72	62.069
816.02	39.286
816.32	57.778
816.62	50.000
816.93	51.111
817.23	51.852
817.53	55.319
817.84	52.381
818.14	55.882
818.44	51.020
818.74	40.000
819.04	43.590
819.35	42.857
819.65	53.846
819.95	54.717
820.25	68.889
820.56	47.619
820.86	59.375
821.16	56.410
821.46	55.814
821.76	30.000
822.07	37.500
822.37	63.043
822.67	46.809
822.97	18.919
823.27	47.500
823.57	65.306
823.88	68.889
824.18	60.000
824.48	33.333
824.78	56.000
825.08	54.545
825.38	73.333
825.69	61.702
825.99	69.444
826.29	37.143
826.59	43.590
826.89	23.256
827.19	46.000
827.49	50.000
827.79	33.333
828.09	37.838
828.39	53.333
828.70	56.098
829.00	41.860
829.30	78.571
829.60	64.706
829.90	34.783
830.20	77.143
830.50	55.172
830.80	55.556
831.10	57.692
831.40	73.529
831.70	52.381
832.00	96.774
832.30	64.706
832.60	100.000
832.90	61.538
833.20	89.474
833.50	55.000
833.80	73.684
834.10	66.667
834.40	38.889
834.70	65.625
835.00	11.429
835.30	67.647
835.60	60.000
835.90	52.000
836.20	50.000
836.50	104.000
836.80	36.364
837.10	40.741
837.40	70.370
837.70	87.500
838.00	89.286
838.30	47.826
838.60	103.448
838.90	121.429
839.19	39.130
839.49	50.000
839.79	78.261
840.09	106.250
840.39	75.000
840.69	112.903
840.99	50.000
841.29	86.667
841.59	131.579
841.88	82.051
842.18	69.231
842.48	120.000
842.78	70.000
843.08	83.333
843.38	64.516
843.68	77.778
843.97	61.765
844.27	93.750
844.57	121.053
844.87	160.000
845.17	120.000
845.47	119.048
845.76	85.714
846.06	200.000
846.36	123.529
846.66	84.615
846.96	46.667
847.25	58.824
847.55	104.348
847.85	95.000
848.15	76.471
848.44	118.182
848.74	76.190
849.04	75.000
849.34	93.750
849.63	108.696
849.93	-800.000
850.23	206.667
850.53	126.923
850.82	118.182
851.12	86.364
851.42	109.091
851.71	153.846
852.01	75.000
852.31	123.077
852.61	47.368
852.90	208.333
853.20	83.333
853.50	155.556
853.79	61.905
854.09	72.727
854.39	133.333
854.68	74.194
854.98	46.154
855.28	83.333
855.57	82.143
855.87	36.000
856.17	63.636
856.46	74.074
856.76	22.222
857.05	26.087
857.35	45.833
857.65	123.077
857.94	133.333
858.24	66.667
858.53	65.217
858.83	152.941
859.13	88.235
859.42	129.412
859.72	121.429
860.01	70.000
860.31	122.222
860.60	190.000
860.90	146.667
861.20	66.667
861.49	69.231
861.79	93.333
862.08	107.692
862.38	65.625
862.67	94.118
862.97	137.500
863.26	200.000
863.56	120.000
863.85	127.273
864.15	116.667
864.44	833.333
864.74	92.857
865.03	181.250
865.33	90.000
865.62	45.161
865.92	122.727
866.21	104.348
866.51	135.714
866.80	200.000
867.10	116.667
867.39	83.333
867.69	-1400.000
867.98	271.429
868.27	88.235
868.57	1200.000
868.86	140.000
869.16	71.429
869.45	120.833
869.75	227.273
870.04	157.143
870.33	125.000
870.63	114.286
870.92	325.000
871.22	200.000
871.51	145.455
871.80	266.667
872.10	850.000
>>>>>End Processed Spectral Data<<<<<
