SpectraSuite Data File
++++++++++++++++++++++++++++++++++++
Date: Thu May 14 14:35:23 PDT 2015
User: schluterlab
Dark Spectrum Present: Yes
Reference Spectrum Present: Yes
Number of Sampled Component Spectra: 1
Spectrometers: USB2E3373
Integration Time (usec): 3000 (USB2E3373)
Spectra Averaged: 3 (USB2E3373)
Boxcar Smoothing: 0 (USB2E3373)
Correct for Electrical Dark: No (USB2E3373)
Strobe/Lamp Enabled: No (USB2E3373)
Correct for Detector Non-linearity: No (USB2E3373)
Correct for Stray Light: No (USB2E3373)
Number of Pixels in Processed Spectrum: 2048
>>>>>Begin Processed Spectral Data<<<<<
178.53	0.000
178.91	-214.286
179.29	700.000
179.67	1700.000
180.04	-14.286
180.42	-180.000
180.80	-400.000
181.18	2400.000
181.56	2100.000
181.94	-300.000
182.31	325.000
182.69	-666.667
183.07	1050.000
183.45	-75.000
183.83	350.000
184.20	433.333
184.58	-1000.000
184.96	425.000
185.34	188.889
185.72	420.000
186.09	-144.444
186.47	-700.000
186.85	-340.000
187.23	211.111
187.61	2300.000
187.98	-340.000
188.36	-275.000
188.74	250.000
189.12	700.000
189.49	187.500
189.87	137.500
190.25	122.222
190.63	340.000
191.00	133.333
191.38	0.000
191.76	500.000
192.14	250.000
192.51	-1100.000
192.89	500.000
193.27	0.000
193.65	214.286
194.02	0.000
194.40	357.143
194.78	-85.714
195.15	0.000
195.53	218.182
195.91	0.000
196.29	700.000
196.66	176.923
197.04	800.000
197.42	214.286
197.79	700.000
198.17	375.000
198.55	242.857
198.92	188.889
199.30	275.000
199.68	181.818
200.05	128.571
200.43	350.000
200.81	-157.143
201.18	0.000
201.56	-77.778
201.94	0.000
202.31	-533.333
202.69	133.333
203.07	-2300.000
203.44	277.778
203.82	550.000
204.19	200.000
204.57	350.000
204.95	262.500
205.32	1100.000
205.70	-400.000
206.08	366.667
206.45	466.667
206.83	-280.000
207.20	400.000
207.58	320.000
207.96	283.333
208.33	366.667
208.71	-125.000
209.08	450.000
209.46	0.000
209.84	16.667
210.21	-750.000
210.59	-750.000
210.96	-266.667
211.34	725.000
211.71	100.000
212.09	1500.000
212.46	0.000
212.84	-200.000
213.22	320.000
213.59	550.000
213.97	290.000
214.34	333.333
214.72	-183.333
215.09	400.000
215.47	0.000
215.84	-185.714
216.22	-500.000
216.59	400.000
216.97	220.000
217.34	225.000
217.72	225.000
218.09	400.000
218.47	450.000
218.84	0.000
219.22	-360.000
219.59	117.647
219.97	145.000
220.34	-750.000
220.72	255.556
221.09	276.923
221.47	400.000
221.84	190.000
222.22	142.857
222.59	0.000
222.97	237.500
223.34	300.000
223.72	900.000
224.09	375.000
224.46	225.000
224.84	500.000
225.21	114.286
225.59	450.000
225.96	350.000
226.34	96.154
226.71	-116.667
227.08	900.000
227.46	80.000
227.83	275.000
228.21	105.263
228.58	-187.500
228.95	-350.000
229.33	125.000
229.70	160.000
230.08	194.737
230.45	-110.000
230.82	733.333
231.20	135.714
231.57	183.333
231.95	154.545
232.32	236.364
232.69	120.000
233.07	475.000
233.44	135.294
233.81	240.000
234.19	183.333
234.56	109.091
234.93	100.000
235.31	115.789
235.68	161.111
236.05	55.000
236.43	123.077
236.80	132.000
237.17	92.593
237.55	93.939
237.92	110.000
238.29	67.742
238.67	63.636
239.04	91.667
239.41	64.286
239.79	84.783
240.16	50.000
240.53	80.435
240.91	66.667
241.28	63.934
241.65	73.134
242.02	60.811
242.40	55.385
242.77	60.000
243.14	51.220
243.51	57.895
243.89	48.718
244.26	56.436
244.63	59.804
245.00	52.336
245.38	47.368
245.75	39.823
246.12	52.381
246.49	42.636
246.87	42.143
247.24	39.735
247.61	46.711
247.98	49.664
248.36	48.765
248.73	42.945
249.10	41.530
249.47	48.259
249.84	52.880
250.22	40.933
250.59	42.222
250.96	38.636
251.33	42.347
251.70	43.162
252.08	38.750
252.45	39.754
252.82	42.975
253.19	41.016
253.56	42.966
253.94	37.692
254.31	42.803
254.68	42.657
255.05	41.368
255.42	39.116
255.79	37.217
256.16	41.060
256.54	40.397
256.91	41.967
257.28	40.656
257.65	37.898
258.02	35.988
258.39	38.177
258.76	38.226
259.14	41.667
259.51	38.040
259.88	41.360
260.25	38.611
260.62	39.726
260.99	39.891
261.36	39.142
261.73	37.401
262.10	41.209
262.47	39.946
262.85	38.384
263.22	38.182
263.59	34.474
263.96	39.386
264.33	38.619
264.70	37.531
265.07	38.663
265.44	38.776
265.81	35.648
266.18	39.909
266.55	38.839
266.92	37.358
267.29	35.886
267.66	36.364
268.03	39.520
268.40	34.864
268.77	37.813
269.14	35.242
269.51	34.868
269.88	39.754
270.25	36.419
270.62	37.764
270.99	38.788
271.36	36.238
271.73	33.792
272.10	37.074
272.47	38.277
272.84	34.940
273.21	34.068
273.58	36.492
273.95	36.154
274.32	35.551
274.69	35.203
275.06	36.081
275.43	34.750
275.80	35.626
276.17	33.519
276.54	34.701
276.91	34.884
277.28	34.901
277.65	34.291
278.02	35.662
278.39	33.877
278.76	35.677
279.13	34.929
279.50	34.364
279.87	34.347
280.23	33.099
280.60	34.237
280.97	33.388
281.34	33.956
281.71	36.210
282.08	33.389
282.45	32.733
282.82	33.124
283.19	31.987
283.56	33.279
283.92	33.033
284.29	34.755
284.66	35.140
285.03	32.212
285.40	33.076
285.77	33.437
286.14	33.893
286.51	31.963
286.87	32.385
287.24	34.940
287.61	32.138
287.98	32.477
288.35	32.396
288.72	33.580
289.08	31.918
289.45	30.325
289.82	31.024
290.19	32.615
290.56	30.282
290.93	30.813
291.29	31.818
291.66	29.890
292.03	30.529
292.40	31.837
292.77	29.650
293.13	29.905
293.50	30.618
293.87	28.456
294.24	30.133
294.60	30.468
294.97	27.383
295.34	29.193
295.71	27.995
296.08	28.165
296.44	28.554
296.81	28.015
297.18	28.269
297.55	28.066
297.91	27.758
298.28	26.066
298.65	26.635
299.02	26.800
299.38	27.460
299.75	27.804
300.12	25.347
300.48	26.498
300.85	26.547
301.22	27.069
301.59	25.913
301.95	26.893
302.32	27.889
302.69	25.630
303.05	26.333
303.42	26.718
303.79	25.625
304.15	26.814
304.52	28.224
304.89	26.073
305.25	26.501
305.62	25.601
305.99	26.186
306.35	25.806
306.72	27.198
307.09	25.685
307.45	27.743
307.82	26.337
308.19	25.933
308.55	27.194
308.92	27.459
309.29	27.874
309.65	26.218
310.02	26.040
310.38	26.181
310.75	27.379
311.12	27.517
311.48	27.957
311.85	27.066
312.22	27.040
312.58	26.948
312.95	27.151
313.31	28.365
313.68	28.663
314.05	29.630
314.41	28.871
314.78	29.791
315.14	29.310
315.51	29.363
315.87	29.613
316.24	30.502
316.61	30.728
316.97	29.140
317.34	30.159
317.70	31.703
318.07	30.776
318.43	30.697
318.80	31.605
319.16	31.674
319.53	30.506
319.89	32.165
320.26	32.028
320.62	31.649
320.99	33.426
321.35	31.978
321.72	33.953
322.08	32.281
322.45	32.701
322.81	33.484
323.18	32.212
323.54	33.966
323.91	33.719
324.27	34.251
324.64	34.089
325.00	33.085
325.37	33.006
325.73	34.545
326.10	34.388
326.46	34.528
326.83	36.910
327.19	35.512
327.56	36.206
327.92	35.012
328.29	34.758
328.65	35.511
329.01	36.125
329.38	36.057
329.74	36.644
330.11	35.360
330.47	35.805
330.84	35.831
331.20	36.917
331.56	36.395
331.93	36.485
332.29	36.186
332.66	34.967
333.02	35.678
333.38	35.570
333.75	37.121
334.11	35.613
334.48	37.046
334.84	36.873
335.20	35.097
335.57	36.931
335.93	36.860
336.29	36.772
336.66	36.249
337.02	36.538
337.38	36.395
337.75	35.620
338.11	35.744
338.47	36.725
338.84	36.210
339.20	33.951
339.56	35.091
339.93	36.371
340.29	35.024
340.65	35.604
341.02	35.036
341.38	35.812
341.74	35.916
342.11	36.525
342.47	34.710
342.83	35.749
343.20	35.487
343.56	35.365
343.92	34.428
344.28	35.078
344.65	35.969
345.01	35.023
345.37	34.992
345.73	35.074
346.10	35.257
346.46	35.601
346.82	34.906
347.19	34.377
347.55	36.267
347.91	34.770
348.27	35.281
348.63	35.491
349.00	34.750
349.36	33.903
349.72	34.301
350.08	35.215
350.45	34.525
350.81	34.389
351.17	34.211
351.53	35.254
351.89	35.763
352.26	34.478
352.62	33.955
352.98	35.267
353.34	33.010
353.70	35.516
354.07	34.501
354.43	34.017
354.79	34.331
355.15	34.879
355.51	35.234
355.87	33.433
356.24	34.753
356.60	33.333
356.96	34.915
357.32	32.862
357.68	35.505
358.04	34.057
358.40	32.388
358.77	34.284
359.13	33.456
359.49	34.126
359.85	33.067
360.21	33.572
360.57	34.386
360.93	33.145
361.29	34.526
361.66	33.888
362.02	35.143
362.38	34.083
362.74	33.939
363.10	33.906
363.46	33.587
363.82	33.594
364.18	33.990
364.54	33.541
364.90	34.582
365.26	33.862
365.62	34.000
365.98	34.105
366.35	33.221
366.71	33.469
367.07	34.641
367.43	33.355
367.79	33.908
368.15	35.385
368.51	34.641
368.87	33.573
369.23	32.667
369.59	34.016
369.95	34.145
370.31	34.571
370.67	34.801
371.03	33.864
371.39	33.311
371.75	34.113
372.11	34.350
372.47	34.259
372.83	34.162
373.19	34.757
373.55	34.417
373.91	34.288
374.27	33.894
374.63	35.047
374.99	34.085
375.35	34.805
375.71	34.065
376.07	34.474
376.42	33.375
376.78	35.799
377.14	33.749
377.50	35.294
377.86	34.791
378.22	34.431
378.58	35.493
378.94	34.800
379.30	35.970
379.66	34.979
380.02	35.257
380.38	34.965
380.74	34.423
381.09	35.308
381.45	34.943
381.81	34.836
382.17	35.867
382.53	35.965
382.89	35.553
383.25	35.229
383.61	35.532
383.97	35.218
384.32	36.065
384.68	35.325
385.04	35.628
385.40	36.712
385.76	37.046
386.12	36.146
386.48	36.941
386.83	36.651
387.19	37.022
387.55	36.854
387.91	36.301
388.27	36.663
388.62	36.942
388.98	35.815
389.34	36.653
389.70	37.130
390.06	36.708
390.42	36.205
390.77	36.785
391.13	36.150
391.49	36.836
391.85	37.030
392.20	37.782
392.56	37.862
392.92	37.623
393.28	37.369
393.64	36.983
393.99	37.536
394.35	37.091
394.71	38.263
395.07	37.066
395.42	36.779
395.78	38.391
396.14	37.433
396.50	36.639
396.85	37.329
397.21	37.633
397.57	36.926
397.92	38.202
398.28	37.588
398.64	37.357
399.00	37.644
399.35	37.016
399.71	37.500
400.07	38.069
400.42	37.718
400.78	37.558
401.14	37.849
401.49	38.488
401.85	35.988
402.21	38.702
402.57	38.615
402.92	37.884
403.28	37.237
403.63	36.993
403.99	37.055
404.35	37.635
404.70	36.941
405.06	37.228
405.42	38.349
405.77	38.004
406.13	38.412
406.49	38.176
406.84	37.285
407.20	37.060
407.55	37.614
407.91	38.404
408.27	37.338
408.62	37.464
408.98	37.028
409.34	37.302
409.69	37.577
410.05	39.097
410.40	38.109
410.76	37.745
411.11	36.937
411.47	37.408
411.83	37.449
412.18	38.916
412.54	37.582
412.89	38.533
413.25	37.133
413.60	37.450
413.96	37.354
414.31	38.074
414.67	37.627
415.03	38.031
415.38	38.525
415.74	37.019
416.09	37.323
416.45	36.944
416.80	37.515
417.16	38.825
417.51	37.796
417.87	36.603
418.22	37.725
418.58	37.485
418.93	37.020
419.29	37.978
419.64	36.795
420.00	37.329
420.35	37.619
420.71	37.048
421.06	37.148
421.42	36.812
421.77	36.887
422.12	37.315
422.48	36.918
422.83	37.788
423.19	36.870
423.54	39.049
423.90	37.714
424.25	37.173
424.61	37.084
424.96	37.891
425.31	37.792
425.67	36.554
426.02	37.576
426.38	36.108
426.73	37.165
427.09	37.832
427.44	36.865
427.79	37.313
428.15	36.358
428.50	37.416
428.85	37.256
429.21	37.926
429.56	38.055
429.92	37.641
430.27	37.205
430.62	37.518
430.98	37.432
431.33	37.341
431.68	36.925
432.04	36.922
432.39	37.172
432.74	36.872
433.10	38.129
433.45	37.737
433.80	38.305
434.16	37.965
434.51	37.924
434.86	38.599
435.22	38.417
435.57	38.384
435.92	37.618
436.28	37.258
436.63	38.067
436.98	36.393
437.34	38.162
437.69	37.644
438.04	37.017
438.39	38.943
438.75	38.406
439.10	37.579
439.45	37.395
439.81	37.571
440.16	35.871
440.51	37.402
440.86	36.576
441.22	37.513
441.57	39.099
441.92	37.876
442.27	38.232
442.63	36.463
442.98	37.353
443.33	37.349
443.68	37.463
444.03	38.335
444.39	38.003
444.74	37.111
445.09	37.050
445.44	37.250
445.79	37.356
446.15	38.643
446.50	36.796
446.85	37.597
447.20	37.427
447.55	37.918
447.91	38.429
448.26	37.315
448.61	37.407
448.96	38.948
449.31	36.214
449.66	37.364
450.02	37.869
450.37	38.679
450.72	36.814
451.07	37.756
451.42	37.608
451.77	36.965
452.12	38.262
452.47	37.671
452.83	38.514
453.18	37.770
453.53	37.507
453.88	37.438
454.23	37.006
454.58	36.854
454.93	37.136
455.28	37.869
455.63	36.839
455.98	37.374
456.34	37.633
456.69	36.802
457.04	37.411
457.39	37.639
457.74	38.367
458.09	37.727
458.44	37.123
458.79	36.565
459.14	36.340
459.49	37.748
459.84	37.723
460.19	37.479
460.54	37.252
460.89	37.639
461.24	37.874
461.59	37.853
461.94	36.737
462.29	37.122
462.64	36.512
462.99	37.163
463.34	38.027
463.69	35.229
464.04	37.799
464.39	38.173
464.74	37.400
465.09	37.947
465.44	37.124
465.79	37.388
466.14	37.936
466.49	37.842
466.84	37.906
467.19	36.474
467.54	37.133
467.89	36.782
468.24	36.787
468.59	35.900
468.94	36.422
469.29	36.293
469.64	37.762
469.99	36.265
470.34	37.624
470.68	37.867
471.03	36.542
471.38	37.279
471.73	37.191
472.08	38.325
472.43	36.123
472.78	37.091
473.13	36.726
473.48	37.523
473.83	36.564
474.17	36.577
474.52	37.102
474.87	36.379
475.22	36.394
475.57	38.110
475.92	36.237
476.27	37.114
476.61	36.604
476.96	36.601
477.31	36.733
477.66	36.988
478.01	36.248
478.36	36.191
478.70	36.207
479.05	37.014
479.40	37.068
479.75	36.359
480.10	36.807
480.45	36.418
480.79	36.871
481.14	36.075
481.49	36.483
481.84	37.554
482.19	37.290
482.53	36.554
482.88	36.952
483.23	36.327
483.58	36.070
483.92	35.816
484.27	37.045
484.62	36.469
484.97	36.664
485.31	36.396
485.66	36.187
486.01	36.584
486.36	37.272
486.70	37.540
487.05	37.223
487.40	36.777
487.75	36.667
488.09	36.461
488.44	35.820
488.79	36.290
489.13	36.169
489.48	36.117
489.83	35.533
490.17	35.682
490.52	35.509
490.87	36.210
491.22	35.789
491.56	36.561
491.91	35.892
492.26	35.526
492.60	36.248
492.95	36.200
493.30	36.262
493.64	34.866
493.99	35.219
494.34	35.148
494.68	35.632
495.03	36.388
495.37	35.375
495.72	35.646
496.07	36.503
496.41	36.594
496.76	35.696
497.11	35.584
497.45	36.470
497.80	35.184
498.14	35.283
498.49	36.121
498.84	35.649
499.18	34.773
499.53	35.247
499.87	36.000
500.22	35.752
500.56	35.448
500.91	35.973
501.26	35.727
501.60	35.440
501.95	36.127
502.29	35.674
502.64	35.855
502.98	34.513
503.33	35.335
503.67	34.714
504.02	34.982
504.36	35.746
504.71	35.278
505.06	35.925
505.40	35.055
505.75	35.291
506.09	35.543
506.44	35.933
506.78	35.092
507.13	35.039
507.47	35.623
507.82	35.369
508.16	35.325
508.51	35.443
508.85	36.325
509.19	35.007
509.54	35.399
509.88	35.697
510.23	36.377
510.57	36.346
510.92	36.188
511.26	34.584
511.61	34.862
511.95	35.286
512.30	35.647
512.64	34.583
512.98	35.418
513.33	35.232
513.67	36.155
514.02	35.105
514.36	35.345
514.70	35.156
515.05	35.297
515.39	35.171
515.74	35.631
516.08	34.918
516.42	35.217
516.77	35.436
517.11	34.193
517.46	34.942
517.80	35.382
518.14	35.745
518.49	35.412
518.83	34.380
519.17	35.595
519.52	36.006
519.86	34.794
520.20	35.676
520.55	35.597
520.89	34.741
521.23	35.567
521.58	35.593
521.92	35.184
522.26	33.906
522.61	35.185
522.95	34.948
523.29	33.851
523.64	34.753
523.98	35.311
524.32	36.562
524.66	34.889
525.01	35.164
525.35	35.210
525.69	33.875
526.04	34.788
526.38	34.943
526.72	34.198
527.06	34.839
527.41	35.335
527.75	35.214
528.09	35.360
528.43	34.517
528.78	35.029
529.12	33.830
529.46	33.165
529.80	34.668
530.15	34.377
530.49	34.282
530.83	34.534
531.17	34.528
531.51	34.597
531.86	35.577
532.20	34.268
532.54	33.692
532.88	35.030
533.22	34.532
533.57	35.141
533.91	35.466
534.25	35.105
534.59	35.517
534.93	34.918
535.27	35.099
535.62	36.271
535.96	35.328
536.30	35.311
536.64	35.015
536.98	35.055
537.32	35.185
537.66	35.558
538.01	34.622
538.35	35.688
538.69	34.315
539.03	35.622
539.37	35.159
539.71	35.435
540.05	35.791
540.39	35.024
540.73	34.791
541.07	35.009
541.42	34.613
541.76	34.282
542.10	35.344
542.44	35.201
542.78	35.645
543.12	35.221
543.46	34.493
543.80	34.173
544.14	34.949
544.48	35.106
544.82	37.104
545.16	35.242
545.50	35.830
545.84	35.334
546.18	36.296
546.52	35.287
546.86	34.843
547.20	34.542
547.54	34.145
547.88	35.322
548.22	34.854
548.56	34.816
548.90	34.567
549.24	34.407
549.58	34.826
549.92	34.247
550.26	35.275
550.60	34.205
550.94	35.188
551.28	34.389
551.62	35.108
551.96	34.110
552.30	35.309
552.64	35.159
552.98	35.434
553.32	34.920
553.66	36.013
554.00	35.435
554.34	35.006
554.68	34.087
555.02	35.085
555.36	35.240
555.69	34.145
556.03	34.868
556.37	34.919
556.71	35.384
557.05	34.249
557.39	35.036
557.73	34.412
558.07	35.298
558.41	34.751
558.75	35.632
559.08	34.656
559.42	35.734
559.76	35.075
560.10	34.829
560.44	34.894
560.78	34.750
561.12	35.714
561.45	35.584
561.79	35.165
562.13	34.258
562.47	33.970
562.81	35.190
563.15	34.975
563.48	35.301
563.82	35.308
564.16	34.888
564.50	35.101
564.84	34.808
565.17	35.824
565.51	34.983
565.85	34.679
566.19	34.965
566.52	33.704
566.86	35.144
567.20	34.312
567.54	34.732
567.88	36.188
568.21	36.314
568.55	36.163
568.89	36.360
569.23	36.502
569.56	36.694
569.90	36.386
570.24	36.155
570.57	36.498
570.91	35.946
571.25	36.650
571.59	36.682
571.92	36.834
572.26	36.580
572.60	36.336
572.93	36.265
573.27	36.415
573.61	36.289
573.95	37.024
574.28	36.136
574.62	36.357
574.96	36.259
575.29	35.977
575.63	36.013
575.97	36.287
576.30	36.566
576.64	36.149
576.98	36.241
577.31	36.706
577.65	36.814
577.98	36.860
578.32	36.753
578.66	36.562
578.99	36.269
579.33	36.861
579.67	36.469
580.00	36.592
580.34	36.736
580.67	36.143
581.01	36.802
581.35	37.015
581.68	36.522
582.02	36.840
582.35	37.603
582.69	37.376
583.02	37.526
583.36	36.537
583.70	37.014
584.03	35.901
584.37	36.658
584.70	36.381
585.04	36.108
585.37	36.522
585.71	36.850
586.04	36.680
586.38	36.769
586.72	35.598
587.05	35.968
587.39	36.973
587.72	36.364
588.06	37.041
588.39	36.769
588.73	36.429
589.06	36.456
589.40	37.093
589.73	36.440
590.07	36.538
590.40	36.139
590.73	36.656
591.07	36.374
591.40	35.692
591.74	36.645
592.07	35.810
592.41	35.726
592.74	36.067
593.08	36.115
593.41	36.920
593.75	37.040
594.08	36.958
594.41	36.154
594.75	36.035
595.08	35.935
595.42	36.201
595.75	35.841
596.09	36.733
596.42	36.403
596.75	36.434
597.09	36.323
597.42	34.803
597.75	36.221
598.09	36.032
598.42	36.510
598.76	35.804
599.09	36.419
599.42	36.105
599.76	35.688
600.09	37.037
600.42	35.469
600.76	36.394
601.09	36.110
601.42	36.560
601.76	35.690
602.09	35.847
602.42	35.296
602.76	36.347
603.09	36.087
603.42	36.199
603.76	36.646
604.09	36.870
604.42	36.330
604.76	35.236
605.09	36.219
605.42	36.404
605.75	35.115
606.09	36.581
606.42	35.972
606.75	35.645
607.09	36.214
607.42	35.992
607.75	37.124
608.08	36.148
608.42	34.744
608.75	35.531
609.08	35.314
609.41	36.171
609.75	35.848
610.08	36.588
610.41	35.556
610.74	35.798
611.07	36.101
611.41	36.368
611.74	36.212
612.07	35.484
612.40	35.551
612.73	35.648
613.07	36.137
613.40	35.852
613.73	36.158
614.06	36.555
614.39	35.180
614.72	35.856
615.06	35.178
615.39	35.524
615.72	36.540
616.05	35.308
616.38	35.772
616.71	35.893
617.05	35.357
617.38	36.383
617.71	35.691
618.04	35.618
618.37	36.284
618.70	35.747
619.03	35.125
619.36	35.820
619.69	35.042
620.03	34.777
620.36	34.724
620.69	35.904
621.02	35.236
621.35	36.430
621.68	35.213
622.01	35.516
622.34	33.821
622.67	34.983
623.00	32.524
623.33	35.103
623.66	35.863
623.99	35.023
624.32	36.387
624.65	35.328
624.99	35.696
625.32	35.663
625.65	36.413
625.98	34.712
626.31	35.294
626.64	34.432
626.97	34.584
627.30	33.485
627.63	33.983
627.96	35.736
628.29	35.409
628.62	33.333
628.95	34.882
629.28	33.900
629.61	35.269
629.94	34.728
630.26	33.814
630.59	35.060
630.92	33.333
631.25	34.794
631.58	35.687
631.91	35.520
632.24	36.695
632.57	34.061
632.90	32.999
633.23	34.898
633.56	33.469
633.89	32.128
634.22	34.719
634.55	34.551
634.88	35.065
635.20	36.383
635.53	35.028
635.86	34.886
636.19	34.252
636.52	34.283
636.85	34.321
637.18	34.304
637.51	35.269
637.83	34.994
638.16	34.562
638.49	32.864
638.82	34.611
639.15	32.990
639.48	34.065
639.81	33.949
640.13	36.985
640.46	32.727
640.79	31.863
641.12	34.410
641.45	34.881
641.77	35.045
642.10	33.727
642.43	34.840
642.76	34.011
643.09	34.110
643.41	32.913
643.74	33.655
644.07	35.862
644.40	34.088
644.73	33.091
645.05	34.214
645.38	34.820
645.71	32.258
646.04	35.581
646.36	33.285
646.69	34.049
647.02	35.474
647.35	34.656
647.67	33.011
648.00	34.395
648.33	34.384
648.66	33.524
648.98	34.694
649.31	34.506
649.64	35.458
649.96	33.289
650.29	35.188
650.62	33.805
650.94	33.934
651.27	32.186
651.60	33.918
651.92	34.195
652.25	32.996
652.58	34.525
652.90	32.558
653.23	33.803
653.56	35.235
653.88	34.972
654.21	32.817
654.54	33.092
654.86	32.861
655.19	34.881
655.52	34.158
655.84	33.832
656.17	43.608
656.49	62.236
656.82	69.212
657.15	53.870
657.47	39.988
657.80	29.033
658.13	22.483
658.45	29.417
658.78	35.261
659.10	33.981
659.43	34.051
659.75	34.617
660.08	33.782
660.41	33.995
660.73	33.067
661.06	33.333
661.38	33.493
661.71	33.448
662.03	32.981
662.36	35.778
662.68	35.272
663.01	33.097
663.33	35.539
663.66	34.615
663.98	32.885
664.31	36.023
664.63	31.985
664.96	35.209
665.28	32.486
665.61	33.566
665.93	35.357
666.26	33.513
666.58	33.948
666.91	34.393
667.23	34.286
667.56	35.108
667.88	35.600
668.21	33.789
668.53	32.046
668.86	33.988
669.18	35.234
669.50	35.785
669.83	34.200
670.15	32.480
670.48	35.913
670.80	32.314
671.13	33.081
671.45	30.315
671.77	34.652
672.10	32.333
672.42	33.495
672.75	34.562
673.07	32.687
673.39	33.128
673.72	33.725
674.04	32.586
674.37	33.274
674.69	34.215
675.01	36.381
675.34	33.779
675.66	31.461
675.98	31.903
676.31	34.570
676.63	34.601
676.95	33.908
677.28	30.847
677.60	32.677
677.92	34.549
678.25	36.197
678.57	35.765
678.89	36.689
679.22	33.449
679.54	35.556
679.86	32.542
680.18	33.333
680.51	33.805
680.83	33.388
681.15	33.621
681.48	35.406
681.80	36.269
682.12	36.014
682.44	34.725
682.77	35.284
683.09	32.576
683.41	36.240
683.73	31.499
684.06	36.162
684.38	33.810
684.70	33.393
685.02	34.940
685.34	32.612
685.67	34.858
685.99	32.822
686.31	32.849
686.63	36.809
686.96	33.754
687.28	34.528
687.60	34.175
687.92	33.441
688.24	36.227
688.56	31.379
688.89	33.575
689.21	33.268
689.53	34.706
689.85	36.095
690.17	32.593
690.49	34.263
690.82	32.673
691.14	35.830
691.46	33.078
691.78	35.359
692.10	35.596
692.42	32.679
692.74	33.212
693.06	32.407
693.39	34.725
693.71	34.023
694.03	32.156
694.35	34.857
694.67	35.524
694.99	35.745
695.31	37.086
695.63	35.065
695.95	32.919
696.27	32.308
696.59	34.956
696.91	32.658
697.23	34.945
697.56	35.031
697.88	32.955
698.20	35.970
698.52	35.985
698.84	34.719
699.16	36.122
699.48	37.448
699.80	33.830
700.12	36.463
700.44	35.253
700.76	36.580
701.08	34.625
701.40	38.083
701.72	34.328
702.04	35.294
702.36	30.890
702.68	32.763
703.00	32.763
703.32	34.483
703.64	33.741
703.96	36.277
704.28	37.101
704.60	33.924
704.91	34.439
705.23	36.164
705.55	32.033
705.87	40.909
706.19	36.810
706.51	31.928
706.83	34.582
707.15	31.217
707.47	32.944
707.79	34.498
708.11	34.110
708.43	33.763
708.74	31.920
709.06	34.571
709.38	34.977
709.70	35.732
710.02	31.783
710.34	38.032
710.66	36.313
710.98	34.426
711.29	34.066
711.61	34.463
711.93	38.462
712.25	35.135
712.57	40.118
712.89	38.529
713.20	35.799
713.52	39.884
713.84	34.540
714.16	35.000
714.48	37.113
714.80	38.701
715.11	38.058
715.43	35.013
715.75	34.474
716.07	36.740
716.39	35.246
716.70	34.036
717.02	36.393
717.34	33.101
717.66	37.584
717.97	32.534
718.29	36.770
718.61	37.171
718.93	37.864
719.24	35.093
719.56	32.822
719.88	36.937
720.20	35.806
720.51	33.230
720.83	34.375
721.15	33.882
721.46	34.247
721.78	35.667
722.10	32.686
722.42	33.221
722.73	32.258
723.05	40.000
723.37	38.542
723.68	35.125
724.00	35.379
724.32	32.746
724.63	36.014
724.95	40.071
725.27	33.798
725.58	34.276
725.90	34.483
726.22	34.796
726.53	37.662
726.85	39.308
727.16	33.837
727.48	38.226
727.80	38.742
728.11	32.862
728.43	37.374
728.74	35.117
729.06	42.384
729.38	34.740
729.69	40.940
730.01	35.119
730.32	33.030
730.64	39.308
730.96	35.093
731.27	35.196
731.59	36.264
731.90	34.026
732.22	33.854
732.53	34.530
732.85	36.000
733.16	35.191
733.48	38.110
733.80	35.376
734.11	33.618
734.43	37.568
734.74	35.190
735.06	34.422
735.37	37.297
735.69	38.378
736.00	35.593
736.32	36.388
736.63	34.444
736.95	36.207
737.26	37.879
737.58	33.636
737.89	37.059
738.21	34.557
738.52	36.066
738.83	37.543
739.15	36.525
739.46	40.136
739.78	37.730
740.09	35.530
740.41	36.443
740.72	37.333
741.04	39.482
741.35	41.754
741.66	41.176
741.98	40.574
742.29	38.912
742.61	39.035
742.92	40.769
743.23	36.101
743.55	35.659
743.86	35.600
744.18	35.124
744.49	31.646
744.80	35.391
745.12	39.241
745.43	39.024
745.74	36.207
746.06	36.864
746.37	38.819
746.68	39.837
747.00	40.000
747.31	35.193
747.62	43.077
747.94	37.247
748.25	34.137
748.56	34.694
748.88	35.897
749.19	42.241
749.50	34.632
749.82	34.137
750.13	41.637
750.44	33.333
750.75	35.692
751.07	36.000
751.38	36.593
751.69	40.256
752.01	36.570
752.32	35.294
752.63	40.136
752.94	37.370
753.26	34.572
753.57	34.815
753.88	33.708
754.19	35.370
754.51	36.977
754.82	36.013
755.13	39.016
755.44	35.495
755.75	38.158
756.07	41.493
756.38	38.994
756.69	37.651
757.00	34.349
757.31	34.426
757.63	34.271
757.94	34.742
758.25	34.763
758.56	36.166
758.87	35.682
759.18	35.467
759.50	38.527
759.81	35.854
760.12	35.040
760.43	34.635
760.74	37.192
761.05	35.500
761.36	32.289
761.67	35.025
761.99	35.135
762.30	34.756
762.61	33.993
762.92	32.463
763.23	37.453
763.54	37.050
763.85	37.801
764.16	37.374
764.47	40.493
764.78	37.061
765.10	36.070
765.41	37.692
765.72	35.450
766.03	38.136
766.34	33.856
766.65	36.934
766.96	35.857
767.27	37.327
767.58	36.318
767.89	42.788
768.20	38.028
768.51	43.981
768.82	34.538
769.13	37.500
769.44	32.308
769.75	41.155
770.06	43.077
770.37	40.551
770.68	35.319
770.99	36.437
771.30	37.778
771.61	38.403
771.92	36.296
772.23	40.891
772.54	35.185
772.85	46.083
773.16	40.000
773.47	35.450
773.78	36.216
774.09	43.182
774.39	41.000
774.70	40.984
775.01	35.366
775.32	36.471
775.63	46.012
775.94	34.395
776.25	36.774
776.56	48.718
776.87	44.218
777.18	40.690
777.48	42.657
777.79	29.730
778.10	33.824
778.41	41.667
778.72	42.069
779.03	41.358
779.34	40.000
779.65	37.306
779.95	45.556
780.26	37.500
780.57	46.452
780.88	50.725
781.19	38.065
781.50	46.471
781.80	44.624
782.11	43.915
782.42	33.333
782.73	37.725
783.04	32.402
783.34	35.758
783.65	38.562
783.96	42.236
784.27	40.476
784.57	49.669
784.88	41.429
785.19	39.370
785.50	39.370
785.81	44.361
786.11	48.462
786.42	40.288
786.73	39.568
787.04	48.120
787.34	41.803
787.65	49.600
787.96	44.030
788.26	49.650
788.57	46.154
788.88	44.079
789.19	43.137
789.49	36.986
789.80	38.298
790.11	42.520
790.41	45.312
790.72	44.915
791.03	35.922
791.33	45.217
791.64	40.351
791.95	37.500
792.25	46.667
792.56	41.964
792.87	36.458
793.17	43.750
793.48	40.625
793.79	44.578
794.09	46.789
794.40	49.541
794.70	36.735
795.01	41.558
795.32	43.151
795.62	38.732
795.93	40.152
796.23	42.623
796.54	38.393
796.85	34.043
797.15	43.478
797.46	65.753
797.76	45.000
798.07	43.478
798.37	27.835
798.68	41.558
798.99	41.379
799.29	42.697
799.60	48.936
799.90	60.241
800.21	52.308
800.51	34.328
800.82	45.588
801.12	39.726
801.43	26.471
801.73	47.458
802.04	56.061
802.34	56.667
802.65	66.102
802.95	64.179
803.26	52.542
803.56	43.836
803.87	45.714
804.17	49.315
804.48	42.105
804.78	59.722
805.09	51.724
805.39	56.757
805.70	52.113
806.00	57.317
806.30	42.169
806.61	50.685
806.91	45.192
807.22	52.222
807.52	29.885
807.83	58.333
808.13	55.422
808.43	51.685
808.74	51.250
809.04	35.294
809.35	56.000
809.65	48.571
809.95	53.425
810.26	40.351
810.56	63.793
810.86	50.000
811.17	43.860
811.47	36.066
811.77	73.333
812.08	49.153
812.38	65.000
812.69	55.172
812.99	52.830
813.29	41.026
813.59	58.000
813.90	64.912
814.20	56.364
814.50	60.563
814.81	46.154
815.11	67.213
815.41	49.254
815.72	63.793
816.02	53.571
816.32	91.111
816.62	75.000
816.93	44.444
817.23	55.556
817.53	61.702
817.84	83.333
818.14	91.176
818.44	57.143
818.74	71.111
819.04	53.846
819.35	54.286
819.65	50.000
819.95	69.811
820.25	66.667
820.56	54.762
820.86	84.375
821.16	69.231
821.46	55.814
821.76	44.000
822.07	58.929
822.37	80.435
822.67	57.447
822.97	48.649
823.27	57.500
823.57	65.306
823.88	71.111
824.18	52.500
824.48	66.667
824.78	108.000
825.08	81.818
825.38	62.222
825.69	51.064
825.99	66.667
826.29	51.429
826.59	66.667
826.89	51.163
827.19	68.000
827.49	97.059
827.79	89.583
828.09	43.243
828.39	90.000
828.70	80.488
829.00	62.791
829.30	92.857
829.60	91.176
829.90	69.565
830.20	62.857
830.50	106.897
830.80	66.667
831.10	96.154
831.40	111.765
831.70	147.619
832.00	67.742
832.30	88.235
832.60	66.667
832.90	76.923
833.20	84.211
833.50	115.000
833.80	84.211
834.10	42.857
834.40	47.222
834.70	106.250
835.00	42.857
835.30	79.412
835.60	76.667
835.90	92.000
836.20	50.000
836.50	112.000
836.80	51.515
837.10	70.370
837.40	88.889
837.70	100.000
838.00	100.000
838.30	82.609
838.60	117.241
838.90	85.714
839.19	13.043
839.49	116.667
839.79	121.739
840.09	118.750
840.39	80.000
840.69	129.032
840.99	42.857
841.29	173.333
841.59	142.105
841.88	82.051
842.18	92.308
842.48	180.000
842.78	90.000
843.08	80.000
843.38	116.129
843.68	105.556
843.97	85.294
844.27	150.000
844.57	78.947
844.87	140.000
845.17	100.000
845.47	180.952
845.76	66.667
846.06	300.000
846.36	52.941
846.66	50.000
846.96	66.667
847.25	105.882
847.55	82.609
847.85	145.000
848.15	164.706
848.44	163.636
848.74	119.048
849.04	83.333
849.34	181.250
849.63	104.348
849.93	-850.000
850.23	100.000
850.53	73.077
850.82	163.636
851.12	150.000
851.42	236.364
851.71	269.231
852.01	70.000
852.31	130.769
852.61	157.895
852.90	233.333
853.20	144.444
853.50	288.889
853.79	85.714
854.09	77.273
854.39	75.000
854.68	67.742
854.98	88.462
855.28	183.333
855.57	71.429
855.87	88.000
856.17	81.818
856.46	114.815
856.76	77.778
857.05	91.304
857.35	87.500
857.65	146.154
857.94	119.048
858.24	100.000
858.53	152.174
858.83	141.176
859.13	141.176
859.42	158.824
859.72	142.857
860.01	50.000
860.31	166.667
860.60	220.000
860.90	206.667
861.20	133.333
861.49	215.385
861.79	70.000
862.08	176.923
862.38	84.375
862.67	111.765
862.97	181.250
863.26	277.778
863.56	270.000
863.85	190.909
864.15	127.778
864.44	700.000
864.74	107.143
865.03	68.750
865.33	50.000
865.62	70.968
865.92	131.818
866.21	78.261
866.51	128.571
866.80	240.000
867.10	150.000
867.39	108.333
867.69	-1400.000
867.98	300.000
868.27	123.529
868.57	600.000
868.86	70.000
869.16	114.286
869.45	100.000
869.75	209.091
870.04	157.143
870.33	225.000
870.63	142.857
870.92	400.000
871.22	187.500
871.51	163.636
871.80	133.333
872.10	800.000
>>>>>End Processed Spectral Data<<<<<
