SpectraSuite Data File
++++++++++++++++++++++++++++++++++++
Date: Thu May 14 14:42:11 PDT 2015
User: schluterlab
Dark Spectrum Present: Yes
Reference Spectrum Present: Yes
Number of Sampled Component Spectra: 1
Spectrometers: USB2E3373
Integration Time (usec): 3000 (USB2E3373)
Spectra Averaged: 3 (USB2E3373)
Boxcar Smoothing: 0 (USB2E3373)
Correct for Electrical Dark: No (USB2E3373)
Strobe/Lamp Enabled: No (USB2E3373)
Correct for Detector Non-linearity: No (USB2E3373)
Correct for Stray Light: No (USB2E3373)
Number of Pixels in Processed Spectrum: 2048
>>>>>Begin Processed Spectral Data<<<<<
178.53	0.000
178.91	-142.857
179.29	-300.000
179.67	200.000
180.04	42.857
180.42	-40.000
180.80	80.000
181.18	-500.000
181.56	900.000
181.94	-50.000
182.31	375.000
182.69	-33.333
183.07	300.000
183.45	-150.000
183.83	333.333
184.20	266.667
184.58	100.000
184.96	25.000
185.34	33.333
185.72	200.000
186.09	22.222
186.47	-200.000
186.85	40.000
187.23	0.000
187.61	-500.000
187.98	-0.000
188.36	-150.000
188.74	100.000
189.12	300.000
189.49	50.000
189.87	-37.500
190.25	177.778
190.63	200.000
191.00	-11.111
191.38	0.000
191.76	175.000
192.14	183.333
192.51	-450.000
192.89	150.000
193.27	0.000
193.65	71.429
194.02	-300.000
194.40	228.571
194.78	42.857
195.15	0.000
195.53	109.091
195.91	0.000
196.29	425.000
196.66	76.923
197.04	600.000
197.42	100.000
197.79	500.000
198.17	100.000
198.55	100.000
198.92	144.444
199.30	50.000
199.68	81.818
200.05	100.000
200.43	0.000
200.81	128.571
201.18	0.000
201.56	100.000
201.94	0.000
202.31	-100.000
202.69	0.000
203.07	-500.000
203.44	166.667
203.82	250.000
204.19	58.333
204.57	66.667
204.95	-125.000
205.32	-300.000
205.70	-75.000
206.08	-33.333
206.45	33.333
206.83	280.000
207.20	-116.667
207.58	-260.000
207.96	16.667
208.33	183.333
208.71	-8.333
209.08	283.333
209.46	0.000
209.84	183.333
210.21	-300.000
210.59	-350.000
210.96	100.000
211.34	275.000
211.71	62.500
212.09	500.000
212.46	0.000
212.84	500.000
213.22	40.000
213.59	-25.000
213.97	90.000
214.34	333.333
214.72	-16.667
215.09	125.000
215.47	0.000
215.84	-42.857
216.22	-0.000
216.59	80.000
216.97	360.000
217.34	100.000
217.72	87.500
218.09	-25.000
218.47	-225.000
218.84	0.000
219.22	-180.000
219.59	64.706
219.97	20.000
220.34	-50.000
220.72	33.333
221.09	84.615
221.47	133.333
221.84	120.000
222.22	57.143
222.59	0.000
222.97	75.000
223.34	-20.000
223.72	0.000
224.09	25.000
224.46	0.000
224.84	280.000
225.21	28.571
225.59	175.000
225.96	125.000
226.34	65.385
226.71	50.000
227.08	-200.000
227.46	46.667
227.83	75.000
228.21	100.000
228.58	62.500
228.95	-500.000
229.33	41.667
229.70	110.000
230.08	115.789
230.45	80.000
230.82	33.333
231.20	92.857
231.57	58.333
231.95	27.273
232.32	145.455
232.69	15.000
233.07	175.000
233.44	-17.647
233.81	30.000
234.19	50.000
234.56	31.818
234.93	41.379
235.31	47.368
235.68	11.111
236.05	-10.000
236.43	69.231
236.80	96.000
237.17	81.481
237.55	48.485
237.92	50.000
238.29	3.226
238.67	38.636
239.04	25.000
239.41	30.952
239.79	26.087
240.16	27.778
240.53	19.565
240.91	23.529
241.28	32.787
241.65	49.254
242.02	37.838
242.40	36.923
242.77	29.333
243.14	25.610
243.51	15.789
243.89	17.949
244.26	37.624
244.63	33.333
245.00	31.776
245.38	31.579
245.75	17.699
246.12	34.127
246.49	20.155
246.87	27.143
247.24	25.828
247.61	24.342
247.98	21.477
248.36	24.691
248.73	25.153
249.10	19.672
249.47	26.866
249.84	31.414
250.22	27.979
250.59	30.000
250.96	27.273
251.33	25.000
251.70	26.068
252.08	24.167
252.45	23.770
252.82	23.140
253.19	23.437
253.56	22.433
253.94	20.385
254.31	28.030
254.68	28.671
255.05	29.967
255.42	23.129
255.79	22.330
256.16	27.152
256.54	21.192
256.91	24.262
257.28	20.656
257.65	18.790
258.02	20.649
258.39	22.507
258.76	26.606
259.14	24.425
259.51	25.648
259.88	22.380
260.25	25.556
260.62	19.178
260.99	24.590
261.36	23.056
261.73	22.812
262.10	23.901
262.47	21.180
262.85	25.253
263.22	20.519
263.59	19.211
263.96	23.785
264.33	21.228
264.70	21.481
265.07	25.776
265.44	24.036
265.81	20.370
266.18	24.490
266.55	23.661
266.92	19.362
267.29	24.070
267.66	20.843
268.03	24.891
268.40	23.382
268.77	23.918
269.14	18.502
269.51	25.877
269.88	23.566
270.25	21.730
270.62	22.363
270.99	23.232
271.36	23.168
271.73	24.558
272.10	24.449
272.47	21.643
272.84	24.900
273.21	22.645
273.58	21.573
273.95	21.538
274.32	22.433
274.69	21.277
275.06	22.344
275.43	19.039
275.80	22.399
276.17	19.259
276.54	18.657
276.91	20.394
277.28	23.870
277.65	23.160
278.02	21.140
278.39	21.377
278.76	19.684
279.13	21.277
279.50	22.509
279.87	21.646
280.23	18.486
280.60	22.881
280.97	18.914
281.34	20.374
281.71	21.658
282.08	21.262
282.45	17.840
282.82	19.623
283.19	19.386
283.56	20.164
283.92	21.171
284.29	20.853
284.66	24.466
285.03	17.788
285.40	19.629
285.77	20.433
286.14	20.611
286.51	20.852
286.87	21.327
287.24	20.633
287.61	18.984
287.98	17.372
288.35	20.562
288.72	19.527
289.08	20.937
289.45	18.195
289.82	18.373
290.19	19.684
290.56	20.282
290.93	20.114
291.29	19.835
291.66	17.906
292.03	20.081
292.40	19.048
292.77	19.542
293.13	18.945
293.50	16.426
293.87	17.181
294.24	18.000
294.60	17.320
294.97	17.852
295.34	18.182
295.71	16.015
296.08	17.442
296.44	17.279
296.81	16.809
297.18	17.061
297.55	16.627
297.91	17.200
298.28	15.166
298.65	17.360
299.02	15.348
299.38	16.476
299.75	15.654
300.12	16.435
300.48	16.705
300.85	15.748
301.22	15.772
301.59	16.667
301.95	15.819
302.32	17.444
302.69	15.663
303.05	17.084
303.42	15.299
303.79	16.042
304.15	16.088
304.52	16.808
304.89	15.393
305.25	15.114
305.62	17.032
305.99	15.876
306.35	15.927
306.72	17.270
307.09	15.431
307.45	16.874
307.82	15.843
308.19	16.145
308.55	17.358
308.92	15.871
309.29	15.996
309.65	15.497
310.02	15.842
310.38	16.634
310.75	16.019
311.12	17.258
311.48	16.520
311.85	17.094
312.22	16.129
312.58	15.775
312.95	15.583
313.31	16.441
313.68	18.498
314.05	16.802
314.41	17.577
314.78	17.439
315.14	15.971
315.51	17.267
315.87	17.192
316.24	18.721
316.61	17.496
316.97	17.195
317.34	17.989
317.70	18.865
318.07	18.695
318.43	18.027
318.80	18.395
319.16	18.197
319.53	16.452
319.89	17.441
320.26	18.594
320.62	16.667
320.99	17.267
321.35	20.148
321.72	20.000
322.08	19.297
322.45	18.790
322.81	19.585
323.18	19.204
323.54	20.086
323.91	19.573
324.27	19.535
324.64	20.319
325.00	18.574
325.37	20.475
325.73	19.504
326.10	20.438
326.46	19.137
326.83	19.776
327.19	20.000
327.56	20.553
327.92	19.040
328.29	19.677
328.65	19.682
329.01	20.643
329.38	19.714
329.74	19.863
330.11	20.719
330.47	19.124
330.84	19.638
331.20	19.667
331.56	20.017
331.93	21.255
332.29	21.017
332.66	20.183
333.02	19.933
333.38	19.966
333.75	19.360
334.11	19.349
334.48	20.957
334.84	21.155
335.20	18.136
335.57	20.742
335.93	20.000
336.29	19.884
336.66	19.765
337.02	20.067
337.38	19.643
337.75	20.165
338.11	21.026
338.47	20.099
338.84	19.374
339.20	18.787
339.56	19.357
339.93	19.458
340.29	19.887
340.65	18.816
341.02	20.750
341.38	20.857
341.74	18.483
342.11	20.756
342.47	19.301
342.83	20.692
343.20	19.624
343.56	20.369
343.92	19.456
344.28	20.547
344.65	19.147
345.01	19.657
345.37	20.373
345.73	19.564
346.10	19.891
346.46	20.174
346.82	20.150
347.19	20.856
347.55	19.954
347.91	20.208
348.27	19.575
348.63	19.954
349.00	19.538
349.36	20.074
349.72	19.940
350.08	19.688
350.45	19.468
350.81	19.759
351.17	18.722
351.53	19.257
351.89	20.349
352.26	19.403
352.62	18.955
352.98	19.771
353.34	19.791
353.70	19.183
354.07	19.821
354.43	19.210
354.79	19.671
355.15	18.985
355.51	19.225
355.87	19.222
356.24	19.696
356.60	19.734
356.96	19.644
357.32	18.736
357.68	18.960
358.04	19.237
358.40	19.179
358.77	19.810
359.13	18.538
359.49	18.810
359.85	19.652
360.21	19.440
360.57	19.095
360.93	20.310
361.29	20.140
361.66	18.248
362.02	19.833
362.38	19.888
362.74	20.251
363.10	20.426
363.46	19.529
363.82	18.963
364.18	18.367
364.54	18.603
364.90	19.532
365.26	19.103
365.62	20.400
365.98	19.537
366.35	19.597
366.71	19.660
367.07	19.756
367.43	19.895
367.79	20.305
368.15	20.067
368.51	19.147
368.87	19.138
369.23	20.733
369.59	19.945
369.95	20.216
370.31	19.784
370.67	19.739
371.03	19.391
371.39	19.678
371.75	19.807
372.11	20.257
372.47	19.364
372.83	20.157
373.19	19.480
373.55	20.122
373.91	19.087
374.27	19.793
374.63	20.027
374.99	20.756
375.35	20.390
375.71	20.452
376.07	20.142
376.42	19.773
376.78	20.820
377.14	19.651
377.50	20.430
377.86	21.367
378.22	19.940
378.58	20.392
378.94	19.836
379.30	20.445
379.66	20.988
380.02	20.254
380.38	20.968
380.74	21.014
381.09	20.848
381.45	21.080
381.81	21.311
382.17	21.140
382.53	20.643
382.89	20.372
383.25	20.692
383.61	20.775
383.97	20.848
384.32	20.634
384.68	20.070
385.04	21.342
385.40	21.391
385.76	20.809
386.12	21.185
386.48	21.059
386.83	21.871
387.19	21.611
387.55	20.599
387.91	21.861
388.27	21.940
388.62	21.821
388.98	20.079
389.34	21.509
389.70	21.848
390.06	21.314
390.42	21.386
390.77	22.637
391.13	22.418
391.49	21.135
391.85	21.333
392.20	21.649
392.56	22.268
392.92	21.810
393.28	22.056
393.64	21.229
393.99	22.719
394.35	22.839
394.71	23.293
395.07	21.916
395.42	21.588
395.78	22.791
396.14	22.400
396.50	22.090
396.85	23.017
397.21	22.308
397.57	23.027
397.92	22.623
398.28	22.271
398.64	21.510
399.00	21.675
399.35	22.199
399.71	21.630
400.07	22.515
400.42	21.653
400.78	22.049
401.14	22.880
401.49	22.626
401.85	22.442
402.21	22.711
402.57	23.357
402.92	22.636
403.28	22.424
403.63	21.957
403.99	22.447
404.35	21.774
404.70	22.380
405.06	22.446
405.42	22.248
405.77	23.010
406.13	22.798
406.49	22.860
406.84	22.715
407.20	22.694
407.55	23.319
407.91	23.067
408.27	22.615
408.62	23.618
408.98	22.751
409.34	22.053
409.69	22.250
410.05	23.329
410.40	23.724
410.76	23.780
411.11	23.495
411.47	23.710
411.83	23.045
412.18	23.494
412.54	22.999
412.89	22.992
413.25	23.758
413.60	23.262
413.96	22.552
414.31	23.003
414.67	24.389
415.03	23.754
415.38	23.329
415.74	23.091
416.09	24.244
416.45	23.043
416.80	23.256
417.16	24.138
417.51	23.225
417.87	23.789
418.22	23.593
418.58	23.792
418.93	24.389
419.29	24.044
419.64	22.689
420.00	22.789
420.35	24.818
420.71	23.952
421.06	23.922
421.42	24.369
421.77	22.886
422.12	24.366
422.48	23.554
422.83	24.370
423.19	23.289
423.54	24.392
423.90	24.296
424.25	25.173
424.61	23.938
424.96	24.492
425.31	25.106
425.67	24.262
426.02	24.516
426.38	24.397
426.73	23.996
427.09	24.856
427.44	24.031
427.79	25.373
428.15	24.543
428.50	23.933
428.85	25.144
429.21	25.426
429.56	24.087
429.92	24.029
430.27	24.627
430.62	24.475
430.98	25.430
431.33	25.122
431.68	24.473
432.04	25.089
432.39	25.656
432.74	24.315
433.10	25.311
433.45	24.861
433.80	25.322
434.16	25.465
434.51	25.385
434.86	26.656
435.22	25.664
435.57	26.120
435.92	26.377
436.28	26.621
436.63	25.778
436.98	25.497
437.34	26.156
437.69	27.408
438.04	25.595
438.39	26.134
438.75	26.342
439.10	26.744
439.45	27.054
439.81	26.610
440.16	26.005
440.51	26.979
440.86	26.737
441.22	26.527
441.57	27.254
441.92	26.770
442.27	26.667
442.63	26.975
442.98	26.414
443.33	26.565
443.68	27.156
444.03	27.658
444.39	26.815
444.74	27.871
445.09	26.964
445.44	27.345
445.79	26.724
446.15	27.235
446.50	26.977
446.85	27.724
447.20	27.563
447.55	27.824
447.91	28.063
448.26	27.114
448.61	27.736
448.96	28.058
449.31	28.208
449.66	26.961
450.02	27.532
450.37	28.077
450.72	27.933
451.07	27.733
451.42	27.614
451.77	27.237
452.12	28.330
452.47	28.580
452.83	28.266
453.18	28.196
453.53	27.226
453.88	27.719
454.23	28.023
454.58	28.381
454.93	27.913
455.28	29.139
455.63	28.653
455.98	28.715
456.34	28.563
456.69	28.160
457.04	28.369
457.39	28.880
457.74	28.915
458.09	28.116
458.44	28.933
458.79	28.004
459.14	28.264
459.49	29.881
459.84	28.961
460.19	28.484
460.54	28.790
460.89	28.904
461.24	28.333
461.59	29.220
461.94	28.523
462.29	28.723
462.64	28.546
462.99	29.002
463.34	29.981
463.69	28.957
464.04	29.850
464.39	28.643
464.74	28.506
465.09	28.893
465.44	29.345
465.79	29.878
466.14	29.547
466.49	29.474
466.84	28.595
467.19	29.364
467.54	28.966
467.89	29.253
468.24	29.086
468.59	29.705
468.94	28.963
469.29	29.274
469.64	30.769
469.99	29.573
470.34	28.775
470.68	30.144
471.03	31.107
471.38	31.458
471.73	31.404
472.08	30.393
472.43	30.223
472.78	30.919
473.13	30.657
473.48	30.574
473.83	31.167
474.17	30.832
474.52	30.908
474.87	29.900
475.22	31.268
475.57	30.841
475.92	30.264
476.27	30.085
476.61	30.633
476.96	30.761
477.31	30.248
477.66	31.007
478.01	30.452
478.36	30.010
478.70	31.429
479.05	30.010
479.40	30.602
479.75	30.211
480.10	30.270
480.45	29.353
480.79	30.522
481.14	30.193
481.49	30.532
481.84	30.331
482.19	31.054
482.53	30.608
482.88	30.483
483.23	29.791
483.58	29.956
483.92	29.832
484.27	30.652
484.62	30.198
484.97	30.288
485.31	29.461
485.66	27.923
486.01	27.719
486.36	28.685
486.70	30.042
487.05	30.309
487.40	30.346
487.75	29.873
488.09	30.657
488.44	30.487
488.79	30.051
489.13	30.485
489.48	29.903
489.83	30.543
490.17	29.364
490.52	30.378
490.87	30.330
491.22	30.329
491.56	31.357
491.91	30.877
492.26	31.026
492.60	30.870
492.95	31.812
493.30	30.793
493.64	30.793
493.99	31.228
494.34	30.139
494.68	31.392
495.03	31.410
495.37	30.892
495.72	31.519
496.07	30.894
496.41	30.888
496.76	30.901
497.11	31.805
497.45	30.773
497.80	31.364
498.14	30.930
498.49	31.250
498.84	31.307
499.18	31.084
499.53	30.987
499.87	32.132
500.22	30.855
500.56	31.129
500.91	31.213
501.26	31.773
501.60	30.844
501.95	31.307
502.29	31.593
502.64	32.226
502.98	31.536
503.33	30.929
503.67	31.095
504.02	31.130
504.36	32.663
504.71	31.098
505.06	31.742
505.40	31.764
505.75	31.512
506.09	33.057
506.44	32.173
506.78	32.339
507.13	31.720
507.47	32.781
507.82	31.250
508.16	31.836
508.51	31.411
508.85	32.829
509.19	32.686
509.54	33.333
509.88	31.860
510.23	32.686
510.57	33.301
510.92	32.269
511.26	32.516
511.61	32.448
511.95	31.381
512.30	33.432
512.64	31.434
512.98	31.816
513.33	31.804
513.67	32.942
514.02	33.316
514.36	32.788
514.70	32.292
515.05	33.472
515.39	33.333
515.74	33.192
516.08	32.277
516.42	33.700
516.77	33.333
517.11	33.316
517.46	33.086
517.80	34.313
518.14	34.004
518.49	33.514
518.83	33.049
519.17	32.310
519.52	32.914
519.86	33.897
520.20	33.174
520.55	32.640
520.89	33.559
521.23	33.668
521.58	34.350
521.92	33.201
522.26	33.734
522.61	33.681
522.95	33.391
523.29	33.448
523.64	33.744
523.98	33.828
524.32	34.900
524.66	34.775
525.01	33.126
525.35	32.797
525.69	32.889
526.04	33.238
526.38	33.506
526.72	33.968
527.06	34.663
527.41	34.111
527.75	35.214
528.09	33.471
528.43	33.156
528.78	33.468
529.12	34.117
529.46	33.727
529.80	34.382
530.15	34.145
530.49	35.409
530.83	34.357
531.17	34.229
531.51	34.477
531.86	34.375
532.20	34.939
532.54	34.291
532.88	34.364
533.22	34.414
533.57	33.641
533.91	33.558
534.25	33.804
534.59	33.218
534.93	33.729
535.27	33.746
535.62	34.622
535.96	34.224
536.30	32.667
536.64	34.715
536.98	34.256
537.32	34.136
537.66	34.685
538.01	33.595
538.35	33.922
538.69	33.894
539.03	35.009
539.37	32.627
539.71	33.994
540.05	34.532
540.39	34.474
540.73	33.333
541.07	33.292
541.42	33.550
541.76	33.808
542.10	34.198
542.44	33.922
542.78	33.637
543.12	33.194
543.46	32.601
543.80	32.734
544.14	33.692
544.48	33.452
544.82	33.812
545.16	33.274
545.50	34.212
545.84	32.884
546.18	34.259
546.52	33.248
546.86	34.025
547.20	33.842
547.54	33.333
547.88	33.816
548.22	32.865
548.56	32.885
548.90	34.090
549.24	33.495
549.58	33.249
549.92	33.355
550.26	34.239
550.60	32.993
550.94	34.347
551.28	32.937
551.62	34.367
551.96	34.045
552.30	34.034
552.64	33.416
552.98	34.248
553.32	34.341
553.66	34.148
554.00	35.246
554.34	33.977
554.68	33.247
555.02	33.837
555.36	34.911
555.69	32.799
556.03	33.922
556.37	33.667
556.71	33.291
557.05	32.907
557.39	34.107
557.73	33.487
558.07	33.709
558.41	34.020
558.75	33.671
559.08	34.238
559.42	32.647
559.76	33.853
560.10	33.557
560.44	34.565
560.78	34.500
561.12	33.498
561.45	32.664
561.79	33.394
562.13	33.949
562.47	33.354
562.81	33.165
563.15	34.091
563.48	33.934
563.82	32.950
564.16	32.465
564.50	32.896
564.84	32.920
565.17	33.529
565.51	32.796
565.85	34.026
566.19	32.834
566.52	34.582
566.86	32.937
567.20	32.572
567.54	33.404
567.88	32.926
568.21	32.708
568.55	32.566
568.89	32.320
569.23	32.066
569.56	32.161
569.90	32.145
570.24	30.995
570.57	30.949
570.91	30.618
571.25	31.038
571.59	30.838
571.92	30.410
572.26	30.731
572.60	31.149
572.93	31.478
573.27	31.104
573.61	30.704
573.95	30.614
574.28	30.250
574.62	30.286
574.96	29.885
575.29	29.985
575.63	30.169
575.97	30.802
576.30	30.225
576.64	30.327
576.98	30.296
577.31	30.508
577.65	30.210
577.98	29.951
578.32	29.858
578.66	29.815
578.99	30.453
579.33	30.769
579.67	30.712
580.00	30.097
580.34	30.432
580.67	30.009
581.01	30.052
581.35	29.554
581.68	29.707
582.02	29.902
582.35	30.237
582.69	30.123
583.02	30.592
583.36	30.848
583.70	30.834
584.03	30.166
584.37	30.634
584.70	29.902
585.04	30.179
585.37	30.579
585.71	30.227
586.04	29.613
586.38	30.292
586.72	30.409
587.05	30.289
587.39	30.092
587.72	30.407
588.06	30.343
588.39	30.545
588.73	30.370
589.06	30.756
589.40	30.916
589.73	31.234
590.07	30.968
590.40	31.170
590.73	31.425
591.07	31.720
591.40	30.715
591.74	30.803
592.07	32.197
592.41	31.151
592.74	30.245
593.08	30.987
593.41	31.059
593.75	30.632
594.08	30.960
594.41	31.282
594.75	30.820
595.08	30.283
595.42	30.487
595.75	30.869
596.09	31.142
596.42	31.458
596.75	31.802
597.09	31.556
597.42	30.592
597.75	30.733
598.09	31.151
598.42	31.323
598.76	30.264
599.09	30.794
599.42	30.841
599.76	30.505
600.09	31.298
600.42	30.531
600.76	30.515
601.09	30.202
601.42	30.553
601.76	31.310
602.09	31.451
602.42	31.152
602.76	31.292
603.09	30.837
603.42	30.889
603.76	31.501
604.09	31.689
604.42	32.110
604.76	30.441
605.09	31.352
605.42	31.579
605.75	30.923
606.09	31.131
606.42	30.536
606.75	31.072
607.09	30.799
607.42	31.407
607.75	31.145
608.08	30.702
608.42	30.875
608.75	31.177
609.08	30.772
609.41	30.745
609.75	31.384
610.08	31.398
610.41	30.756
610.74	30.882
611.07	30.861
611.41	31.570
611.74	31.778
612.07	31.931
612.40	31.321
612.73	31.443
613.07	31.443
613.40	31.761
613.73	31.825
614.06	32.090
614.39	31.827
614.72	31.247
615.06	31.136
615.39	30.884
615.72	30.995
616.05	31.472
616.38	31.786
616.71	31.766
617.05	31.416
617.38	32.263
617.71	32.613
618.04	32.002
618.37	32.896
618.70	32.805
619.03	32.019
619.36	32.799
619.69	32.479
620.03	33.019
620.36	32.638
620.69	32.634
621.02	33.136
621.35	34.398
621.68	32.466
622.01	33.238
622.34	32.287
622.67	33.952
623.00	31.309
623.33	33.112
623.66	32.750
623.99	31.534
624.32	33.203
624.65	32.432
624.99	33.160
625.32	33.377
625.65	32.569
625.98	33.424
626.31	33.877
626.64	35.092
626.97	33.683
627.30	34.169
627.63	33.458
627.96	33.033
628.29	33.774
628.62	34.425
628.95	34.531
629.28	33.560
629.61	34.007
629.94	33.556
630.26	34.153
630.59	34.974
630.92	33.593
631.25	36.404
631.58	35.028
631.91	35.239
632.24	35.351
632.57	35.389
632.90	34.403
633.23	34.184
633.56	34.898
633.89	34.401
634.22	35.447
634.55	36.430
634.88	35.173
635.20	35.953
635.53	35.932
635.86	35.428
636.19	36.055
636.52	35.865
636.85	35.546
637.18	34.407
637.51	34.409
637.83	36.213
638.16	36.866
638.49	35.211
638.82	35.851
639.15	33.448
639.48	36.605
639.81	34.180
640.13	37.809
640.46	32.970
640.79	33.701
641.12	36.770
641.45	35.634
641.77	39.281
642.10	35.171
642.43	35.239
642.76	36.179
643.09	37.534
643.41	37.535
643.74	35.034
644.07	36.828
644.40	35.644
644.73	38.752
645.05	35.242
645.38	37.410
645.71	37.537
646.04	36.011
646.36	36.350
646.69	38.344
647.02	39.297
647.35	40.305
647.67	38.647
648.00	39.331
648.33	36.937
648.66	37.090
648.98	36.327
649.31	35.183
649.64	37.052
649.96	35.676
650.29	36.300
650.62	35.785
650.94	38.138
651.27	37.126
651.60	35.526
651.92	36.322
652.25	36.758
652.58	35.213
652.90	35.901
653.23	38.028
653.56	38.088
653.88	36.096
654.21	35.775
654.54	37.139
654.86	37.535
655.19	33.250
655.52	32.402
655.84	27.292
656.17	33.404
656.49	47.729
656.82	53.466
657.15	42.378
657.47	32.669
657.80	24.300
658.13	19.210
658.45	25.600
658.78	31.334
659.10	30.562
659.43	30.401
659.75	30.361
660.08	31.092
660.41	31.514
660.73	32.497
661.06	34.802
661.38	37.640
661.71	37.586
662.03	35.626
662.36	37.567
662.68	38.086
663.01	37.699
663.33	40.454
663.66	38.095
663.98	38.077
664.31	36.210
664.63	35.453
664.96	37.931
665.28	36.661
665.61	38.811
665.93	36.250
666.26	35.125
666.58	36.900
666.91	40.187
667.23	36.952
667.56	38.659
667.88	40.200
668.21	37.305
668.53	36.486
668.86	37.525
669.18	37.678
669.50	40.755
669.83	36.600
670.15	36.024
670.48	39.881
670.80	35.182
671.13	37.807
671.45	37.402
671.77	37.665
672.10	37.000
672.42	33.819
672.75	34.869
673.07	33.731
673.39	33.744
673.72	39.765
674.04	37.759
674.37	37.209
674.69	37.037
675.01	38.857
675.34	35.687
675.66	37.079
675.98	38.993
676.31	36.523
676.63	38.593
676.95	39.847
677.28	37.097
677.60	36.024
677.92	36.660
678.25	38.574
678.57	36.833
678.89	36.689
679.22	34.321
679.54	36.752
679.86	36.780
680.18	36.650
680.51	34.119
680.83	36.334
681.15	36.897
681.48	36.615
681.80	35.751
682.12	34.091
682.44	34.891
682.77	37.766
683.09	36.742
683.41	38.372
683.73	35.104
684.06	36.531
684.38	35.242
684.70	38.600
685.02	38.382
685.34	34.443
685.67	34.543
685.99	34.816
686.31	32.558
686.63	33.491
686.96	37.539
687.28	35.993
687.60	35.690
687.92	35.370
688.24	39.065
688.56	35.345
688.89	38.113
689.21	36.008
689.53	34.314
689.85	36.884
690.17	35.741
690.49	35.458
690.82	35.842
691.14	34.413
691.46	38.432
691.78	37.201
692.10	37.431
692.42	35.000
692.74	36.479
693.06	35.185
693.39	37.571
693.71	36.654
694.03	38.104
694.35	35.619
694.67	38.398
694.99	35.957
695.31	37.528
695.63	37.662
695.95	36.646
696.27	39.121
696.59	37.168
696.91	38.514
697.23	36.923
697.56	36.456
697.88	34.848
698.20	37.100
698.52	35.985
698.84	35.759
699.16	37.551
699.48	36.611
699.80	35.745
700.12	37.118
700.44	35.945
700.76	38.005
701.08	39.467
701.40	39.896
701.72	38.308
702.04	41.444
702.36	38.743
702.68	34.474
703.00	36.186
703.32	34.975
703.64	35.697
703.96	38.663
704.28	34.889
704.60	38.987
704.91	35.969
705.23	39.726
705.55	38.719
705.87	37.273
706.19	40.184
706.51	36.747
706.83	32.565
707.15	40.212
707.47	37.617
707.79	34.934
708.11	34.534
708.43	33.978
708.74	32.143
709.06	38.747
709.38	37.793
709.70	38.213
710.02	36.951
710.34	38.830
710.66	36.034
710.98	34.426
711.29	35.989
711.61	36.158
711.93	38.462
712.25	34.054
712.57	37.758
712.89	38.824
713.20	39.645
713.52	39.595
713.84	40.111
714.16	39.737
714.48	38.918
714.80	40.519
715.11	38.845
715.43	37.401
715.75	35.789
716.07	36.188
716.39	36.339
716.70	37.952
717.02	37.049
717.34	35.192
717.66	39.262
717.97	36.301
718.29	37.801
718.61	38.487
718.93	38.188
719.24	38.820
719.56	35.583
719.88	35.736
720.20	40.645
720.51	40.683
720.83	38.438
721.15	38.487
721.46	33.219
721.78	38.333
722.10	32.686
722.42	37.919
722.73	34.516
723.05	40.000
723.37	35.069
723.68	37.634
724.00	40.794
724.32	35.915
724.63	35.664
724.95	41.844
725.27	39.721
725.58	35.336
725.90	41.379
726.22	39.185
726.53	37.338
726.85	39.937
727.16	37.764
727.48	38.532
727.80	41.060
728.11	36.396
728.43	36.027
728.74	39.130
729.06	35.430
729.38	34.740
729.69	41.275
730.01	36.905
730.32	36.061
730.64	38.365
730.96	37.267
731.27	37.709
731.59	35.714
731.90	33.766
732.22	36.198
732.53	32.044
732.85	34.286
733.16	35.484
733.48	39.329
733.80	32.591
734.11	36.467
734.43	34.865
734.74	35.696
735.06	34.673
735.37	35.405
735.69	36.486
736.00	36.158
736.32	33.693
736.63	33.056
736.95	31.897
737.26	38.182
737.58	35.152
737.89	35.000
738.21	33.945
738.52	33.443
738.83	35.836
739.15	37.589
739.46	37.415
739.78	34.663
740.09	35.817
740.41	35.569
740.72	40.667
741.04	38.188
741.35	37.193
741.66	37.647
741.98	37.705
742.29	39.749
742.61	41.667
742.92	36.923
743.23	37.184
743.55	40.698
743.86	42.000
744.18	33.058
744.49	34.599
744.80	37.449
745.12	40.506
745.43	37.398
745.74	37.069
746.06	36.441
746.37	41.772
746.68	42.276
747.00	37.917
747.31	35.622
747.62	42.692
747.94	36.842
748.25	38.956
748.56	36.735
748.88	35.897
749.19	41.379
749.50	35.498
749.82	38.554
750.13	41.637
750.44	33.333
750.75	37.846
751.07	33.231
751.38	38.801
751.69	38.658
752.01	36.893
752.32	35.294
752.63	38.435
752.94	34.256
753.26	37.918
753.57	41.111
753.88	38.951
754.19	36.977
754.51	35.048
754.82	36.013
755.13	41.311
755.44	36.177
755.75	41.118
756.07	37.313
756.38	36.478
756.69	37.651
757.00	33.795
757.31	34.153
757.63	35.038
757.94	34.977
758.25	35.214
758.56	36.383
758.87	32.727
759.18	34.667
759.50	34.278
759.81	39.776
760.12	36.927
760.43	34.375
760.74	36.207
761.05	34.250
761.36	33.253
761.67	35.279
761.99	34.054
762.30	36.585
762.61	35.644
762.92	33.582
763.23	39.326
763.54	34.173
763.85	37.801
764.16	37.710
764.47	41.901
764.78	34.185
765.10	36.657
765.41	35.385
765.72	32.275
766.03	37.288
766.34	35.110
766.65	33.449
766.96	34.661
767.27	46.083
767.58	39.303
767.89	39.904
768.20	38.028
768.51	36.574
768.82	38.554
769.13	35.227
769.44	34.615
769.75	34.296
770.06	35.385
770.37	38.189
770.68	37.021
770.99	33.603
771.30	38.889
771.61	38.023
771.92	33.704
772.23	40.891
772.54	34.259
772.85	43.318
773.16	41.905
773.47	37.037
773.78	38.378
774.09	43.182
774.39	35.000
774.70	33.333
775.01	39.634
775.32	34.118
775.63	36.196
775.94	34.395
776.25	40.000
776.56	39.744
776.87	42.177
777.18	40.690
777.48	38.462
777.79	41.892
778.10	35.294
778.41	39.583
778.72	37.931
779.03	42.593
779.34	37.576
779.65	37.306
779.95	40.556
780.26	34.659
780.57	40.645
780.88	42.029
781.19	35.484
781.50	42.941
781.80	37.097
782.11	41.799
782.42	28.788
782.73	38.323
783.04	34.637
783.34	33.333
783.65	37.908
783.96	37.267
784.27	39.286
784.57	46.358
784.88	37.143
785.19	29.921
785.50	37.795
785.81	36.842
786.11	48.462
786.42	28.777
786.73	36.691
787.04	45.113
787.34	34.426
787.65	37.600
787.96	44.776
788.26	48.951
788.57	37.762
788.88	35.526
789.19	41.830
789.49	39.041
789.80	45.390
790.11	33.858
790.41	35.156
790.72	36.441
791.03	35.922
791.33	37.391
791.64	43.860
791.95	41.071
792.25	46.667
792.56	33.929
792.87	53.125
793.17	36.607
793.48	36.458
793.79	31.325
794.09	42.202
794.40	49.541
794.70	32.653
795.01	37.662
795.32	30.137
795.62	33.099
795.93	39.394
796.23	43.443
796.54	39.286
796.85	38.298
797.15	40.217
797.46	42.466
797.76	41.250
798.07	33.696
798.37	37.113
798.68	33.766
798.99	39.080
799.29	40.449
799.60	39.362
799.90	43.373
800.21	35.385
800.51	50.746
800.82	41.176
801.12	38.356
801.43	36.765
801.73	47.458
802.04	65.152
802.34	48.333
802.65	50.847
802.95	37.313
803.26	37.288
803.56	39.726
803.87	42.857
804.17	52.055
804.48	22.807
804.78	44.444
805.09	39.655
805.39	41.892
805.70	40.845
806.00	39.024
806.30	40.964
806.61	39.726
806.91	36.538
807.22	44.444
807.52	40.230
807.83	55.556
808.13	44.578
808.43	47.191
808.74	30.000
809.04	35.294
809.35	38.667
809.65	37.143
809.95	36.986
810.26	35.088
810.56	51.724
810.86	39.706
811.17	42.105
811.47	34.426
811.77	26.667
812.08	42.373
812.38	63.333
812.69	51.724
812.99	18.868
813.29	41.026
813.59	48.000
813.90	38.596
814.20	36.364
814.50	56.338
814.81	42.308
815.11	47.541
815.41	38.806
815.72	53.448
816.02	57.143
816.32	64.444
816.62	65.909
816.93	53.333
817.23	57.407
817.53	40.426
817.84	57.143
818.14	70.588
818.44	46.939
818.74	64.444
819.04	10.256
819.35	42.857
819.65	61.538
819.95	39.623
820.25	37.778
820.56	35.714
820.86	62.500
821.16	79.487
821.46	44.186
821.76	26.000
822.07	48.214
822.37	26.087
822.67	55.319
822.97	29.730
823.27	52.500
823.57	71.429
823.88	53.333
824.18	67.500
824.48	40.000
824.78	80.000
825.08	60.606
825.38	57.778
825.69	48.936
825.99	41.667
826.29	-2.857
826.59	56.410
826.89	39.535
827.19	30.000
827.49	44.118
827.79	52.083
828.09	56.757
828.39	83.333
828.70	56.098
829.00	48.837
829.30	35.714
829.60	58.824
829.90	41.304
830.20	37.143
830.50	68.966
830.80	55.556
831.10	88.462
831.40	70.588
831.70	33.333
832.00	83.871
832.30	-11.765
832.60	50.000
832.90	-15.385
833.20	52.632
833.50	65.000
833.80	100.000
834.10	19.048
834.40	33.333
834.70	78.125
835.00	17.143
835.30	50.000
835.60	36.667
835.90	44.000
836.20	-13.636
836.50	44.000
836.80	36.364
837.10	18.519
837.40	51.852
837.70	6.250
838.00	57.143
838.30	43.478
838.60	75.862
838.90	85.714
839.19	34.783
839.49	-58.333
839.79	95.652
840.09	37.500
840.39	90.000
840.69	103.226
840.99	42.857
841.29	66.667
841.59	47.368
841.88	51.282
842.18	50.000
842.48	100.000
842.78	115.000
843.08	53.333
843.38	48.387
843.68	0.000
843.97	61.765
844.27	37.500
844.57	15.789
844.87	120.000
845.17	60.000
845.47	90.476
845.76	9.524
846.06	33.333
846.36	17.647
846.66	73.077
846.96	33.333
847.25	123.529
847.55	34.783
847.85	30.000
848.15	88.235
848.44	100.000
848.74	38.095
849.04	8.333
849.34	75.000
849.63	47.826
849.93	-250.000
850.23	26.667
850.53	65.385
850.82	127.273
851.12	72.727
851.42	109.091
851.71	46.154
852.01	20.000
852.31	53.846
852.61	84.211
852.90	116.667
853.20	77.778
853.50	0.000
853.79	-14.286
854.09	22.727
854.39	16.667
854.68	54.839
854.98	42.308
855.28	138.889
855.57	46.429
855.87	48.000
856.17	68.182
856.46	70.370
856.76	61.111
857.05	43.478
857.35	54.167
857.65	53.846
857.94	109.524
858.24	44.444
858.53	52.174
858.83	88.235
859.13	35.294
859.42	76.471
859.72	100.000
860.01	45.000
860.31	111.111
860.60	110.000
860.90	53.333
861.20	72.222
861.49	30.769
861.79	40.000
862.08	76.923
862.38	62.500
862.67	47.059
862.97	118.750
863.26	44.444
863.56	90.000
863.85	127.273
864.15	94.444
864.44	200.000
864.74	128.571
865.03	62.500
865.33	10.000
865.62	35.484
865.92	86.364
866.21	52.174
866.51	85.714
866.80	160.000
867.10	58.333
867.39	-16.667
867.69	-600.000
867.98	42.857
868.27	58.824
868.57	-1000.000
868.86	-20.000
869.16	0.000
869.45	45.833
869.75	163.636
870.04	142.857
870.33	58.333
870.63	-114.286
870.92	575.000
871.22	112.500
871.51	36.364
871.80	-33.333
872.10	350.000
>>>>>End Processed Spectral Data<<<<<
