SpectraSuite Data File
++++++++++++++++++++++++++++++++++++
Date: Thu May 14 14:55:04 PDT 2015
User: schluterlab
Dark Spectrum Present: Yes
Reference Spectrum Present: Yes
Number of Sampled Component Spectra: 1
Spectrometers: USB2E3373
Integration Time (usec): 3000 (USB2E3373)
Spectra Averaged: 3 (USB2E3373)
Boxcar Smoothing: 0 (USB2E3373)
Correct for Electrical Dark: No (USB2E3373)
Strobe/Lamp Enabled: No (USB2E3373)
Correct for Detector Non-linearity: No (USB2E3373)
Correct for Stray Light: No (USB2E3373)
Number of Pixels in Processed Spectrum: 2048
>>>>>Begin Processed Spectral Data<<<<<
178.53	0.000
178.91	200.000
179.29	-2200.000
179.67	-1400.000
180.04	221.429
180.42	210.000
180.80	220.000
181.18	-1600.000
181.56	-700.000
181.94	400.000
182.31	-375.000
182.69	433.333
183.07	-350.000
183.45	375.000
183.83	-150.000
184.20	-533.333
184.58	1900.000
184.96	-375.000
185.34	-122.222
185.72	-160.000
186.09	311.111
186.47	650.000
186.85	580.000
187.23	-233.333
187.61	-2300.000
187.98	260.000
188.36	450.000
188.74	-400.000
189.12	-666.667
189.49	-62.500
189.87	-162.500
190.25	-88.889
190.63	-220.000
191.00	-288.889
191.38	0.000
191.76	-325.000
192.14	-366.667
192.51	700.000
192.89	0.000
193.27	0.000
193.65	-271.429
194.02	-1700.000
194.40	-171.429
194.78	271.429
195.15	0.000
195.53	-63.636
195.91	0.000
196.29	-250.000
196.66	-184.615
197.04	-2300.000
197.42	-257.143
197.79	-1000.000
198.17	-137.500
198.55	-257.143
198.92	-88.889
199.30	-187.500
199.68	-145.455
200.05	-50.000
200.43	-1200.000
200.81	400.000
201.18	0.000
201.56	322.222
201.94	0.000
202.31	900.000
202.69	-355.556
203.07	1000.000
203.44	-133.333
203.82	-500.000
204.19	-141.667
204.57	-350.000
204.95	-187.500
205.32	-1800.000
205.70	325.000
206.08	-333.333
206.45	-316.667
206.83	520.000
207.20	-266.667
207.58	-520.000
207.96	-266.667
208.33	-200.000
208.71	158.333
209.08	-283.333
209.46	0.000
209.84	200.000
210.21	550.000
210.59	950.000
210.96	833.333
211.34	-425.000
211.71	-325.000
212.09	-2400.000
212.46	0.000
212.84	1000.000
213.22	-440.000
213.59	-350.000
213.97	-120.000
214.34	-466.667
214.72	383.333
215.09	-525.000
215.47	0.000
215.84	200.000
216.22	1050.000
216.59	-260.000
216.97	-340.000
217.34	-450.000
217.72	-150.000
218.09	-375.000
218.47	-550.000
218.84	0.000
219.22	280.000
219.59	-64.706
219.97	-70.000
220.34	1000.000
220.72	-177.778
221.09	-15.385
221.47	-466.667
221.84	-70.000
222.22	-414.286
222.59	0.000
222.97	-225.000
223.34	-440.000
223.72	-1800.000
224.09	-300.000
224.46	-425.000
224.84	-40.000
225.21	-257.143
225.59	-525.000
225.96	-550.000
226.34	3.846
226.71	283.333
227.08	-500.000
227.46	-100.000
227.83	-250.000
228.21	-42.105
228.58	187.500
228.95	850.000
229.33	-100.000
229.70	-130.000
230.08	-15.789
230.45	260.000
230.82	-133.333
231.20	-121.429
231.57	-33.333
231.95	-72.727
232.32	-81.818
232.69	-80.000
233.07	-350.000
233.44	-82.353
233.81	-250.000
234.19	-44.444
234.56	-77.273
234.93	-3.448
235.31	-52.632
235.68	-61.111
236.05	-95.000
236.43	3.846
236.80	-12.000
237.17	-25.926
237.55	-54.545
237.92	-180.000
238.29	-35.484
238.67	-22.727
239.04	-30.556
239.41	-16.667
239.79	-2.174
240.16	-24.074
240.53	-23.913
240.91	-25.490
241.28	-19.672
241.65	10.448
242.02	-18.919
242.40	-35.385
242.77	-18.667
243.14	-36.585
243.51	-38.158
243.89	-32.051
244.26	-5.941
244.63	-8.824
245.00	-10.280
245.38	-10.526
245.75	-26.549
246.12	-5.556
246.49	-13.953
246.87	-3.571
247.24	-5.298
247.61	-5.263
247.98	-3.356
248.36	-6.790
248.73	-11.656
249.10	-7.650
249.47	-0.498
249.84	0.000
250.22	-9.326
250.59	-10.556
250.96	-2.273
251.33	-14.286
251.70	-2.137
252.08	-6.667
252.45	0.000
252.82	-4.959
253.19	-5.078
253.56	-2.281
253.94	-6.923
254.31	-6.061
254.68	0.350
255.05	-0.651
255.42	-3.401
255.79	-4.207
256.16	-5.629
256.54	-6.623
256.91	-0.328
257.28	-4.262
257.65	-7.962
258.02	-4.720
258.39	-1.425
258.76	1.223
259.14	-0.575
259.51	-2.305
259.88	-3.399
260.25	-4.722
260.62	-0.274
260.99	-1.913
261.36	0.536
261.73	-2.122
262.10	-4.396
262.47	-3.753
262.85	0.758
263.22	-2.597
263.59	-5.000
263.96	0.256
264.33	-4.604
264.70	-2.222
265.07	0.477
265.44	3.401
265.81	-1.389
266.18	-0.454
266.55	-0.670
266.92	-3.189
267.29	-1.969
267.66	-3.769
268.03	-1.965
268.40	0.835
268.77	-4.556
269.14	-4.626
269.51	-1.096
269.88	-0.410
270.25	-0.201
270.62	-1.899
270.99	0.202
271.36	0.990
271.73	-0.786
272.10	-0.200
272.47	-0.802
272.84	-1.406
273.21	-1.603
273.58	-0.605
273.95	-1.731
274.32	-2.852
274.69	-1.161
275.06	-0.183
275.43	-3.327
275.80	-0.353
276.17	-3.519
276.54	-1.679
276.91	-0.716
277.28	-2.351
277.65	-0.898
278.02	-1.287
278.39	-1.630
278.76	-1.406
279.13	-1.241
279.50	0.344
279.87	0.000
280.23	-3.873
280.60	-1.525
280.97	-0.493
281.34	-2.377
281.71	0.677
282.08	-1.661
282.45	-0.818
282.82	0.314
283.19	-2.908
283.56	-2.459
283.92	0.450
284.29	0.000
284.66	0.000
285.03	-2.885
285.40	-0.155
285.77	-1.238
286.14	-0.611
286.51	-0.304
286.87	-1.422
287.24	-1.205
287.61	-1.046
287.98	-2.870
288.35	-1.923
288.72	-1.331
289.08	0.586
289.45	-1.775
289.82	-1.506
290.19	-1.293
290.56	1.268
290.93	-1.427
291.29	0.138
291.66	0.138
292.03	-0.678
292.40	0.136
292.77	0.135
293.13	-0.135
293.50	-1.840
293.87	-0.805
294.24	0.533
294.60	-0.126
294.97	-1.879
295.34	-0.384
295.71	-0.631
296.08	-0.388
296.44	-0.613
296.81	-0.365
297.18	-0.872
297.55	-0.825
297.91	-0.119
298.28	-0.948
298.65	0.951
299.02	-1.181
299.38	-0.458
299.75	0.234
300.12	-1.273
300.48	-0.115
300.85	-0.675
301.22	0.671
301.59	-0.913
301.95	-0.565
302.32	1.222
302.69	0.219
303.05	0.109
303.42	0.111
303.79	0.521
304.15	0.526
304.52	0.106
304.89	-0.105
305.25	-1.035
305.62	-0.104
305.99	0.206
306.35	-0.101
306.72	0.827
307.09	-0.102
307.45	0.414
307.82	0.706
308.19	0.404
308.55	2.122
308.92	0.000
309.29	0.287
309.65	-0.487
310.02	-0.396
310.38	0.394
310.75	1.165
311.12	1.438
311.48	-0.391
311.85	0.950
312.22	0.474
312.58	1.221
312.95	0.478
313.31	2.168
313.68	1.923
314.05	2.529
314.41	1.821
314.78	2.180
315.14	1.724
315.51	1.200
315.87	3.240
316.24	2.283
316.61	3.197
316.97	2.172
317.34	2.381
317.70	2.882
318.07	2.910
318.43	3.486
318.80	4.348
319.16	3.777
319.53	2.399
319.89	3.769
320.26	4.093
320.62	3.280
320.99	4.432
321.35	3.974
321.72	4.465
322.08	4.328
322.45	4.517
322.81	3.700
323.18	4.425
323.54	4.828
323.91	4.893
324.27	5.938
324.64	5.458
325.00	5.556
325.37	5.569
325.73	6.281
326.10	6.650
326.46	6.759
326.83	6.725
327.19	6.535
327.56	7.273
327.92	7.160
328.29	7.016
328.65	6.616
329.01	6.768
329.38	8.340
329.74	7.363
330.11	6.678
330.47	8.088
330.84	8.958
331.20	7.667
331.56	8.146
331.93	9.038
332.29	7.881
332.66	9.718
333.02	8.961
333.38	9.648
333.75	7.912
334.11	9.341
334.48	9.653
334.84	8.411
335.20	8.312
335.57	9.275
335.93	9.504
336.29	8.403
336.66	8.242
337.02	9.365
337.38	9.779
337.75	8.430
338.11	9.420
338.47	9.595
338.84	8.714
339.20	8.256
339.56	8.979
339.93	8.374
340.29	9.259
340.65	8.840
341.02	10.535
341.38	9.378
341.74	8.475
342.11	10.056
342.47	9.373
342.83	10.628
343.20	8.913
343.56	9.142
343.92	9.287
344.28	9.844
344.65	10.620
345.01	9.984
345.37	10.109
345.73	8.574
346.10	10.920
346.46	8.623
346.82	10.487
347.19	9.244
347.55	10.395
347.91	9.435
348.27	9.256
348.63	10.206
349.00	10.664
349.36	10.037
349.72	9.375
350.08	10.475
350.45	9.278
350.81	9.804
351.17	10.150
351.53	9.553
351.89	10.251
352.26	9.925
352.62	10.299
352.98	9.542
353.34	9.783
353.70	11.017
354.07	10.581
354.43	10.706
354.79	10.696
355.15	10.375
355.51	11.623
355.87	10.172
356.24	11.027
356.60	10.569
356.96	10.675
357.32	10.037
357.68	9.444
358.04	10.254
358.40	10.522
358.77	10.965
359.13	10.340
359.49	10.409
359.85	10.732
360.21	10.043
360.57	10.266
360.93	9.803
361.29	11.298
361.66	11.296
362.02	11.900
362.38	11.033
362.74	10.335
363.10	10.935
363.46	11.219
363.82	11.577
364.18	11.330
364.54	11.618
364.90	10.903
365.26	10.621
365.62	11.733
365.98	10.279
366.35	11.544
366.71	12.313
367.07	12.382
367.43	11.622
367.79	12.276
368.15	11.304
368.51	11.164
368.87	12.476
369.23	11.733
369.59	12.432
369.95	11.765
370.31	11.344
370.67	11.623
371.03	12.188
371.39	11.686
371.75	11.692
372.11	12.669
372.47	11.578
372.83	12.107
373.19	12.075
373.55	11.382
373.91	10.838
374.27	12.225
374.63	13.329
374.99	11.936
375.35	12.338
375.71	12.710
376.07	12.395
376.42	12.846
376.78	13.238
377.14	13.163
377.50	12.587
377.86	13.732
378.22	13.772
378.58	13.555
378.94	13.322
379.30	13.181
379.66	14.051
380.02	14.253
380.38	14.286
380.74	13.352
381.09	13.240
381.45	13.977
381.81	14.754
382.17	13.420
382.53	13.860
382.89	14.447
383.25	14.068
383.61	13.542
383.97	14.488
384.32	15.251
384.68	13.515
385.04	15.038
385.40	15.203
385.76	16.002
386.12	15.141
386.48	15.294
386.83	15.673
387.19	14.368
387.55	14.319
387.91	15.468
388.27	15.589
388.62	15.636
388.98	16.187
389.34	16.205
389.70	16.270
390.06	15.749
390.42	16.265
390.77	15.713
391.13	17.254
391.49	16.184
391.85	15.152
392.20	16.311
392.56	16.125
392.92	16.630
393.28	16.197
393.64	16.536
393.99	16.909
394.35	16.472
394.71	16.407
395.07	15.868
395.42	16.790
395.78	16.575
396.14	16.875
396.50	16.568
396.85	16.816
397.21	16.923
397.57	16.196
397.92	16.896
398.28	16.784
398.64	16.934
399.00	16.230
399.35	17.277
399.71	16.793
400.07	17.238
400.42	16.764
400.78	16.551
401.14	17.188
401.49	17.453
401.85	16.570
402.21	17.671
402.57	17.782
402.92	16.726
403.28	17.037
403.63	16.587
403.99	16.924
404.35	16.771
404.70	16.884
405.06	16.902
405.42	16.920
405.77	17.721
406.13	16.856
406.49	17.399
406.84	17.230
407.20	17.272
407.55	16.596
407.91	16.091
408.27	16.726
408.62	17.161
408.98	17.411
409.34	16.891
409.69	17.367
410.05	17.233
410.40	17.169
410.76	17.443
411.11	18.177
411.47	17.383
411.83	17.989
412.18	17.831
412.54	16.894
412.89	18.044
413.25	17.381
413.60	16.715
413.96	16.841
414.31	16.374
414.67	18.068
415.03	17.292
415.38	17.024
415.74	17.776
416.09	17.273
416.45	16.969
416.80	16.646
417.16	17.752
417.51	17.435
417.87	16.983
418.22	17.485
418.58	16.605
418.93	18.044
419.29	18.249
419.64	17.527
420.00	18.279
420.35	17.799
420.71	17.289
421.06	17.826
421.42	17.546
421.77	17.124
422.12	17.600
422.48	17.665
422.83	18.949
423.19	17.931
423.54	18.197
423.90	18.388
424.25	18.613
424.61	17.451
424.96	17.573
425.31	18.896
425.67	17.821
426.02	17.709
426.38	17.738
426.73	17.690
427.09	19.204
427.44	17.914
427.79	18.242
428.15	18.379
428.50	18.202
428.85	17.853
429.21	19.521
429.56	18.312
429.92	17.985
430.27	18.602
430.62	19.101
430.98	19.036
431.33	18.719
431.68	18.199
432.04	18.334
432.39	18.800
432.74	19.235
433.10	18.280
433.45	19.342
433.80	18.938
434.16	19.318
434.51	19.681
434.86	19.164
435.22	19.660
435.57	19.399
435.92	19.032
436.28	19.283
436.63	19.607
436.98	19.055
437.34	19.278
437.69	18.712
438.04	19.566
438.39	19.701
438.75	18.871
439.10	20.137
439.45	19.620
439.81	19.153
440.16	19.893
440.51	19.621
440.86	19.400
441.22	19.346
441.57	20.283
441.92	19.981
442.27	19.899
442.63	20.070
442.98	20.064
443.33	20.673
443.68	20.664
444.03	20.367
444.39	20.065
444.74	20.827
445.09	20.628
445.44	19.968
445.79	20.115
446.15	20.915
446.50	20.155
446.85	20.379
447.20	21.083
447.55	20.450
447.91	19.581
448.26	20.402
448.61	20.670
448.96	21.727
449.31	20.520
449.66	19.826
450.02	20.781
450.37	21.364
450.72	20.237
451.07	20.729
451.42	20.739
451.77	19.400
452.12	20.767
452.47	19.905
452.83	20.777
453.18	21.133
453.53	20.391
453.88	20.872
454.23	20.565
454.58	20.429
454.93	20.206
455.28	21.312
455.63	20.409
455.98	20.894
456.34	20.259
456.69	20.752
457.04	20.922
457.39	20.565
457.74	20.582
458.09	20.154
458.44	21.282
458.79	20.629
459.14	21.028
459.49	20.600
459.84	21.721
460.19	20.600
460.54	21.408
460.89	20.699
461.24	20.345
461.59	21.251
461.94	20.764
462.29	21.445
462.64	21.062
462.99	20.841
463.34	21.674
463.69	20.574
464.04	21.456
464.39	21.581
464.74	20.981
465.09	20.704
465.44	21.137
465.79	22.263
466.14	21.261
466.49	22.053
466.84	21.818
467.19	21.503
467.54	21.915
467.89	20.517
468.24	21.884
468.59	20.208
468.94	20.396
469.29	20.996
469.64	20.788
469.99	21.096
470.34	20.606
470.68	21.394
471.03	21.022
471.38	22.171
471.73	20.871
472.08	21.701
472.43	21.433
472.78	22.544
473.13	21.365
473.48	21.813
473.83	21.648
474.17	21.102
474.52	21.287
474.87	21.816
475.22	21.690
475.57	22.170
475.92	22.051
476.27	21.406
476.61	21.391
476.96	21.376
477.31	22.475
477.66	23.033
478.01	22.166
478.36	21.236
478.70	21.724
479.05	22.239
479.40	22.261
479.75	22.430
480.10	21.933
480.45	22.516
480.79	22.041
481.14	22.289
481.49	21.990
481.84	21.932
482.19	23.183
482.53	22.519
482.88	23.084
483.23	22.232
483.58	21.834
483.92	21.853
484.27	22.735
484.62	22.030
484.97	22.278
485.31	22.034
485.66	20.767
486.01	21.404
486.36	22.180
486.70	23.443
487.05	23.673
487.40	23.172
487.75	22.621
488.09	22.006
488.44	21.578
488.79	21.788
489.13	22.158
489.48	21.786
489.83	22.133
490.17	21.426
490.52	21.880
490.87	21.574
491.22	22.227
491.56	21.843
491.91	22.416
492.26	22.371
492.60	22.519
492.95	22.685
493.30	22.905
493.64	22.602
493.99	21.974
494.34	22.387
494.68	22.184
495.03	23.128
495.37	22.503
495.72	22.404
496.07	22.656
496.41	22.480
496.76	22.560
497.11	23.015
497.45	23.177
497.80	22.390
498.14	22.268
498.49	22.886
498.84	21.846
499.18	22.312
499.53	23.094
499.87	22.637
500.22	22.217
500.56	22.762
500.91	23.570
501.26	22.773
501.60	22.139
501.95	23.144
502.29	23.300
502.64	22.519
502.98	22.994
503.33	22.549
503.67	22.329
504.02	22.504
504.36	23.369
504.71	22.646
505.06	23.010
505.40	23.172
505.75	22.723
506.09	22.974
506.44	23.259
506.78	24.450
507.13	23.190
507.47	23.828
507.82	22.775
508.16	23.279
508.51	22.738
508.85	23.240
509.19	23.401
509.54	23.247
509.88	23.507
510.23	23.992
510.57	23.973
510.92	23.996
511.26	23.184
511.61	23.563
511.95	23.133
512.30	24.077
512.64	23.538
512.98	23.212
513.33	23.790
513.67	24.018
514.02	23.505
514.36	23.836
514.70	23.802
515.05	24.557
515.39	23.622
515.74	24.867
516.08	23.613
516.42	24.437
516.77	23.922
517.11	24.446
517.46	24.072
517.80	25.067
518.14	25.517
518.49	24.295
518.83	24.162
519.17	24.071
519.52	25.105
519.86	24.182
520.20	24.814
520.55	24.096
520.89	24.606
521.23	24.623
521.58	24.181
521.92	24.873
522.26	24.685
522.61	25.174
522.95	24.048
523.29	25.287
523.64	24.439
523.98	25.385
524.32	25.215
524.66	25.498
525.01	25.085
525.35	25.043
525.69	24.420
526.04	24.225
526.38	24.943
526.72	24.567
527.06	25.103
527.41	24.781
527.75	25.119
528.09	24.911
528.43	24.156
528.78	25.087
529.12	24.656
529.46	25.126
529.80	24.428
530.15	24.696
530.49	24.733
530.83	24.675
531.17	24.552
531.51	24.489
531.86	25.421
532.20	24.939
532.54	24.057
532.88	25.152
533.22	25.339
533.57	24.870
533.91	25.140
534.25	25.777
534.59	25.402
534.93	24.335
535.27	24.113
535.62	25.810
535.96	25.799
536.30	25.029
536.64	25.946
536.98	25.892
537.32	25.185
537.66	25.577
538.01	24.955
538.35	24.848
538.69	24.639
539.03	26.180
539.37	25.206
539.71	25.405
540.05	24.700
540.39	24.389
540.73	25.440
541.07	24.893
541.42	24.690
541.76	24.140
542.10	26.297
542.44	24.117
542.78	24.939
543.12	26.043
543.46	25.641
543.80	25.540
544.14	24.656
544.48	25.709
544.82	25.972
545.16	25.045
545.50	25.105
545.84	25.842
546.18	25.247
546.52	26.752
546.86	26.164
547.20	25.763
547.54	24.095
547.88	24.533
548.22	25.263
548.56	25.453
548.90	25.552
549.24	26.140
549.58	24.669
549.92	25.000
550.26	25.825
550.60	24.569
550.94	26.067
551.28	25.611
551.62	25.876
551.96	24.854
552.30	25.749
552.64	25.887
552.98	25.702
553.32	27.138
553.66	25.273
554.00	25.599
554.34	26.126
554.68	26.275
555.02	26.216
555.36	26.759
555.69	25.048
556.03	26.356
556.37	26.658
556.71	26.189
557.05	25.751
557.39	26.277
557.73	25.297
558.07	25.828
558.41	26.113
558.75	25.287
559.08	26.722
559.42	25.446
559.76	26.526
560.10	25.117
560.44	25.989
560.78	26.937
561.12	25.369
561.45	25.730
561.79	26.007
562.13	26.617
562.47	25.586
562.81	26.709
563.15	26.389
563.48	25.606
563.82	25.514
564.16	24.894
564.50	25.626
564.84	25.369
565.17	26.294
565.51	25.086
565.85	26.544
566.19	24.424
566.52	26.039
566.86	25.750
567.20	25.340
567.54	25.332
567.88	25.943
568.21	25.445
568.55	25.516
568.89	26.010
569.23	25.518
569.56	25.869
569.90	26.408
570.24	25.936
570.57	25.529
570.91	25.444
571.25	25.687
571.59	26.301
571.92	25.853
572.26	25.675
572.60	25.171
572.93	25.355
573.27	25.400
573.61	25.119
573.95	25.395
574.28	25.274
574.62	25.216
574.96	24.813
575.29	24.851
575.63	25.318
575.97	25.509
576.30	24.426
576.64	25.245
576.98	25.467
577.31	25.296
577.65	25.588
577.98	25.019
578.32	24.949
578.66	25.405
578.99	25.189
579.33	24.744
579.67	24.796
580.00	25.062
580.34	24.978
580.67	24.448
581.01	24.859
581.35	25.424
581.68	25.111
582.02	25.782
582.35	25.600
582.69	26.155
583.02	25.285
583.36	25.323
583.70	24.426
584.03	24.934
584.37	24.809
584.70	24.548
585.04	24.901
585.37	25.188
585.71	25.674
586.04	25.099
586.38	25.302
586.72	25.069
587.05	25.301
587.39	25.256
587.72	25.813
588.06	25.411
588.39	25.442
588.73	25.450
589.06	25.564
589.40	25.384
589.73	25.643
590.07	25.332
590.40	25.794
590.73	25.133
591.07	26.731
591.40	25.505
591.74	25.437
592.07	26.106
592.41	25.473
592.74	25.453
593.08	26.019
593.41	25.926
593.75	26.034
594.08	26.295
594.41	26.378
594.75	25.639
595.08	25.269
595.42	25.455
595.75	26.090
596.09	26.466
596.42	25.761
596.75	25.125
597.09	25.859
597.42	24.990
597.75	25.911
598.09	26.270
598.42	25.533
598.76	25.220
599.09	25.810
599.42	25.846
599.76	25.289
600.09	26.393
600.42	25.759
600.76	25.561
601.09	25.987
601.42	25.815
601.76	25.103
602.09	25.304
602.42	25.409
602.76	25.609
603.09	25.147
603.42	26.156
603.76	25.687
604.09	26.011
604.42	26.055
604.76	25.114
605.09	25.967
605.42	25.199
605.75	25.154
606.09	25.681
606.42	25.283
606.75	25.825
607.09	25.192
607.42	25.703
607.75	25.596
608.08	25.178
608.42	25.957
608.75	25.498
609.08	24.363
609.41	25.408
609.75	25.625
610.08	26.297
610.41	26.083
610.74	25.126
611.07	26.332
611.41	26.502
611.74	26.374
612.07	26.367
612.40	25.143
612.73	26.406
613.07	25.526
613.40	25.746
613.73	25.662
614.06	26.300
614.39	25.316
614.72	25.425
615.06	25.361
615.39	25.326
615.72	25.640
616.05	26.129
616.38	25.832
616.71	25.967
617.05	25.133
617.38	25.147
617.71	26.188
618.04	26.390
618.37	26.066
618.70	25.792
619.03	26.165
619.36	25.216
619.69	26.393
620.03	25.424
620.36	25.337
620.69	24.800
621.02	26.312
621.35	26.633
621.68	27.332
622.01	25.694
622.34	25.105
622.67	25.636
623.00	25.574
623.33	26.609
623.66	26.654
623.99	26.070
624.32	27.290
624.65	25.804
624.99	26.203
625.32	26.453
625.65	26.433
625.98	26.237
626.31	25.656
626.64	24.908
626.97	25.056
627.30	25.664
627.63	24.231
627.96	27.252
628.29	27.004
628.62	24.853
628.95	26.380
629.28	25.064
629.61	26.599
629.94	25.021
630.26	25.932
630.59	25.820
630.92	25.801
631.25	26.655
631.58	27.401
631.91	25.867
632.24	26.321
632.57	25.901
632.90	26.179
633.23	25.816
633.56	27.143
633.89	25.826
634.22	26.195
634.55	27.766
634.88	25.649
635.20	26.265
635.53	27.458
635.86	27.952
636.19	25.663
636.52	27.321
636.85	25.741
637.18	25.988
637.51	25.699
637.83	26.246
638.16	27.189
638.49	27.230
638.82	26.494
639.15	24.170
639.48	27.252
639.81	25.404
640.13	26.855
640.46	24.000
640.79	25.613
641.12	26.584
641.45	27.854
641.77	27.856
642.10	25.984
642.43	27.793
642.76	26.558
643.09	25.753
643.41	25.490
643.74	26.207
644.07	27.862
644.40	27.723
644.73	25.980
645.05	28.047
645.38	26.331
645.71	25.806
646.04	26.399
646.36	23.796
646.69	25.307
647.02	28.440
647.35	27.328
647.67	25.121
648.00	27.070
648.33	26.877
648.66	25.107
648.98	24.218
649.31	27.605
649.64	27.357
649.96	25.199
650.29	24.478
650.62	24.752
650.94	25.826
651.27	24.551
651.60	25.585
651.92	26.292
652.25	26.483
652.58	25.447
652.90	25.000
653.23	24.789
653.56	26.248
653.88	27.809
654.21	25.634
654.54	23.699
654.86	26.204
655.19	24.090
655.52	28.093
655.84	27.818
656.17	32.793
656.49	45.276
656.82	48.486
657.15	37.192
657.47	27.538
657.80	19.635
658.13	14.986
658.45	18.948
658.78	22.641
659.10	20.913
659.43	20.227
659.75	19.781
660.08	20.056
660.41	21.009
660.73	20.867
661.06	23.201
661.38	24.721
661.71	25.000
662.03	24.868
662.36	25.939
662.68	27.205
663.01	25.841
663.33	26.465
663.66	27.473
663.98	23.462
664.31	26.642
664.63	24.855
664.96	25.590
665.28	24.138
665.61	27.622
665.93	23.393
666.26	25.090
666.58	25.646
666.91	24.112
667.23	26.095
667.56	28.008
667.88	24.600
668.21	24.219
668.53	22.587
668.86	25.737
669.18	25.255
669.50	26.640
669.83	24.800
670.15	26.378
670.48	26.389
670.80	22.180
671.13	24.953
671.45	25.591
671.77	28.437
672.10	26.167
672.42	24.434
672.75	23.963
673.07	25.224
673.39	25.578
673.72	26.342
674.04	26.897
674.37	25.939
674.69	28.748
675.01	21.333
675.34	25.954
675.66	24.532
675.98	22.948
676.31	27.539
676.63	27.757
676.95	25.670
677.28	25.605
677.60	19.094
677.92	25.528
678.25	24.497
678.57	25.089
678.89	26.109
679.22	24.390
679.54	24.274
679.86	25.932
680.18	25.539
680.51	24.843
680.83	24.877
681.15	24.483
681.48	24.870
681.80	24.525
682.12	23.601
682.44	25.042
682.77	24.291
683.09	24.242
683.41	24.031
683.73	24.478
684.06	24.539
684.38	21.825
684.70	26.032
685.02	24.785
685.34	22.130
685.67	21.451
685.99	23.160
686.31	25.000
686.63	24.013
686.96	22.397
687.28	24.593
687.60	23.569
687.92	22.508
688.24	24.875
688.56	22.931
688.89	25.045
689.21	25.245
689.53	23.922
689.85	24.260
690.17	23.704
690.49	23.904
690.82	22.574
691.14	23.279
691.46	23.518
691.78	25.414
692.10	23.303
692.42	21.786
692.74	22.505
693.06	22.037
693.39	24.668
693.71	21.992
694.03	24.164
694.35	21.524
694.67	24.435
694.99	22.553
695.31	24.503
695.63	24.459
695.95	21.739
696.27	27.033
696.59	23.451
696.91	21.847
697.23	23.297
697.56	23.218
697.88	22.917
698.20	22.411
698.52	28.220
698.84	23.701
699.16	24.490
699.48	21.548
699.80	22.340
700.12	21.834
700.44	28.571
700.76	22.565
701.08	21.308
701.40	25.648
701.72	23.383
702.04	22.460
702.36	20.157
702.68	24.450
703.00	22.738
703.32	24.631
703.64	24.450
703.96	22.912
704.28	21.867
704.60	22.278
704.91	22.449
705.23	24.658
705.55	19.499
705.87	25.455
706.19	22.699
706.51	21.084
706.83	20.461
707.15	19.841
707.47	21.262
707.79	23.362
708.11	18.856
708.43	22.796
708.74	18.973
709.06	22.506
709.38	23.709
709.70	22.829
710.02	21.964
710.34	21.809
710.66	21.229
710.98	24.317
711.29	21.154
711.61	22.599
711.93	24.501
712.25	21.351
712.57	23.009
712.89	24.412
713.20	23.964
713.52	25.434
713.84	21.448
714.16	20.000
714.48	22.938
714.80	24.675
715.11	18.635
715.43	18.568
715.75	25.000
716.07	21.823
716.39	24.863
716.70	19.880
717.02	24.262
717.34	18.815
717.66	18.792
717.97	19.521
718.29	25.773
718.61	17.763
718.93	20.712
719.24	20.186
719.56	21.166
719.88	21.622
720.20	19.677
720.51	21.739
720.83	19.375
721.15	18.750
721.46	16.096
721.78	19.333
722.10	18.770
722.42	19.463
722.73	18.710
723.05	22.807
723.37	22.917
723.68	21.864
724.00	21.661
724.32	19.718
724.63	19.930
724.95	23.050
725.27	22.300
725.58	19.435
725.90	23.793
726.22	23.824
726.53	19.481
726.85	22.327
727.16	22.356
727.48	20.489
727.80	23.510
728.11	17.314
728.43	21.549
728.74	19.732
729.06	21.192
729.38	22.727
729.69	18.456
730.01	18.452
730.32	18.485
730.64	16.667
730.96	20.497
731.27	20.670
731.59	20.604
731.90	21.039
732.22	20.052
732.53	15.746
732.85	18.857
733.16	21.701
733.48	16.463
733.80	20.334
734.11	20.228
734.43	20.000
734.74	21.013
735.06	19.598
735.37	20.811
735.69	16.757
736.00	21.186
736.32	19.137
736.63	20.833
736.95	18.103
737.26	21.818
737.58	18.485
737.89	21.765
738.21	17.431
738.52	20.000
738.83	17.406
739.15	19.504
739.46	21.769
739.78	18.712
740.09	19.484
740.41	21.574
740.72	19.667
741.04	19.094
741.35	17.895
741.66	18.431
741.98	22.541
742.29	20.502
742.61	20.614
742.92	20.769
743.23	22.383
743.55	15.504
743.86	17.600
744.18	14.876
744.49	13.502
744.80	22.222
745.12	20.675
745.43	19.512
745.74	18.966
746.06	18.220
746.37	17.300
746.68	24.390
747.00	20.417
747.31	19.742
747.62	22.308
747.94	18.623
748.25	16.466
748.56	17.551
748.88	17.949
749.19	19.397
749.50	15.584
749.82	22.088
750.13	20.996
750.44	16.333
750.75	21.231
751.07	22.769
751.38	19.558
751.69	14.696
752.01	15.534
752.32	19.935
752.63	21.429
752.94	14.879
753.26	18.216
753.57	15.926
753.88	18.352
754.19	18.006
754.51	19.293
754.82	19.936
755.13	22.623
755.44	18.771
755.75	18.421
756.07	18.507
756.38	18.239
756.69	22.289
757.00	15.512
757.31	17.760
757.63	17.903
757.94	18.545
758.25	17.833
758.56	18.736
758.87	21.364
759.18	18.133
759.50	24.079
759.81	19.328
760.12	18.598
760.43	18.490
760.74	20.443
761.05	21.000
761.36	16.867
761.67	16.244
761.99	19.459
762.30	19.512
762.61	14.851
762.92	17.164
763.23	17.603
763.54	17.986
763.85	20.619
764.16	18.855
764.47	17.254
764.78	18.211
765.10	20.235
765.41	23.333
765.72	18.519
766.03	20.621
766.34	17.868
766.65	12.195
766.96	17.530
767.27	16.129
767.58	15.920
767.89	19.231
768.20	20.657
768.51	18.981
768.82	16.466
769.13	22.727
769.44	10.769
769.75	19.495
770.06	18.462
770.37	16.535
770.68	14.894
770.99	15.385
771.30	24.444
771.61	15.970
771.92	13.333
772.23	20.648
772.54	12.037
772.85	21.198
773.16	22.381
773.47	12.169
773.78	11.892
774.09	22.159
774.39	16.500
774.70	20.219
775.01	15.244
775.32	15.294
775.63	12.883
775.94	7.006
776.25	14.194
776.56	14.744
776.87	14.966
777.18	11.724
777.48	9.091
777.79	11.486
778.10	9.559
778.41	12.500
778.72	15.862
779.03	12.346
779.34	18.182
779.65	15.026
779.95	20.556
780.26	10.227
780.57	13.548
780.88	10.145
781.19	13.548
781.50	17.059
781.80	20.430
782.11	19.577
782.42	12.626
782.73	16.168
783.04	13.966
783.34	3.636
783.65	7.843
783.96	9.938
784.27	14.286
784.57	13.245
784.88	8.571
785.19	4.724
785.50	10.236
785.81	7.519
786.11	7.692
786.42	5.755
786.73	2.158
787.04	16.541
787.34	9.016
787.65	10.400
787.96	16.418
788.26	25.175
788.57	20.979
788.88	17.763
789.19	15.033
789.49	10.274
789.80	13.475
790.11	7.874
790.41	7.813
790.72	5.085
791.03	3.883
791.33	14.783
791.64	3.509
791.95	5.357
792.25	11.429
792.56	8.929
792.87	-3.125
793.17	8.036
793.48	3.125
793.79	-2.410
794.09	0.000
794.40	-4.587
794.70	6.122
795.01	6.494
795.32	15.068
795.62	13.380
795.93	0.000
796.23	12.295
796.54	5.357
796.85	-1.064
797.15	7.609
797.46	1.370
797.76	-2.500
798.07	2.174
798.37	-8.247
798.68	2.597
798.99	4.598
799.29	-1.124
799.60	12.766
799.90	-1.205
800.21	-9.231
800.51	-13.433
800.82	-16.176
801.12	-16.438
801.43	-17.647
801.73	-6.780
802.04	-22.727
802.34	-11.667
802.65	0.000
802.95	-5.970
803.26	-13.559
803.56	-6.849
803.87	-5.714
804.17	4.110
804.48	-35.088
804.78	-15.278
805.09	-22.414
805.39	8.108
805.70	-15.493
806.00	21.951
806.30	-4.819
806.61	-1.370
806.91	5.769
807.22	6.667
807.52	-6.897
807.83	4.167
808.13	0.000
808.43	10.112
808.74	0.000
809.04	-8.824
809.35	4.000
809.65	-7.143
809.95	2.740
810.26	-8.772
810.56	5.172
810.86	7.353
811.17	-8.772
811.47	-18.033
811.77	-35.556
812.08	-6.780
812.38	-10.000
812.69	8.621
812.99	-20.755
813.29	-20.513
813.59	6.000
813.90	-1.754
814.20	-10.909
814.50	5.634
814.81	7.692
815.11	4.918
815.41	0.000
815.72	15.517
816.02	16.071
816.32	-2.222
816.62	-22.727
816.93	-17.778
817.23	-9.259
817.53	-14.894
817.84	-7.143
818.14	-20.588
818.44	2.041
818.74	-8.889
819.04	-28.205
819.35	-40.000
819.65	-30.769
819.95	-22.642
820.25	2.222
820.56	-9.524
820.86	-28.125
821.16	-33.333
821.46	-25.581
821.76	-12.000
822.07	8.929
822.37	-15.217
822.67	-4.255
822.97	-35.135
823.27	-15.000
823.57	6.122
823.88	-4.444
824.18	15.000
824.48	-23.333
824.78	-4.000
825.08	-9.091
825.38	-6.667
825.69	-8.511
825.99	-8.333
826.29	-51.429
826.59	-23.077
826.89	-16.279
827.19	-2.000
827.49	-23.529
827.79	14.583
828.09	-37.838
828.39	-33.333
828.70	-4.878
829.00	-16.279
829.30	-42.857
829.60	-17.647
829.90	-15.217
830.20	-25.714
830.50	-51.724
830.80	-66.667
831.10	-46.154
831.40	-8.824
831.70	-19.048
832.00	-19.355
832.30	-152.941
832.60	-83.333
832.90	-207.692
833.20	-94.737
833.50	-55.000
833.80	-100.000
834.10	-57.143
834.40	0.000
834.70	-6.250
835.00	-45.714
835.30	-32.353
835.60	-20.000
835.90	-40.000
836.20	-68.182
836.50	-52.000
836.80	-27.273
837.10	-29.630
837.40	-11.111
837.70	-118.750
838.00	-39.286
838.30	-65.217
838.60	-37.931
838.90	-85.714
839.19	-86.957
839.49	-125.000
839.79	-65.217
840.09	-206.250
840.39	-65.000
840.69	-25.806
840.99	-78.571
841.29	-126.667
841.59	-89.474
841.88	12.821
842.18	-50.000
842.48	-130.000
842.78	-25.000
843.08	-16.667
843.38	-32.258
843.68	-94.444
843.97	-14.706
844.27	-137.500
844.57	-100.000
844.87	-110.000
845.17	-126.667
845.47	-52.381
845.76	-61.905
846.06	-233.333
846.36	-129.412
846.66	-30.769
846.96	-93.333
847.25	-158.824
847.55	-39.130
847.85	-70.000
848.15	-82.353
848.44	-109.091
848.74	-33.333
849.04	-16.667
849.34	-75.000
849.63	-39.130
849.93	1150.000
850.23	-80.000
850.53	-3.846
850.82	-190.909
851.12	-22.727
851.42	-190.909
851.71	-46.154
852.01	-130.000
852.31	-92.308
852.61	-57.895
852.90	-100.000
853.20	-72.222
853.50	-322.222
853.79	-85.714
854.09	-45.455
854.39	-175.000
854.68	-45.161
854.98	-65.385
855.28	-16.667
855.57	-60.714
855.87	-48.000
856.17	-22.727
856.46	0.000
856.76	-66.667
857.05	-43.478
857.35	-50.000
857.65	-115.385
857.94	-47.619
858.24	-25.926
858.53	-47.826
858.83	-64.706
859.13	-23.529
859.42	0.000
859.72	-21.429
860.01	-35.000
860.31	-177.778
860.60	-20.000
860.90	-106.667
861.20	-83.333
861.49	-30.769
861.79	-20.000
862.08	-92.308
862.38	6.250
862.67	-70.588
862.97	-118.750
863.26	-144.444
863.56	-160.000
863.85	-136.364
864.15	-38.889
864.44	-266.667
864.74	-71.429
865.03	-118.750
865.33	-200.000
865.62	-32.258
865.92	-31.818
866.21	-47.826
866.51	-107.143
866.80	-380.000
867.10	-141.667
867.39	-158.333
867.69	2400.000
867.98	-142.857
868.27	-58.824
868.57	-3400.000
868.86	-140.000
869.16	-52.381
869.45	-33.333
869.75	-100.000
870.04	-171.429
870.33	-8.333
870.63	-242.857
870.92	-325.000
871.22	-212.500
871.51	-118.182
871.80	-1200.000
872.10	-600.000
>>>>>End Processed Spectral Data<<<<<
