SpectraSuite Data File
++++++++++++++++++++++++++++++++++++
Date: Thu May 14 14:57:16 PDT 2015
User: schluterlab
Dark Spectrum Present: Yes
Reference Spectrum Present: Yes
Number of Sampled Component Spectra: 1
Spectrometers: USB2E3373
Integration Time (usec): 3000 (USB2E3373)
Spectra Averaged: 3 (USB2E3373)
Boxcar Smoothing: 0 (USB2E3373)
Correct for Electrical Dark: No (USB2E3373)
Strobe/Lamp Enabled: No (USB2E3373)
Correct for Detector Non-linearity: No (USB2E3373)
Correct for Stray Light: No (USB2E3373)
Number of Pixels in Processed Spectrum: 2048
>>>>>Begin Processed Spectral Data<<<<<
178.53	0.000
178.91	271.429
179.29	-2800.000
179.67	-1900.000
180.04	257.143
180.42	170.000
180.80	460.000
181.18	-2600.000
181.56	-1200.000
181.94	525.000
182.31	-350.000
182.69	1033.333
183.07	-700.000
183.45	575.000
183.83	-383.333
184.20	-366.667
184.58	1800.000
184.96	-475.000
185.34	-155.556
185.72	-380.000
186.09	322.222
186.47	1350.000
186.85	460.000
187.23	-300.000
187.61	-2000.000
187.98	480.000
188.36	675.000
188.74	-625.000
189.12	-600.000
189.49	-56.250
189.87	-250.000
190.25	-88.889
190.63	-420.000
191.00	-322.222
191.38	0.000
191.76	-675.000
192.14	-200.000
192.51	1000.000
192.89	-200.000
193.27	0.000
193.65	-300.000
194.02	-3500.000
194.40	-271.429
194.78	314.286
195.15	0.000
195.53	-154.545
195.91	0.000
196.29	-300.000
196.66	-176.923
197.04	-2500.000
197.42	-257.143
197.79	-1350.000
198.17	-337.500
198.55	-328.571
198.92	-155.556
199.30	-275.000
199.68	-118.182
200.05	-107.143
200.43	-1400.000
200.81	314.286
201.18	0.000
201.56	344.444
201.94	0.000
202.31	700.000
202.69	-288.889
203.07	2100.000
203.44	-244.444
203.82	-550.000
204.19	-166.667
204.57	-350.000
204.95	-225.000
205.32	-2000.000
205.70	525.000
206.08	-266.667
206.45	-266.667
206.83	580.000
207.20	-233.333
207.58	-520.000
207.96	-266.667
208.33	-133.333
208.71	225.000
209.08	-133.333
209.46	0.000
209.84	383.333
210.21	500.000
210.59	650.000
210.96	866.667
211.34	-425.000
211.71	-300.000
212.09	-2600.000
212.46	0.000
212.84	1550.000
213.22	-420.000
213.59	-500.000
213.97	-160.000
214.34	-666.667
214.72	400.000
215.09	-450.000
215.47	0.000
215.84	314.286
216.22	1750.000
216.59	-320.000
216.97	-280.000
217.34	-425.000
217.72	-187.500
218.09	-450.000
218.47	-475.000
218.84	0.000
219.22	320.000
219.59	-100.000
219.97	-120.000
220.34	1050.000
220.72	-266.667
221.09	-38.462
221.47	-666.667
221.84	-230.000
222.22	-228.571
222.59	0.000
222.97	-212.500
223.34	-660.000
223.72	-2500.000
224.09	-325.000
224.46	-550.000
224.84	-280.000
225.21	-285.714
225.59	-600.000
225.96	-650.000
226.34	-34.615
226.71	500.000
227.08	-1300.000
227.46	-100.000
227.83	-475.000
228.21	-52.632
228.58	287.500
228.95	850.000
229.33	-100.000
229.70	-140.000
230.08	10.526
230.45	190.000
230.82	-633.333
231.20	-121.429
231.57	-125.000
231.95	-227.273
232.32	-90.909
232.69	-40.000
233.07	-500.000
233.44	-135.294
233.81	-220.000
234.19	-50.000
234.56	-72.727
234.93	-24.138
235.31	-94.737
235.68	-77.778
236.05	-115.000
236.43	15.385
236.80	12.000
237.17	-59.259
237.55	-24.242
237.92	-60.000
238.29	-29.032
238.67	-38.636
239.04	-50.000
239.41	-30.952
239.79	-36.957
240.16	-5.556
240.53	-26.087
240.91	-23.529
241.28	-16.393
241.65	4.478
242.02	9.459
242.40	-6.154
242.77	0.000
243.14	-7.317
243.51	-13.158
243.89	-7.692
244.26	7.921
244.63	7.843
245.00	15.888
245.38	2.632
245.75	-4.425
246.12	10.317
246.49	-1.550
246.87	7.143
247.24	14.570
247.61	7.895
247.98	2.685
248.36	4.938
248.73	7.975
249.10	6.557
249.47	14.925
249.84	24.084
250.22	11.917
250.59	12.222
250.96	15.909
251.33	9.184
251.70	14.103
252.08	12.917
252.45	17.213
252.82	17.769
253.19	12.500
253.56	20.913
253.94	13.462
254.31	16.667
254.68	20.629
255.05	18.241
255.42	19.048
255.79	12.945
256.16	15.894
256.54	15.563
256.91	16.393
257.28	15.410
257.65	10.510
258.02	14.749
258.39	16.239
258.76	18.960
259.14	16.954
259.51	16.427
259.88	15.864
260.25	16.389
260.62	18.904
260.99	20.219
261.36	21.716
261.73	15.119
262.10	18.956
262.47	20.643
262.85	20.202
263.22	15.325
263.59	17.895
263.96	17.136
264.33	17.647
264.70	17.778
265.07	19.093
265.44	21.995
265.81	17.130
266.18	19.955
266.55	19.420
266.92	16.401
267.29	20.131
267.66	20.621
268.03	19.651
268.40	20.251
268.77	16.856
269.14	19.604
269.51	20.833
269.88	21.926
270.25	19.718
270.62	21.730
270.99	20.606
271.36	18.614
271.73	17.878
272.10	19.238
272.47	20.441
272.84	16.867
273.21	19.238
273.58	21.371
273.95	19.038
274.32	16.730
274.69	20.503
275.06	17.766
275.43	16.451
275.80	18.519
276.17	17.778
276.54	19.776
276.91	18.784
277.28	18.987
277.65	19.749
278.02	19.118
278.39	20.471
278.76	18.453
279.13	20.213
279.50	18.557
279.87	17.352
280.23	16.549
280.60	19.831
280.97	18.914
281.34	20.034
281.71	20.474
282.08	18.771
282.45	16.858
282.82	19.623
283.19	17.771
283.56	18.033
283.92	19.369
284.29	19.273
284.66	17.241
285.03	16.346
285.40	18.856
285.77	17.337
286.14	19.695
286.51	17.808
286.87	18.641
287.24	18.072
287.61	17.788
287.98	19.184
288.35	17.604
288.72	17.604
289.08	19.034
289.45	15.976
289.82	15.211
290.19	18.247
290.56	16.197
290.93	16.548
291.29	16.804
291.66	16.804
292.03	15.604
292.40	19.320
292.77	15.499
293.13	16.509
293.50	16.032
293.87	15.436
294.24	16.133
294.60	16.056
294.97	13.960
295.34	16.261
295.71	15.259
296.08	14.341
296.44	13.725
296.81	14.982
297.18	13.450
297.55	14.623
297.91	14.116
298.28	14.218
298.65	14.269
299.02	13.105
299.38	14.760
299.75	14.603
300.12	13.657
300.48	13.594
300.85	13.723
301.22	15.436
301.59	13.584
301.95	13.107
302.32	14.444
302.69	12.705
303.05	13.602
303.42	13.969
303.79	14.688
304.15	14.511
304.52	14.165
304.89	14.450
305.25	13.561
305.62	14.943
305.99	14.742
306.35	13.710
306.72	13.650
307.09	14.721
307.45	13.975
307.82	13.724
308.19	13.421
308.55	15.043
308.92	12.950
309.29	12.739
309.65	12.963
310.02	12.079
310.38	13.287
310.75	13.689
311.12	13.998
311.48	13.490
311.85	13.010
312.22	13.662
312.58	14.085
312.95	13.576
313.31	12.105
313.68	13.736
314.05	13.369
314.41	13.934
314.78	13.806
315.14	13.158
315.51	13.204
315.87	13.051
316.24	14.612
316.61	11.901
316.97	13.213
317.34	13.492
317.70	14.148
318.07	13.668
318.43	12.925
318.80	14.716
319.16	12.532
319.53	12.768
319.89	12.621
320.26	12.989
320.62	13.564
320.99	13.112
321.35	13.586
321.72	14.233
322.08	12.624
322.45	12.376
322.81	14.621
323.18	11.327
323.54	13.707
323.91	13.790
324.27	13.081
324.64	15.029
325.00	12.852
325.37	13.432
325.73	13.306
326.10	13.382
326.46	14.739
326.83	13.771
327.19	13.858
327.56	14.229
327.92	12.825
328.29	12.903
328.65	14.322
329.01	13.367
329.38	13.564
329.74	14.469
330.11	12.671
330.47	13.564
330.84	13.264
331.20	14.917
331.56	13.605
331.93	14.142
332.29	13.898
332.66	13.040
333.02	13.065
333.38	12.752
333.75	12.542
334.11	13.928
334.48	13.449
334.84	13.594
335.20	13.602
335.57	12.901
335.93	13.058
336.29	12.562
336.66	12.952
337.02	13.462
337.38	13.690
337.75	12.231
338.11	13.877
338.47	14.144
338.84	13.113
339.20	11.963
339.56	14.003
339.93	13.711
340.29	13.688
340.65	12.733
341.02	12.690
341.38	14.390
341.74	13.559
342.11	13.516
342.47	12.629
342.83	12.963
343.20	13.900
343.56	13.392
343.92	12.730
344.28	13.984
344.65	13.798
345.01	13.261
345.37	12.830
345.73	12.783
346.10	13.105
346.46	12.658
346.82	12.959
347.19	12.911
347.55	13.202
347.91	13.001
348.27	13.278
348.63	13.328
349.00	12.752
349.36	13.680
349.72	13.616
350.08	13.150
350.45	13.308
350.81	12.217
351.17	12.632
351.53	13.192
351.89	12.908
352.26	12.836
352.62	12.090
352.98	11.756
353.34	11.501
353.70	12.635
354.07	13.040
354.43	11.769
354.79	11.967
355.15	12.804
355.51	12.646
355.87	12.266
356.24	12.852
356.60	12.491
356.96	11.490
357.32	12.788
357.68	12.299
358.04	12.201
358.40	11.493
358.77	12.281
359.13	11.965
359.49	11.524
359.85	12.110
360.21	13.415
360.57	11.558
360.93	11.283
361.29	12.491
361.66	13.179
362.02	12.944
362.38	12.790
362.74	12.221
363.10	12.448
363.46	12.673
363.82	12.429
364.18	12.104
364.54	12.310
364.90	12.776
365.26	11.517
365.62	12.267
365.98	12.730
366.35	12.148
366.71	12.177
367.07	12.111
367.43	12.935
367.79	12.940
368.15	13.043
368.51	12.923
368.87	12.214
369.23	11.867
369.59	12.022
369.95	13.185
370.31	12.897
370.67	12.105
371.03	12.327
371.39	11.484
371.75	11.967
372.11	13.347
372.47	12.593
372.83	13.089
373.19	12.809
373.55	12.534
373.91	11.861
374.27	12.354
374.63	12.855
374.99	11.936
375.35	12.662
375.71	12.065
376.07	12.072
376.42	11.650
376.78	12.679
377.14	12.664
377.50	12.207
377.86	12.808
378.22	12.395
378.58	12.307
378.94	12.383
379.30	12.654
379.66	12.463
380.02	12.233
380.38	12.558
380.74	12.113
381.09	13.124
381.45	10.966
381.81	12.822
382.17	12.530
382.53	12.398
382.89	13.262
383.25	12.309
383.61	11.574
383.97	12.367
384.32	12.440
384.68	11.427
385.04	12.840
385.40	13.082
385.76	12.720
386.12	12.507
386.48	12.706
386.83	12.872
387.19	12.630
387.55	12.559
387.91	12.386
388.27	12.182
388.62	12.543
388.98	12.296
389.34	12.316
389.70	13.074
390.06	11.841
390.42	12.470
390.77	12.703
391.13	12.207
391.49	12.923
391.85	11.758
392.20	11.625
392.56	12.699
392.92	12.432
393.28	13.267
393.64	12.905
393.99	12.377
394.35	13.084
394.71	12.754
395.07	11.617
395.42	12.336
395.78	13.528
396.14	13.072
396.50	11.580
396.85	13.119
397.21	11.953
397.57	12.544
397.92	12.428
398.28	11.027
398.64	12.700
399.00	11.832
399.35	12.565
399.71	12.663
400.07	12.240
400.42	12.340
400.78	12.153
401.14	11.725
401.49	12.052
401.85	12.558
402.21	12.630
402.57	12.148
402.92	12.766
403.28	11.417
403.63	11.456
403.99	11.698
404.35	12.223
404.70	13.144
405.06	11.793
405.42	12.119
405.77	12.759
406.13	12.318
406.49	12.500
406.84	12.576
407.20	12.353
407.55	11.993
407.91	11.754
408.27	11.484
408.62	12.100
408.98	12.826
409.34	11.848
409.69	11.928
410.05	12.837
410.40	11.949
410.76	11.497
411.11	12.741
411.47	12.162
411.83	13.169
412.18	12.289
412.54	12.626
412.89	12.398
413.25	11.964
413.60	11.890
413.96	13.578
414.31	12.918
414.67	12.284
415.03	12.615
415.38	12.232
415.74	12.340
416.09	12.832
416.45	11.709
416.80	12.240
417.16	12.069
417.51	12.889
417.87	12.017
418.22	12.515
418.58	11.958
418.93	11.758
419.29	12.207
419.64	11.945
420.00	11.869
420.35	11.847
420.71	12.119
421.06	12.191
421.42	12.615
421.77	11.955
422.12	12.844
422.48	11.777
422.83	12.705
423.19	12.308
423.54	12.500
423.90	11.761
424.25	11.787
424.61	11.366
424.96	12.576
425.31	13.217
425.67	12.185
426.02	12.120
426.38	11.768
426.73	12.221
427.09	13.033
427.44	11.851
427.79	11.940
428.15	11.644
428.50	12.135
428.85	12.400
429.21	12.979
429.56	11.797
429.92	12.629
430.27	13.157
430.62	12.115
430.98	12.346
431.33	12.121
431.68	12.261
432.04	12.646
432.39	12.533
432.74	12.500
433.10	12.872
433.45	11.984
433.80	12.715
434.16	11.983
434.51	12.487
434.86	12.106
435.22	12.221
435.57	12.736
435.92	12.966
436.28	12.116
436.63	12.616
436.98	12.775
437.34	12.289
437.69	12.438
438.04	12.427
438.39	12.636
438.75	13.005
439.10	13.372
439.45	12.633
439.81	12.429
440.16	11.796
440.51	13.043
440.86	12.674
441.22	12.594
441.57	13.260
441.92	12.512
442.27	13.081
442.63	13.313
442.98	13.020
443.33	13.414
443.68	12.983
444.03	13.547
444.39	13.407
444.74	12.660
445.09	13.026
445.44	13.751
445.79	13.458
446.15	13.464
446.50	13.592
446.85	13.230
447.20	13.056
447.55	13.598
447.91	12.513
448.26	13.214
448.61	12.912
448.96	13.197
449.31	12.513
449.66	13.508
450.02	13.397
450.37	13.053
450.72	12.056
451.07	13.554
451.42	13.576
451.77	13.118
452.12	13.262
452.47	12.834
452.83	13.232
453.18	13.076
453.53	13.383
453.88	14.025
454.23	13.277
454.58	13.233
454.93	13.410
455.28	13.847
455.63	13.303
455.98	13.520
456.34	13.899
456.69	13.933
457.04	14.303
457.39	13.581
457.74	13.367
458.09	13.509
458.44	13.685
458.79	13.873
459.14	13.110
459.49	13.752
459.84	13.799
460.19	13.159
460.54	13.799
460.89	13.923
461.24	13.506
461.59	14.222
461.94	13.234
462.29	13.550
462.64	14.182
462.99	13.810
463.34	14.082
463.69	13.775
464.04	13.785
464.39	14.126
464.74	12.942
465.09	13.264
465.44	13.519
465.79	14.120
466.14	13.601
466.49	14.053
466.84	14.931
467.19	13.468
467.54	13.278
467.89	13.678
468.24	13.740
468.59	12.970
468.94	12.995
469.29	13.497
469.64	13.922
469.99	13.512
470.34	13.738
470.68	14.286
471.03	14.473
471.38	13.669
471.73	13.199
472.08	14.721
472.43	14.449
472.78	13.917
473.13	14.096
473.48	13.656
473.83	14.277
474.17	13.658
474.52	14.432
474.87	14.396
475.22	14.817
475.57	13.551
475.92	14.535
476.27	14.271
476.61	15.317
476.96	13.712
477.31	14.505
477.66	15.163
478.01	13.777
478.36	13.908
478.70	13.547
479.05	14.468
479.40	15.005
479.75	14.169
480.10	14.401
480.45	14.950
480.79	13.878
481.14	14.246
481.49	14.312
481.84	15.231
482.19	14.538
482.53	14.517
482.88	14.444
483.23	14.807
483.58	14.192
483.92	14.273
484.27	14.056
484.62	14.686
484.97	15.008
485.31	13.446
485.66	13.151
486.01	13.333
486.36	14.098
486.70	14.852
487.05	15.055
487.40	14.465
487.75	14.173
488.09	14.145
488.44	13.748
488.79	14.165
489.13	14.229
489.48	13.748
489.83	14.004
490.17	13.892
490.52	14.655
490.87	14.805
491.22	14.775
491.56	15.230
491.91	15.482
492.26	15.534
492.60	15.260
492.95	14.699
493.30	15.733
493.64	14.805
493.99	14.781
494.34	14.242
494.68	15.460
495.03	14.934
495.37	15.180
495.72	14.376
496.07	14.724
496.41	14.843
496.76	15.471
497.11	14.777
497.45	15.019
497.80	15.238
498.14	14.875
498.49	15.579
498.84	15.585
499.18	14.935
499.53	14.664
499.87	14.901
500.22	14.693
500.56	14.440
500.91	14.828
501.26	15.318
501.60	14.582
501.95	14.763
502.29	14.963
502.64	15.173
502.98	15.056
503.33	14.600
503.67	14.741
504.02	14.799
504.36	15.505
504.71	15.250
505.06	15.462
505.40	14.534
505.75	15.528
506.09	15.470
506.44	15.645
506.78	15.596
507.13	15.768
507.47	15.490
507.82	15.388
508.16	15.296
508.51	15.096
508.85	14.974
509.19	15.111
509.54	15.946
509.88	16.221
510.23	15.542
510.57	16.095
510.92	15.868
511.26	15.488
511.61	15.210
511.95	15.422
512.30	16.150
512.64	15.092
512.98	15.458
513.33	15.726
513.67	15.553
514.02	15.841
514.36	16.010
514.70	15.990
515.05	16.267
515.39	15.958
515.74	16.437
516.08	16.218
516.42	16.536
516.77	15.773
517.11	16.452
517.46	15.695
517.80	17.157
518.14	16.649
518.49	16.323
518.83	16.338
519.17	15.886
519.52	15.199
519.86	16.684
520.20	15.868
520.55	16.046
520.89	16.104
521.23	16.806
521.58	15.819
521.92	15.637
522.26	16.266
522.61	16.262
522.95	16.148
523.29	16.552
523.64	16.424
523.98	17.228
524.32	16.848
524.66	17.359
525.01	15.912
525.35	15.853
525.69	16.299
526.04	15.672
526.38	16.322
526.72	17.128
527.06	16.598
527.41	16.735
527.75	16.805
528.09	17.119
528.43	15.631
528.78	15.954
529.12	16.571
529.46	16.751
529.80	16.934
530.15	16.928
530.49	16.845
530.83	16.470
531.17	15.651
531.51	17.148
531.86	15.685
532.20	17.073
532.54	16.158
532.88	16.182
533.22	16.382
533.57	16.330
533.91	16.330
534.25	16.507
534.59	16.149
534.93	15.846
535.27	16.338
535.62	16.202
535.96	16.153
536.30	16.510
536.64	16.997
536.98	15.990
537.32	16.852
537.66	15.783
538.01	16.435
538.35	16.443
538.69	16.587
539.03	16.677
539.37	16.196
539.71	16.036
540.05	16.547
540.39	15.770
540.73	15.361
541.07	15.696
541.42	15.830
541.76	15.125
542.10	15.742
542.44	15.956
542.78	15.815
543.12	15.793
543.46	16.300
543.80	15.048
544.14	16.038
544.48	16.548
544.82	16.338
545.16	15.385
545.50	15.398
545.84	15.064
546.18	16.667
546.52	16.051
546.86	16.289
547.20	15.394
547.54	15.855
547.88	15.552
548.22	16.667
548.56	16.033
548.90	15.940
549.24	15.380
549.58	16.151
549.92	16.327
550.26	15.922
550.60	16.401
550.94	16.365
551.28	16.370
551.62	16.712
551.96	16.440
552.30	16.061
552.64	16.304
552.98	16.032
553.32	16.527
553.66	16.399
554.00	16.646
554.34	15.573
554.68	15.623
555.02	15.769
555.36	16.700
555.69	15.759
556.03	15.322
556.37	17.084
556.71	15.599
557.05	16.358
557.39	16.523
557.73	16.579
558.07	16.424
558.41	17.409
558.75	16.700
559.08	16.771
559.42	16.735
559.76	16.961
560.10	16.343
560.44	15.897
560.78	16.625
561.12	16.810
561.45	16.727
561.79	16.239
562.13	16.697
562.47	15.783
562.81	16.772
563.15	15.657
563.48	16.656
563.82	16.566
564.16	16.111
564.50	15.912
564.84	16.637
565.17	16.176
565.51	16.571
565.85	16.686
566.19	16.475
566.52	15.974
566.86	16.242
567.20	15.606
567.54	16.091
567.88	16.463
568.21	15.810
568.55	15.779
568.89	15.615
569.23	16.012
569.56	15.358
569.90	15.538
570.24	15.143
570.57	14.753
570.91	14.819
571.25	14.608
571.59	14.862
571.92	14.686
572.26	14.531
572.60	14.414
572.93	14.890
573.27	14.836
573.61	14.637
573.95	14.518
574.28	14.179
574.62	14.256
574.96	13.917
575.29	13.924
575.63	14.253
575.97	13.964
576.30	14.162
576.64	14.006
576.98	14.032
577.31	14.477
577.65	14.239
577.98	14.062
578.32	13.881
578.66	14.041
578.99	13.905
579.33	13.784
579.67	14.030
580.00	13.936
580.34	13.809
580.67	13.923
581.01	14.301
581.35	13.891
581.68	13.984
582.02	14.381
582.35	13.992
582.69	14.283
583.02	14.110
583.36	13.863
583.70	13.906
584.03	13.943
584.37	13.799
584.70	13.814
585.04	13.625
585.37	14.185
585.71	13.873
586.04	14.597
586.38	14.392
586.72	13.913
587.05	13.993
587.39	14.161
587.72	14.617
588.06	14.531
588.39	14.688
588.73	14.127
589.06	14.165
589.40	14.444
589.73	14.171
590.07	14.622
590.40	14.976
590.73	14.917
591.07	15.004
591.40	15.124
591.74	15.223
592.07	14.779
592.41	15.221
592.74	15.122
593.08	15.605
593.41	15.281
593.75	15.057
594.08	14.723
594.41	14.615
594.75	14.281
595.08	15.209
595.42	14.708
595.75	15.079
596.09	15.215
596.42	14.977
596.75	14.473
597.09	15.071
597.42	14.779
597.75	15.327
598.09	14.841
598.42	14.958
598.76	14.673
599.09	15.237
599.42	15.119
599.76	14.790
600.09	15.415
600.42	14.648
600.76	14.729
601.09	14.338
601.42	15.105
601.76	15.379
602.09	15.583
602.42	14.904
602.76	15.314
603.09	14.941
603.42	15.101
603.76	14.588
604.09	15.366
604.42	15.119
604.76	14.954
605.09	15.357
605.42	15.231
605.75	15.346
606.09	14.632
606.42	14.666
606.75	14.693
607.09	14.555
607.42	15.299
607.75	14.498
608.08	15.036
608.42	14.994
608.75	14.677
609.08	15.195
609.41	15.395
609.75	15.223
610.08	15.347
610.41	15.548
610.74	15.168
611.07	15.275
611.41	15.202
611.74	15.751
612.07	15.381
612.40	14.544
612.73	15.208
613.07	15.599
613.40	15.544
613.73	15.022
614.06	15.800
614.39	15.160
614.72	15.818
615.06	15.351
615.39	15.080
615.72	14.929
616.05	15.590
616.38	15.994
616.71	16.092
617.05	15.655
617.38	15.623
617.71	15.551
618.04	15.057
618.37	16.503
618.70	16.063
619.03	15.293
619.36	16.153
619.69	14.542
620.03	16.447
620.36	15.460
620.69	16.163
621.02	15.945
621.35	16.618
621.68	16.558
622.01	15.801
622.34	16.457
622.67	16.082
623.00	15.250
623.33	15.859
623.66	15.499
623.99	16.327
624.32	16.374
624.65	15.766
624.99	15.995
625.32	16.003
625.65	15.442
625.98	15.932
626.31	16.088
626.64	16.484
626.97	16.204
627.30	15.718
627.63	16.954
627.96	16.892
628.29	15.409
628.62	16.457
628.95	17.528
629.28	16.228
629.61	17.340
629.94	15.983
630.26	16.186
630.59	16.149
630.92	16.537
631.25	15.474
631.58	16.949
631.91	17.245
632.24	17.675
632.57	18.501
632.90	17.653
633.23	17.755
633.56	16.633
633.89	15.806
634.22	16.840
634.55	17.015
634.88	16.342
635.20	17.546
635.53	17.740
635.86	17.226
636.19	16.649
636.52	18.671
636.85	15.526
637.18	17.048
637.51	17.527
637.83	17.165
638.16	19.009
638.49	17.723
638.82	17.700
639.15	16.037
639.48	17.898
639.81	16.513
640.13	17.668
640.46	15.879
640.79	16.789
641.12	18.509
641.45	18.193
641.77	18.614
642.10	16.667
642.43	17.686
642.76	16.938
643.09	18.630
643.41	17.927
643.74	17.241
644.07	18.207
644.40	17.115
644.73	15.820
645.05	16.300
645.38	18.993
645.71	17.742
646.04	19.656
646.36	18.686
646.69	18.098
647.02	20.031
647.35	18.779
647.67	17.552
648.00	19.268
648.33	19.069
648.66	17.832
648.98	16.599
649.31	17.862
649.64	16.999
649.96	17.241
650.29	15.855
650.62	16.549
650.94	17.267
651.27	15.868
651.60	16.813
651.92	18.085
652.25	18.234
652.58	15.681
652.90	16.860
653.23	16.056
653.56	17.689
653.88	18.118
654.21	18.169
654.54	16.474
654.86	16.714
655.19	16.562
655.52	17.318
655.84	15.938
656.17	18.543
656.49	24.769
656.82	26.080
657.15	19.173
657.47	14.036
657.80	10.051
658.13	7.607
658.45	9.746
658.78	11.975
659.10	11.335
659.43	11.430
659.75	11.188
660.08	10.756
660.41	11.911
660.73	13.341
661.06	13.950
661.38	16.268
661.71	17.241
662.03	18.342
662.36	18.426
662.68	17.636
663.01	17.168
663.33	17.958
663.66	19.597
663.98	18.846
664.31	19.887
664.63	16.185
664.96	19.601
665.28	14.701
665.61	17.308
665.93	15.714
666.26	18.100
666.58	14.760
666.91	18.131
667.23	18.857
667.56	15.779
667.88	17.400
668.21	14.258
668.53	13.320
668.86	18.271
669.18	15.886
669.50	17.694
669.83	17.200
670.15	16.142
670.48	18.452
670.80	16.635
671.13	15.690
671.45	17.323
671.77	17.702
672.10	15.500
672.42	15.858
672.75	16.436
673.07	17.164
673.39	15.716
673.72	17.450
674.04	15.690
674.37	16.637
674.69	17.989
675.01	16.762
675.34	16.031
675.66	17.978
675.98	18.284
676.31	17.383
676.63	18.821
676.95	16.475
677.28	15.927
677.60	15.157
677.92	15.931
678.25	17.550
678.57	17.616
678.89	17.406
679.22	16.376
679.54	16.068
679.86	12.373
680.18	15.920
680.51	16.195
680.83	15.221
681.15	16.034
681.48	16.408
681.80	17.617
682.12	14.336
682.44	16.027
682.77	15.603
683.09	15.341
683.41	15.504
683.73	16.888
684.06	16.605
684.38	14.490
684.70	17.056
685.02	14.630
685.34	14.143
685.67	15.142
685.99	14.571
686.31	14.390
686.63	17.220
686.96	14.511
687.28	12.866
687.60	15.152
687.92	15.113
688.24	14.023
688.56	16.207
688.89	15.064
689.21	13.503
689.53	13.529
689.85	13.807
690.17	16.667
690.49	13.347
690.82	14.851
691.14	12.955
691.46	15.105
691.78	18.048
692.10	12.294
692.42	14.643
692.74	15.789
693.06	13.519
693.39	14.991
693.71	12.218
694.03	15.056
694.35	14.095
694.67	12.936
694.99	14.255
695.31	13.687
695.63	14.935
695.95	15.321
696.27	14.725
696.59	16.150
696.91	15.315
697.23	17.143
697.56	12.424
697.88	12.879
698.20	14.124
698.52	16.856
698.84	16.008
699.16	17.551
699.48	14.435
699.80	14.255
700.12	12.882
700.44	16.129
700.76	16.152
701.08	16.465
701.40	14.508
701.72	13.433
702.04	12.567
702.36	12.304
702.68	16.137
703.00	12.469
703.32	14.286
703.64	13.447
703.96	16.945
704.28	15.233
704.60	13.165
704.91	15.306
705.23	16.438
705.55	12.813
705.87	12.727
706.19	16.258
706.51	12.048
706.83	13.256
707.15	12.434
707.47	12.850
707.79	13.974
708.11	12.288
708.43	13.763
708.74	11.830
709.06	13.225
709.38	15.258
709.70	15.881
710.02	15.504
710.34	14.096
710.66	13.687
710.98	16.120
711.29	13.462
711.61	13.842
711.93	13.390
712.25	14.324
712.57	16.519
712.89	15.000
713.20	11.538
713.52	15.896
713.84	12.256
714.16	15.000
714.48	15.206
714.80	15.065
715.11	14.173
715.43	12.467
715.75	13.947
716.07	12.155
716.39	16.393
716.70	13.253
717.02	16.066
717.34	12.195
717.66	13.758
717.97	14.726
718.29	12.715
718.61	12.500
718.93	13.916
719.24	14.286
719.56	12.577
719.88	12.312
720.20	12.258
720.51	14.907
720.83	8.750
721.15	10.526
721.46	9.247
721.78	13.333
722.10	9.709
722.42	10.738
722.73	11.935
723.05	15.088
723.37	9.722
723.68	13.978
724.00	14.440
724.32	7.394
724.63	15.035
724.95	17.021
725.27	12.892
725.58	11.661
725.90	14.138
726.22	12.539
726.53	13.961
726.85	14.780
727.16	12.991
727.48	12.538
727.80	10.927
728.11	11.661
728.43	14.478
728.74	12.040
729.06	13.576
729.38	8.117
729.69	7.383
730.01	10.714
730.32	10.606
730.64	11.635
730.96	10.870
731.27	14.525
731.59	14.011
731.90	12.208
732.22	10.677
732.53	10.221
732.85	13.429
733.16	11.730
733.48	10.366
733.80	11.142
734.11	13.390
734.43	11.892
734.74	12.405
735.06	11.307
735.37	14.324
735.69	10.270
736.00	14.124
736.32	14.016
736.63	13.889
736.95	12.069
737.26	13.030
737.58	10.303
737.89	11.471
738.21	8.257
738.52	10.820
738.83	11.263
739.15	11.702
739.46	12.585
739.78	12.577
740.09	12.034
740.41	13.411
740.72	7.333
741.04	12.945
741.35	15.088
741.66	11.765
741.98	16.393
742.29	14.644
742.61	10.526
742.92	16.923
743.23	16.606
743.55	12.403
743.86	8.000
744.18	5.785
744.49	9.283
744.80	10.700
745.12	13.502
745.43	9.350
745.74	6.897
746.06	12.712
746.37	13.502
746.68	11.789
747.00	11.667
747.31	12.017
747.62	16.154
747.94	12.146
748.25	9.237
748.56	13.061
748.88	8.974
749.19	18.534
749.50	9.957
749.82	12.851
750.13	12.100
750.44	10.333
750.75	15.077
751.07	12.308
751.38	11.356
751.69	12.460
752.01	8.738
752.32	12.418
752.63	10.544
752.94	10.381
753.26	9.665
753.57	11.481
753.88	5.243
754.19	11.897
754.51	12.219
754.82	10.611
755.13	12.787
755.44	11.945
755.75	12.171
756.07	14.328
756.38	10.377
756.69	12.952
757.00	8.033
757.31	15.574
757.63	11.765
757.94	9.390
758.25	12.867
758.56	12.636
758.87	14.318
759.18	12.533
759.50	14.448
759.81	12.605
760.12	14.016
760.43	13.021
760.74	10.345
761.05	11.000
761.36	11.807
761.67	9.137
761.99	10.541
762.30	11.280
762.61	7.261
762.92	10.821
763.23	8.240
763.54	11.871
763.85	11.684
764.16	10.774
764.47	14.085
764.78	10.543
765.10	11.144
765.41	13.846
765.72	8.995
766.03	9.322
766.34	10.031
766.65	6.272
766.96	8.367
767.27	9.217
767.58	3.483
767.89	11.058
768.20	11.737
768.51	6.481
768.82	12.048
769.13	11.742
769.44	8.462
769.75	10.830
770.06	6.538
770.37	9.843
770.68	5.957
770.99	1.215
771.30	16.667
771.61	10.266
771.92	11.481
772.23	12.146
772.54	1.389
772.85	10.599
773.16	10.476
773.47	3.175
773.78	3.784
774.09	6.250
774.39	12.000
774.70	6.011
775.01	1.220
775.32	10.000
775.63	6.135
775.94	3.185
776.25	4.516
776.56	11.538
776.87	13.605
777.18	6.897
777.48	8.392
777.79	2.703
778.10	-1.471
778.41	4.861
778.72	4.138
779.03	12.963
779.34	8.485
779.65	9.326
779.95	8.889
780.26	6.250
780.57	7.097
780.88	1.449
781.19	12.258
781.50	12.353
781.80	10.215
782.11	11.111
782.42	8.586
782.73	3.593
783.04	0.559
783.34	4.848
783.65	-2.614
783.96	1.242
784.27	0.000
784.57	1.987
784.88	0.000
785.19	0.787
785.50	0.000
785.81	7.519
786.11	5.385
786.42	-0.719
786.73	0.000
787.04	9.774
787.34	-3.279
787.65	0.000
787.96	7.463
788.26	9.091
788.57	9.091
788.88	5.263
789.19	9.804
789.49	6.164
789.80	1.418
790.11	6.299
790.41	5.469
790.72	4.237
791.03	-9.709
791.33	0.870
791.64	7.018
791.95	4.464
792.25	8.571
792.56	2.679
792.87	-3.125
793.17	-1.786
793.48	-3.125
793.79	-8.434
794.09	-6.422
794.40	-6.422
794.70	0.000
795.01	6.494
795.32	-1.370
795.62	0.000
795.93	-0.758
796.23	6.557
796.54	0.000
796.85	-7.447
797.15	-1.087
797.46	-12.329
797.76	-3.750
798.07	4.348
798.37	-12.371
798.68	-2.597
798.99	5.747
799.29	0.000
799.60	-4.255
799.90	-3.614
800.21	-21.538
800.51	-17.910
800.82	-29.412
801.12	-17.808
801.43	-16.176
801.73	-35.593
802.04	-16.667
802.34	-15.000
802.65	-13.559
802.95	-13.433
803.26	-16.949
803.56	1.370
803.87	-5.714
804.17	1.370
804.48	-45.614
804.78	-9.722
805.09	-22.414
805.39	2.703
805.70	-14.085
806.00	-7.317
806.30	-13.253
806.61	-13.699
806.91	-11.538
807.22	-8.889
807.52	-4.598
807.83	8.333
808.13	4.819
808.43	-4.494
808.74	-10.000
809.04	-14.706
809.35	-1.333
809.65	-10.000
809.95	-19.178
810.26	-31.579
810.56	-15.517
810.86	2.941
811.17	-10.526
811.47	-34.426
811.77	-51.111
812.08	-10.169
812.38	-11.667
812.69	-10.345
812.99	-30.189
813.29	-66.667
813.59	-26.000
813.90	-14.035
814.20	-38.182
814.50	-7.042
814.81	-7.692
815.11	3.279
815.41	-8.955
815.72	-6.897
816.02	-5.357
816.32	-4.444
816.62	-40.909
816.93	-40.000
817.23	-7.407
817.53	-23.404
817.84	-19.048
818.14	-26.471
818.44	-32.653
818.74	-37.778
819.04	-53.846
819.35	-45.714
819.65	-119.231
819.95	-13.208
820.25	-15.556
820.56	-21.429
820.86	-37.500
821.16	-48.718
821.46	-41.860
821.76	-32.000
822.07	-23.214
822.37	-26.087
822.67	-25.532
822.97	-48.649
823.27	-12.500
823.57	-18.367
823.88	-20.000
824.18	-5.000
824.48	-36.667
824.78	-56.000
825.08	-39.394
825.38	2.222
825.69	-27.660
825.99	-8.333
826.29	-57.143
826.59	-43.590
826.89	-55.814
827.19	-36.000
827.49	-52.941
827.79	-16.667
828.09	-48.649
828.39	-30.000
828.70	-48.780
829.00	-39.535
829.30	-89.286
829.60	-11.765
829.90	-26.087
830.20	-14.286
830.50	-55.172
830.80	-100.000
831.10	-65.385
831.40	-8.824
831.70	-76.190
832.00	-32.258
832.30	-170.588
832.60	-87.500
832.90	-138.462
833.20	-73.684
833.50	-65.000
833.80	-84.211
834.10	-166.667
834.40	-8.333
834.70	-37.500
835.00	-82.857
835.30	-35.294
835.60	-33.333
835.90	-52.000
836.20	-81.818
836.50	-40.000
836.80	-51.515
837.10	-51.852
837.40	-44.444
837.70	-112.500
838.00	-42.857
838.30	-21.739
838.60	-34.483
838.90	-107.143
839.19	-82.609
839.49	-233.333
839.79	-95.652
840.09	-137.500
840.39	-65.000
840.69	0.000
840.99	-64.286
841.29	-73.333
841.59	-68.421
841.88	-20.513
842.18	-46.154
842.48	-150.000
842.78	-90.000
843.08	-30.000
843.38	-12.903
843.68	-116.667
843.97	-44.118
844.27	-100.000
844.57	-68.421
844.87	-180.000
845.17	-146.667
845.47	-38.095
845.76	-61.905
846.06	-188.889
846.36	-129.412
846.66	-61.538
846.96	-140.000
847.25	-117.647
847.55	-100.000
847.85	-90.000
848.15	-82.353
848.44	-245.455
848.74	-61.905
849.04	-116.667
849.34	-225.000
849.63	-43.478
849.93	1000.000
850.23	-60.000
850.53	-23.077
850.82	-236.364
851.12	-45.455
851.42	-272.727
851.71	-38.462
852.01	-120.000
852.31	-107.692
852.61	-105.263
852.90	-141.667
853.20	-100.000
853.50	-311.111
853.79	-61.905
854.09	-50.000
854.39	-183.333
854.68	-54.839
854.98	-57.692
855.28	-94.444
855.57	-78.571
855.87	-88.000
856.17	-95.455
856.46	-44.444
856.76	-111.111
857.05	-108.696
857.35	-62.500
857.65	-169.231
857.94	-80.952
858.24	-55.556
858.53	-78.261
858.83	-129.412
859.13	-70.588
859.42	-100.000
859.72	-92.857
860.01	-150.000
860.31	-266.667
860.60	-170.000
860.90	-86.667
861.20	-100.000
861.49	-92.308
861.79	-40.000
862.08	-76.923
862.38	-28.125
862.67	-88.235
862.97	-112.500
863.26	-244.444
863.56	-120.000
863.85	-190.909
864.15	-105.556
864.44	-800.000
864.74	-171.429
865.03	-118.750
865.33	-150.000
865.62	-61.290
865.92	-50.000
866.21	-73.913
866.51	-128.571
866.80	-520.000
867.10	-175.000
867.39	-175.000
867.69	3200.000
867.98	-185.714
868.27	-76.471
868.57	-3400.000
868.86	-260.000
869.16	-114.286
869.45	-58.333
869.75	-90.909
870.04	-357.143
870.33	-175.000
870.63	-385.714
870.92	-525.000
871.22	-337.500
871.51	-236.364
871.80	-1166.667
872.10	-1600.000
>>>>>End Processed Spectral Data<<<<<
