SpectraSuite Data File
++++++++++++++++++++++++++++++++++++
Date: Thu May 14 14:36:19 PDT 2015
User: schluterlab
Dark Spectrum Present: Yes
Reference Spectrum Present: Yes
Number of Sampled Component Spectra: 1
Spectrometers: USB2E3373
Integration Time (usec): 3000 (USB2E3373)
Spectra Averaged: 3 (USB2E3373)
Boxcar Smoothing: 0 (USB2E3373)
Correct for Electrical Dark: No (USB2E3373)
Strobe/Lamp Enabled: No (USB2E3373)
Correct for Detector Non-linearity: No (USB2E3373)
Correct for Stray Light: No (USB2E3373)
Number of Pixels in Processed Spectrum: 2048
>>>>>Begin Processed Spectral Data<<<<<
178.53	0.000
178.91	-185.714
179.29	1000.000
179.67	700.000
180.04	-0.000
180.42	-120.000
180.80	-380.000
181.18	1300.000
181.56	2400.000
181.94	-400.000
182.31	350.000
182.69	-733.333
183.07	850.000
183.45	-275.000
183.83	216.667
184.20	1000.000
184.58	-2000.000
184.96	250.000
185.34	200.000
185.72	440.000
186.09	-100.000
186.47	-700.000
186.85	-160.000
187.23	111.111
187.61	900.000
187.98	-200.000
188.36	-425.000
188.74	575.000
189.12	500.000
189.49	131.250
189.87	137.500
190.25	366.667
190.63	660.000
191.00	66.667
191.38	0.000
191.76	275.000
192.14	316.667
192.51	-550.000
192.89	433.333
193.27	0.000
193.65	314.286
194.02	300.000
194.40	128.571
194.78	-171.429
195.15	0.000
195.53	209.091
195.91	0.000
196.29	550.000
196.66	138.462
197.04	1000.000
197.42	228.571
197.79	250.000
198.17	125.000
198.55	157.143
198.92	266.667
199.30	100.000
199.68	236.364
200.05	221.429
200.43	850.000
200.81	-271.429
201.18	0.000
201.56	-33.333
201.94	0.000
202.31	-400.000
202.69	200.000
203.07	-1600.000
203.44	144.444
203.82	425.000
204.19	183.333
204.57	183.333
204.95	175.000
205.32	1300.000
205.70	-325.000
206.08	216.667
206.45	316.667
206.83	-60.000
207.20	116.667
207.58	200.000
207.96	133.333
208.33	466.667
208.71	-141.667
209.08	333.333
209.46	0.000
209.84	-216.667
210.21	-1000.000
210.59	-1000.000
210.96	-300.000
211.34	625.000
211.71	250.000
212.09	1900.000
212.46	0.000
212.84	-550.000
213.22	300.000
213.59	325.000
213.97	260.000
214.34	533.333
214.72	-100.000
215.09	500.000
215.47	0.000
215.84	-200.000
216.22	-500.000
216.59	320.000
216.97	320.000
217.34	400.000
217.72	200.000
218.09	275.000
218.47	225.000
218.84	0.000
219.22	-180.000
219.59	129.412
219.97	80.000
220.34	-550.000
220.72	233.333
221.09	115.385
221.47	300.000
221.84	210.000
222.22	271.429
222.59	0.000
222.97	375.000
223.34	320.000
223.72	1100.000
224.09	450.000
224.46	325.000
224.84	420.000
225.21	142.857
225.59	350.000
225.96	350.000
226.34	73.077
226.71	-133.333
227.08	450.000
227.46	206.667
227.83	350.000
228.21	110.526
228.58	-312.500
228.95	-650.000
229.33	150.000
229.70	210.000
230.08	200.000
230.45	-110.000
230.82	466.667
231.20	128.571
231.57	158.333
231.95	190.909
232.32	227.273
232.69	120.000
233.07	425.000
233.44	105.882
233.81	170.000
234.19	144.444
234.56	122.727
234.93	86.207
235.31	121.053
235.68	83.333
236.05	55.000
236.43	103.846
236.80	124.000
237.17	88.889
237.55	66.667
237.92	180.000
238.29	90.323
238.67	54.545
239.04	83.333
239.41	73.810
239.79	45.652
240.16	42.593
240.53	50.000
240.91	25.490
241.28	45.902
241.65	47.761
242.02	37.838
242.40	33.846
242.77	38.667
243.14	23.171
243.51	27.632
243.89	33.333
244.26	36.634
244.63	34.314
245.00	33.645
245.38	33.333
245.75	23.894
246.12	26.190
246.49	24.031
246.87	24.286
247.24	29.139
247.61	26.974
247.98	29.530
248.36	20.370
248.73	20.859
249.10	24.044
249.47	32.338
249.84	25.654
250.22	16.580
250.59	22.222
250.96	28.182
251.33	23.469
251.70	23.932
252.08	22.083
252.45	22.131
252.82	22.314
253.19	16.406
253.56	22.433
253.94	17.692
254.31	17.424
254.68	23.077
255.05	20.847
255.42	18.707
255.79	15.858
256.16	19.868
256.54	18.212
256.91	21.311
257.28	17.377
257.65	19.427
258.02	15.044
258.39	17.379
258.76	22.630
259.14	18.966
259.51	19.597
259.88	18.414
260.25	16.944
260.62	18.082
260.99	20.219
261.36	17.158
261.73	18.037
262.10	18.407
262.47	15.818
262.85	20.455
263.22	18.961
263.59	16.316
263.96	17.903
264.33	16.624
264.70	18.519
265.07	20.764
265.44	21.542
265.81	18.056
266.18	19.501
266.55	17.187
266.92	15.718
267.29	19.694
267.66	17.517
268.03	18.341
268.40	16.493
268.77	16.856
269.14	15.419
269.51	16.447
269.88	18.648
270.25	17.907
270.62	17.932
270.99	17.980
271.36	16.634
271.73	15.521
272.10	17.836
272.47	17.234
272.84	16.466
273.21	18.236
273.58	18.952
273.95	15.769
274.32	15.970
274.69	15.474
275.06	18.498
275.43	14.972
275.80	18.342
276.17	14.074
276.54	15.485
276.91	14.669
277.28	17.902
277.65	17.056
278.02	16.544
278.39	17.029
278.76	15.290
279.13	16.844
279.50	17.869
279.87	18.426
280.23	13.380
280.60	16.949
280.97	14.474
281.34	13.243
281.71	16.920
282.08	16.113
282.45	14.566
282.82	15.071
283.19	14.055
283.56	13.279
283.92	16.066
284.29	15.798
284.66	16.256
285.03	14.263
285.40	15.765
285.77	15.325
286.14	16.947
286.51	15.525
286.87	15.166
287.24	14.157
287.61	13.602
287.98	14.199
288.35	14.053
288.72	15.533
289.08	15.227
289.45	15.533
289.82	15.361
290.19	15.517
290.56	15.493
290.93	14.979
291.29	14.601
291.66	15.014
292.03	14.518
292.40	15.646
292.77	11.995
293.13	16.238
293.50	13.929
293.87	12.483
294.24	15.867
294.60	15.044
294.97	13.557
295.34	15.109
295.71	13.997
296.08	12.791
296.44	13.358
296.81	15.956
297.18	14.197
297.55	12.028
297.91	13.523
298.28	12.085
298.65	12.842
299.02	12.633
299.38	13.616
299.75	13.435
300.12	12.500
300.48	13.249
300.85	14.173
301.22	13.199
301.59	11.187
301.95	12.316
302.32	13.444
302.69	12.048
303.05	13.493
303.42	13.525
303.79	13.125
304.15	11.882
304.52	12.896
304.89	12.670
305.25	12.836
305.62	14.316
305.99	13.196
306.35	12.702
306.72	13.030
307.09	12.386
307.45	13.147
307.82	12.815
308.19	12.714
308.55	13.693
308.92	12.756
309.29	14.080
309.65	12.183
310.02	12.079
310.38	11.220
310.75	13.107
311.12	13.231
311.48	13.196
311.85	13.390
312.22	11.954
312.58	12.488
312.95	13.384
313.31	12.195
313.68	13.187
314.05	13.731
314.41	14.026
314.78	13.806
315.14	13.158
315.51	13.204
315.87	13.591
316.24	13.607
316.61	13.499
316.97	13.032
317.34	12.875
317.70	15.109
318.07	12.787
318.43	12.755
318.80	14.465
319.16	12.876
319.53	11.825
319.89	13.760
320.26	15.036
320.62	13.564
320.99	14.127
321.35	13.124
321.72	14.512
322.08	11.903
322.45	13.008
322.81	14.170
323.18	13.274
323.54	13.793
323.91	13.078
324.27	14.114
324.64	14.190
325.00	13.433
325.37	13.595
325.73	14.793
326.10	13.869
326.46	14.984
326.83	15.132
327.19	14.724
327.56	14.783
327.92	13.533
328.29	13.710
328.65	13.987
329.01	14.636
329.38	15.080
329.74	15.582
330.11	15.497
330.47	14.153
330.84	15.159
331.20	13.417
331.56	14.385
331.93	15.146
332.29	14.915
332.66	15.199
333.02	15.662
333.38	15.017
333.75	13.468
334.11	13.595
334.48	14.439
334.84	15.293
335.20	14.945
335.57	15.261
335.93	15.950
336.29	13.977
336.66	14.886
337.02	15.803
337.38	15.391
337.75	14.876
338.11	14.718
338.47	15.881
338.84	17.005
339.20	14.575
339.56	15.074
339.93	15.107
340.29	14.654
340.65	15.004
341.02	15.642
341.38	15.602
341.74	15.658
342.11	15.044
342.47	14.456
342.83	15.539
343.20	15.209
343.56	14.836
343.92	15.853
344.28	14.922
344.65	16.124
345.01	15.211
345.37	15.397
345.73	14.653
346.10	15.367
346.46	15.032
346.82	16.255
347.19	16.348
347.55	16.313
347.91	14.190
348.27	14.416
348.63	15.918
349.00	15.287
349.36	15.167
349.72	14.955
350.08	15.899
350.45	16.046
350.81	14.857
351.17	15.338
351.53	16.300
351.89	15.566
352.26	15.149
352.62	15.821
352.98	14.809
353.34	14.115
353.70	15.100
354.07	14.680
354.43	14.806
354.79	15.408
355.15	15.232
355.51	16.155
355.87	14.734
356.24	15.133
356.60	15.521
356.96	14.826
357.32	14.647
357.68	14.275
358.04	15.269
358.40	14.552
358.77	15.278
359.13	14.106
359.49	15.019
359.85	15.591
360.21	15.136
360.57	14.358
360.93	14.880
361.29	15.158
361.66	14.844
362.02	16.075
362.38	14.687
362.74	13.966
363.10	15.475
363.46	16.136
363.82	13.778
364.18	15.552
364.54	15.768
364.90	15.585
365.26	15.448
365.62	15.267
365.98	15.180
366.35	15.101
366.71	14.966
367.07	15.494
367.43	15.167
367.79	15.926
368.15	15.184
368.51	15.494
368.87	15.284
369.23	15.200
369.59	14.959
369.95	15.754
370.31	16.205
370.67	15.818
371.03	15.582
371.39	15.514
371.75	15.887
372.11	15.379
372.47	15.572
372.83	16.819
373.19	15.610
373.55	15.650
373.91	15.269
374.27	16.171
374.63	16.103
374.99	16.114
375.35	16.623
375.71	15.097
376.07	16.075
376.42	14.924
376.78	15.413
377.14	15.097
377.50	15.750
377.86	15.948
378.22	16.048
378.58	15.933
378.94	15.317
379.30	15.524
379.66	16.637
380.02	16.042
380.38	16.935
380.74	16.056
381.09	15.505
381.45	16.477
381.81	16.745
382.17	17.162
382.53	15.556
382.89	15.745
383.25	16.823
383.61	16.262
383.97	16.313
384.32	17.225
384.68	16.299
385.04	17.351
385.40	17.560
385.76	17.057
386.12	16.278
386.48	17.353
386.83	17.104
387.19	15.933
387.55	16.491
387.91	17.066
388.27	16.975
388.62	16.380
388.98	16.864
389.34	16.382
389.70	16.618
390.06	17.052
390.42	16.386
390.77	17.339
391.13	17.371
391.49	16.969
391.85	17.394
392.20	17.200
392.56	17.188
392.92	17.121
393.28	17.745
393.64	16.648
393.99	18.187
394.35	17.290
394.71	17.844
395.07	16.707
395.42	17.647
395.78	18.099
396.14	17.766
396.50	17.102
396.85	17.651
397.21	16.923
397.57	17.845
397.92	17.755
398.28	16.676
398.64	16.991
399.00	16.545
399.35	16.911
399.71	16.848
400.07	17.743
400.42	17.637
400.78	17.477
401.14	16.676
401.49	17.510
401.85	17.326
402.21	17.961
402.57	17.782
402.92	18.499
403.28	17.213
403.63	17.124
403.99	17.399
404.35	17.112
404.70	17.450
405.06	17.283
405.42	16.920
405.77	17.448
406.13	16.640
406.49	17.342
406.84	16.953
407.20	17.831
407.55	17.141
407.91	17.473
408.27	17.432
408.62	16.812
408.98	18.224
409.34	16.891
409.69	17.676
410.05	17.057
410.40	18.329
410.76	17.386
411.11	18.001
411.47	17.998
411.83	17.519
412.18	18.012
412.54	18.435
412.89	17.579
413.25	16.422
413.60	16.772
413.96	17.774
414.31	17.677
414.67	17.233
415.03	17.046
415.38	17.970
415.74	17.288
416.09	17.890
416.45	17.408
416.80	17.503
417.16	17.305
417.51	17.870
417.87	17.719
418.22	17.425
418.58	17.038
418.93	18.510
419.29	18.002
419.64	17.047
420.00	16.855
420.35	17.687
420.71	17.634
421.06	16.389
421.42	17.890
421.77	17.071
422.12	17.548
422.48	17.972
422.83	18.127
423.19	17.666
423.54	17.588
423.90	17.283
424.25	17.813
424.61	16.992
424.96	18.177
425.31	17.569
425.67	18.196
426.02	17.432
426.38	17.451
426.73	17.634
427.09	18.397
427.44	17.968
427.79	17.579
428.15	17.694
428.50	18.315
428.85	18.542
429.21	18.245
429.56	17.572
429.92	18.428
430.27	18.169
430.62	17.978
430.98	17.609
431.33	17.840
431.68	17.337
432.04	17.979
432.39	18.479
432.74	18.436
433.10	19.632
433.45	17.949
433.80	18.133
434.16	18.647
434.51	17.934
434.86	18.024
435.22	19.022
435.57	19.281
435.92	18.475
436.28	18.828
436.63	18.460
436.98	17.499
437.34	18.095
437.69	17.722
438.04	18.403
438.39	18.782
438.75	18.041
439.10	18.922
439.45	18.278
439.81	17.966
440.16	18.767
440.51	18.172
440.86	18.788
441.22	18.167
441.57	18.344
441.92	18.186
442.27	18.687
442.63	18.728
442.98	18.463
443.33	19.148
443.68	19.376
444.03	19.379
444.39	19.233
444.74	18.887
445.09	18.449
445.44	18.546
445.79	18.487
446.15	18.448
446.50	19.173
446.85	18.920
447.20	18.956
447.55	18.724
447.91	18.429
448.26	18.393
448.61	19.182
448.96	19.206
449.31	17.975
449.66	17.919
450.02	19.146
450.37	18.807
450.72	18.461
451.07	19.077
451.42	19.064
451.77	17.510
452.12	18.567
452.47	19.014
452.83	19.538
453.18	18.272
453.53	18.955
453.88	18.056
454.23	19.322
454.58	19.849
454.93	18.507
455.28	19.506
455.63	19.159
455.98	19.385
456.34	18.905
456.69	18.930
457.04	20.095
457.39	19.789
457.74	20.358
458.09	18.506
458.44	19.558
458.79	18.773
459.14	18.773
459.49	19.298
459.84	19.307
460.19	18.323
460.54	19.421
460.89	18.264
461.24	19.023
461.59	19.646
461.94	18.654
462.29	19.541
462.64	18.226
462.99	19.774
463.34	20.247
463.69	19.168
464.04	19.956
464.39	19.170
464.74	20.239
465.09	19.319
465.44	19.367
465.79	19.989
466.14	18.395
466.49	20.316
466.84	19.504
467.19	19.769
467.54	18.449
467.89	19.253
468.24	19.446
468.59	18.992
468.94	18.823
469.29	19.676
469.64	19.580
469.99	18.547
470.34	18.936
470.68	20.437
471.03	19.777
471.38	20.275
471.73	19.636
472.08	20.749
472.43	18.603
472.78	20.403
473.13	19.659
473.48	20.121
473.83	19.385
474.17	19.402
474.52	18.280
474.87	18.882
475.22	19.831
475.57	19.003
475.92	19.313
476.27	18.797
476.61	19.678
476.96	18.457
477.31	18.960
477.66	20.094
478.01	19.573
478.36	19.492
478.70	19.606
479.05	20.297
479.40	19.052
479.75	19.741
480.10	19.801
480.45	19.690
480.79	19.274
481.14	18.980
481.49	19.355
481.84	19.017
482.19	19.140
482.53	19.195
482.88	19.805
483.23	19.075
483.58	19.301
483.92	19.105
484.27	19.390
484.62	18.853
484.97	18.585
485.31	18.409
485.66	18.039
486.01	17.396
486.36	17.281
486.70	17.453
487.05	17.433
487.40	17.878
487.75	18.422
488.09	18.766
488.44	18.711
488.79	18.988
489.13	18.827
489.48	19.068
489.83	18.753
490.17	18.429
490.52	18.924
490.87	18.993
491.22	18.891
491.56	19.241
491.91	19.756
492.26	19.342
492.60	18.846
492.95	19.175
493.30	19.364
493.64	19.010
493.99	19.693
494.34	18.380
494.68	19.229
495.03	19.471
495.37	19.308
495.72	19.592
496.07	19.369
496.41	18.576
496.76	19.475
497.11	19.108
497.45	19.292
497.80	19.813
498.14	19.048
498.49	19.301
498.84	19.516
499.18	19.703
499.53	19.910
499.87	19.165
500.22	18.833
500.56	19.208
500.91	19.222
501.26	19.318
501.60	18.869
501.95	19.236
502.29	19.526
502.64	19.720
502.98	19.845
503.33	18.661
503.67	19.538
504.02	19.264
504.36	20.286
504.71	19.706
505.06	19.918
505.40	19.516
505.75	19.217
506.09	19.475
506.44	19.545
506.78	19.954
507.13	19.871
507.47	20.133
507.82	19.081
508.16	19.694
508.51	19.128
508.85	20.076
509.19	19.943
509.54	20.509
509.88	20.010
510.23	20.204
510.57	20.783
510.92	21.093
511.26	19.625
511.61	19.121
511.95	19.863
512.30	20.729
512.64	19.340
512.98	20.210
513.33	20.363
513.67	20.704
514.02	19.980
514.36	19.949
514.70	20.469
515.05	20.021
515.39	20.787
515.74	21.421
516.08	20.074
516.42	21.455
516.77	21.241
517.11	20.784
517.46	20.467
517.80	21.486
518.14	21.600
518.49	21.312
518.83	20.330
519.17	20.948
519.52	20.964
519.86	21.489
520.20	20.927
520.55	20.975
520.89	21.903
521.23	21.161
521.58	20.960
521.92	20.623
522.26	21.191
522.61	20.949
522.95	22.030
523.29	21.494
523.64	21.132
523.98	21.734
524.32	22.350
524.66	21.343
525.01	20.272
525.35	21.654
525.69	21.462
526.04	21.699
526.38	21.149
526.72	21.165
527.06	22.111
527.41	20.816
527.75	21.259
528.09	21.370
528.43	21.255
528.78	20.116
529.12	21.674
529.46	20.517
529.80	20.881
530.15	21.217
530.49	21.056
530.83	21.606
531.17	21.027
531.51	20.999
531.86	21.635
532.20	21.341
532.54	20.706
532.88	21.212
533.22	21.626
533.57	20.831
533.91	20.651
534.25	20.859
534.59	21.034
534.93	20.713
535.27	20.901
535.62	20.580
535.96	21.092
536.30	20.623
536.64	21.922
536.98	20.849
537.32	21.481
537.66	21.273
538.01	20.544
538.35	20.463
538.69	21.995
539.03	20.785
539.37	21.025
539.71	20.901
540.05	21.942
540.39	20.966
540.73	21.069
541.07	21.643
541.42	20.142
541.76	21.056
542.10	21.351
542.44	20.767
542.78	20.803
543.12	20.143
543.46	20.391
543.80	20.923
544.14	20.646
544.48	20.863
544.82	21.245
545.16	21.348
545.50	20.971
545.84	21.310
546.18	22.407
546.52	21.019
546.86	20.881
547.20	20.865
547.54	21.223
547.88	21.097
548.22	20.175
548.56	20.363
548.90	20.896
549.24	20.669
549.58	21.136
549.92	21.747
550.26	22.006
550.60	21.059
550.94	21.992
551.28	20.594
551.62	21.833
551.96	21.359
552.30	21.033
552.64	20.784
552.98	19.838
553.32	21.222
553.66	21.736
554.00	22.257
554.34	20.656
554.68	20.207
555.02	20.828
555.36	21.631
555.69	20.307
556.03	21.375
556.37	22.215
556.71	21.306
557.05	21.981
557.39	20.637
557.73	21.268
558.07	20.795
558.41	21.595
558.75	21.231
559.08	21.712
559.42	21.125
559.76	21.574
560.10	19.491
560.44	21.504
560.78	21.500
561.12	21.244
561.45	21.350
561.79	20.635
562.13	21.257
562.47	19.790
562.81	21.203
563.15	20.139
563.48	21.007
563.82	19.831
564.16	20.594
564.50	20.441
564.84	19.469
565.17	20.824
565.51	19.965
565.85	20.012
566.19	19.758
566.52	20.480
566.86	20.430
567.20	19.902
567.54	20.127
567.88	19.929
568.21	19.763
568.55	19.137
568.89	19.065
569.23	19.054
569.56	18.640
569.90	19.031
570.24	18.044
570.57	18.153
570.91	17.391
571.25	17.414
571.59	18.035
571.92	17.377
572.26	17.575
572.60	17.581
572.93	18.397
573.27	17.505
573.61	17.417
573.95	17.431
574.28	17.239
574.62	17.167
574.96	16.564
575.29	16.942
575.63	17.071
575.97	17.006
576.30	16.852
576.64	17.037
576.98	16.811
577.31	17.105
577.65	17.086
577.98	16.773
578.32	16.841
578.66	16.642
578.99	16.240
579.33	16.896
579.67	16.659
580.00	16.588
580.34	16.732
580.67	16.880
581.01	16.508
581.35	16.735
581.68	16.131
582.02	16.401
582.35	16.606
582.69	16.541
583.02	16.763
583.36	16.697
583.70	16.610
584.03	16.823
584.37	16.909
584.70	16.773
585.04	16.694
585.37	16.814
585.71	16.570
586.04	16.402
586.38	16.852
586.72	16.922
587.05	16.807
587.39	17.103
587.72	16.866
588.06	17.070
588.39	16.505
588.73	17.011
589.06	16.986
589.40	17.363
589.73	17.641
590.07	17.341
590.40	18.796
590.73	17.780
591.07	18.950
591.40	17.302
591.74	17.886
592.07	18.433
592.41	17.784
592.74	17.572
593.08	17.389
593.41	17.585
593.75	16.695
594.08	16.995
594.41	17.468
594.75	17.336
595.08	17.497
595.42	17.500
595.75	17.501
596.09	17.350
596.42	17.951
596.75	18.217
597.09	18.465
597.42	18.514
597.75	17.797
598.09	18.532
598.42	18.778
598.76	17.577
599.09	17.764
599.42	17.332
599.76	16.936
600.09	17.217
600.42	17.384
600.76	17.239
601.09	17.093
601.42	17.542
601.76	17.345
602.09	17.977
602.42	17.594
602.76	17.454
603.09	17.731
603.42	17.775
603.76	16.667
604.09	18.062
604.42	17.651
604.76	17.922
605.09	17.351
605.42	17.703
605.75	17.731
606.09	17.171
606.42	17.220
606.75	16.829
607.09	17.243
607.42	17.765
607.75	17.819
608.08	17.403
608.42	17.211
608.75	18.532
609.08	17.615
609.41	17.689
609.75	18.304
610.08	18.294
610.41	17.927
610.74	17.479
611.07	18.073
611.41	18.296
611.74	18.614
612.07	18.326
612.40	17.728
612.73	18.826
613.07	18.435
613.40	18.912
613.73	18.633
614.06	19.038
614.39	17.687
614.72	17.467
615.06	18.142
615.39	18.173
615.72	18.057
616.05	18.456
616.38	18.618
616.71	19.436
617.05	18.903
617.38	19.048
617.71	19.384
618.04	18.888
618.37	19.235
618.70	20.192
619.03	19.176
619.36	18.866
619.69	18.770
620.03	18.958
620.36	19.939
620.69	20.234
621.02	19.882
621.35	20.464
621.68	20.897
622.01	21.068
622.34	19.386
622.67	21.168
623.00	18.826
623.33	20.703
623.66	20.363
623.99	19.157
624.32	20.533
624.65	19.434
624.99	20.091
625.32	20.771
625.65	20.364
625.98	19.864
626.31	20.836
626.64	20.366
626.97	20.630
627.30	20.425
627.63	20.105
627.96	21.697
628.29	21.712
628.62	20.739
628.95	23.401
629.28	21.240
629.61	21.633
629.94	20.502
630.26	20.508
630.59	21.589
630.92	20.260
631.25	21.735
631.58	22.787
631.91	21.462
632.24	22.574
632.57	22.581
632.90	22.367
633.23	22.041
633.56	22.653
633.89	21.798
634.22	21.206
634.55	23.382
634.88	24.134
635.20	24.435
635.53	23.616
635.86	22.752
636.19	23.118
636.52	23.629
636.85	22.574
637.18	23.181
637.51	21.075
637.83	23.588
638.16	24.309
638.49	22.418
638.82	23.337
639.15	21.649
639.48	23.441
639.81	22.864
640.13	25.088
640.46	21.576
640.79	23.039
641.12	23.354
641.45	24.090
641.77	26.958
642.10	23.622
642.43	26.197
642.76	24.661
643.09	24.658
643.41	22.409
643.74	24.690
644.07	25.379
644.40	23.479
644.73	25.835
645.05	24.376
645.38	26.187
645.71	25.073
646.04	26.829
646.36	23.942
646.69	24.387
647.02	26.453
647.35	27.634
647.67	24.799
648.00	27.229
648.33	23.874
648.66	23.680
648.98	23.537
649.31	24.493
649.64	24.967
649.96	24.138
650.29	22.114
650.62	24.045
650.94	23.874
651.27	23.802
651.60	25.146
651.92	23.252
652.25	24.602
652.58	23.934
652.90	24.419
653.23	23.239
653.56	25.392
653.88	26.124
654.21	23.662
654.54	24.133
654.86	23.654
655.19	22.334
655.52	18.276
655.84	14.246
656.17	17.448
656.49	24.981
656.82	28.022
657.15	21.983
657.47	16.513
657.80	12.248
658.13	9.634
658.45	12.909
658.78	15.804
659.10	15.878
659.43	16.248
659.75	16.741
660.08	17.927
660.41	19.768
660.73	19.042
661.06	22.614
661.38	21.691
661.71	25.690
662.03	24.162
662.36	28.265
662.68	27.767
663.01	24.956
663.33	26.843
663.66	28.571
663.98	25.962
664.31	27.017
664.63	25.048
664.96	25.953
665.28	24.501
665.61	28.671
665.93	25.000
666.26	24.910
666.58	25.830
666.91	25.234
667.23	27.429
667.56	26.627
667.88	27.200
668.21	24.805
668.53	24.131
668.86	29.273
669.18	26.069
669.50	25.646
669.83	25.800
670.15	28.543
670.48	26.587
670.80	27.151
671.13	24.386
671.45	25.787
671.77	27.119
672.10	24.667
672.42	24.919
672.75	22.734
673.07	23.881
673.39	20.955
673.72	26.510
674.04	24.483
674.37	25.224
674.69	26.102
675.01	24.381
675.34	25.191
675.66	25.281
675.98	24.067
676.31	26.953
676.63	26.996
676.95	25.479
677.28	27.218
677.60	23.425
677.92	25.528
678.25	27.239
678.57	26.512
678.89	27.474
679.22	24.216
679.54	23.248
679.86	23.898
680.18	23.051
680.51	24.528
680.83	24.714
681.15	23.103
681.48	25.907
681.80	24.007
682.12	23.601
682.44	25.710
682.77	23.759
683.09	23.674
683.41	25.194
683.73	24.858
684.06	23.801
684.38	21.825
684.70	23.698
685.02	24.441
685.34	24.626
685.67	21.451
685.99	24.233
686.31	22.965
686.63	21.643
686.96	22.397
687.28	23.453
687.60	23.401
687.92	22.830
688.24	23.706
688.56	22.931
688.89	25.590
689.21	27.202
689.53	25.882
689.85	22.288
690.17	24.259
690.49	25.100
690.82	24.554
691.14	23.684
691.46	22.562
691.78	23.941
692.10	24.220
692.42	20.893
692.74	24.682
693.06	20.926
693.39	26.755
693.71	25.188
694.03	22.305
694.35	24.571
694.67	25.051
694.99	27.660
695.31	26.269
695.63	27.273
695.95	26.915
696.27	24.835
696.59	28.097
696.91	25.450
697.23	28.132
697.56	20.570
697.88	21.970
698.20	24.105
698.52	26.136
698.84	24.532
699.16	26.122
699.48	23.849
699.80	25.319
700.12	26.419
700.44	25.576
700.76	25.178
701.08	27.845
701.40	27.979
701.72	27.114
702.04	27.807
702.36	23.560
702.68	25.428
703.00	22.738
703.32	23.153
703.64	28.606
703.96	25.776
704.28	26.781
704.60	28.861
704.91	27.041
705.23	27.671
705.55	28.412
705.87	30.000
706.19	28.528
706.51	26.807
706.83	23.919
707.15	27.513
707.47	24.065
707.79	23.799
708.11	21.822
708.43	22.581
708.74	24.330
709.06	24.594
709.38	27.700
709.70	29.032
710.02	27.649
710.34	29.787
710.66	25.419
710.98	25.956
711.29	27.473
711.61	28.531
711.93	30.199
712.25	28.378
712.57	28.024
712.89	30.000
713.20	25.444
713.52	31.503
713.84	26.462
714.16	27.105
714.48	27.062
714.80	26.753
715.11	25.722
715.43	28.647
715.75	28.684
716.07	28.177
716.39	30.055
716.70	27.108
717.02	28.197
717.34	29.617
717.66	29.195
717.97	26.712
718.29	26.117
718.61	27.303
718.93	25.890
719.24	27.019
719.56	26.994
719.88	28.529
720.20	27.742
720.51	27.329
720.83	26.250
721.15	26.974
721.46	27.740
721.78	29.667
722.10	27.184
722.42	26.510
722.73	31.935
723.05	30.877
723.37	27.083
723.68	26.523
724.00	28.881
724.32	28.521
724.63	30.769
724.95	29.433
725.27	25.087
725.58	26.502
725.90	30.000
726.22	26.959
726.53	29.545
726.85	28.931
727.16	27.190
727.48	28.440
727.80	32.119
728.11	28.269
728.43	32.323
728.74	30.769
729.06	29.470
729.38	26.948
729.69	28.188
730.01	25.595
730.32	20.606
730.64	28.302
730.96	22.981
731.27	27.095
731.59	23.901
731.90	23.377
732.22	26.562
732.53	23.481
732.85	27.143
733.16	24.927
733.48	23.171
733.80	26.184
734.11	25.356
734.43	27.838
734.74	26.076
735.06	24.121
735.37	26.216
735.69	24.324
736.00	26.836
736.32	24.259
736.63	23.056
736.95	25.000
737.26	28.485
737.58	23.030
737.89	25.882
738.21	20.795
738.52	24.918
738.83	28.328
739.15	25.887
739.46	29.592
739.78	27.914
740.09	26.648
740.41	23.324
740.72	27.667
741.04	25.566
741.35	32.281
741.66	32.157
741.98	27.869
742.29	30.544
742.61	26.316
742.92	26.538
743.23	31.408
743.55	28.682
743.86	33.600
744.18	25.207
744.49	29.958
744.80	33.745
745.12	34.177
745.43	28.862
745.74	28.879
746.06	27.119
746.37	31.224
746.68	34.553
747.00	35.833
747.31	30.043
747.62	26.154
747.94	26.721
748.25	26.506
748.56	28.163
748.88	29.487
749.19	34.052
749.50	24.675
749.82	32.530
750.13	32.740
750.44	24.000
750.75	24.308
751.07	28.000
751.38	25.868
751.69	28.115
752.01	26.537
752.32	24.510
752.63	23.469
752.94	27.682
753.26	27.509
753.57	27.037
753.88	26.966
754.19	23.151
754.51	26.367
754.82	28.296
755.13	29.508
755.44	27.304
755.75	29.605
756.07	28.358
756.38	26.101
756.69	29.518
757.00	23.823
757.31	23.224
757.63	21.995
757.94	23.709
758.25	25.282
758.56	22.222
758.87	23.182
759.18	27.200
759.50	29.178
759.81	23.529
760.12	27.224
760.43	22.917
760.74	25.616
761.05	24.500
761.36	22.651
761.67	21.827
761.99	22.703
762.30	25.305
762.61	25.743
762.92	24.254
763.23	26.966
763.54	27.698
763.85	29.210
764.16	26.599
764.47	27.817
764.78	26.198
765.10	26.686
765.41	24.359
765.72	20.370
766.03	27.684
766.34	25.078
766.65	25.087
766.96	27.092
767.27	29.493
767.58	27.861
767.89	33.173
768.20	23.005
768.51	33.333
768.82	26.506
769.13	29.924
769.44	21.923
769.75	28.520
770.06	27.692
770.37	33.071
770.68	25.957
770.99	24.696
771.30	30.741
771.61	25.856
771.92	24.815
772.23	24.291
772.54	28.704
772.85	32.258
773.16	32.857
773.47	26.984
773.78	24.324
774.09	34.091
774.39	37.000
774.70	34.973
775.01	26.220
775.32	26.471
775.63	36.196
775.94	35.032
776.25	34.194
776.56	42.949
776.87	40.136
777.18	35.862
777.48	34.266
777.79	38.514
778.10	32.353
778.41	34.028
778.72	31.724
779.03	37.037
779.34	30.909
779.65	31.606
779.95	35.556
780.26	36.932
780.57	38.710
780.88	39.130
781.19	38.710
781.50	34.706
781.80	29.570
782.11	25.926
782.42	24.242
782.73	21.557
783.04	28.492
783.34	26.667
783.65	28.758
783.96	36.646
784.27	30.357
784.57	36.424
784.88	31.429
785.19	40.945
785.50	37.795
785.81	39.098
786.11	30.000
786.42	30.935
786.73	38.129
787.04	34.586
787.34	33.607
787.65	30.400
787.96	34.328
788.26	44.056
788.57	34.266
788.88	36.184
789.19	35.294
789.49	30.822
789.80	35.461
790.11	44.094
790.41	26.563
790.72	43.220
791.03	36.893
791.33	33.043
791.64	39.474
791.95	43.750
792.25	37.143
792.56	41.071
792.87	37.500
793.17	42.857
793.48	26.042
793.79	40.964
794.09	33.945
794.40	29.358
794.70	40.136
795.01	28.571
795.32	23.973
795.62	35.211
795.93	28.788
796.23	40.164
796.54	35.714
796.85	42.553
797.15	38.043
797.46	50.685
797.76	45.000
798.07	43.478
798.37	40.206
798.68	32.468
798.99	36.782
799.29	41.573
799.60	26.596
799.90	40.964
800.21	63.077
800.51	49.254
800.82	44.118
801.12	42.466
801.43	36.765
801.73	45.763
802.04	31.818
802.34	51.667
802.65	42.373
802.95	61.194
803.26	38.983
803.56	42.466
803.87	37.143
804.17	49.315
804.48	43.860
804.78	50.000
805.09	34.483
805.39	47.297
805.70	39.437
806.00	47.561
806.30	49.398
806.61	45.205
806.91	37.500
807.22	41.111
807.52	35.632
807.83	47.222
808.13	42.169
808.43	44.944
808.74	33.750
809.04	20.588
809.35	37.333
809.65	35.714
809.95	54.795
810.26	35.088
810.56	55.172
810.86	44.118
811.17	57.895
811.47	42.623
811.77	53.333
812.08	67.797
812.38	51.667
812.69	56.897
812.99	41.509
813.29	56.410
813.59	68.000
813.90	66.667
814.20	65.455
814.50	42.254
814.81	46.154
815.11	44.262
815.41	38.806
815.72	67.241
816.02	57.143
816.32	84.444
816.62	65.909
816.93	53.333
817.23	35.185
817.53	25.532
817.84	61.905
818.14	67.647
818.44	69.388
818.74	66.667
819.04	61.538
819.35	54.286
819.65	84.615
819.95	50.943
820.25	68.889
820.56	69.048
820.86	84.375
821.16	56.410
821.46	53.488
821.76	42.000
822.07	69.643
822.37	41.304
822.67	70.213
822.97	29.730
823.27	62.500
823.57	75.510
823.88	66.667
824.18	67.500
824.48	73.333
824.78	144.000
825.08	81.818
825.38	77.778
825.69	51.064
825.99	30.556
826.29	14.286
826.59	28.205
826.89	53.488
827.19	58.000
827.49	67.647
827.79	56.250
828.09	75.676
828.39	63.333
828.70	70.732
829.00	39.535
829.30	78.571
829.60	85.294
829.90	50.000
830.20	65.714
830.50	51.724
830.80	77.778
831.10	100.000
831.40	64.706
831.70	114.286
832.00	103.226
832.30	82.353
832.60	62.500
832.90	192.308
833.20	84.211
833.50	95.000
833.80	115.789
834.10	42.857
834.40	88.889
834.70	106.250
835.00	37.143
835.30	82.353
835.60	76.667
835.90	104.000
836.20	68.182
836.50	92.000
836.80	48.485
837.10	96.296
837.40	111.111
837.70	56.250
838.00	64.286
838.30	52.174
838.60	86.207
838.90	207.143
839.19	73.913
839.49	183.333
839.79	113.043
840.09	68.750
840.39	135.000
840.69	138.710
840.99	92.857
841.29	173.333
841.59	131.579
841.88	94.872
842.18	69.231
842.48	170.000
842.78	80.000
843.08	70.000
843.38	64.516
843.68	105.556
843.97	73.529
844.27	168.750
844.57	105.263
844.87	160.000
845.17	100.000
845.47	128.571
845.76	33.333
846.06	266.667
846.36	70.588
846.66	88.462
846.96	173.333
847.25	58.824
847.55	126.087
847.85	80.000
848.15	94.118
848.44	145.455
848.74	128.571
849.04	25.000
849.34	156.250
849.63	100.000
849.93	-600.000
850.23	100.000
850.53	100.000
850.82	172.727
851.12	104.545
851.42	163.636
851.71	238.462
852.01	40.000
852.31	176.923
852.61	115.789
852.90	233.333
853.20	127.778
853.50	33.333
853.79	90.476
854.09	86.364
854.39	108.333
854.68	74.194
854.98	50.000
855.28	111.111
855.57	67.857
855.87	48.000
856.17	77.273
856.46	92.593
856.76	83.333
857.05	65.217
857.35	25.000
857.65	192.308
857.94	138.095
858.24	88.889
858.53	152.174
858.83	129.412
859.13	88.235
859.42	164.706
859.72	164.286
860.01	70.000
860.31	277.778
860.60	110.000
860.90	113.333
861.20	144.444
861.49	100.000
861.79	76.667
862.08	184.615
862.38	103.125
862.67	147.059
862.97	181.250
863.26	44.444
863.56	190.000
863.85	154.545
864.15	88.889
864.44	366.667
864.74	171.429
865.03	156.250
865.33	150.000
865.62	93.548
865.92	81.818
866.21	113.043
866.51	214.286
866.80	140.000
867.10	125.000
867.39	100.000
867.69	-900.000
867.98	257.143
868.27	194.118
868.57	1400.000
868.86	80.000
869.16	90.476
869.45	112.500
869.75	245.455
870.04	71.429
870.33	166.667
870.63	100.000
870.92	450.000
871.22	125.000
871.51	54.545
871.80	100.000
872.10	850.000
>>>>>End Processed Spectral Data<<<<<
