SpectraSuite Data File
++++++++++++++++++++++++++++++++++++
Date: Thu May 14 14:26:45 PDT 2015
User: schluterlab
Dark Spectrum Present: Yes
Reference Spectrum Present: Yes
Number of Sampled Component Spectra: 1
Spectrometers: USB2E3373
Integration Time (usec): 3000 (USB2E3373)
Spectra Averaged: 3 (USB2E3373)
Boxcar Smoothing: 0 (USB2E3373)
Correct for Electrical Dark: No (USB2E3373)
Strobe/Lamp Enabled: No (USB2E3373)
Correct for Detector Non-linearity: No (USB2E3373)
Correct for Stray Light: No (USB2E3373)
Number of Pixels in Processed Spectrum: 2048
>>>>>Begin Processed Spectral Data<<<<<
178.53	0.000
178.91	-200.000
179.29	500.000
179.67	700.000
180.04	14.286
180.42	-80.000
180.80	-160.000
181.18	300.000
181.56	1700.000
181.94	-375.000
182.31	300.000
182.69	-333.333
183.07	350.000
183.45	-325.000
183.83	150.000
184.20	400.000
184.58	-700.000
184.96	50.000
185.34	100.000
185.72	240.000
186.09	-22.222
186.47	-550.000
186.85	-60.000
187.23	-22.222
187.61	100.000
187.98	-320.000
188.36	-75.000
188.74	75.000
189.12	400.000
189.49	112.500
189.87	37.500
190.25	100.000
190.63	440.000
191.00	44.444
191.38	0.000
191.76	300.000
192.14	116.667
192.51	-700.000
192.89	300.000
193.27	0.000
193.65	71.429
194.02	-1100.000
194.40	71.429
194.78	-114.286
195.15	0.000
195.53	200.000
195.91	0.000
196.29	500.000
196.66	76.923
197.04	-100.000
197.42	128.571
197.79	-200.000
198.17	175.000
198.55	-57.143
198.92	177.778
199.30	25.000
199.68	218.182
200.05	128.571
200.43	300.000
200.81	-57.143
201.18	0.000
201.56	33.333
201.94	0.000
202.31	133.333
202.69	88.889
203.07	-500.000
203.44	111.111
203.82	100.000
204.19	25.000
204.57	216.667
204.95	137.500
205.32	1200.000
205.70	-375.000
206.08	33.333
206.45	116.667
206.83	80.000
207.20	150.000
207.58	160.000
207.96	33.333
208.33	250.000
208.71	-16.667
209.08	366.667
209.46	0.000
209.84	-166.667
210.21	-750.000
210.59	-500.000
210.96	-100.000
211.34	225.000
211.71	125.000
212.09	500.000
212.46	0.000
212.84	-150.000
213.22	140.000
213.59	150.000
213.97	50.000
214.34	66.667
214.72	50.000
215.09	175.000
215.47	0.000
215.84	-171.429
216.22	-0.000
216.59	200.000
216.97	140.000
217.34	500.000
217.72	187.500
218.09	125.000
218.47	300.000
218.84	0.000
219.22	-40.000
219.59	70.588
219.97	110.000
220.34	-200.000
220.72	11.111
221.09	161.538
221.47	400.000
221.84	130.000
222.22	214.286
222.59	0.000
222.97	262.500
223.34	160.000
223.72	300.000
224.09	-50.000
224.46	50.000
224.84	280.000
225.21	100.000
225.59	200.000
225.96	325.000
226.34	73.077
226.71	16.667
227.08	350.000
227.46	80.000
227.83	250.000
228.21	47.368
228.58	-37.500
228.95	-100.000
229.33	208.333
229.70	60.000
230.08	89.474
230.45	-10.000
230.82	400.000
231.20	100.000
231.57	116.667
231.95	172.727
232.32	227.273
232.69	85.000
233.07	350.000
233.44	41.176
233.81	150.000
234.19	100.000
234.56	90.909
234.93	68.966
235.31	89.474
235.68	44.444
236.05	55.000
236.43	76.923
236.80	124.000
237.17	74.074
237.55	57.576
237.92	170.000
238.29	93.548
238.67	45.455
239.04	86.111
239.41	64.286
239.79	50.000
240.16	50.000
240.53	63.043
240.91	52.941
241.28	39.344
241.65	56.716
242.02	67.568
242.40	52.308
242.77	45.333
243.14	43.902
243.51	44.737
243.89	50.000
244.26	44.554
244.63	56.863
245.00	42.056
245.38	36.842
245.75	45.133
246.12	50.794
246.49	49.612
246.87	50.714
247.24	46.358
247.61	48.684
247.98	36.913
248.36	41.975
248.73	38.037
249.10	45.902
249.47	47.264
249.84	48.168
250.22	43.005
250.59	46.667
250.96	47.727
251.33	42.347
251.70	43.590
252.08	43.750
252.45	45.082
252.82	44.628
253.19	44.141
253.56	40.684
253.94	43.077
254.31	46.591
254.68	45.455
255.05	43.322
255.42	41.497
255.79	41.100
256.16	43.709
256.54	42.715
256.91	43.934
257.28	42.295
257.65	40.764
258.02	43.363
258.39	40.456
258.76	49.235
259.14	43.103
259.51	43.804
259.88	42.776
260.25	42.778
260.62	43.014
260.99	45.355
261.36	43.700
261.73	42.175
262.10	40.659
262.47	45.845
262.85	45.707
263.22	38.961
263.59	40.000
263.96	39.898
264.33	40.921
264.70	45.185
265.07	43.198
265.44	46.032
265.81	43.519
266.18	41.723
266.55	40.625
266.92	38.041
267.29	42.232
267.66	41.020
268.03	42.358
268.40	42.589
268.77	39.863
269.14	41.189
269.51	43.421
269.88	42.418
270.25	40.040
270.62	44.093
270.99	43.434
271.36	38.812
271.73	43.222
272.10	40.281
272.47	42.485
272.84	38.755
273.21	39.679
273.58	40.927
273.95	37.500
274.32	37.643
274.69	40.232
275.06	41.026
275.43	36.229
275.80	38.801
276.17	39.630
276.54	38.993
276.91	39.893
277.28	40.325
277.65	38.420
278.02	42.279
278.39	39.312
278.76	37.083
279.13	40.071
279.50	38.832
279.87	40.250
280.23	37.148
280.60	38.983
280.97	39.803
281.34	40.917
281.71	40.440
282.08	35.880
282.45	36.007
282.82	38.305
283.19	36.672
283.56	38.197
283.92	37.237
284.29	37.915
284.66	39.409
285.03	38.462
285.40	38.022
285.77	39.009
286.14	37.405
286.51	37.291
286.87	36.809
287.24	39.157
287.61	35.127
287.98	37.009
288.35	37.870
288.72	38.757
289.08	36.164
289.45	36.538
289.82	34.337
290.19	36.063
290.56	35.634
290.93	35.378
291.29	36.088
291.66	33.058
292.03	31.615
292.40	34.830
292.77	34.232
293.13	32.070
293.50	31.932
293.87	34.094
294.24	34.133
294.60	33.375
294.97	31.678
295.34	33.547
295.71	30.013
296.08	30.749
296.44	30.882
296.81	31.669
297.18	31.258
297.55	30.307
297.91	30.961
298.28	31.280
298.65	31.629
299.02	31.169
299.38	30.320
299.75	28.505
300.12	29.051
300.48	31.452
300.85	29.359
301.22	29.083
301.59	29.110
301.95	30.508
302.32	29.444
302.69	29.792
303.05	29.815
303.42	29.601
303.79	28.958
304.15	29.232
304.52	28.858
304.89	29.110
305.25	28.571
305.62	27.691
305.99	28.454
306.35	27.722
306.72	28.438
307.09	28.934
307.45	27.329
307.82	27.346
308.19	28.254
308.55	27.676
308.92	28.238
309.29	27.682
309.65	26.998
310.02	27.129
310.38	26.969
310.75	27.864
311.12	27.996
311.48	28.837
311.85	28.015
312.22	26.660
312.58	27.512
312.95	27.533
313.31	27.642
313.68	26.740
314.05	28.094
314.41	28.233
314.78	27.430
315.14	26.951
315.51	27.331
315.87	28.443
316.24	27.671
316.61	27.975
316.97	25.339
317.34	25.838
317.70	28.210
318.07	26.896
318.43	26.701
318.80	27.759
319.16	27.210
319.53	25.107
319.89	26.205
320.26	27.224
320.62	24.645
320.99	27.608
321.35	26.433
321.72	26.698
322.08	27.592
322.45	25.836
322.81	27.347
323.18	25.752
323.54	25.603
323.91	25.712
324.27	25.990
324.64	27.036
325.00	23.798
325.37	24.816
325.73	26.364
326.10	25.791
326.46	26.954
326.83	25.861
327.19	25.827
327.56	26.166
327.92	25.492
328.29	26.452
328.65	26.214
329.01	25.296
329.38	25.611
329.74	26.113
330.11	25.599
330.47	26.116
330.84	24.978
331.20	25.750
331.56	26.170
331.93	26.025
332.29	27.203
332.66	25.997
333.02	25.544
333.38	24.664
333.75	25.505
334.11	25.605
334.48	25.165
334.84	25.828
335.20	25.357
335.57	25.211
335.93	26.198
336.29	23.794
336.66	24.811
337.02	24.415
337.38	24.575
337.75	23.884
338.11	26.409
338.47	24.235
338.84	24.535
339.20	24.600
339.56	24.382
339.93	24.056
340.29	24.316
340.65	24.493
341.02	25.698
341.38	26.758
341.74	24.697
342.11	24.779
342.47	24.226
342.83	25.926
343.20	25.593
343.56	23.978
343.92	22.818
344.28	24.219
344.65	24.729
345.01	24.493
345.37	25.117
345.73	25.097
346.10	24.181
346.46	23.734
346.82	25.094
347.19	24.141
347.55	24.507
347.91	22.883
348.27	24.734
348.63	24.296
349.00	24.907
349.36	24.535
349.72	23.661
350.08	24.294
350.45	23.650
350.81	24.133
351.17	24.361
351.53	24.033
351.89	24.601
352.26	23.358
352.62	22.537
352.98	22.290
353.34	23.226
353.70	23.883
354.07	22.653
354.43	24.374
354.79	23.859
355.15	23.547
355.51	24.050
355.87	23.710
356.24	23.194
356.60	22.764
356.96	22.758
357.32	22.677
357.68	23.133
358.04	22.979
358.40	22.836
358.77	23.099
359.13	22.747
359.49	22.305
359.85	23.568
360.21	22.525
360.57	22.541
360.93	23.907
361.29	23.088
361.66	22.592
362.02	24.704
362.38	23.472
362.74	23.254
363.10	24.278
363.46	23.753
363.82	22.159
364.18	23.223
364.54	23.237
364.90	22.542
365.26	21.172
365.62	23.600
365.98	22.600
366.35	22.282
366.71	23.265
367.07	22.124
367.43	22.850
367.79	22.760
368.15	22.475
368.51	23.139
368.87	21.816
369.23	23.133
369.59	22.473
369.95	22.448
370.31	23.498
370.67	21.596
371.03	22.368
371.39	21.155
371.75	22.902
372.11	21.680
372.47	22.343
372.83	22.906
373.19	21.681
373.55	22.629
373.91	21.677
374.27	22.445
374.63	22.192
374.99	22.016
375.35	22.208
375.71	22.645
376.07	21.627
376.42	22.607
376.78	22.685
377.14	22.084
377.50	21.442
377.86	22.968
378.22	22.036
378.58	22.235
378.94	22.124
379.30	22.261
379.66	22.340
380.02	22.677
380.38	22.696
380.74	22.761
381.09	21.603
381.45	22.159
381.81	23.419
382.17	22.565
382.53	22.632
382.89	21.558
383.25	22.626
383.61	21.701
383.97	21.908
384.32	22.907
384.68	21.636
385.04	23.713
385.40	22.864
385.76	21.981
386.12	22.681
386.48	21.412
386.83	23.182
387.19	22.538
387.55	21.714
387.91	23.059
388.27	22.575
388.62	22.337
388.98	21.545
389.34	22.687
389.70	22.661
390.06	22.202
390.42	22.410
390.77	22.577
391.13	21.831
391.49	22.464
391.85	21.758
392.20	22.123
392.56	22.859
392.92	22.955
393.28	22.056
393.64	22.235
393.99	22.777
394.35	22.605
394.71	22.874
395.07	22.036
395.42	21.816
395.78	22.852
396.14	22.876
396.50	21.615
396.85	22.004
397.21	22.485
397.57	22.261
397.92	22.451
398.28	21.836
398.64	21.739
399.00	21.099
399.35	21.675
399.71	21.304
400.07	22.908
400.42	22.002
400.78	21.817
401.14	21.799
401.49	22.456
401.85	22.151
402.21	22.016
402.57	22.477
402.92	22.518
403.28	21.370
403.63	22.554
403.99	21.675
404.35	22.342
404.70	22.663
405.06	22.337
405.42	22.248
405.77	22.574
406.13	21.448
406.49	21.622
406.84	21.884
407.20	20.850
407.55	21.381
407.91	21.307
408.27	21.319
408.62	21.466
408.98	21.997
409.34	21.114
409.69	22.497
410.05	22.685
410.40	22.332
410.76	21.985
411.11	22.034
411.47	22.297
411.83	22.163
412.18	21.988
412.54	22.584
412.89	21.595
413.25	21.388
413.60	21.941
413.96	22.086
414.31	21.926
414.67	22.421
415.03	21.415
415.38	21.185
415.74	21.808
416.09	21.592
416.45	20.977
416.80	21.114
417.16	21.520
417.51	21.046
417.87	21.643
418.22	21.617
418.58	21.066
418.93	21.537
419.29	21.640
419.64	20.588
420.00	21.187
420.35	22.291
420.71	21.367
421.06	20.529
421.42	21.330
421.77	21.325
422.12	21.987
422.48	21.813
422.83	22.234
423.19	22.281
423.54	21.903
423.90	21.756
424.25	21.600
424.61	21.240
424.96	21.087
425.31	22.187
425.67	21.095
426.02	21.804
426.38	21.010
426.73	21.484
427.09	22.030
427.44	20.590
427.79	22.112
428.15	21.347
428.50	21.067
428.85	21.642
429.21	21.755
429.56	20.188
429.92	21.032
430.27	20.964
430.62	21.251
430.98	21.594
431.33	21.359
431.68	20.785
432.04	22.092
432.39	21.478
432.74	21.518
433.10	22.174
433.45	21.182
433.80	21.620
434.16	21.591
434.51	21.377
434.86	21.227
435.22	21.626
435.57	21.875
435.92	21.369
436.28	21.900
436.63	22.338
436.98	20.612
437.34	21.871
437.69	21.464
438.04	20.571
438.39	21.539
438.75	21.361
439.10	22.357
439.45	21.129
439.81	21.864
440.16	21.233
440.51	21.405
440.86	20.845
441.22	21.972
441.57	21.855
441.92	21.484
442.27	21.818
442.63	21.162
442.98	22.038
443.33	22.094
443.68	22.547
444.03	22.389
444.39	21.960
444.74	21.797
445.09	21.997
445.44	21.918
445.79	22.318
446.15	21.634
446.50	21.447
446.85	21.887
447.20	22.389
447.55	22.123
447.91	21.571
448.26	21.195
448.61	21.148
448.96	21.835
449.31	21.739
449.66	21.078
450.02	21.677
450.37	21.630
450.72	21.313
451.07	22.323
451.42	21.895
451.77	21.123
452.12	22.291
452.47	21.331
452.83	22.185
453.18	21.716
453.53	21.999
453.88	21.149
454.23	21.638
454.58	21.822
454.93	21.845
455.28	21.312
455.63	22.229
455.98	22.458
456.34	20.966
456.69	21.340
457.04	21.809
457.39	21.286
457.74	22.036
458.09	21.746
458.44	22.306
458.79	21.815
459.14	21.447
459.49	21.619
459.84	21.563
460.19	21.877
460.54	22.374
460.89	21.334
461.24	21.149
461.59	22.025
461.94	20.764
462.29	21.725
462.64	20.640
462.99	21.908
463.34	22.518
463.69	21.219
464.04	22.568
464.39	21.749
464.74	21.779
465.09	21.396
465.44	21.942
465.79	22.686
466.14	21.157
466.49	21.211
466.84	22.259
467.19	22.023
467.54	21.269
467.89	21.034
468.24	21.662
468.59	20.614
468.94	20.804
469.29	21.956
469.64	21.551
469.99	21.351
470.34	20.854
470.68	20.848
471.03	21.807
471.38	21.583
471.73	22.042
472.08	21.193
472.43	21.553
472.78	21.474
473.13	22.693
473.48	22.598
473.83	22.345
474.17	21.219
474.52	22.309
474.87	21.872
475.22	21.634
475.57	21.080
475.92	21.354
476.27	21.725
476.61	21.599
476.96	20.751
477.31	21.733
477.66	22.298
478.01	20.996
478.36	21.286
478.70	21.724
479.05	21.984
479.40	21.273
479.75	22.190
480.10	21.506
480.45	21.650
480.79	21.542
481.14	21.369
481.49	21.036
481.84	21.845
482.19	21.892
482.53	21.688
482.88	22.463
483.23	21.565
483.58	20.961
483.92	20.523
484.27	21.296
484.62	20.792
484.97	21.579
485.31	20.556
485.66	21.928
486.01	21.311
486.36	21.384
486.70	21.419
487.05	21.078
487.40	20.780
487.75	21.120
488.09	21.668
488.44	21.085
488.79	20.877
489.13	21.470
489.48	21.126
489.83	20.885
490.17	20.818
490.52	21.264
490.87	21.616
491.22	21.144
491.56	21.032
491.91	20.977
492.26	21.333
492.60	21.251
492.95	20.799
493.30	21.336
493.64	21.551
493.99	21.140
494.34	20.645
494.68	20.642
495.03	21.013
495.37	21.749
495.72	20.635
496.07	21.166
496.41	21.150
496.76	21.268
497.11	21.274
497.45	20.587
497.80	21.191
498.14	21.134
498.49	21.461
498.84	20.887
499.18	20.918
499.53	21.345
499.87	22.198
500.22	20.971
500.56	21.053
500.91	21.327
501.26	21.500
501.60	21.211
501.95	21.624
502.29	21.018
502.64	21.251
502.98	20.923
503.33	20.778
503.67	20.715
504.02	21.322
504.36	21.582
504.71	21.543
505.06	21.828
505.40	21.207
505.75	20.811
506.09	21.593
506.44	21.402
506.78	22.064
507.13	21.392
507.47	21.412
507.82	20.975
508.16	21.319
508.51	20.628
508.85	20.879
509.19	21.649
509.54	21.902
509.88	21.807
510.23	21.224
510.57	21.605
510.92	21.432
511.26	20.491
511.61	20.521
511.95	20.937
512.30	21.812
512.64	21.089
512.98	21.511
513.33	22.026
513.67	21.673
514.02	21.461
514.36	21.893
514.70	21.198
515.05	21.950
515.39	21.207
515.74	22.800
516.08	21.500
516.42	22.083
516.77	21.661
517.11	21.145
517.46	22.057
517.80	22.074
518.14	22.035
518.49	21.909
518.83	20.756
519.17	21.002
519.52	21.488
519.86	21.436
520.20	21.299
520.55	21.687
520.89	21.565
521.23	22.557
521.58	21.469
521.92	21.303
522.26	21.649
522.61	22.222
522.95	21.799
523.29	22.011
523.64	21.525
523.98	22.761
524.32	22.120
524.66	21.514
525.01	21.065
525.35	21.654
525.69	21.404
526.04	20.896
526.38	21.897
526.72	21.050
527.06	21.349
527.41	22.507
527.75	21.793
528.09	22.196
528.43	21.137
528.78	21.445
529.12	21.273
529.46	21.585
529.80	22.082
530.15	22.087
530.49	21.649
530.83	21.724
531.17	22.103
531.51	21.300
531.86	22.236
532.20	21.402
532.54	21.005
532.88	21.091
533.22	20.919
533.57	22.100
533.91	21.829
534.25	21.990
534.59	20.862
534.93	20.939
535.27	21.746
535.62	22.229
535.96	22.603
536.30	21.563
536.64	21.922
536.98	22.448
537.32	22.222
537.66	22.645
538.01	21.269
538.35	20.828
538.69	21.274
539.03	22.502
539.37	21.673
539.71	22.102
540.05	21.403
540.39	21.271
540.73	21.190
541.07	20.785
541.42	21.559
541.76	21.767
542.10	21.894
542.44	21.255
542.78	21.655
543.12	20.799
543.46	22.039
543.80	20.683
544.14	21.484
544.48	21.631
544.82	22.322
545.16	22.242
545.50	21.270
545.84	21.066
546.18	22.222
546.52	21.975
546.86	21.950
547.20	20.929
547.54	21.785
547.88	21.579
548.22	21.287
548.56	21.826
548.90	22.149
549.24	21.702
549.58	21.893
549.92	21.811
550.26	22.395
550.60	21.315
550.94	21.863
551.28	20.924
551.62	22.574
551.96	21.683
552.30	22.435
552.64	21.531
552.98	21.896
553.32	21.093
553.66	21.158
554.00	21.816
554.34	20.914
554.68	22.143
555.02	21.945
555.36	21.368
555.69	21.781
556.03	21.753
556.37	22.340
556.71	22.257
557.05	21.661
557.39	21.699
557.73	22.391
558.07	21.854
558.41	21.262
558.75	21.974
559.08	21.294
559.42	21.879
559.76	22.049
560.10	22.170
560.44	21.900
560.78	22.562
561.12	21.675
561.45	22.384
561.79	22.283
562.13	21.811
562.47	21.455
562.81	21.519
563.15	22.033
563.48	21.815
563.82	22.189
564.16	21.744
564.50	21.573
564.84	21.593
565.17	20.706
565.51	20.656
565.85	21.556
566.19	20.737
566.52	21.182
566.86	21.902
567.20	20.990
567.54	21.455
567.88	21.865
568.21	22.777
568.55	22.590
568.89	21.652
569.23	22.011
569.56	21.766
569.90	21.739
570.24	22.563
570.57	21.392
570.91	21.249
571.25	21.579
571.59	21.598
571.92	21.562
572.26	21.466
572.60	21.403
572.93	21.514
573.27	21.860
573.61	21.705
573.95	21.947
574.28	21.701
574.62	21.146
574.96	21.372
575.29	20.996
575.63	21.529
575.97	21.389
576.30	20.873
576.64	21.713
576.98	21.390
577.31	21.397
577.65	21.605
577.98	21.687
578.32	21.438
578.66	21.240
578.99	21.094
579.33	21.543
579.67	21.124
580.00	21.376
580.34	21.226
580.67	21.072
581.01	21.311
581.35	21.605
581.68	21.739
582.02	21.450
582.35	21.440
582.69	21.758
583.02	21.716
583.36	21.401
583.70	21.382
584.03	21.502
584.37	21.550
584.70	21.443
585.04	21.390
585.37	21.918
585.71	21.532
586.04	21.400
586.38	21.611
586.72	20.958
587.05	21.105
587.39	21.690
587.72	21.579
588.06	21.688
588.39	21.533
588.73	21.296
589.06	21.219
589.40	21.819
589.73	21.272
590.07	21.784
590.40	21.839
590.73	21.598
591.07	21.333
591.40	21.501
591.74	21.582
592.07	21.803
592.41	21.136
592.74	21.654
593.08	22.038
593.41	21.843
593.75	21.868
594.08	21.478
594.41	21.891
594.75	21.023
595.08	21.635
595.42	21.818
595.75	21.505
596.09	21.823
596.42	22.071
596.75	21.227
597.09	22.101
597.42	21.573
597.75	21.599
598.09	21.944
598.42	21.994
598.76	21.666
599.09	22.036
599.42	21.086
599.76	21.063
600.09	21.255
600.42	21.488
600.76	22.094
601.09	21.706
601.42	21.147
601.76	21.414
602.09	21.194
602.42	20.720
602.76	20.996
603.09	21.733
603.42	21.243
603.76	21.142
604.09	22.143
604.42	21.541
604.76	21.347
605.09	21.819
605.42	21.411
605.75	20.923
606.09	20.829
606.42	20.759
606.75	21.214
607.09	20.699
607.42	21.541
607.75	21.727
608.08	21.231
608.42	21.644
608.75	21.144
609.08	21.010
609.41	21.570
609.75	21.339
610.08	21.372
610.41	21.963
610.74	21.176
611.07	21.048
611.41	21.659
611.74	21.524
612.07	21.038
612.40	20.865
612.73	20.685
613.07	21.614
613.40	21.752
613.73	20.847
614.06	21.590
614.39	21.331
614.72	21.640
615.06	21.944
615.39	20.831
615.72	21.137
616.05	21.030
616.38	21.847
616.71	21.578
617.05	20.128
617.38	21.348
617.71	21.490
618.04	21.695
618.37	21.202
618.70	21.097
619.03	21.027
619.36	20.900
619.69	21.397
620.03	21.532
620.36	20.859
620.69	21.407
621.02	21.785
621.35	22.642
621.68	21.837
622.01	20.712
622.34	20.990
622.67	21.581
623.00	20.108
623.33	21.367
623.66	22.763
623.99	20.803
624.32	21.832
624.65	20.849
624.99	22.172
625.32	22.861
625.65	22.185
625.98	21.559
626.31	22.395
626.64	20.952
626.97	21.755
627.30	20.273
627.63	21.305
627.96	21.847
628.29	22.335
628.62	19.815
628.95	21.823
629.28	20.476
629.61	22.643
629.94	22.008
630.26	20.678
630.59	19.862
630.92	20.779
631.25	21.109
631.58	22.599
631.91	20.712
632.24	22.286
632.57	21.442
632.90	20.662
633.23	22.755
633.56	20.306
633.89	20.868
634.22	21.206
634.55	21.816
634.88	20.887
635.20	22.820
635.53	23.051
635.86	21.885
636.19	22.269
636.52	21.941
636.85	21.757
637.18	21.933
637.51	20.108
637.83	22.702
638.16	22.581
638.49	20.775
638.82	22.435
639.15	20.046
639.48	22.517
639.81	22.979
640.13	20.141
640.46	19.758
640.79	19.975
641.12	21.366
641.45	21.706
641.77	24.134
642.10	22.178
642.43	20.745
642.76	22.764
643.09	20.959
643.41	21.849
643.74	20.552
644.07	22.621
644.40	21.216
644.73	22.061
645.05	22.467
645.38	22.158
645.71	21.701
646.04	22.095
646.36	22.190
646.69	21.933
647.02	20.795
647.35	22.595
647.67	22.544
648.00	20.701
648.33	23.574
648.66	21.826
648.98	20.952
649.31	21.516
649.64	20.584
649.96	22.149
650.29	20.445
650.62	20.368
650.94	21.772
651.27	20.060
651.60	20.322
651.92	21.581
652.25	21.418
652.58	21.183
652.90	20.930
653.23	20.282
653.56	20.970
653.88	23.315
654.21	21.972
654.54	20.376
654.86	19.405
655.19	21.706
655.52	20.511
655.84	20.161
656.17	25.999
656.49	36.669
656.82	39.874
657.15	30.623
657.47	22.297
657.80	16.175
658.13	12.662
658.45	16.767
658.78	20.043
659.10	20.211
659.43	19.898
659.75	21.200
660.08	20.952
660.41	20.265
660.73	22.235
661.06	20.264
661.38	21.212
661.71	19.828
662.03	21.164
662.36	22.361
662.68	20.826
663.01	24.779
663.33	23.251
663.66	23.443
663.98	22.500
664.31	22.889
664.63	22.543
664.96	21.416
665.28	19.964
665.61	24.126
665.93	21.071
666.26	22.939
666.58	19.188
666.91	22.804
667.23	20.762
667.56	22.682
667.88	21.000
668.21	19.922
668.53	21.622
668.86	22.200
669.18	21.385
669.50	20.477
669.83	23.200
670.15	23.425
670.48	22.619
670.80	19.503
671.13	21.172
671.45	19.094
671.77	23.729
672.10	20.833
672.42	20.065
672.75	23.041
673.07	21.045
673.39	20.339
673.72	22.987
674.04	20.690
674.37	23.077
674.69	23.104
675.01	21.333
675.34	20.038
675.66	21.161
675.98	20.522
676.31	21.289
676.63	21.103
676.95	25.479
677.28	19.153
677.60	21.063
677.92	22.265
678.25	22.121
678.57	22.954
678.89	24.061
679.22	19.686
679.54	22.735
679.86	20.678
680.18	19.237
680.51	21.069
680.83	20.295
681.15	18.621
681.48	23.143
681.80	20.553
682.12	20.979
682.44	20.200
682.77	21.809
683.09	19.697
683.41	22.868
683.73	19.734
684.06	20.849
684.38	21.288
684.70	22.083
685.02	21.343
685.34	21.464
685.67	21.609
685.99	21.319
686.31	20.930
686.63	21.643
686.96	21.924
687.28	22.476
687.60	20.707
687.92	18.971
688.24	20.367
688.56	20.690
688.89	20.508
689.21	22.114
689.53	20.196
689.85	18.935
690.17	21.481
690.49	20.916
690.82	22.376
691.14	19.028
691.46	21.606
691.78	23.389
692.10	22.202
692.42	19.464
692.74	20.145
693.06	20.000
693.39	22.201
693.71	22.368
694.03	19.331
694.35	20.000
694.67	20.945
694.99	20.638
695.31	23.179
695.63	22.727
695.95	22.567
696.27	23.516
696.59	22.788
696.91	20.721
697.23	23.956
697.56	21.385
697.88	20.076
698.20	21.846
698.52	22.917
698.84	22.245
699.16	24.082
699.48	21.548
699.80	20.638
700.12	21.834
700.44	23.041
700.76	23.278
701.08	24.455
701.40	21.762
701.72	19.652
702.04	22.727
702.36	20.942
702.68	20.538
703.00	23.227
703.32	25.123
703.64	22.983
703.96	24.344
704.28	21.130
704.60	23.544
704.91	21.173
705.23	23.836
705.55	23.398
705.87	25.152
706.19	25.767
706.51	20.181
706.83	21.326
707.15	19.577
707.47	23.131
707.79	20.087
708.11	19.703
708.43	19.570
708.74	18.973
709.06	21.810
709.38	25.352
709.70	24.318
710.02	24.289
710.34	19.149
710.66	21.788
710.98	20.492
711.29	20.604
711.61	24.011
711.93	28.775
712.25	23.243
712.57	22.419
712.89	23.529
713.20	20.710
713.52	25.434
713.84	18.942
714.16	23.158
714.48	19.845
714.80	25.195
715.11	18.110
715.43	20.955
715.75	23.158
716.07	21.547
716.39	23.497
716.70	21.386
717.02	22.951
717.34	20.209
717.66	21.477
717.97	22.260
718.29	22.680
718.61	22.368
718.93	22.330
719.24	18.944
719.56	24.847
719.88	21.021
720.20	22.258
720.51	20.186
720.83	22.188
721.15	20.724
721.46	20.890
721.78	20.667
722.10	22.654
722.42	21.141
722.73	24.194
723.05	23.860
723.37	22.569
723.68	28.674
724.00	24.549
724.32	21.127
724.63	24.476
724.95	25.532
725.27	20.906
725.58	21.555
725.90	28.621
726.22	25.078
726.53	25.649
726.85	23.270
727.16	25.680
727.48	23.242
727.80	25.166
728.11	18.728
728.43	18.855
728.74	22.408
729.06	22.517
729.38	25.325
729.69	23.154
730.01	21.726
730.32	21.515
730.64	21.698
730.96	21.429
731.27	24.302
731.59	22.527
731.90	21.558
732.22	20.833
732.53	22.928
732.85	21.429
733.16	23.167
733.48	21.951
733.80	18.942
734.11	22.222
734.43	21.892
734.74	27.089
735.06	21.608
735.37	22.432
735.69	24.324
736.00	21.469
736.32	22.102
736.63	26.389
736.95	24.713
737.26	24.545
737.58	26.364
737.89	21.765
738.21	19.878
738.52	21.967
738.83	24.573
739.15	23.404
739.46	21.769
739.78	26.994
740.09	21.777
740.41	25.948
740.72	24.667
741.04	22.977
741.35	25.965
741.66	23.922
741.98	20.492
742.29	20.502
742.61	22.807
742.92	24.615
743.23	24.549
743.55	27.132
743.86	25.600
744.18	20.661
744.49	21.097
744.80	24.280
745.12	26.160
745.43	21.138
745.74	25.000
746.06	24.576
746.37	22.363
746.68	30.081
747.00	22.083
747.31	27.039
747.62	26.154
747.94	23.482
748.25	20.482
748.56	20.408
748.88	24.359
749.19	30.172
749.50	19.048
749.82	23.293
750.13	22.064
750.44	19.000
750.75	20.923
751.07	25.846
751.38	24.290
751.69	22.045
752.01	21.359
752.32	21.242
752.63	23.129
752.94	22.837
753.26	23.048
753.57	16.296
753.88	22.472
754.19	21.222
754.51	22.508
754.82	24.437
755.13	28.197
755.44	21.502
755.75	22.697
756.07	22.985
756.38	21.698
756.69	23.795
757.00	19.945
757.31	22.404
757.63	19.693
757.94	22.066
758.25	21.896
758.56	22.222
758.87	22.500
759.18	21.333
759.50	22.380
759.81	22.689
760.12	22.102
760.43	23.958
760.74	22.906
761.05	21.250
761.36	21.446
761.67	21.827
761.99	21.351
762.30	23.476
762.61	21.452
762.92	17.910
763.23	25.468
763.54	24.101
763.85	25.430
764.16	21.212
764.47	22.887
764.78	23.962
765.10	23.167
765.41	23.077
765.72	20.106
766.03	22.599
766.34	21.630
766.65	21.603
766.96	23.506
767.27	27.189
767.58	20.398
767.89	30.288
768.20	23.474
768.51	25.000
768.82	27.309
769.13	22.727
769.44	20.000
769.75	23.466
770.06	23.462
770.37	28.740
770.68	18.298
770.99	23.887
771.30	32.593
771.61	22.053
771.92	26.296
772.23	30.769
772.54	23.148
772.85	30.415
773.16	26.667
773.47	19.577
773.78	24.865
774.09	23.864
774.39	30.000
774.70	33.333
775.01	18.902
775.32	16.471
775.63	26.994
775.94	15.924
776.25	25.806
776.56	30.769
776.87	30.612
777.18	28.276
777.48	21.678
777.79	22.973
778.10	27.206
778.41	27.083
778.72	21.379
779.03	27.778
779.34	26.667
779.65	22.798
779.95	32.222
780.26	28.409
780.57	26.452
780.88	23.913
781.19	29.032
781.50	28.824
781.80	29.032
782.11	29.630
782.42	25.253
782.73	17.365
783.04	27.374
783.34	18.182
783.65	20.261
783.96	26.708
784.27	23.810
784.57	19.205
784.88	21.429
785.19	29.921
785.50	27.559
785.81	25.564
786.11	25.385
786.42	22.302
786.73	27.338
787.04	35.338
787.34	29.508
787.65	23.200
787.96	23.134
788.26	29.371
788.57	36.364
788.88	28.947
789.19	27.451
789.49	21.233
789.80	24.113
790.11	32.283
790.41	22.656
790.72	23.729
791.03	25.243
791.33	29.565
791.64	38.596
791.95	25.893
792.25	31.429
792.56	30.357
792.87	20.833
793.17	28.571
793.48	28.125
793.79	20.482
794.09	27.523
794.40	25.688
794.70	26.531
795.01	28.571
795.32	23.973
795.62	30.986
795.93	24.242
796.23	36.885
796.54	27.679
796.85	25.532
797.15	18.478
797.46	36.986
797.76	20.000
798.07	18.478
798.37	24.742
798.68	25.974
798.99	24.138
799.29	37.079
799.60	38.298
799.90	31.325
800.21	35.385
800.51	38.806
800.82	25.000
801.12	16.438
801.43	17.647
801.73	25.424
802.04	39.394
802.34	43.333
802.65	35.593
802.95	20.896
803.26	35.593
803.56	36.986
803.87	28.571
804.17	34.247
804.48	10.526
804.78	36.111
805.09	36.207
805.39	33.784
805.70	18.310
806.00	30.488
806.30	25.301
806.61	20.548
806.91	33.654
807.22	34.444
807.52	33.333
807.83	51.389
808.13	40.964
808.43	20.225
808.74	26.250
809.04	14.706
809.35	18.667
809.65	35.714
809.95	41.096
810.26	22.807
810.56	29.310
810.86	47.059
811.17	35.088
811.47	32.787
811.77	35.556
812.08	37.288
812.38	30.000
812.69	41.379
812.99	43.396
813.29	17.949
813.59	38.000
813.90	28.070
814.20	29.091
814.50	43.662
814.81	32.051
815.11	44.262
815.41	34.328
815.72	37.931
816.02	39.286
816.32	33.333
816.62	56.818
816.93	24.444
817.23	61.111
817.53	42.553
817.84	50.000
818.14	58.824
818.44	36.735
818.74	35.556
819.04	25.641
819.35	54.286
819.65	61.538
819.95	39.623
820.25	31.111
820.56	30.952
820.86	34.375
821.16	38.462
821.46	20.930
821.76	18.000
822.07	25.000
822.37	10.870
822.67	23.404
822.97	24.324
823.27	27.500
823.57	40.816
823.88	37.778
824.18	55.000
824.48	53.333
824.78	56.000
825.08	45.455
825.38	46.667
825.69	38.298
825.99	52.778
826.29	17.143
826.59	48.718
826.89	27.907
827.19	20.000
827.49	41.176
827.79	27.083
828.09	21.622
828.39	23.333
828.70	31.707
829.00	27.907
829.30	21.429
829.60	76.471
829.90	39.130
830.20	20.000
830.50	44.828
830.80	66.667
831.10	50.000
831.40	17.647
831.70	52.381
832.00	64.516
832.30	17.647
832.60	29.167
832.90	-46.154
833.20	26.316
833.50	5.000
833.80	42.105
834.10	4.762
834.40	58.333
834.70	56.250
835.00	17.143
835.30	38.235
835.60	43.333
835.90	32.000
836.20	50.000
836.50	56.000
836.80	21.212
837.10	70.370
837.40	48.148
837.70	56.250
838.00	42.857
838.30	21.739
838.60	55.172
838.90	71.429
839.19	-17.391
839.49	25.000
839.79	52.174
840.09	18.750
840.39	100.000
840.69	67.742
840.99	21.429
841.29	60.000
841.59	26.316
841.88	48.718
842.18	46.154
842.48	80.000
842.78	60.000
843.08	26.667
843.38	51.613
843.68	72.222
843.97	50.000
844.27	137.500
844.57	47.368
844.87	0.000
845.17	33.333
845.47	57.143
845.76	52.381
846.06	11.111
846.36	58.824
846.66	30.769
846.96	13.333
847.25	47.059
847.55	100.000
847.85	75.000
848.15	64.706
848.44	36.364
848.74	61.905
849.04	37.500
849.34	50.000
849.63	56.522
849.93	-250.000
850.23	106.667
850.53	69.231
850.82	0.000
851.12	50.000
851.42	54.545
851.71	100.000
852.01	15.000
852.31	92.308
852.61	42.105
852.90	83.333
853.20	72.222
853.50	0.000
853.79	42.857
854.09	31.818
854.39	-25.000
854.68	48.387
854.98	50.000
855.28	116.667
855.57	42.857
855.87	60.000
856.17	68.182
856.46	70.370
856.76	55.556
857.05	26.087
857.35	37.500
857.65	84.615
857.94	71.429
858.24	70.370
858.53	21.739
858.83	76.471
859.13	105.882
859.42	52.941
859.72	64.286
860.01	70.000
860.31	133.333
860.60	80.000
860.90	73.333
861.20	66.667
861.49	69.231
861.79	63.333
862.08	61.538
862.38	28.125
862.67	117.647
862.97	56.250
863.26	55.556
863.56	80.000
863.85	36.364
864.15	111.111
864.44	233.333
864.74	0.000
865.03	93.750
865.33	-10.000
865.62	70.968
865.92	86.364
866.21	52.174
866.51	42.857
866.80	140.000
867.10	141.667
867.39	33.333
867.69	-100.000
867.98	214.286
868.27	117.647
868.57	-900.000
868.86	-10.000
869.16	47.619
869.45	54.167
869.75	136.364
870.04	-14.286
870.33	83.333
870.63	-85.714
870.92	200.000
871.22	-25.000
871.51	27.273
871.80	-200.000
872.10	50.000
>>>>>End Processed Spectral Data<<<<<
