SpectraSuite Data File
++++++++++++++++++++++++++++++++++++
Date: Thu May 14 14:58:46 PDT 2015
User: schluterlab
Dark Spectrum Present: Yes
Reference Spectrum Present: Yes
Number of Sampled Component Spectra: 1
Spectrometers: USB2E3373
Integration Time (usec): 3000 (USB2E3373)
Spectra Averaged: 3 (USB2E3373)
Boxcar Smoothing: 0 (USB2E3373)
Correct for Electrical Dark: No (USB2E3373)
Strobe/Lamp Enabled: No (USB2E3373)
Correct for Detector Non-linearity: No (USB2E3373)
Correct for Stray Light: No (USB2E3373)
Number of Pixels in Processed Spectrum: 2048
>>>>>Begin Processed Spectral Data<<<<<
178.53	0.000
178.91	328.571
179.29	-2700.000
179.67	-2000.000
180.04	235.714
180.42	190.000
180.80	420.000
181.18	-2200.000
181.56	-1300.000
181.94	550.000
182.31	-525.000
182.69	833.333
183.07	-750.000
183.45	625.000
183.83	-266.667
184.20	-433.333
184.58	2500.000
184.96	-450.000
185.34	-222.222
185.72	-340.000
186.09	255.556
186.47	1150.000
186.85	600.000
187.23	-344.444
187.61	-3400.000
187.98	320.000
188.36	725.000
188.74	-500.000
189.12	-433.333
189.49	-106.250
189.87	-300.000
190.25	-233.333
190.63	-360.000
191.00	-266.667
191.38	0.000
191.76	-775.000
192.14	-300.000
192.51	1000.000
192.89	-316.667
193.27	0.000
193.65	-271.429
194.02	-1800.000
194.40	-242.857
194.78	285.714
195.15	0.000
195.53	-200.000
195.91	0.000
196.29	-550.000
196.66	-161.538
197.04	-1800.000
197.42	-271.429
197.79	-1150.000
198.17	-350.000
198.55	-428.571
198.92	-100.000
199.30	-275.000
199.68	-154.545
200.05	-78.571
200.43	-950.000
200.81	442.857
201.18	0.000
201.56	344.444
201.94	0.000
202.31	900.000
202.69	-222.222
203.07	2400.000
203.44	-155.556
203.82	-625.000
204.19	-166.667
204.57	-333.333
204.95	-250.000
205.32	-1600.000
205.70	750.000
206.08	-300.000
206.45	-333.333
206.83	760.000
207.20	-266.667
207.58	-460.000
207.96	-350.000
208.33	-300.000
208.71	141.667
209.08	-300.000
209.46	0.000
209.84	466.667
210.21	1150.000
210.59	700.000
210.96	1000.000
211.34	-400.000
211.71	-250.000
212.09	-2900.000
212.46	0.000
212.84	1550.000
213.22	-520.000
213.59	-500.000
213.97	-170.000
214.34	-500.000
214.72	383.333
215.09	-600.000
215.47	0.000
215.84	357.143
216.22	1900.000
216.59	-280.000
216.97	-480.000
217.34	-550.000
217.72	-275.000
218.09	-475.000
218.47	-625.000
218.84	0.000
219.22	500.000
219.59	-117.647
219.97	-110.000
220.34	1500.000
220.72	-277.778
221.09	-107.692
221.47	-900.000
221.84	-230.000
222.22	-428.571
222.59	0.000
222.97	-312.500
223.34	-300.000
223.72	-2300.000
224.09	-550.000
224.46	-525.000
224.84	-220.000
225.21	-328.571
225.59	-775.000
225.96	-550.000
226.34	-65.385
226.71	333.333
227.08	-950.000
227.46	-113.333
227.83	-725.000
228.21	-73.684
228.58	287.500
228.95	1450.000
229.33	-141.667
229.70	-230.000
230.08	-15.789
230.45	250.000
230.82	-366.667
231.20	-100.000
231.57	-58.333
231.95	-200.000
232.32	-109.091
232.69	-35.000
233.07	-250.000
233.44	-58.824
233.81	-270.000
234.19	-22.222
234.56	-59.091
234.93	-24.138
235.31	-21.053
235.68	-38.889
236.05	-90.000
236.43	-34.615
236.80	4.000
237.17	-48.148
237.55	-45.455
237.92	-250.000
238.29	-29.032
238.67	0.000
239.04	-11.111
239.41	-30.952
239.79	-17.391
240.16	-18.519
240.53	-6.522
240.91	-11.765
241.28	1.639
241.65	19.403
242.02	6.757
242.40	-10.769
242.77	2.667
243.14	-1.220
243.51	1.316
243.89	10.256
244.26	16.832
244.63	20.588
245.00	17.757
245.38	10.526
245.75	6.195
246.12	19.048
246.49	10.853
246.87	22.857
247.24	22.517
247.61	23.026
247.98	18.792
248.36	14.198
248.73	21.472
249.10	14.754
249.47	27.363
249.84	28.272
250.22	18.653
250.59	21.667
250.96	27.273
251.33	24.490
251.70	23.077
252.08	24.167
252.45	28.279
252.82	23.554
253.19	23.828
253.56	24.715
253.94	21.154
254.31	25.379
254.68	27.622
255.05	26.384
255.42	21.088
255.79	25.566
256.16	26.821
256.54	25.166
256.91	31.475
257.28	22.623
257.65	25.478
258.02	25.074
258.39	29.060
258.76	28.746
259.14	27.011
259.51	29.395
259.88	26.062
260.25	28.611
260.62	29.315
260.99	31.694
261.36	29.491
261.73	27.586
262.10	29.396
262.47	31.099
262.85	30.808
263.22	30.130
263.59	27.105
263.96	30.435
264.33	29.156
264.70	29.630
265.07	31.504
265.44	33.333
265.81	29.861
266.18	28.798
266.55	29.464
266.92	27.563
267.29	32.385
267.66	29.712
268.03	31.223
268.40	25.887
268.77	28.474
269.14	28.634
269.51	26.535
269.88	32.787
270.25	29.577
270.62	29.536
270.99	32.929
271.36	30.495
271.73	28.880
272.10	31.663
272.47	30.261
272.84	28.715
273.21	28.657
273.58	30.040
273.95	28.462
274.32	26.426
274.69	31.528
275.06	30.403
275.43	27.172
275.80	28.571
276.17	27.037
276.54	27.612
276.91	28.801
277.28	29.295
277.65	29.443
278.02	30.882
278.39	29.710
278.76	27.768
279.13	28.191
279.50	28.522
279.87	28.086
280.23	26.761
280.60	28.475
280.97	27.467
281.34	29.372
281.71	30.795
282.08	28.738
282.45	27.823
282.82	27.002
283.19	28.433
283.56	28.689
283.92	29.279
284.29	31.438
284.66	30.378
285.03	26.282
285.40	27.357
285.77	27.554
286.14	27.023
286.51	28.767
286.87	27.330
287.24	29.217
287.61	25.561
287.98	27.492
288.35	29.586
288.72	26.923
289.08	26.501
289.45	27.219
289.82	26.657
290.19	25.862
290.56	26.901
290.93	25.963
291.29	26.033
291.66	25.758
292.03	26.052
292.40	26.395
292.77	24.124
293.13	23.139
293.50	24.310
293.87	24.430
294.24	26.133
294.60	26.549
294.97	23.221
295.34	24.712
295.71	22.446
296.08	23.385
296.44	22.549
296.81	23.264
297.18	22.167
297.55	22.524
297.91	24.318
298.28	22.749
298.65	23.662
299.02	20.897
299.38	22.197
299.75	22.664
300.12	21.991
300.48	22.235
300.85	21.935
301.22	22.595
301.59	22.489
301.95	21.695
302.32	22.889
302.69	22.673
303.05	21.763
303.42	22.506
303.79	20.625
304.15	20.294
304.52	21.036
304.89	21.152
305.25	22.464
305.62	21.735
305.99	21.856
306.35	21.371
306.72	20.786
307.09	21.015
307.45	19.979
307.82	20.686
308.19	20.081
308.55	21.601
308.92	19.766
309.29	19.636
309.65	20.078
310.02	20.000
310.38	20.768
310.75	19.709
311.12	21.477
311.48	20.723
311.85	19.468
312.22	20.114
312.58	20.282
312.95	19.885
313.31	19.964
313.68	19.597
314.05	22.855
314.41	21.038
314.78	19.528
315.14	19.782
315.51	19.575
315.87	19.082
316.24	20.274
316.61	19.805
316.97	19.457
317.34	20.370
317.70	21.048
318.07	20.988
318.43	19.473
318.80	20.903
319.16	20.000
319.53	18.937
319.89	20.596
320.26	20.374
320.62	19.770
320.99	20.683
321.35	19.778
321.72	20.186
322.08	19.928
322.45	20.145
322.81	20.668
323.18	20.354
323.54	20.259
323.91	19.840
324.27	20.396
324.64	21.998
325.00	18.988
325.37	21.048
325.73	20.413
326.10	20.114
326.46	20.765
326.83	19.856
327.19	20.315
327.56	20.316
327.92	18.804
328.29	18.952
328.65	19.263
329.01	19.966
329.38	20.977
329.74	21.062
330.11	20.548
330.47	19.714
330.84	21.361
331.20	19.750
331.56	19.931
331.93	20.000
332.29	20.678
332.66	19.186
333.02	18.760
333.38	20.050
333.75	19.360
334.11	20.601
334.48	20.050
334.84	21.325
335.20	19.731
335.57	20.911
335.93	19.917
336.29	18.885
336.66	20.101
337.02	20.987
337.38	19.643
337.75	18.843
338.11	20.690
338.47	19.851
338.84	19.120
339.20	18.787
339.56	19.440
339.93	19.622
340.29	19.163
340.65	19.384
341.02	20.112
341.38	20.614
341.74	19.290
342.11	20.274
342.47	18.904
342.83	20.048
343.20	18.724
343.56	18.444
343.92	19.696
344.28	19.375
344.65	20.000
345.01	19.579
345.37	18.818
345.73	18.550
346.10	19.423
346.46	19.225
346.82	19.850
347.19	20.015
347.55	19.499
347.91	19.465
348.27	18.892
348.63	19.269
349.00	18.046
349.36	19.628
349.72	18.824
350.08	18.945
350.45	18.479
350.81	19.231
351.17	18.346
351.53	19.105
351.89	18.831
352.26	19.030
352.62	18.806
352.98	17.481
353.34	17.999
353.70	17.720
354.07	19.300
354.43	17.768
354.79	18.624
355.15	18.911
355.51	18.348
355.87	18.025
356.24	18.859
356.60	18.921
356.96	18.977
357.32	18.141
357.68	17.862
358.04	17.814
358.40	18.060
358.77	17.690
359.13	18.538
359.49	17.695
359.85	18.564
360.21	18.293
360.57	18.162
360.93	17.560
361.29	18.035
361.66	18.827
362.02	19.068
362.38	18.131
362.74	17.318
363.10	18.569
363.46	18.213
363.82	18.537
364.18	16.890
364.54	18.257
364.90	18.930
365.26	17.793
365.62	19.000
365.98	18.244
366.35	18.054
366.71	17.687
367.07	17.659
367.43	18.385
367.79	17.916
368.15	18.729
368.51	17.997
368.87	17.701
369.23	18.133
369.59	19.126
369.95	17.444
370.31	18.974
370.67	18.363
371.03	17.867
371.39	18.334
371.75	17.882
372.11	16.938
372.47	18.009
372.83	18.586
373.19	17.945
373.55	17.547
373.91	17.860
374.27	17.853
374.63	17.997
374.99	18.103
375.35	18.182
375.71	17.742
376.07	17.431
376.42	17.947
376.78	18.210
377.14	17.654
377.50	18.406
377.86	18.411
378.22	17.904
378.58	17.836
378.94	18.134
379.30	18.043
379.66	18.989
380.02	18.061
380.38	18.721
380.74	17.746
381.09	18.002
381.45	19.034
381.81	17.447
382.17	17.637
382.53	17.953
382.89	18.115
383.25	18.171
383.61	17.650
383.97	18.198
384.32	18.840
384.68	18.619
385.04	18.913
385.40	18.680
385.76	19.402
386.12	18.312
386.48	18.412
386.83	19.130
387.19	18.714
387.55	18.310
387.91	17.580
388.27	18.072
388.62	18.213
388.98	17.879
389.34	17.973
389.70	18.768
390.06	18.176
390.42	18.494
390.77	18.724
391.13	17.430
391.49	18.056
391.85	18.424
392.20	18.802
392.56	18.193
392.92	19.357
393.28	18.297
393.64	18.715
393.99	18.942
394.35	19.451
394.71	18.802
395.07	17.485
395.42	18.332
395.78	19.378
396.14	19.548
396.50	17.874
396.85	18.903
397.21	17.988
397.57	18.551
397.92	18.499
398.28	18.305
398.64	19.565
399.00	17.958
399.35	18.063
399.71	18.424
400.07	17.911
400.42	18.976
400.78	18.171
401.14	17.985
401.49	18.647
401.85	18.198
402.21	18.482
402.57	18.486
402.92	18.144
403.28	17.389
403.63	16.945
403.99	18.349
404.35	18.704
404.70	18.527
405.06	17.880
405.42	17.857
405.77	18.866
406.13	18.747
406.49	18.750
406.84	19.003
407.20	18.334
407.55	17.747
407.91	18.668
408.27	18.021
408.62	18.266
408.98	18.108
409.34	17.419
409.69	18.480
410.05	18.171
410.40	18.619
410.76	18.059
411.11	18.118
411.47	18.980
411.83	18.107
412.18	18.675
412.54	17.724
412.89	18.685
413.25	17.946
413.60	17.863
413.96	18.124
414.31	18.357
414.67	18.426
415.03	18.523
415.38	17.654
415.74	18.815
416.09	17.705
416.45	18.159
416.80	18.115
417.16	17.688
417.51	18.369
417.87	18.210
418.22	18.204
418.58	17.844
418.93	18.510
419.29	18.619
419.64	18.848
420.00	18.042
420.35	18.248
420.71	17.576
421.06	17.596
421.42	18.463
421.77	17.771
422.12	18.446
422.48	18.382
422.83	18.018
423.19	18.462
423.54	18.916
423.90	17.670
424.25	19.147
424.61	18.485
424.96	18.671
425.31	19.108
425.67	17.660
426.02	18.262
426.38	18.197
426.73	18.025
427.09	18.570
427.44	17.313
427.79	18.076
428.15	17.580
428.50	18.202
428.85	18.255
429.21	19.628
429.56	18.115
429.92	17.740
430.27	18.602
430.62	18.026
430.98	18.396
431.33	17.400
431.68	17.912
432.04	19.096
432.39	17.836
432.74	17.466
433.10	18.442
433.45	18.395
433.80	18.079
434.16	18.182
434.51	18.654
434.86	19.273
435.22	18.916
435.57	17.925
435.92	18.420
436.28	18.316
436.63	18.023
436.98	18.411
437.34	18.151
437.69	18.822
438.04	18.244
438.39	18.036
438.75	18.152
439.10	19.239
439.45	18.278
439.81	17.910
440.16	17.962
440.51	18.450
440.86	17.287
441.22	18.917
441.57	18.396
441.92	18.089
442.27	18.535
442.63	18.977
442.98	18.250
443.33	19.358
443.68	18.583
444.03	19.050
444.39	18.816
444.74	19.142
445.09	17.739
445.44	19.125
445.79	18.103
446.15	18.037
446.50	17.778
446.85	18.677
447.20	18.617
447.55	18.672
447.91	17.749
448.26	18.340
448.61	18.013
448.96	18.938
449.31	19.088
449.66	18.028
450.02	18.143
450.37	19.073
450.72	18.138
451.07	18.166
451.42	17.562
451.77	17.843
452.12	17.777
452.47	18.479
452.83	18.525
453.18	18.155
453.53	18.495
453.88	18.388
454.23	17.062
454.58	18.630
454.93	18.143
455.28	18.543
455.63	18.420
455.98	18.659
456.34	17.845
456.69	17.989
457.04	18.322
457.39	18.459
457.74	18.233
458.09	17.079
458.44	18.373
458.79	17.793
459.14	18.668
459.49	18.110
459.84	18.835
460.19	17.934
460.54	18.512
460.89	19.217
461.24	18.103
461.59	18.539
461.94	17.855
462.29	17.861
462.64	17.562
462.99	17.263
463.34	17.975
463.69	18.230
464.04	18.788
464.39	18.890
464.74	17.560
465.09	18.512
465.44	18.026
465.79	18.509
466.14	18.134
466.49	18.526
466.84	17.906
467.19	18.439
467.54	17.744
467.89	18.218
468.24	18.338
468.59	17.024
468.94	17.249
469.29	17.516
469.64	17.546
469.99	17.208
470.34	17.698
470.68	18.319
471.03	17.092
471.38	17.266
471.73	17.750
472.08	17.005
472.43	18.784
472.78	17.506
473.13	17.826
473.48	17.764
473.83	17.934
474.17	17.702
474.52	17.559
474.87	17.553
475.22	18.141
475.57	18.017
475.92	18.069
476.27	17.838
476.61	17.497
476.96	17.779
477.31	18.515
477.66	18.311
478.01	18.048
478.36	17.348
478.70	17.537
479.05	18.507
479.40	18.016
479.75	18.636
480.10	17.527
480.45	17.821
480.79	18.503
481.14	18.336
481.49	18.083
481.84	17.929
482.19	18.366
482.53	18.190
482.88	18.121
483.23	18.230
483.58	17.511
483.92	17.642
484.27	17.570
484.62	17.657
484.97	18.351
485.31	18.022
485.66	17.067
486.01	18.375
486.36	18.858
486.70	20.055
487.05	20.107
487.40	19.480
487.75	18.473
488.09	18.287
488.44	17.602
488.79	18.415
489.13	17.524
489.48	17.126
489.83	17.264
490.17	17.335
490.52	17.323
490.87	17.809
491.22	17.764
491.56	17.662
491.91	18.360
492.26	17.525
492.60	17.403
492.95	17.376
493.30	18.019
493.64	18.441
493.99	18.114
494.34	17.291
494.68	17.901
495.03	18.062
495.37	18.198
495.72	17.188
496.07	17.660
496.41	17.804
496.76	17.848
497.11	18.004
497.45	17.307
497.80	17.414
498.14	17.914
498.49	17.785
498.84	17.550
499.18	17.589
499.53	17.758
499.87	18.198
500.22	17.053
500.56	17.409
500.91	17.803
501.26	17.091
501.60	17.897
501.95	17.716
502.29	17.727
502.64	18.102
502.98	17.817
503.33	17.581
503.67	17.750
504.02	17.469
504.36	17.962
504.71	17.593
505.06	17.190
505.40	17.139
505.75	16.985
506.09	18.002
506.44	17.224
506.78	17.661
507.13	17.381
507.47	17.811
507.82	17.661
508.16	17.017
508.51	17.206
508.85	17.289
509.19	16.769
509.54	17.915
509.88	17.727
510.23	17.339
510.57	18.076
510.92	17.610
511.26	16.739
511.61	17.286
511.95	17.814
512.30	17.774
512.64	16.192
512.98	17.209
513.33	17.893
513.67	17.287
514.02	17.782
514.36	17.903
514.70	17.552
515.05	17.727
515.39	16.640
515.74	17.285
516.08	17.327
516.42	18.472
516.77	16.667
517.11	17.380
517.46	17.603
517.80	17.210
518.14	18.172
518.49	17.191
518.83	16.924
519.17	17.340
519.52	17.138
519.86	17.582
520.20	17.306
520.55	17.141
520.89	17.342
521.23	16.415
521.58	17.119
521.92	16.884
522.26	17.526
522.61	16.551
522.95	17.070
523.29	17.874
523.64	16.928
523.98	16.714
524.32	18.281
524.66	16.961
525.01	17.384
525.35	16.944
525.69	16.299
526.04	17.049
526.38	17.299
526.72	17.820
527.06	17.947
527.41	17.434
527.75	17.458
528.09	16.411
528.43	16.933
528.78	16.416
529.12	16.628
529.46	17.313
529.80	17.334
530.15	17.159
530.49	16.726
530.83	17.237
531.17	17.682
531.51	17.389
531.86	16.947
532.20	17.195
532.54	18.013
532.88	17.636
533.22	17.619
533.57	17.773
533.91	17.789
534.25	17.354
534.59	16.724
534.93	17.148
535.27	17.127
535.62	17.624
535.96	17.199
536.30	17.156
536.64	17.477
536.98	16.728
537.32	17.469
537.66	16.157
538.01	16.254
538.35	17.844
538.69	17.067
539.03	17.597
539.37	17.138
539.71	17.417
540.05	17.686
540.39	16.381
540.73	16.211
541.07	17.167
541.42	16.893
541.76	16.311
542.10	17.491
542.44	16.322
542.78	17.032
543.12	17.640
543.46	16.300
543.80	16.607
544.14	16.996
544.48	17.139
544.82	17.175
545.16	17.352
545.50	17.196
545.84	16.534
546.18	17.099
546.52	17.134
546.86	17.421
547.20	16.730
547.54	17.978
547.88	16.637
548.22	16.667
548.56	16.910
548.90	17.134
549.24	16.900
549.58	16.845
549.92	17.474
550.26	16.828
550.60	17.358
550.94	17.076
551.28	16.106
551.62	16.442
551.96	16.440
552.30	17.463
552.64	17.237
552.98	17.093
553.32	16.720
553.66	17.363
554.00	17.339
554.34	17.246
554.68	16.139
555.02	16.689
555.36	16.634
555.69	16.015
556.03	17.465
556.37	18.148
556.71	17.185
557.05	17.572
557.39	16.125
557.73	17.768
558.07	16.358
558.41	16.877
558.75	17.241
559.08	16.145
559.42	16.667
559.76	16.757
560.10	17.482
560.44	17.282
560.78	17.000
561.12	16.933
561.45	17.457
561.79	17.949
562.13	18.053
562.47	16.091
562.81	17.025
563.15	16.667
563.48	17.340
563.82	16.868
564.16	16.596
564.50	17.104
564.84	16.991
565.17	17.824
565.51	16.743
565.85	16.924
566.19	16.820
566.52	16.676
566.86	16.808
567.20	17.401
567.54	18.109
567.88	17.737
568.21	17.984
568.55	17.122
568.89	18.112
569.23	17.871
569.56	17.859
569.90	18.318
570.24	18.853
570.57	18.634
570.91	18.922
571.25	18.774
571.59	19.315
571.92	18.603
572.26	18.581
572.60	18.646
572.93	18.759
573.27	18.404
573.61	18.740
573.95	18.281
574.28	18.641
574.62	18.372
574.96	18.416
575.29	18.154
575.63	18.411
575.97	19.114
576.30	18.554
576.64	17.943
576.98	18.178
577.31	18.682
577.65	18.964
577.98	18.901
578.32	18.809
578.66	18.639
578.99	18.759
579.33	18.475
579.67	18.314
580.00	18.611
580.34	18.346
580.67	18.292
581.01	18.412
581.35	18.664
581.68	18.776
582.02	19.365
582.35	19.599
582.69	19.244
583.02	18.688
583.36	19.203
583.70	18.178
584.03	18.095
584.37	18.218
584.70	17.775
585.04	18.089
585.37	18.736
585.71	18.619
586.04	18.758
586.38	18.733
586.72	18.576
587.05	18.317
587.39	18.923
587.72	18.589
588.06	18.762
588.39	18.944
588.73	18.228
589.06	18.313
589.40	18.470
589.73	18.091
590.07	18.236
590.40	18.695
590.73	17.851
591.07	18.131
591.40	17.924
591.74	17.846
592.07	18.067
592.41	17.902
592.74	17.998
593.08	18.758
593.41	19.014
593.75	18.908
594.08	18.964
594.41	18.878
594.75	18.399
595.08	17.867
595.42	17.792
595.75	18.696
596.09	18.502
596.42	18.166
596.75	18.101
597.09	18.141
597.42	17.839
597.75	17.758
598.09	17.540
598.42	18.496
598.76	17.845
599.09	18.370
599.42	18.237
599.76	17.729
600.09	18.318
600.42	18.652
600.76	18.659
601.09	17.922
601.42	18.126
601.76	17.966
602.09	17.727
602.42	17.557
602.76	17.491
603.09	18.319
603.42	18.280
603.76	18.111
604.09	18.488
604.42	18.055
604.76	18.189
605.09	17.750
605.42	17.982
605.75	17.846
606.09	17.842
606.42	17.621
606.75	17.241
607.09	17.358
607.42	17.534
607.75	18.406
608.08	17.601
608.42	18.178
608.75	18.076
609.08	17.063
609.41	17.689
609.75	17.232
610.08	17.986
610.41	17.205
610.74	17.395
611.07	17.673
611.41	17.758
611.74	18.245
612.07	17.438
612.40	17.633
612.73	17.017
613.07	17.457
613.40	17.757
613.73	17.044
614.06	17.419
614.39	17.590
614.72	16.254
615.06	16.987
615.39	17.400
615.72	18.152
616.05	18.504
616.38	18.214
616.71	16.928
617.05	16.880
617.38	17.496
617.71	17.657
618.04	17.809
618.37	17.377
618.70	17.195
619.03	16.428
619.36	15.845
619.69	16.336
620.03	16.698
620.36	16.380
620.69	16.225
621.02	16.076
621.35	16.401
621.68	16.775
622.01	16.157
622.34	17.085
622.67	16.701
623.00	15.992
623.33	17.386
623.66	17.056
623.99	16.656
624.32	18.259
624.65	16.345
624.99	16.255
625.32	17.244
625.65	18.139
625.98	16.136
626.31	16.584
626.64	16.777
626.97	14.929
627.30	15.262
627.63	15.454
627.96	16.066
628.29	15.720
628.62	15.953
628.95	15.425
629.28	14.783
629.61	17.003
629.94	15.314
630.26	14.915
630.59	15.630
630.92	13.853
631.25	15.564
631.58	16.478
631.91	15.745
632.24	15.178
632.57	15.275
632.90	14.945
633.23	14.592
633.56	14.694
633.89	13.533
634.22	14.969
634.55	14.092
634.88	14.069
635.20	14.962
635.53	14.689
635.86	15.385
636.19	15.907
636.52	15.401
636.85	14.811
637.18	16.008
637.51	13.763
637.83	15.947
638.16	14.977
638.49	13.732
638.82	12.740
639.15	13.746
639.48	15.704
639.81	15.358
640.13	14.370
640.46	13.697
640.79	13.848
641.12	15.404
641.45	15.056
641.77	16.175
642.10	14.567
642.43	14.894
642.76	15.854
643.09	13.699
643.41	12.605
643.74	14.621
644.07	12.414
644.40	13.013
644.73	13.353
645.05	14.097
645.38	14.388
645.71	13.783
646.04	15.352
646.36	12.555
646.69	13.804
647.02	15.443
647.35	15.267
647.67	13.366
648.00	14.172
648.33	15.616
648.66	13.837
648.98	14.694
649.31	15.426
649.64	15.671
649.96	15.119
650.29	12.100
650.62	14.144
650.94	13.514
651.27	10.778
651.60	14.035
651.92	13.526
652.25	14.761
652.58	13.480
652.90	11.628
653.23	14.648
653.56	15.264
653.88	16.573
654.21	13.521
654.54	13.006
654.86	15.864
655.19	14.178
655.52	17.877
655.84	21.295
656.17	25.278
656.49	34.878
656.82	36.947
657.15	27.534
657.47	20.355
657.80	14.470
658.13	10.898
658.45	14.204
658.78	16.038
659.10	15.855
659.43	15.260
659.75	13.336
660.08	13.221
660.41	12.821
660.73	11.859
661.06	11.454
661.38	12.600
661.71	11.379
662.03	11.464
662.36	11.270
662.68	12.946
663.01	12.566
663.33	11.720
663.66	15.018
663.98	10.000
664.31	12.195
664.63	9.441
664.96	11.252
665.28	10.708
665.61	14.685
665.93	13.036
666.26	13.262
666.58	11.255
666.91	12.897
667.23	13.524
667.56	13.215
667.88	12.600
668.21	10.156
668.53	11.004
668.86	13.949
669.18	10.998
669.50	11.730
669.83	10.400
670.15	11.811
670.48	13.690
670.80	12.046
671.13	13.611
671.45	12.008
671.77	12.241
672.10	11.667
672.42	12.783
672.75	12.903
673.07	11.493
673.39	12.018
673.72	14.765
674.04	13.103
674.37	13.775
674.69	13.228
675.01	11.048
675.34	11.450
675.66	13.483
675.98	12.687
676.31	13.281
676.63	14.068
676.95	12.452
677.28	13.710
677.60	8.661
677.92	10.173
678.25	12.980
678.57	13.879
678.89	13.823
679.22	10.976
679.54	13.162
679.86	12.881
680.18	12.438
680.51	12.421
680.83	13.584
681.15	12.931
681.48	14.162
681.80	12.781
682.12	12.937
682.44	12.521
682.77	12.411
683.09	13.258
683.41	15.698
683.73	12.713
684.06	11.624
684.38	11.986
684.70	12.926
685.02	12.392
685.34	10.649
685.67	14.826
685.99	14.264
686.31	12.645
686.63	14.060
686.96	13.565
687.28	11.889
687.60	14.310
687.92	11.415
688.24	14.357
688.56	12.069
688.89	11.434
689.21	10.372
689.53	10.980
689.85	13.215
690.17	10.370
690.49	11.952
690.82	14.059
691.14	10.526
691.46	11.472
691.78	13.628
692.10	12.844
692.42	11.607
692.74	13.067
693.06	11.296
693.39	12.903
693.71	11.842
694.03	13.383
694.35	11.238
694.67	9.035
694.99	12.553
695.31	9.492
695.63	10.823
695.95	11.387
696.27	11.868
696.59	13.717
696.91	10.360
697.23	13.187
697.56	13.442
697.88	10.227
698.20	13.559
698.52	15.530
698.84	11.435
699.16	13.061
699.48	10.042
699.80	12.553
700.12	12.009
700.44	8.756
700.76	12.589
701.08	13.075
701.40	11.917
701.72	13.930
702.04	10.428
702.36	8.901
702.68	13.203
703.00	11.247
703.32	9.360
703.64	12.714
703.96	13.604
704.28	11.057
704.60	13.671
704.91	12.245
705.23	11.781
705.55	8.357
705.87	9.697
706.19	12.270
706.51	6.627
706.83	8.646
707.15	9.788
707.47	9.813
707.79	15.502
708.11	11.441
708.43	11.613
708.74	9.598
709.06	10.905
709.38	11.502
709.70	12.903
710.02	10.594
710.34	14.362
710.66	7.542
710.98	10.929
711.29	9.341
711.61	11.299
711.93	12.251
712.25	14.054
712.57	14.454
712.89	13.529
713.20	7.396
713.52	10.983
713.84	10.585
714.16	11.316
714.48	9.794
714.80	13.247
715.11	9.711
715.43	11.141
715.75	11.842
716.07	11.878
716.39	9.290
716.70	7.229
717.02	9.836
717.34	8.711
717.66	8.054
717.97	4.110
718.29	6.186
718.61	8.224
718.93	8.091
719.24	7.453
719.56	7.362
719.88	10.811
720.20	10.323
720.51	6.211
720.83	9.063
721.15	9.868
721.46	6.507
721.78	11.000
722.10	4.854
722.42	4.698
722.73	7.742
723.05	8.772
723.37	7.986
723.68	10.753
724.00	11.191
724.32	5.986
724.63	10.490
724.95	11.702
725.27	5.923
725.58	4.947
725.90	11.034
726.22	6.270
726.53	11.039
726.85	13.208
727.16	12.387
727.48	11.009
727.80	13.576
728.11	8.127
728.43	10.438
728.74	8.696
729.06	8.278
729.38	9.091
729.69	8.389
730.01	11.905
730.32	8.485
730.64	11.006
730.96	6.211
731.27	13.966
731.59	14.011
731.90	10.390
732.22	10.937
732.53	6.906
732.85	11.714
733.16	10.557
733.48	7.012
733.80	10.585
734.11	11.111
734.43	11.622
734.74	13.418
735.06	12.312
735.37	12.703
735.69	10.541
736.00	11.582
736.32	11.051
736.63	11.944
736.95	9.483
737.26	11.212
737.58	11.212
737.89	11.176
738.21	6.422
738.52	7.869
738.83	9.215
739.15	8.156
739.46	11.224
739.78	10.429
740.09	9.742
740.41	12.245
740.72	10.667
741.04	10.032
741.35	11.579
741.66	8.235
741.98	12.705
742.29	9.205
742.61	7.018
742.92	10.385
743.23	10.108
743.55	8.527
743.86	5.600
744.18	-0.413
744.49	3.797
744.80	7.819
745.12	8.861
745.43	11.382
745.74	4.741
746.06	8.475
746.37	8.439
746.68	12.602
747.00	7.917
747.31	7.296
747.62	10.769
747.94	8.502
748.25	6.426
748.56	6.531
748.88	5.983
749.19	11.207
749.50	6.494
749.82	12.851
750.13	13.879
750.44	4.667
750.75	10.462
751.07	12.615
751.38	12.303
751.69	8.946
752.01	11.003
752.32	8.497
752.63	9.524
752.94	7.266
753.26	7.063
753.57	6.667
753.88	4.869
754.19	11.254
754.51	7.074
754.82	14.148
755.13	11.475
755.44	10.239
755.75	8.882
756.07	13.433
756.38	9.434
756.69	11.145
757.00	6.925
757.31	8.470
757.63	8.951
757.94	12.207
758.25	13.544
758.56	11.765
758.87	13.182
759.18	13.333
759.50	11.331
759.81	12.605
760.12	13.477
760.43	10.937
760.74	12.315
761.05	11.250
761.36	13.253
761.67	12.944
761.99	10.541
762.30	10.671
762.61	11.221
762.92	11.194
763.23	5.993
763.54	10.072
763.85	9.622
764.16	11.448
764.47	13.380
764.78	12.460
765.10	13.783
765.41	14.359
765.72	12.698
766.03	11.299
766.34	9.091
766.65	8.711
766.96	9.163
767.27	7.373
767.58	0.995
767.89	8.654
768.20	8.920
768.51	4.167
768.82	10.442
769.13	12.121
769.44	3.846
769.75	10.830
770.06	11.154
770.37	18.504
770.68	9.787
770.99	3.644
771.30	16.667
771.61	10.646
771.92	8.148
772.23	6.883
772.54	5.093
772.85	9.677
773.16	8.571
773.47	4.762
773.78	0.000
774.09	5.114
774.39	10.500
774.70	6.557
775.01	0.610
775.32	-1.765
775.63	3.681
775.94	0.637
776.25	10.323
776.56	1.923
776.87	12.245
777.18	-2.069
777.48	-1.399
777.79	4.054
778.10	-5.147
778.41	-2.083
778.72	-0.690
779.03	9.877
779.34	8.485
779.65	6.736
779.95	9.444
780.26	7.955
780.57	5.161
780.88	9.420
781.19	7.742
781.50	12.353
781.80	8.065
782.11	6.878
782.42	2.020
782.73	3.593
783.04	12.291
783.34	-0.606
783.65	-5.882
783.96	5.590
784.27	4.167
784.57	-5.960
784.88	-2.143
785.19	0.787
785.50	-5.512
785.81	-5.263
786.11	3.846
786.42	2.158
786.73	-2.878
787.04	4.511
787.34	0.000
787.65	1.600
787.96	4.478
788.26	6.993
788.57	11.189
788.88	4.605
789.19	9.804
789.49	2.055
789.80	0.709
790.11	3.150
790.41	2.344
790.72	1.695
791.03	-7.767
791.33	0.870
791.64	7.895
791.95	-4.464
792.25	0.000
792.56	-6.250
792.87	-13.542
793.17	8.929
793.48	-16.667
793.79	-24.096
794.09	-5.505
794.40	-8.257
794.70	6.803
795.01	3.896
795.32	8.904
795.62	7.042
795.93	-3.030
796.23	-1.639
796.54	-9.821
796.85	-3.191
797.15	-4.348
797.46	-15.068
797.76	-20.000
798.07	-7.609
798.37	-9.278
798.68	-23.377
798.99	-10.345
799.29	-5.618
799.60	0.000
799.90	-13.253
800.21	-23.077
800.51	-13.433
800.82	-30.882
801.12	-28.767
801.43	-33.824
801.73	-28.814
802.04	-27.273
802.34	-33.333
802.65	-15.254
802.95	-4.478
803.26	-20.339
803.56	-9.589
803.87	-7.143
804.17	-10.959
804.48	-35.088
804.78	-12.500
805.09	-39.655
805.39	-27.027
805.70	-21.127
806.00	-4.878
806.30	-6.024
806.61	-8.219
806.91	0.000
807.22	-6.667
807.52	-8.046
807.83	-9.722
808.13	-3.614
808.43	-10.112
808.74	-21.250
809.04	-32.353
809.35	-13.333
809.65	-10.000
809.95	-9.589
810.26	-29.825
810.56	-20.690
810.86	-7.353
811.17	-38.596
811.47	-9.836
811.77	-28.889
812.08	-32.203
812.38	-21.667
812.69	-20.690
812.99	-43.396
813.29	-79.487
813.59	-16.000
813.90	-35.088
814.20	-36.364
814.50	-11.268
814.81	-10.256
815.11	-9.836
815.41	-7.463
815.72	-25.862
816.02	-17.857
816.32	-8.889
816.62	-31.818
816.93	-46.667
817.23	-14.815
817.53	-31.915
817.84	-23.810
818.14	-55.882
818.44	-30.612
818.74	-31.111
819.04	-66.667
819.35	-62.857
819.65	-107.692
819.95	-11.321
820.25	-20.000
820.56	-57.143
820.86	-53.125
821.16	-58.974
821.46	-51.163
821.76	-54.000
822.07	-16.071
822.37	-36.957
822.67	-27.660
822.97	-72.973
823.27	-47.500
823.57	-14.286
823.88	-24.444
824.18	-37.500
824.48	-70.000
824.78	-108.000
825.08	-69.697
825.38	-26.667
825.69	-23.404
825.99	-22.222
826.29	-68.571
826.59	-43.590
826.89	-51.163
827.19	-36.000
827.49	-29.412
827.79	6.250
828.09	-48.649
828.39	-56.667
828.70	-36.585
829.00	-53.488
829.30	-78.571
829.60	-23.529
829.90	-32.609
830.20	-54.286
830.50	-75.862
830.80	-38.889
831.10	-50.000
831.40	-32.353
831.70	-71.429
832.00	-19.355
832.30	-164.706
832.60	-100.000
832.90	-269.231
833.20	-121.053
833.50	-115.000
833.80	-126.316
834.10	-166.667
834.40	-38.889
834.70	-40.625
835.00	-68.571
835.30	-23.529
835.60	-53.333
835.90	-52.000
836.20	-159.091
836.50	-64.000
836.80	-45.455
837.10	-100.000
837.40	-66.667
837.70	-156.250
838.00	-64.286
838.30	-73.913
838.60	-58.621
838.90	-178.571
839.19	-126.087
839.49	-233.333
839.79	-69.565
840.09	-206.250
840.39	-115.000
840.69	-41.935
840.99	-75.000
841.29	-133.333
841.59	-152.632
841.88	-15.385
842.18	-50.000
842.48	-230.000
842.78	-100.000
843.08	-23.333
843.38	-25.806
843.68	-194.444
843.97	-64.706
844.27	-137.500
844.57	-126.316
844.87	-250.000
845.17	-140.000
845.47	-61.905
845.76	-114.286
846.06	-300.000
846.36	-129.412
846.66	-65.385
846.96	-146.667
847.25	-82.353
847.55	-73.913
847.85	-110.000
848.15	-82.353
848.44	-218.182
848.74	-100.000
849.04	-70.833
849.34	-156.250
849.63	-65.217
849.93	1200.000
850.23	-160.000
850.53	-46.154
850.82	-245.455
851.12	-86.364
851.42	-218.182
851.71	-69.231
852.01	-125.000
852.31	-76.923
852.61	-89.474
852.90	-158.333
853.20	-127.778
853.50	-333.333
853.79	-100.000
854.09	-72.727
854.39	-125.000
854.68	-29.032
854.98	-53.846
855.28	-44.444
855.57	-64.286
855.87	-68.000
856.17	-81.818
856.46	-59.259
856.76	-116.667
857.05	-117.391
857.35	-79.167
857.65	-176.923
857.94	-90.476
858.24	-77.778
858.53	-43.478
858.83	-123.529
859.13	-123.529
859.42	-123.529
859.72	-150.000
860.01	-125.000
860.31	-355.556
860.60	-200.000
860.90	-106.667
861.20	-105.556
861.49	-161.538
861.79	-46.667
862.08	-184.615
862.38	-46.875
862.67	-111.765
862.97	-168.750
863.26	-233.333
863.56	-250.000
863.85	-172.727
864.15	-88.889
864.44	-766.667
864.74	-114.286
865.03	-143.750
865.33	-270.000
865.62	-61.290
865.92	-95.455
866.21	-43.478
866.51	-85.714
866.80	-560.000
867.10	-191.667
867.39	-208.333
867.69	2500.000
867.98	-271.429
868.27	-105.882
868.57	-3100.000
868.86	-340.000
869.16	-61.905
869.45	-45.833
869.75	-172.727
870.04	-400.000
870.33	-100.000
870.63	-500.000
870.92	-375.000
871.22	-350.000
871.51	-245.455
871.80	-800.000
872.10	-1450.000
>>>>>End Processed Spectral Data<<<<<
