SpectraSuite Data File
++++++++++++++++++++++++++++++++++++
Date: Thu May 14 14:43:17 PDT 2015
User: schluterlab
Dark Spectrum Present: Yes
Reference Spectrum Present: Yes
Number of Sampled Component Spectra: 1
Spectrometers: USB2E3373
Integration Time (usec): 3000 (USB2E3373)
Spectra Averaged: 3 (USB2E3373)
Boxcar Smoothing: 0 (USB2E3373)
Correct for Electrical Dark: No (USB2E3373)
Strobe/Lamp Enabled: No (USB2E3373)
Correct for Detector Non-linearity: No (USB2E3373)
Correct for Stray Light: No (USB2E3373)
Number of Pixels in Processed Spectrum: 2048
>>>>>Begin Processed Spectral Data<<<<<
178.53	0.000
178.91	85.714
179.29	0.000
179.67	300.000
180.04	128.571
180.42	-80.000
180.80	20.000
181.18	0.000
181.56	900.000
181.94	-150.000
182.31	100.000
182.69	-33.333
183.07	50.000
183.45	-175.000
183.83	33.333
184.20	33.333
184.58	-200.000
184.96	-100.000
185.34	11.111
185.72	60.000
186.09	122.222
186.47	200.000
186.85	180.000
187.23	-111.111
187.61	0.000
187.98	-20.000
188.36	100.000
188.74	250.000
189.12	166.667
189.49	75.000
189.87	37.500
190.25	33.333
190.63	120.000
191.00	-22.222
191.38	0.000
191.76	-100.000
192.14	-33.333
192.51	-250.000
192.89	150.000
193.27	0.000
193.65	128.571
194.02	-300.000
194.40	-14.286
194.78	-142.857
195.15	0.000
195.53	0.000
195.91	0.000
196.29	100.000
196.66	61.538
197.04	-100.000
197.42	-14.286
197.79	0.000
198.17	0.000
198.55	-42.857
198.92	100.000
199.30	-25.000
199.68	54.545
200.05	42.857
200.43	100.000
200.81	185.714
201.18	0.000
201.56	155.556
201.94	0.000
202.31	66.667
202.69	0.000
203.07	-100.000
203.44	100.000
203.82	-25.000
204.19	108.333
204.57	100.000
204.95	50.000
205.32	-400.000
205.70	-125.000
206.08	33.333
206.45	100.000
206.83	80.000
207.20	116.667
207.58	0.000
207.96	-16.667
208.33	66.667
208.71	58.333
209.08	166.667
209.46	0.000
209.84	133.333
210.21	-500.000
210.59	-0.000
210.96	166.667
211.34	50.000
211.71	-37.500
212.09	300.000
212.46	0.000
212.84	600.000
213.22	-120.000
213.59	400.000
213.97	40.000
214.34	-133.333
214.72	50.000
215.09	100.000
215.47	0.000
215.84	-14.286
216.22	-0.000
216.59	200.000
216.97	20.000
217.34	175.000
217.72	-12.500
218.09	25.000
218.47	-150.000
218.84	0.000
219.22	-140.000
219.59	58.824
219.97	50.000
220.34	-250.000
220.72	-77.778
221.09	100.000
221.47	0.000
221.84	100.000
222.22	85.714
222.59	0.000
222.97	125.000
223.34	-160.000
223.72	600.000
224.09	75.000
224.46	-25.000
224.84	-20.000
225.21	-71.429
225.59	75.000
225.96	200.000
226.34	50.000
226.71	100.000
227.08	150.000
227.46	40.000
227.83	-75.000
228.21	15.789
228.58	-150.000
228.95	-200.000
229.33	108.333
229.70	10.000
230.08	110.526
230.45	50.000
230.82	200.000
231.20	50.000
231.57	100.000
231.95	109.091
232.32	9.091
232.69	95.000
233.07	250.000
233.44	5.882
233.81	50.000
234.19	94.444
234.56	59.091
234.93	24.138
235.31	26.316
235.68	22.222
236.05	15.000
236.43	46.154
236.80	56.000
237.17	33.333
237.55	9.091
237.92	-80.000
238.29	29.032
238.67	15.909
239.04	63.889
239.41	26.190
239.79	32.609
240.16	40.741
240.53	17.391
240.91	-7.843
241.28	8.197
241.65	26.866
242.02	27.027
242.40	12.308
242.77	22.667
243.14	9.756
243.51	1.316
243.89	19.231
244.26	27.723
244.63	20.588
245.00	26.168
245.38	12.281
245.75	5.310
246.12	11.111
246.49	17.829
246.87	20.714
247.24	20.530
247.61	21.053
247.98	16.779
248.36	15.432
248.73	14.110
249.10	15.301
249.47	19.403
249.84	22.513
250.22	15.544
250.59	15.000
250.96	22.273
251.33	11.224
251.70	20.940
252.08	14.583
252.45	16.393
252.82	17.769
253.19	16.406
253.56	20.913
253.94	18.846
254.31	17.045
254.68	20.629
255.05	18.241
255.42	18.707
255.79	16.505
256.16	15.232
256.54	14.570
256.91	17.377
257.28	16.393
257.65	15.605
258.02	16.519
258.39	14.530
258.76	19.572
259.14	17.241
259.51	17.003
259.88	14.164
260.25	18.889
260.62	21.096
260.99	20.492
261.36	16.086
261.73	17.241
262.10	18.132
262.47	17.694
262.85	21.465
263.22	14.805
263.59	16.053
263.96	16.880
264.33	15.857
264.70	18.025
265.07	20.764
265.44	20.181
265.81	18.750
266.18	18.367
266.55	16.295
266.92	16.629
267.29	16.411
267.66	16.186
268.03	17.031
268.40	15.240
268.77	17.312
269.14	15.859
269.51	19.737
269.88	19.057
270.25	16.901
270.62	17.300
270.99	18.182
271.36	17.624
271.73	18.664
272.10	16.032
272.47	14.429
272.84	15.663
273.21	17.836
273.58	20.565
273.95	15.000
274.32	17.490
274.69	16.441
275.06	17.766
275.43	14.972
275.80	16.755
276.17	15.556
276.54	15.858
276.91	15.564
277.28	16.456
277.65	16.876
278.02	17.647
278.39	16.123
278.76	15.466
279.13	15.426
279.50	18.900
279.87	16.816
280.23	14.789
280.60	15.424
280.97	17.763
281.34	16.469
281.71	16.582
282.08	16.445
282.45	14.239
282.82	17.268
283.19	14.216
283.56	17.213
283.92	17.417
284.29	18.009
284.66	15.764
285.03	15.064
285.40	16.692
285.77	17.028
286.14	16.183
286.51	15.373
286.87	16.272
287.24	17.018
287.61	14.499
287.98	16.918
288.35	14.497
288.72	15.828
289.08	17.277
289.45	15.089
289.82	14.910
290.19	15.948
290.56	14.930
290.93	15.407
291.29	16.391
291.66	14.325
292.03	14.383
292.40	15.782
292.77	12.938
293.13	13.532
293.50	13.666
293.87	13.423
294.24	14.133
294.60	15.044
294.97	11.946
295.34	14.725
295.71	12.106
296.08	14.212
296.44	12.990
296.81	13.398
297.18	12.702
297.55	12.972
297.91	12.930
298.28	11.374
298.65	12.604
299.02	13.105
299.38	14.416
299.75	12.150
300.12	12.037
300.48	12.903
300.85	12.823
301.22	11.409
301.59	12.785
301.95	12.316
302.32	13.889
302.69	12.048
303.05	13.058
303.42	12.749
303.79	12.812
304.15	12.408
304.52	10.677
304.89	13.089
305.25	12.422
305.62	12.121
305.99	11.959
306.35	11.492
306.72	11.479
307.09	12.893
307.45	11.905
307.82	11.705
308.19	12.008
308.55	12.922
308.92	11.003
309.29	11.590
309.65	11.501
310.02	11.881
310.38	10.925
310.75	11.165
311.12	11.314
311.48	11.632
311.85	11.206
312.22	11.006
312.58	11.925
312.95	11.855
313.31	11.382
313.68	11.722
314.05	12.647
314.41	11.658
314.78	12.080
315.14	11.343
315.51	10.896
315.87	11.881
316.24	12.785
316.61	10.746
316.97	11.584
317.34	11.287
317.70	12.314
318.07	10.847
318.43	11.820
318.80	12.876
319.16	11.674
319.53	11.568
319.89	11.131
320.26	12.100
320.62	11.791
320.99	11.911
321.35	11.460
321.72	12.558
322.08	11.091
322.45	12.195
322.81	12.004
323.18	10.973
323.54	11.810
323.91	12.011
324.27	12.306
324.64	12.762
325.00	11.360
325.37	12.121
325.73	12.562
326.10	12.652
326.46	12.541
326.83	12.890
327.19	13.465
327.56	12.806
327.92	10.700
328.29	12.419
328.65	12.312
329.01	12.267
329.38	12.047
329.74	12.414
330.11	12.842
330.47	12.721
330.84	12.145
331.20	13.667
331.56	12.218
331.93	13.305
332.29	13.136
332.66	12.209
333.02	12.982
333.38	12.668
333.75	12.710
334.11	11.927
334.48	11.881
334.84	13.679
335.20	12.343
335.57	13.238
335.93	12.893
336.29	12.313
336.66	11.775
337.02	13.294
337.38	13.010
337.75	11.818
338.11	13.204
338.47	13.069
338.84	13.029
339.20	11.542
339.56	11.450
339.93	11.576
340.29	12.641
340.65	11.922
341.02	12.610
341.38	12.773
341.74	12.914
342.11	11.826
342.47	10.643
342.83	12.158
343.20	12.428
343.56	12.029
343.92	12.650
344.28	12.188
344.65	12.791
345.01	12.637
345.37	11.975
345.73	11.458
346.10	12.012
346.46	11.155
346.82	12.285
347.19	11.688
347.55	12.140
347.91	11.887
348.27	11.912
348.63	12.567
349.00	11.708
349.36	11.970
349.72	11.458
350.08	12.704
350.45	11.863
350.81	12.142
351.17	11.880
351.53	11.296
351.89	11.693
352.26	11.194
352.62	11.940
352.98	10.153
353.34	11.128
353.70	11.556
354.07	12.146
354.43	11.997
354.79	10.845
355.15	11.332
355.51	13.158
355.87	11.219
356.24	11.179
356.60	11.160
356.96	12.083
357.32	11.524
357.68	11.054
358.04	11.677
358.40	10.970
358.77	12.281
359.13	10.487
359.49	10.632
359.85	10.660
360.21	11.908
360.57	11.486
360.93	11.354
361.29	11.579
361.66	11.948
362.02	12.317
362.38	12.298
362.74	11.103
363.10	11.554
363.46	11.496
363.82	10.937
364.18	11.049
364.54	10.650
364.90	11.973
365.26	10.552
365.62	11.533
365.98	11.028
366.35	11.611
366.71	11.497
367.07	11.637
367.43	10.900
367.79	12.077
368.15	11.171
368.51	11.840
368.87	10.777
369.23	11.400
369.59	10.451
369.95	10.953
370.31	11.344
370.67	11.623
371.03	11.150
371.39	11.081
371.75	10.867
372.11	11.043
372.47	11.916
372.83	11.518
373.19	11.274
373.55	10.840
373.91	11.179
374.27	11.190
374.63	11.434
374.99	11.406
375.35	11.299
375.71	11.355
376.07	10.136
376.42	11.083
376.78	11.125
377.14	11.167
377.50	11.385
377.86	12.069
378.22	12.695
378.58	10.583
378.94	11.561
379.30	10.603
379.66	11.111
380.02	11.021
380.38	11.233
380.74	10.930
381.09	11.266
381.45	11.932
381.81	11.300
382.17	11.698
382.53	11.228
382.89	12.133
383.25	11.665
383.61	10.532
383.97	11.131
384.32	12.022
384.68	10.499
385.04	11.163
385.40	11.491
385.76	11.899
386.12	11.909
386.48	12.235
386.83	11.740
387.19	11.356
387.55	11.737
387.91	11.701
388.27	11.605
388.62	11.913
388.98	11.280
389.34	12.139
389.70	12.318
390.06	11.782
390.42	11.807
390.77	12.703
391.13	11.796
391.49	12.560
391.85	12.182
392.20	11.981
392.56	12.286
392.92	12.377
393.28	12.217
393.64	12.011
393.99	12.260
394.35	12.734
394.71	11.916
395.07	11.916
395.42	12.507
395.78	12.249
396.14	12.656
396.50	11.520
396.85	12.224
397.21	12.012
397.57	12.956
397.92	12.027
398.28	11.624
398.64	11.442
399.00	11.623
399.35	11.728
399.71	12.337
400.07	12.016
400.42	11.700
400.78	12.442
401.14	11.326
401.49	11.711
401.85	12.035
402.21	12.341
402.57	12.617
402.92	12.411
403.28	12.588
403.63	12.291
403.99	12.292
404.35	12.735
404.70	12.521
405.06	11.957
405.42	12.471
405.77	12.759
406.13	12.156
406.49	12.613
406.84	12.299
407.20	12.633
407.55	12.659
407.91	11.628
408.27	12.367
408.62	12.682
408.98	12.652
409.34	11.261
409.69	12.732
410.05	12.603
410.40	13.225
410.76	11.946
411.11	13.209
411.47	12.285
411.83	12.287
412.18	12.349
412.54	13.041
412.89	12.398
413.25	12.754
413.60	12.062
413.96	12.413
414.31	12.521
414.67	12.701
415.03	12.738
415.38	12.232
415.74	12.340
416.09	13.325
416.45	12.023
416.80	12.240
417.16	12.580
417.51	12.578
417.87	12.692
418.22	12.455
418.58	11.896
418.93	12.282
419.29	12.022
419.64	12.605
420.00	12.047
420.35	12.240
420.71	12.349
421.06	11.788
421.42	12.557
421.77	12.062
422.12	12.791
422.48	12.289
422.83	12.760
423.19	12.838
423.54	11.781
423.90	12.203
424.25	12.373
424.61	11.825
424.96	12.356
425.31	12.898
425.67	11.970
426.02	12.064
426.38	12.342
426.73	11.775
427.09	13.552
427.44	12.070
427.79	12.327
428.15	12.443
428.50	12.921
428.85	12.687
429.21	13.085
429.56	12.290
429.92	12.678
430.27	12.289
430.62	12.311
430.98	12.543
431.33	11.388
431.68	11.734
432.04	12.240
432.39	11.944
432.74	11.929
433.10	11.898
433.45	11.148
433.80	11.910
434.16	12.087
434.51	12.590
434.86	12.432
435.22	12.965
435.57	13.090
435.92	11.742
436.28	12.799
436.63	12.507
436.98	12.399
437.34	11.838
437.69	12.548
438.04	11.581
438.39	12.292
438.75	12.230
439.10	12.738
439.45	12.689
439.81	12.090
440.16	12.279
440.51	12.207
440.86	11.951
441.22	12.165
441.57	12.526
441.92	12.609
442.27	13.384
442.63	12.767
442.98	12.380
443.33	12.415
443.68	13.082
444.03	12.841
444.39	12.159
444.74	12.506
445.09	12.316
445.44	11.960
445.79	12.979
446.15	12.127
446.50	12.661
446.85	12.500
447.20	12.621
447.55	12.762
447.91	12.199
448.26	12.156
448.61	12.434
448.96	13.466
449.31	13.043
449.66	13.072
450.02	13.027
450.37	13.159
450.72	12.379
451.07	11.731
451.42	12.652
451.77	12.451
452.12	12.641
452.47	11.765
452.83	12.500
453.18	12.259
453.53	11.717
453.88	12.645
454.23	12.768
454.58	12.885
454.93	12.075
455.28	11.981
455.63	12.450
455.98	12.682
456.34	12.721
456.69	12.169
457.04	12.352
457.39	12.084
457.74	12.752
458.09	12.850
458.44	13.039
458.79	12.223
459.14	12.271
459.49	12.111
459.84	12.487
460.19	11.882
460.54	13.231
460.89	12.599
461.24	12.701
461.59	12.673
461.94	11.295
462.29	12.542
462.64	12.130
462.99	12.116
463.34	12.524
463.69	13.306
464.04	13.118
464.39	13.453
464.74	13.056
465.09	11.938
465.44	12.768
465.79	12.797
466.14	12.976
466.49	12.737
466.84	12.287
467.19	12.832
467.54	11.692
467.89	12.529
468.24	12.521
468.59	11.639
468.94	12.413
469.29	11.758
469.64	11.952
469.99	11.791
470.34	12.067
470.68	12.714
471.03	11.853
471.38	12.165
471.73	12.224
472.08	12.246
472.43	12.282
472.78	11.965
473.13	12.073
473.48	12.689
473.83	12.420
474.17	12.309
474.52	12.447
474.87	13.068
475.22	12.394
475.57	12.201
475.92	12.544
476.27	12.194
476.61	12.253
476.96	12.565
477.31	13.069
477.66	12.644
478.01	12.811
478.36	12.263
478.70	12.217
479.05	12.065
479.40	13.031
479.75	12.536
480.10	12.459
480.45	12.625
480.79	12.517
481.14	12.408
481.49	12.540
481.84	13.316
482.19	12.172
482.53	12.505
482.88	13.203
483.23	12.628
483.58	12.271
483.92	12.544
484.27	11.727
484.62	12.459
484.97	12.364
485.31	12.038
485.66	11.504
486.01	11.320
486.36	11.786
486.70	12.331
487.05	12.302
487.40	12.607
487.75	12.341
488.09	12.792
488.44	12.269
488.79	12.546
489.13	12.563
489.48	11.961
489.83	11.992
490.17	12.434
490.52	11.905
490.87	12.902
491.22	11.655
491.56	12.201
491.91	12.342
492.26	12.592
492.60	12.505
492.95	12.286
493.30	12.595
493.64	12.615
493.99	12.939
494.34	12.195
494.68	12.591
495.03	12.731
495.37	12.605
495.72	12.200
496.07	11.788
496.41	12.312
496.76	12.510
497.11	12.824
497.45	12.344
497.80	12.439
498.14	12.381
498.49	12.454
498.84	12.431
499.18	12.056
499.53	12.870
499.87	12.923
500.22	11.710
500.56	12.011
500.91	12.494
501.26	12.364
501.60	12.329
501.95	12.636
502.29	12.418
502.64	12.943
502.98	12.295
503.33	12.095
503.67	12.734
504.02	12.347
504.36	13.092
504.71	12.081
505.06	12.324
505.40	11.837
505.75	12.568
506.09	13.168
506.44	12.396
506.78	12.706
507.13	12.586
507.47	12.648
507.82	12.216
508.16	12.141
508.51	12.236
508.85	11.479
509.19	12.695
509.54	12.680
509.88	12.336
510.23	12.627
510.57	13.436
510.92	11.950
511.26	12.121
511.61	11.685
511.95	12.347
512.30	12.654
512.64	12.344
512.98	12.656
513.33	13.155
513.67	12.188
514.02	12.570
514.36	12.685
514.70	12.500
515.05	12.461
515.39	13.281
515.74	13.415
516.08	12.784
516.42	13.919
516.77	12.461
517.11	12.481
517.46	13.362
517.80	12.667
518.14	13.765
518.49	13.557
518.83	13.571
519.17	13.032
519.52	12.945
519.86	13.569
520.20	13.472
520.55	13.198
520.89	12.500
521.23	13.400
521.58	13.220
521.92	13.258
522.26	13.345
522.61	12.500
522.95	12.745
523.29	13.908
523.64	12.724
523.98	13.520
524.32	13.926
524.66	13.147
525.01	12.911
525.35	12.407
525.69	12.935
526.04	13.146
526.38	13.391
526.72	13.206
527.06	13.724
527.41	11.720
527.75	13.242
528.09	13.282
528.43	12.848
528.78	12.428
529.12	12.672
529.46	13.435
529.80	13.215
530.15	13.275
530.49	11.922
530.83	13.577
531.17	12.724
531.51	13.237
531.86	13.101
532.20	13.963
532.54	12.926
532.88	12.182
533.22	12.905
533.57	12.926
533.91	13.300
534.25	12.889
534.59	13.046
534.93	12.394
535.27	12.789
535.62	13.985
535.96	13.364
536.30	12.045
536.64	13.934
536.98	13.715
537.32	13.272
537.66	14.036
538.01	12.991
538.35	12.180
538.69	13.582
539.03	12.998
539.37	12.780
539.71	14.114
540.05	14.209
540.39	12.469
540.73	12.750
541.07	12.630
541.42	12.227
541.76	12.693
542.10	12.606
542.44	12.667
542.78	12.774
543.12	13.230
543.46	12.271
543.80	13.070
544.14	13.166
544.48	13.712
544.82	13.465
545.16	13.298
545.50	13.421
545.84	13.962
546.18	14.444
546.52	13.376
546.86	13.145
547.20	13.422
547.54	13.546
547.88	13.080
548.22	13.509
548.56	13.049
548.90	13.731
549.24	13.921
549.58	13.565
549.92	13.010
550.26	13.657
550.60	12.955
550.94	13.389
551.28	14.389
551.62	13.208
551.96	13.528
552.30	13.703
552.64	13.441
552.98	13.038
553.32	13.119
553.66	14.019
554.00	13.115
554.34	13.964
554.68	13.234
555.02	13.995
555.36	14.070
555.69	13.581
556.03	12.863
556.37	13.329
556.71	13.443
557.05	14.185
557.39	13.537
557.73	13.342
558.07	13.642
558.41	14.352
558.75	12.914
559.08	13.500
559.42	13.580
559.76	14.111
560.10	13.329
560.44	12.863
560.78	14.250
561.12	13.054
561.45	14.173
561.79	13.370
562.13	14.110
562.47	13.440
562.81	13.608
563.15	14.583
563.48	13.362
563.82	13.724
564.16	13.749
564.50	13.886
564.84	13.864
565.17	13.824
565.51	13.234
565.85	13.183
566.19	13.479
566.52	13.166
566.86	13.696
567.20	12.779
567.54	13.064
567.88	13.812
568.21	13.439
568.55	13.381
568.89	14.299
569.23	13.350
569.56	13.130
569.90	12.972
570.24	13.221
570.57	12.797
570.91	12.860
571.25	12.844
571.59	13.220
571.92	13.006
572.26	13.208
572.60	12.995
572.93	13.053
573.27	13.037
573.61	12.943
573.95	12.770
574.28	13.058
574.62	12.619
574.96	12.594
575.29	12.734
575.63	12.936
575.97	12.958
576.30	12.633
576.64	12.956
576.98	12.688
577.31	12.834
577.65	13.042
577.98	12.538
578.32	12.300
578.66	12.721
578.99	12.984
579.33	12.850
579.67	12.715
580.00	12.722
580.34	12.893
580.67	12.379
581.01	12.873
581.35	12.390
581.68	12.529
582.02	12.704
582.35	12.890
582.69	13.086
583.02	12.857
583.36	12.898
583.70	12.633
584.03	12.695
584.37	12.935
584.70	12.518
585.04	12.439
585.37	12.528
585.71	12.751
586.04	12.902
586.38	12.813
586.72	12.209
587.05	12.305
587.39	12.541
587.72	13.038
588.06	13.274
588.39	12.845
588.73	12.698
589.06	12.528
589.40	13.215
589.73	12.725
590.07	12.964
590.40	13.320
590.73	13.114
591.07	13.515
591.40	13.142
591.74	12.639
592.07	13.683
592.41	13.013
592.74	13.454
593.08	13.280
593.41	13.065
593.75	12.874
594.08	13.148
594.41	13.365
594.75	12.986
595.08	12.618
595.42	12.403
595.75	13.109
596.09	13.419
596.42	12.863
596.75	13.585
597.09	13.616
597.42	12.396
597.75	12.936
598.09	13.016
598.42	13.229
598.76	12.457
599.09	12.496
599.42	12.974
599.76	12.975
600.09	13.146
600.42	12.546
600.76	12.781
601.09	12.645
601.42	12.255
601.76	12.586
602.09	13.081
602.42	12.359
602.76	12.731
603.09	13.069
603.42	13.259
603.76	12.579
604.09	13.485
604.42	13.138
604.76	12.938
605.09	12.884
605.42	13.198
605.75	13.000
606.09	12.953
606.42	12.733
606.75	13.006
607.09	12.519
607.42	12.794
607.75	12.505
608.08	13.181
608.42	13.422
608.75	12.977
609.08	12.479
609.41	12.792
609.75	12.679
610.08	13.456
610.41	13.466
610.74	13.193
611.07	12.567
611.41	12.915
611.74	13.025
612.07	12.903
612.40	13.023
612.73	12.861
613.07	13.105
613.40	12.849
613.73	12.614
614.06	13.101
614.39	13.168
614.72	13.003
615.06	13.186
615.39	12.566
615.72	13.128
616.05	12.773
616.38	13.219
616.71	13.166
617.05	12.993
617.38	13.323
617.71	12.581
618.04	12.952
618.37	14.317
618.70	13.688
619.03	13.381
619.36	13.132
619.69	12.940
620.03	12.680
620.36	13.190
620.69	13.017
621.02	13.058
621.35	13.643
621.68	14.389
622.01	13.310
622.34	12.413
622.67	12.440
623.00	12.955
623.33	13.869
623.66	14.267
623.99	12.442
624.32	13.320
624.65	12.355
624.99	13.199
625.32	14.174
625.65	13.823
625.98	12.610
626.31	12.544
626.64	13.846
626.97	12.678
627.30	12.680
627.63	13.353
627.96	14.114
628.29	14.008
628.62	13.098
628.95	13.409
629.28	12.234
629.61	14.562
629.94	11.548
630.26	12.712
630.59	13.558
630.92	12.641
631.25	14.401
631.58	13.653
631.91	13.964
632.24	13.929
632.57	13.947
632.90	13.842
633.23	13.265
633.56	13.571
633.89	13.430
634.22	13.721
634.55	12.839
634.88	12.771
635.20	14.316
635.53	13.785
635.86	13.651
636.19	13.786
636.52	13.713
636.85	12.257
637.18	13.202
637.51	13.548
637.83	14.507
638.16	12.903
638.49	13.028
638.82	13.980
639.15	11.340
639.48	14.896
639.81	14.319
640.13	14.841
640.46	12.364
640.79	11.887
641.12	12.919
641.45	14.053
641.77	15.404
642.10	13.386
642.43	15.824
642.76	13.686
643.09	13.836
643.41	13.445
643.74	13.379
644.07	15.034
644.40	13.720
644.73	12.192
645.05	13.656
645.38	13.813
645.71	12.903
646.04	14.491
646.36	12.555
646.69	13.804
647.02	13.761
647.35	14.351
647.67	13.043
648.00	12.739
648.33	14.865
648.66	13.837
648.98	13.197
649.31	13.396
649.64	14.077
649.96	12.599
650.29	14.186
650.62	13.154
650.94	14.865
651.27	12.126
651.60	11.988
651.92	13.526
652.25	14.616
652.58	14.993
652.90	10.901
653.23	16.479
653.56	13.267
653.88	15.730
654.21	13.380
654.54	12.861
654.86	13.173
655.19	12.422
655.52	12.131
655.84	11.863
656.17	14.785
656.49	20.983
656.82	23.093
657.15	18.027
657.47	13.493
657.80	9.805
658.13	7.591
658.45	9.815
658.78	11.955
659.10	11.920
659.43	11.939
659.75	11.552
660.08	11.261
660.41	11.828
660.73	11.403
661.06	13.363
661.38	13.397
661.71	11.552
662.03	12.875
662.36	14.669
662.68	11.632
663.01	15.752
663.33	14.934
663.66	13.919
663.98	12.885
664.31	13.133
664.63	13.295
664.96	14.156
665.28	12.704
665.61	15.035
665.93	14.107
666.26	13.441
666.58	12.177
666.91	15.140
667.23	12.952
667.56	15.779
667.88	15.200
668.21	10.156
668.53	11.776
668.86	13.949
669.18	13.035
669.50	14.513
669.83	13.000
670.15	13.780
670.48	14.087
670.80	13.193
671.13	13.233
671.45	12.992
671.77	15.254
672.10	11.500
672.42	12.783
672.75	11.521
673.07	14.328
673.39	10.940
673.72	12.919
674.04	14.828
674.37	14.669
674.69	14.286
675.01	12.190
675.34	14.313
675.66	11.049
675.98	13.060
676.31	14.062
676.63	14.449
676.95	13.410
677.28	14.516
677.60	12.402
677.92	14.012
678.25	13.894
678.57	13.701
678.89	14.334
679.22	12.718
679.54	11.795
679.86	11.017
680.18	11.940
680.51	14.937
680.83	12.275
681.15	12.586
681.48	11.917
681.80	12.090
682.12	12.238
682.44	13.856
682.77	14.362
683.09	14.205
683.41	12.403
683.73	13.093
684.06	14.945
684.38	12.343
684.70	13.285
685.02	14.974
685.34	11.481
685.67	11.199
685.99	12.270
686.31	13.372
686.63	12.006
686.96	11.830
687.28	13.518
687.60	12.626
687.92	13.505
688.24	13.189
688.56	12.586
688.89	14.156
689.21	14.090
689.53	13.137
689.85	11.440
690.17	13.333
690.49	11.753
690.82	11.287
691.14	11.336
691.46	12.046
691.78	13.260
692.10	12.477
692.42	11.429
692.74	11.978
693.06	11.667
693.39	14.611
693.71	11.654
694.03	13.383
694.35	13.143
694.67	12.320
694.99	16.383
695.31	12.141
695.63	11.688
695.95	11.801
696.27	12.527
696.59	16.372
696.91	14.865
697.23	16.264
697.56	10.591
697.88	11.553
698.20	13.936
698.52	14.394
698.84	11.850
699.16	14.490
699.48	13.389
699.80	11.915
700.12	13.100
700.44	11.060
700.76	13.539
701.08	13.317
701.40	12.435
701.72	13.930
702.04	12.299
702.36	11.780
702.68	13.692
703.00	12.225
703.32	12.315
703.64	16.137
703.96	12.888
704.28	14.251
704.60	14.430
704.91	15.561
705.23	15.342
705.55	11.978
705.87	13.030
706.19	14.724
706.51	10.843
706.83	13.545
707.15	11.640
707.47	13.551
707.79	9.607
708.11	12.076
708.43	11.613
708.74	8.929
709.06	14.385
709.38	14.554
709.70	16.377
710.02	14.987
710.34	14.894
710.66	16.480
710.98	13.934
711.29	12.363
711.61	15.254
711.93	15.385
712.25	14.324
712.57	16.224
712.89	17.353
713.20	14.201
713.52	14.162
713.84	12.256
714.16	12.895
714.48	14.175
714.80	15.844
715.11	14.436
715.43	10.345
715.75	16.316
716.07	13.536
716.39	16.393
716.70	12.952
717.02	13.770
717.34	11.847
717.66	14.430
717.97	12.329
718.29	13.746
718.61	12.500
718.93	12.298
719.24	13.665
719.56	11.963
719.88	15.015
720.20	15.484
720.51	13.665
720.83	12.500
721.15	10.855
721.46	11.301
721.78	15.333
722.10	11.003
722.42	11.074
722.73	16.452
723.05	13.684
723.37	15.278
723.68	15.771
724.00	16.968
724.32	13.732
724.63	13.287
724.95	12.766
725.27	9.756
725.58	10.601
725.90	14.138
726.22	16.301
726.53	10.390
726.85	12.893
727.16	14.804
727.48	14.679
727.80	16.556
728.11	11.661
728.43	13.805
728.74	10.033
729.06	15.563
729.38	14.286
729.69	11.745
730.01	14.583
730.32	9.394
730.64	12.264
730.96	13.043
731.27	15.363
731.59	13.187
731.90	12.987
732.22	13.542
732.53	12.983
732.85	13.714
733.16	12.023
733.48	8.841
733.80	11.421
734.11	13.390
734.43	14.595
734.74	14.430
735.06	12.060
735.37	14.324
735.69	13.784
736.00	14.124
736.32	13.747
736.63	11.389
736.95	14.368
737.26	12.424
737.58	11.818
737.89	15.294
738.21	12.538
738.52	12.459
738.83	13.652
739.15	13.475
739.46	14.966
739.78	12.577
740.09	10.315
740.41	16.618
740.72	13.667
741.04	14.887
741.35	13.333
741.66	13.725
741.98	15.984
742.29	12.552
742.61	17.544
742.92	16.538
743.23	14.801
743.55	8.915
743.86	14.400
744.18	12.810
744.49	10.970
744.80	13.580
745.12	13.502
745.43	17.480
745.74	12.500
746.06	11.441
746.37	16.878
746.68	21.138
747.00	13.750
747.31	13.734
747.62	16.923
747.94	10.121
748.25	9.237
748.56	8.980
748.88	13.675
749.19	19.828
749.50	11.255
749.82	14.458
750.13	16.370
750.44	12.000
750.75	12.000
751.07	10.154
751.38	15.457
751.69	14.377
752.01	15.534
752.32	16.667
752.63	11.224
752.94	13.149
753.26	8.178
753.57	9.630
753.88	11.985
754.19	13.826
754.51	12.219
754.82	16.399
755.13	14.426
755.44	10.580
755.75	10.526
756.07	13.433
756.38	12.893
756.69	14.759
757.00	10.803
757.31	14.481
757.63	9.719
757.94	12.441
758.25	14.673
758.56	13.290
758.87	15.227
759.18	12.800
759.50	14.164
759.81	13.725
760.12	14.825
760.43	13.542
760.74	15.025
761.05	10.500
761.36	9.880
761.67	12.183
761.99	12.432
762.30	14.634
762.61	9.241
762.92	13.433
763.23	15.730
763.54	12.590
763.85	13.058
764.16	10.438
764.47	14.437
764.78	14.377
765.10	13.196
765.41	16.923
765.72	10.053
766.03	15.537
766.34	9.091
766.65	14.286
766.96	9.960
767.27	14.286
767.58	10.448
767.89	12.500
768.20	16.432
768.51	9.259
768.82	15.261
769.13	13.636
769.44	13.077
769.75	14.801
770.06	13.846
770.37	14.567
770.68	8.511
770.99	5.668
771.30	13.333
771.61	15.589
771.92	11.481
772.23	15.789
772.54	10.648
772.85	18.894
773.16	20.000
773.47	11.111
773.78	11.351
774.09	15.341
774.39	20.500
774.70	18.579
775.01	11.585
775.32	11.176
775.63	8.589
775.94	14.650
776.25	16.774
776.56	17.949
776.87	19.728
777.18	10.345
777.48	16.084
777.79	16.216
778.10	4.412
778.41	13.194
778.72	19.310
779.03	17.284
779.34	10.909
779.65	12.953
779.95	14.444
780.26	12.500
780.57	17.419
780.88	15.942
781.19	18.710
781.50	17.647
781.80	17.742
782.11	16.931
782.42	13.131
782.73	14.371
783.04	13.966
783.34	4.242
783.65	9.804
783.96	11.801
784.27	9.524
784.57	10.596
784.88	15.714
785.19	15.748
785.50	11.811
785.81	13.534
786.11	21.538
786.42	9.353
786.73	7.914
787.04	15.038
787.34	19.672
787.65	9.600
787.96	12.687
788.26	18.182
788.57	13.287
788.88	10.526
789.19	23.529
789.49	9.589
789.80	13.475
790.11	13.386
790.41	17.188
790.72	11.864
791.03	3.883
791.33	12.174
791.64	21.930
791.95	12.500
792.25	13.333
792.56	16.964
792.87	14.583
793.17	21.429
793.48	15.625
793.79	6.024
794.09	10.092
794.40	4.587
794.70	15.646
795.01	10.390
795.32	14.384
795.62	21.831
795.93	10.606
796.23	21.311
796.54	8.036
796.85	17.021
797.15	16.304
797.46	12.329
797.76	16.250
798.07	7.609
798.37	8.247
798.68	14.286
798.99	6.897
799.29	12.360
799.60	15.957
799.90	19.277
800.21	4.615
800.51	17.910
800.82	19.118
801.12	-4.110
801.43	1.471
801.73	11.864
802.04	19.697
802.34	21.667
802.65	13.559
802.95	23.881
803.26	13.559
803.56	5.479
803.87	14.286
804.17	16.438
804.48	5.263
804.78	15.278
805.09	0.000
805.39	17.568
805.70	5.634
806.00	20.732
806.30	14.458
806.61	19.178
806.91	22.115
807.22	18.889
807.52	2.299
807.83	15.278
808.13	28.916
808.43	19.101
808.74	10.000
809.04	-2.941
809.35	14.667
809.65	8.571
809.95	2.740
810.26	14.035
810.56	18.966
810.86	26.471
811.17	15.789
811.47	3.279
811.77	31.111
812.08	27.119
812.38	36.667
812.69	36.207
812.99	13.208
813.29	0.000
813.59	30.000
813.90	12.281
814.20	21.818
814.50	26.761
814.81	21.795
815.11	21.311
815.41	13.433
815.72	12.069
816.02	21.429
816.32	42.222
816.62	40.909
816.93	8.889
817.23	24.074
817.53	14.894
817.84	21.429
818.14	14.706
818.44	18.367
818.74	8.889
819.04	-2.564
819.35	0.000
819.65	-30.769
819.95	24.528
820.25	11.111
820.56	16.667
820.86	15.625
821.16	28.205
821.46	-6.977
821.76	0.000
822.07	26.786
822.37	13.043
822.67	21.277
822.97	-16.216
823.27	15.000
823.57	26.531
823.88	42.222
824.18	30.000
824.48	3.333
824.78	52.000
825.08	42.424
825.38	35.556
825.69	27.660
825.99	16.667
826.29	-11.429
826.59	20.513
826.89	20.930
827.19	30.000
827.49	8.824
827.79	25.000
828.09	10.811
828.39	23.333
828.70	0.000
829.00	18.605
829.30	-14.286
829.60	32.353
829.90	21.739
830.20	28.571
830.50	3.448
830.80	22.222
831.10	-7.692
831.40	20.588
831.70	28.571
832.00	25.806
832.30	-52.941
832.60	37.500
832.90	-61.538
833.20	52.632
833.50	5.000
833.80	68.421
834.10	4.762
834.40	47.222
834.70	12.500
835.00	-20.000
835.30	23.529
835.60	-13.333
835.90	12.000
836.20	-36.364
836.50	60.000
836.80	-12.121
837.10	14.815
837.40	22.222
837.70	18.750
838.00	-7.143
838.30	-8.696
838.60	3.448
838.90	7.143
839.19	0.000
839.49	-66.667
839.79	26.087
840.09	-18.750
840.39	55.000
840.69	58.065
840.99	0.000
841.29	-53.333
841.59	42.105
841.88	35.897
842.18	11.538
842.48	20.000
842.78	-40.000
843.08	36.667
843.38	70.968
843.68	-27.778
843.97	17.647
844.27	31.250
844.57	-15.789
844.87	-40.000
845.17	33.333
845.47	57.143
845.76	28.571
846.06	11.111
846.36	-5.882
846.66	42.308
846.96	0.000
847.25	52.941
847.55	17.391
847.85	-10.000
848.15	88.235
848.44	100.000
848.74	38.095
849.04	33.333
849.34	50.000
849.63	56.522
849.93	200.000
850.23	46.667
850.53	61.538
850.82	100.000
851.12	40.909
851.42	-27.273
851.71	130.769
852.01	40.000
852.31	38.462
852.61	42.105
852.90	100.000
853.20	61.111
853.50	-155.556
853.79	-14.286
854.09	-36.364
854.39	0.000
854.68	9.677
854.98	30.769
855.28	38.889
855.57	17.857
855.87	40.000
856.17	40.909
856.46	48.148
856.76	-27.778
857.05	4.348
857.35	8.333
857.65	-23.077
857.94	23.810
858.24	37.037
858.53	34.783
858.83	-5.882
859.13	0.000
859.42	17.647
859.72	0.000
860.01	40.000
860.31	55.556
860.60	0.000
860.90	40.000
861.20	0.000
861.49	46.154
861.79	50.000
862.08	15.385
862.38	62.500
862.67	70.588
862.97	18.750
863.26	-55.556
863.56	-30.000
863.85	27.273
864.15	22.222
864.44	333.333
864.74	57.143
865.03	25.000
865.33	10.000
865.62	3.226
865.92	13.636
866.21	21.739
866.51	35.714
866.80	-100.000
867.10	8.333
867.39	8.333
867.69	500.000
867.98	71.429
868.27	64.706
868.57	-700.000
868.86	-20.000
869.16	-23.810
869.45	29.167
869.75	63.636
870.04	71.429
870.33	33.333
870.63	-300.000
870.92	175.000
871.22	-25.000
871.51	-81.818
871.80	-366.667
872.10	-50.000
>>>>>End Processed Spectral Data<<<<<
