SpectraSuite Data File
++++++++++++++++++++++++++++++++++++
Date: Thu May 14 14:52:04 PDT 2015
User: schluterlab
Dark Spectrum Present: Yes
Reference Spectrum Present: Yes
Number of Sampled Component Spectra: 1
Spectrometers: USB2E3373
Integration Time (usec): 3000 (USB2E3373)
Spectra Averaged: 3 (USB2E3373)
Boxcar Smoothing: 0 (USB2E3373)
Correct for Electrical Dark: No (USB2E3373)
Strobe/Lamp Enabled: No (USB2E3373)
Correct for Detector Non-linearity: No (USB2E3373)
Correct for Stray Light: No (USB2E3373)
Number of Pixels in Processed Spectrum: 2048
>>>>>Begin Processed Spectral Data<<<<<
178.53	0.000
178.91	157.143
179.29	-2400.000
179.67	-900.000
180.04	221.429
180.42	120.000
180.80	300.000
181.18	-900.000
181.56	100.000
181.94	75.000
182.31	-350.000
182.69	333.333
183.07	-400.000
183.45	125.000
183.83	-150.000
184.20	-466.667
184.58	1000.000
184.96	-375.000
185.34	-44.444
185.72	80.000
186.09	144.444
186.47	1250.000
186.85	480.000
187.23	-144.444
187.61	-1600.000
187.98	360.000
188.36	250.000
188.74	-225.000
189.12	-100.000
189.49	-12.500
189.87	-112.500
190.25	-44.444
190.63	-100.000
191.00	-188.889
191.38	0.000
191.76	-250.000
192.14	-200.000
192.51	400.000
192.89	-16.667
193.27	0.000
193.65	-142.857
194.02	-1500.000
194.40	-100.000
194.78	157.143
195.15	0.000
195.53	-18.182
195.91	0.000
196.29	-250.000
196.66	-30.769
197.04	-1700.000
197.42	-171.429
197.79	-1000.000
198.17	-137.500
198.55	-85.714
198.92	-44.444
199.30	-175.000
199.68	-118.182
200.05	-21.429
200.43	-1000.000
200.81	257.143
201.18	0.000
201.56	222.222
201.94	0.000
202.31	566.667
202.69	-188.889
203.07	100.000
203.44	-122.222
203.82	-325.000
204.19	-66.667
204.57	-100.000
204.95	-62.500
205.32	-1500.000
205.70	150.000
206.08	-100.000
206.45	-50.000
206.83	360.000
207.20	-250.000
207.58	-460.000
207.96	-250.000
208.33	-133.333
208.71	133.333
209.08	-100.000
209.46	0.000
209.84	250.000
210.21	650.000
210.59	450.000
210.96	200.000
211.34	-375.000
211.71	-125.000
212.09	-600.000
212.46	0.000
212.84	950.000
213.22	-300.000
213.59	-150.000
213.97	-70.000
214.34	-766.667
214.72	216.667
215.09	-450.000
215.47	0.000
215.84	257.143
216.22	550.000
216.59	-200.000
216.97	-260.000
217.34	-200.000
217.72	-162.500
218.09	-450.000
218.47	-350.000
218.84	0.000
219.22	260.000
219.59	-23.529
219.97	-15.000
220.34	1200.000
220.72	-122.222
221.09	-53.846
221.47	-300.000
221.84	-110.000
222.22	-157.143
222.59	0.000
222.97	-187.500
223.34	-440.000
223.72	-1200.000
224.09	-350.000
224.46	-125.000
224.84	-40.000
225.21	-228.571
225.59	-675.000
225.96	-425.000
226.34	19.231
226.71	166.667
227.08	-600.000
227.46	-53.333
227.83	-225.000
228.21	-31.579
228.58	225.000
228.95	650.000
229.33	-66.667
229.70	-70.000
230.08	21.053
230.45	230.000
230.82	-100.000
231.20	0.000
231.57	-75.000
231.95	0.000
232.32	-81.818
232.69	5.000
233.07	-300.000
233.44	-64.706
233.81	-130.000
234.19	-44.444
234.56	-31.818
234.93	-3.448
235.31	-15.789
235.68	-16.667
236.05	-60.000
236.43	53.846
236.80	0.000
237.17	11.111
237.55	-27.273
237.92	-200.000
238.29	-3.226
238.67	2.273
239.04	0.000
239.41	-9.524
239.79	-4.348
240.16	-9.259
240.53	-13.043
240.91	-23.529
241.28	-11.475
241.65	7.463
242.02	9.459
242.40	-20.000
242.77	1.333
243.14	-14.634
243.51	-14.474
243.89	-19.231
244.26	0.990
244.63	4.902
245.00	0.000
245.38	2.632
245.75	-12.389
246.12	7.937
246.49	0.000
246.87	3.571
247.24	4.636
247.61	6.579
247.98	2.013
248.36	4.938
248.73	-0.613
249.10	-1.639
249.47	7.463
249.84	10.995
250.22	2.073
250.59	5.556
250.96	11.364
251.33	-2.041
251.70	7.692
252.08	8.750
252.45	4.508
252.82	4.132
253.19	5.859
253.56	8.745
253.94	6.538
254.31	6.061
254.68	10.490
255.05	11.075
255.42	7.483
255.79	5.178
256.16	5.629
256.54	5.629
256.91	8.197
257.28	6.557
257.65	5.414
258.02	5.310
258.39	8.547
258.76	7.339
259.14	8.908
259.51	7.205
259.88	6.799
260.25	6.944
260.62	7.123
260.99	8.470
261.36	7.507
261.73	5.040
262.10	6.319
262.47	8.043
262.85	10.606
263.22	6.753
263.59	2.368
263.96	8.440
264.33	6.138
264.70	7.901
265.07	9.069
265.44	11.565
265.81	6.019
266.18	9.977
266.55	9.598
266.92	7.289
267.29	9.847
267.66	6.652
268.03	7.205
268.40	9.186
268.77	5.239
269.14	4.846
269.51	7.675
269.88	9.426
270.25	9.457
270.62	9.072
270.99	9.091
271.36	9.901
271.73	9.234
272.10	10.020
272.47	7.615
272.84	8.032
273.21	6.212
273.58	8.871
273.95	6.346
274.32	7.414
274.69	6.190
275.06	8.791
275.43	8.872
275.80	8.642
276.17	6.481
276.54	7.463
276.91	6.977
277.28	9.222
277.65	7.720
278.02	7.537
278.39	7.790
278.76	7.381
279.13	7.979
279.50	10.137
279.87	10.018
280.23	6.866
280.60	8.475
280.97	8.882
281.34	8.149
281.71	11.844
282.08	7.973
282.45	6.547
282.82	8.634
283.19	5.977
283.56	7.377
283.92	9.459
284.29	9.795
284.66	9.688
285.03	7.051
285.40	8.346
285.77	5.882
286.14	9.008
286.51	8.980
286.87	6.951
287.24	8.735
287.61	7.474
287.98	7.100
288.35	7.101
288.72	7.988
289.08	7.906
289.45	5.621
289.82	6.325
290.19	8.046
290.56	7.887
290.93	6.277
291.29	7.438
291.66	7.713
292.03	6.242
292.40	9.116
292.77	6.604
293.13	7.713
293.50	6.702
293.87	8.054
294.24	8.000
294.60	7.838
294.97	6.711
295.34	7.682
295.71	6.683
296.08	6.718
296.44	7.598
296.81	7.552
297.18	6.600
297.55	6.958
297.91	7.829
298.28	6.398
298.65	8.561
299.02	6.494
299.38	6.979
299.75	7.710
300.12	5.787
300.48	6.797
300.85	7.874
301.22	7.830
301.59	6.393
301.95	7.571
302.32	8.222
302.69	7.338
303.05	8.379
303.42	7.761
303.79	8.333
304.15	5.783
304.52	6.448
304.89	6.702
305.25	6.729
305.62	6.165
305.99	7.629
306.35	6.855
306.72	8.066
307.09	6.497
307.45	7.039
307.82	7.770
308.19	8.981
308.55	7.715
308.92	6.426
309.29	6.992
309.65	6.043
310.02	7.327
310.38	6.791
310.75	7.476
311.12	8.150
311.48	8.602
311.85	8.737
312.22	7.116
312.58	8.075
312.95	7.170
313.31	6.956
313.68	9.066
314.05	8.130
314.41	8.470
314.78	8.447
315.14	9.437
315.51	8.680
315.87	8.731
316.24	8.128
316.61	9.059
316.97	8.597
317.34	7.937
317.70	9.694
318.07	8.642
318.43	8.844
318.80	10.452
319.16	9.442
319.53	9.426
319.89	9.465
320.26	9.875
320.62	8.688
320.99	10.249
321.35	9.057
321.72	10.791
322.08	8.927
322.45	8.672
322.81	9.477
323.18	10.885
323.54	10.345
323.91	11.210
324.27	10.413
324.64	11.419
325.00	10.862
325.37	10.483
325.73	11.570
326.10	9.489
326.46	11.564
326.83	11.369
327.19	10.945
327.56	11.225
327.92	10.464
328.29	11.694
328.65	10.385
329.01	11.083
329.38	11.205
329.74	11.986
330.11	12.671
330.47	11.036
330.84	11.714
331.20	11.833
331.56	11.005
331.93	11.130
332.29	12.288
332.66	11.960
333.02	10.804
333.38	11.661
333.75	11.869
334.11	11.009
334.48	11.964
334.84	12.150
335.20	12.427
335.57	11.973
335.93	11.570
336.29	10.982
336.66	10.513
337.02	11.622
337.38	11.395
337.75	10.579
338.11	11.270
338.47	11.993
338.84	10.491
339.20	11.373
339.56	11.285
339.93	11.412
340.29	10.950
340.65	11.192
341.02	11.173
341.38	12.692
341.74	10.573
342.11	11.826
342.47	10.723
342.83	11.514
343.20	11.529
343.56	11.708
343.92	10.408
344.28	11.875
344.65	12.248
345.01	11.778
345.37	10.575
345.73	10.990
346.10	11.778
346.46	10.759
346.82	12.135
347.19	10.924
347.55	11.381
347.91	11.144
348.27	11.229
348.63	11.424
349.00	10.887
349.36	11.450
349.72	11.310
350.08	11.516
350.45	11.103
350.81	11.086
351.17	11.429
351.53	11.448
351.89	11.541
352.26	10.075
352.62	10.373
352.98	10.916
353.34	10.456
353.70	10.863
354.07	11.028
354.43	11.162
354.79	10.471
355.15	11.185
355.51	12.427
355.87	10.845
356.24	10.342
356.60	10.643
356.96	10.007
357.32	9.517
357.68	11.347
358.04	10.180
358.40	9.851
358.77	11.696
359.13	10.709
359.49	11.004
359.85	10.515
360.21	10.832
360.57	10.768
360.93	10.508
361.29	11.158
361.66	10.427
362.02	11.552
362.38	11.244
362.74	10.964
363.10	11.692
363.46	12.050
363.82	9.943
364.18	10.345
364.54	11.757
364.90	11.371
365.26	10.276
365.62	11.133
365.98	11.232
366.35	11.275
366.71	11.088
367.07	11.705
367.43	11.359
367.79	12.276
368.15	11.104
368.51	11.028
368.87	11.692
369.23	11.333
369.59	11.202
369.95	11.427
370.31	11.816
370.67	9.904
371.03	11.219
371.39	11.081
371.75	11.554
372.11	11.111
372.47	11.781
372.83	11.387
373.19	11.941
373.55	11.382
373.91	10.702
374.27	11.643
374.63	11.502
374.99	12.135
375.35	12.078
375.71	11.742
376.07	12.008
376.42	11.713
376.78	12.119
377.14	11.853
377.50	12.018
377.86	12.685
378.22	11.437
378.58	12.307
378.94	12.207
379.30	11.131
379.66	12.169
380.02	11.368
380.38	12.442
380.74	12.282
381.09	12.021
381.45	13.466
381.81	12.646
382.17	12.648
382.53	11.579
382.89	11.738
383.25	12.251
383.61	11.921
383.97	12.603
384.32	12.321
384.68	12.181
385.04	13.013
385.40	12.964
385.76	13.189
386.12	12.807
386.48	13.235
386.83	14.184
387.19	12.399
387.55	12.911
387.91	12.614
388.27	13.048
388.62	13.688
388.98	12.465
389.34	13.553
389.70	13.539
390.06	12.729
390.42	12.952
390.77	13.546
391.13	13.263
391.49	13.466
391.85	12.788
392.20	12.693
392.56	14.353
392.92	13.195
393.28	13.212
393.64	13.352
393.99	13.364
394.35	13.668
394.71	13.653
395.07	13.234
395.42	13.021
395.78	13.955
396.14	13.012
396.50	13.064
396.85	13.476
397.21	13.136
397.57	13.958
397.92	13.860
398.28	12.710
398.64	13.444
399.00	13.141
399.35	13.613
399.71	12.826
400.07	13.307
400.42	13.329
400.78	13.542
401.14	13.318
401.49	13.587
401.85	13.779
402.21	13.905
402.57	13.908
402.92	13.061
403.28	12.119
403.63	12.589
403.99	12.589
404.35	13.928
404.70	13.428
405.06	13.478
405.42	12.705
405.77	13.795
406.13	13.614
406.49	13.176
406.84	12.909
407.20	13.583
407.55	12.720
407.91	13.199
408.27	13.251
408.62	13.264
408.98	13.813
409.34	13.138
409.69	13.164
410.05	13.072
410.40	13.689
410.76	12.002
411.11	13.384
411.47	13.821
411.83	13.521
412.18	13.193
412.54	13.574
412.89	13.679
413.25	13.262
413.60	13.268
413.96	13.228
414.31	12.748
414.67	13.715
415.03	12.369
415.38	12.799
415.74	13.500
416.09	12.770
416.45	12.398
416.80	12.913
417.16	12.580
417.51	13.263
417.87	12.753
418.22	12.934
418.58	13.135
418.93	13.271
419.29	13.009
419.64	13.265
420.00	13.294
420.35	12.970
420.71	12.464
421.06	12.133
421.42	12.500
421.77	12.924
422.12	13.636
422.48	12.903
422.83	13.527
423.19	13.634
423.54	13.551
423.90	13.197
424.25	13.547
424.61	12.629
424.96	13.344
425.31	13.535
425.67	13.366
426.02	12.452
426.38	12.859
426.73	13.281
427.09	14.245
427.44	11.688
427.79	13.378
428.15	12.900
428.50	13.539
428.85	13.146
429.21	13.298
429.56	12.833
429.92	13.120
430.27	13.253
430.62	13.092
430.98	13.232
431.33	13.343
431.68	13.410
432.04	13.459
432.39	12.748
432.74	13.413
433.10	13.413
433.45	12.876
433.80	13.627
434.16	13.326
434.51	13.155
434.86	13.464
435.22	13.390
435.57	13.738
435.92	13.077
436.28	12.969
436.63	13.435
436.98	12.131
437.34	12.852
437.69	13.374
438.04	13.273
438.39	13.096
438.75	14.001
439.10	14.271
439.45	13.807
439.81	13.446
440.16	13.083
440.51	13.768
440.86	13.285
441.22	13.344
441.57	13.260
441.92	12.997
442.27	13.788
442.63	13.711
442.98	13.554
443.33	12.888
443.68	13.627
444.03	14.064
444.39	14.424
444.74	14.497
445.09	14.394
445.44	13.383
445.79	14.751
446.15	14.183
446.50	14.470
446.85	14.300
447.20	14.072
447.55	13.546
447.91	13.613
448.26	13.795
448.61	13.709
448.96	14.270
449.31	14.846
449.66	13.780
450.02	14.030
450.37	15.397
450.72	13.671
451.07	14.066
451.42	13.923
451.77	13.785
452.12	14.278
452.47	12.834
452.83	14.245
453.18	13.543
453.53	13.785
453.88	13.528
454.23	14.181
454.58	14.335
454.93	14.199
455.28	14.449
455.63	14.156
455.98	14.078
456.34	14.252
456.69	13.815
457.04	14.835
457.39	13.969
457.74	14.094
458.09	13.509
458.44	14.601
458.79	13.564
459.14	14.106
459.49	14.092
459.84	14.166
460.19	13.215
460.54	14.026
460.89	13.976
461.24	14.080
461.59	14.555
461.94	13.349
462.29	13.998
462.64	14.363
462.99	14.564
463.34	14.406
463.69	14.009
464.04	14.619
464.39	13.733
464.74	13.740
465.09	13.899
465.44	14.378
465.79	14.331
466.14	14.435
466.49	14.316
466.84	14.601
467.19	13.873
467.54	14.512
467.89	13.333
468.24	14.460
468.59	13.492
468.94	12.762
469.29	13.797
469.64	13.732
469.99	13.193
470.34	14.171
470.68	14.286
471.03	14.342
471.38	14.192
471.73	14.304
472.08	14.721
472.43	14.389
472.78	14.861
473.13	13.717
473.48	13.474
473.83	14.335
474.17	14.009
474.52	14.311
474.87	14.729
475.22	14.704
475.57	14.071
475.92	14.087
476.27	14.963
476.61	13.967
476.96	14.286
477.31	14.554
477.66	14.953
478.01	14.235
478.36	14.506
478.70	14.532
479.05	13.906
479.40	14.166
479.75	14.649
480.10	13.738
480.45	14.631
480.79	14.467
481.14	14.660
481.49	14.085
481.84	14.578
482.19	14.667
482.53	15.216
482.88	14.311
483.23	13.917
483.58	13.799
483.92	14.096
484.27	14.479
484.62	14.068
484.97	13.958
485.31	13.939
485.66	13.368
486.01	13.241
486.36	14.082
486.70	14.611
487.05	14.996
487.40	14.511
487.75	14.809
488.09	14.708
488.44	14.427
488.79	14.536
489.13	14.555
489.48	13.942
489.83	14.044
490.17	13.730
490.52	13.916
490.87	13.959
491.22	13.951
491.56	14.420
491.91	14.522
492.26	14.236
492.60	14.517
492.95	14.217
493.30	14.388
493.64	13.798
493.99	14.474
494.34	13.807
494.68	13.576
495.03	14.229
495.37	14.470
495.72	13.787
496.07	14.592
496.41	14.157
496.76	14.554
497.11	13.631
497.45	14.502
497.80	14.260
498.14	14.240
498.49	14.430
498.84	15.356
499.18	14.710
499.53	14.395
499.87	14.725
500.22	13.758
500.56	14.080
500.91	13.867
501.26	14.318
501.60	14.096
501.95	14.112
502.29	14.436
502.64	14.692
502.98	14.150
503.33	13.952
503.67	13.607
504.02	14.011
504.36	14.611
504.71	14.148
505.06	14.598
505.40	14.717
505.75	14.663
506.09	14.779
506.44	15.181
506.78	15.183
507.13	14.799
507.47	14.211
507.82	14.489
508.16	14.675
508.51	13.737
508.85	15.210
509.19	15.017
509.54	14.841
509.88	14.279
510.23	15.056
510.57	14.935
510.92	15.239
511.26	14.238
511.61	14.486
511.95	14.007
512.30	15.313
512.64	14.493
512.98	14.957
513.33	15.272
513.67	14.635
514.02	14.972
514.36	14.578
514.70	14.740
515.05	14.859
515.39	14.226
515.74	14.793
516.08	14.950
516.42	15.385
516.77	14.143
517.11	15.369
517.46	15.376
517.80	15.393
518.14	15.941
518.49	14.859
518.83	15.061
519.17	14.001
519.52	15.252
519.86	14.731
520.20	15.069
520.55	14.896
520.89	14.752
521.23	15.243
521.58	15.650
521.92	15.127
522.26	14.548
522.61	15.509
522.95	15.225
523.29	15.402
523.64	15.583
523.98	15.801
524.32	15.244
524.66	15.367
525.01	14.836
525.35	15.049
525.69	15.197
526.04	14.696
526.38	14.655
526.72	15.110
527.06	14.897
527.41	14.636
527.75	15.736
528.09	15.466
528.43	14.565
528.78	14.798
529.12	14.966
529.46	14.896
529.80	15.561
530.15	14.841
530.49	14.709
530.83	15.053
531.17	14.576
531.51	14.982
531.86	15.325
532.20	15.427
532.54	15.081
532.88	14.970
533.22	15.793
533.57	15.003
533.91	15.993
534.25	14.754
534.59	14.828
534.93	13.809
535.27	15.380
535.62	15.748
535.96	14.817
536.30	14.571
536.64	15.075
536.98	15.191
537.32	15.247
537.66	15.908
538.01	14.622
538.35	14.068
538.69	14.724
539.03	15.021
539.37	15.135
539.71	14.474
540.05	15.468
540.39	14.670
540.73	14.026
541.07	15.757
541.42	14.589
541.76	14.294
542.10	14.415
542.44	13.398
542.78	15.024
543.12	14.839
543.46	14.469
543.80	14.568
544.14	14.004
544.48	15.248
544.82	15.739
545.16	14.431
545.50	14.500
545.84	14.697
546.18	15.370
546.52	14.522
546.86	14.528
547.20	13.995
547.54	13.546
547.88	14.286
548.22	14.386
548.56	14.043
548.90	14.269
549.24	15.137
549.58	14.511
549.92	14.349
550.26	14.498
550.60	15.124
550.94	14.942
551.28	14.587
551.62	14.892
551.96	15.210
552.30	14.404
552.64	14.375
552.98	14.535
553.32	14.727
553.66	14.984
554.00	14.817
554.34	14.994
554.68	14.655
555.02	14.520
555.36	14.398
555.69	13.645
556.03	15.006
556.37	14.456
556.71	15.282
557.05	14.505
557.39	14.333
557.73	14.729
558.07	12.914
558.41	14.219
558.75	15.822
559.08	14.892
559.42	14.540
559.76	14.722
560.10	15.070
560.44	14.710
560.78	14.563
561.12	13.608
561.45	15.085
561.79	14.469
562.13	15.280
562.47	14.303
562.81	13.734
563.15	14.710
563.48	14.667
563.82	15.236
564.16	13.568
564.50	14.362
564.84	14.513
565.17	15.000
565.51	13.579
565.85	14.014
566.19	13.191
566.52	14.336
566.86	14.941
567.20	13.431
567.54	14.180
567.88	13.914
568.21	14.377
568.55	14.964
568.89	13.981
569.23	14.280
569.56	13.834
569.90	14.220
570.24	14.435
570.57	13.855
570.91	13.962
571.25	14.579
571.59	13.999
571.92	14.072
572.26	14.505
572.60	14.414
572.93	14.278
573.27	13.965
573.61	13.817
573.95	13.717
574.28	14.039
574.62	13.552
574.96	13.719
575.29	13.836
575.63	14.207
575.97	13.940
576.30	14.113
576.64	13.457
576.98	13.918
577.31	13.907
577.65	13.785
577.98	13.742
578.32	13.789
578.66	13.871
578.99	13.721
579.33	14.184
579.67	13.735
580.00	13.688
580.34	13.634
580.67	13.460
581.01	14.388
581.35	13.929
581.68	13.771
582.02	14.023
582.35	14.058
582.69	14.283
583.02	14.166
583.36	14.089
583.70	13.997
584.03	13.703
584.37	14.317
584.70	13.716
585.04	13.787
585.37	13.986
585.71	14.002
586.04	13.959
586.38	14.020
586.72	13.261
587.05	13.942
587.39	13.937
587.72	14.163
588.06	14.265
588.39	13.991
588.73	14.339
589.06	14.419
589.40	14.290
589.73	14.235
590.07	14.390
590.40	14.706
590.73	14.281
591.07	14.743
591.40	14.308
591.74	13.752
592.07	14.089
592.41	14.235
592.74	13.845
593.08	14.108
593.41	14.319
593.75	14.339
594.08	14.329
594.41	14.583
594.75	13.916
595.08	13.493
595.42	13.929
595.75	14.853
596.09	14.165
596.42	14.547
596.75	14.473
597.09	14.424
597.42	13.667
597.75	14.191
598.09	13.968
598.42	14.395
598.76	13.833
599.09	13.884
599.42	13.376
599.76	13.866
600.09	14.515
600.42	14.181
600.76	13.970
601.09	14.305
601.42	13.766
601.76	14.414
602.09	13.653
602.42	13.959
602.76	13.948
603.09	13.840
603.42	13.801
603.76	13.777
604.09	14.230
604.42	14.202
604.76	13.889
605.09	14.838
605.42	13.995
605.75	13.808
606.09	13.251
606.42	14.046
606.75	13.156
607.09	13.825
607.42	13.719
607.75	13.716
608.08	13.575
608.42	13.906
608.75	14.262
609.08	13.837
609.41	13.851
609.75	13.393
610.08	14.512
610.41	13.934
610.74	13.866
611.07	14.165
611.41	14.305
611.74	13.995
612.07	13.978
612.40	13.926
612.73	13.643
613.07	13.741
613.40	14.533
613.73	14.299
614.06	14.033
614.39	13.994
614.72	13.925
615.06	13.090
615.39	13.968
615.72	13.649
616.05	13.987
616.38	14.228
616.71	14.054
617.05	13.951
617.38	13.751
617.71	14.201
618.04	13.977
618.37	14.699
618.70	14.140
619.03	13.859
619.36	12.947
619.69	13.325
620.03	14.062
620.36	13.804
620.69	13.510
621.02	13.451
621.35	13.643
621.68	13.883
622.01	13.310
622.34	12.343
622.67	13.402
623.00	12.483
623.33	13.603
623.66	13.943
623.99	13.430
624.32	13.970
624.65	13.256
624.99	13.654
625.32	14.631
625.65	14.093
625.98	13.831
626.31	13.678
626.64	13.993
626.97	13.278
627.30	12.225
627.63	13.053
627.96	14.565
628.29	13.385
628.62	12.678
628.95	14.636
629.28	13.169
629.61	14.057
629.94	13.389
630.26	12.203
630.59	13.817
630.92	12.294
631.25	14.222
631.58	13.559
631.91	12.652
632.24	12.488
632.57	13.662
632.90	13.741
633.23	13.469
633.56	13.673
633.89	12.913
634.22	13.514
634.55	13.883
634.88	12.662
635.20	14.639
635.53	13.220
635.86	14.193
636.19	14.316
636.52	12.975
636.85	12.768
637.18	12.370
637.51	13.441
637.83	15.282
638.16	14.286
638.49	12.089
638.82	13.078
639.15	12.600
639.48	14.088
639.81	13.395
640.13	13.545
640.46	12.970
640.79	12.255
641.12	13.789
641.45	13.049
641.77	14.763
642.10	14.829
642.43	12.367
642.76	13.550
643.09	13.562
643.41	14.146
643.74	11.310
644.07	14.207
644.40	11.598
644.73	12.482
645.05	12.041
645.38	14.101
645.71	12.463
646.04	13.486
646.36	10.803
646.69	11.963
647.02	13.150
647.35	13.435
647.67	12.882
648.00	13.217
648.33	13.514
648.66	12.126
648.98	13.333
649.31	12.991
649.64	13.280
649.96	12.202
650.29	10.987
650.62	13.154
650.94	10.060
651.27	13.772
651.60	12.719
651.92	12.766
652.25	13.748
652.58	11.279
652.90	11.192
653.23	13.099
653.56	11.840
653.88	14.466
654.21	13.380
654.54	10.983
654.86	11.615
655.19	12.547
655.52	13.966
655.84	13.161
656.17	15.252
656.49	21.798
656.82	24.400
657.15	19.156
657.47	14.545
657.80	10.967
658.13	8.523
658.45	11.355
658.78	13.206
659.10	13.279
659.43	13.285
659.75	11.877
660.08	11.148
660.41	11.745
660.73	10.832
661.06	12.188
661.38	12.759
661.71	11.552
662.03	13.404
662.36	14.132
662.68	12.946
663.01	13.628
663.33	13.611
663.66	14.103
663.98	12.308
664.31	12.008
664.63	12.331
664.96	12.886
665.28	11.434
665.61	15.734
665.93	10.000
666.26	13.799
666.58	11.808
666.91	13.832
667.23	13.143
667.56	12.623
667.88	12.800
668.21	11.523
668.53	10.039
668.86	12.181
669.18	12.424
669.50	12.525
669.83	11.400
670.15	9.646
670.48	12.500
670.80	11.090
671.13	12.665
671.45	11.220
671.77	9.228
672.10	10.500
672.42	12.621
672.75	11.521
673.07	13.433
673.39	12.173
673.72	10.906
674.04	13.621
674.37	12.522
674.69	11.287
675.01	9.714
675.34	11.641
675.66	11.423
675.98	12.873
676.31	13.281
676.63	11.217
676.95	13.027
677.28	11.492
677.60	8.465
677.92	10.940
678.25	12.249
678.57	12.989
678.89	13.823
679.22	9.756
679.54	10.940
679.86	9.492
680.18	12.106
680.51	12.107
680.83	12.111
681.15	10.517
681.48	12.435
681.80	12.435
682.12	10.839
682.44	11.853
682.77	11.702
683.09	13.447
683.41	11.822
683.73	9.867
684.06	9.963
684.38	8.766
684.70	13.285
685.02	14.114
685.34	10.483
685.67	11.199
685.99	10.123
686.31	10.174
686.63	11.532
686.96	10.410
687.28	12.704
687.60	10.943
687.92	9.968
688.24	12.187
688.56	9.483
688.89	11.978
689.21	11.155
689.53	8.039
689.85	10.059
690.17	9.815
690.49	12.948
690.82	10.297
691.14	11.336
691.46	11.663
691.78	13.628
692.10	10.826
692.42	7.857
692.74	11.615
693.06	8.889
693.39	11.385
693.71	9.398
694.03	11.896
694.35	11.429
694.67	10.883
694.99	11.702
695.31	11.038
695.63	10.173
695.95	10.145
696.27	11.209
696.59	13.496
696.91	11.036
697.23	10.549
697.56	9.980
697.88	9.659
698.20	9.793
698.52	14.394
698.84	11.435
699.16	12.245
699.48	11.715
699.80	9.787
700.12	10.262
700.44	11.751
700.76	11.639
701.08	12.833
701.40	10.363
701.72	12.687
702.04	11.497
702.36	5.497
702.68	8.557
703.00	7.579
703.32	9.606
703.64	12.714
703.96	10.024
704.28	10.565
704.60	13.165
704.91	9.439
705.23	6.575
705.55	10.864
705.87	10.303
706.19	8.589
706.51	6.627
706.83	6.052
707.15	8.730
707.47	10.047
707.79	11.135
708.11	8.475
708.43	9.677
708.74	7.366
709.06	10.441
709.38	12.441
709.70	12.903
710.02	10.336
710.34	12.500
710.66	6.425
710.98	8.743
711.29	7.692
711.61	8.757
711.93	11.396
712.25	7.027
712.57	13.274
712.89	12.647
713.20	8.580
713.52	12.139
713.84	8.357
714.16	8.684
714.48	10.825
714.80	12.468
715.11	7.612
715.43	8.488
715.75	10.526
716.07	9.392
716.39	10.929
716.70	10.241
717.02	10.492
717.34	8.711
717.66	9.396
717.97	7.877
718.29	5.155
718.61	7.895
718.93	9.709
719.24	10.248
719.56	9.509
719.88	7.508
720.20	9.032
720.51	9.627
720.83	10.000
721.15	7.895
721.46	4.452
721.78	8.000
722.10	7.120
722.42	6.376
722.73	9.032
723.05	9.474
723.37	9.375
723.68	12.186
724.00	9.386
724.32	7.394
724.63	8.741
724.95	11.348
725.27	11.150
725.58	8.834
725.90	11.379
726.22	10.972
726.53	8.442
726.85	13.836
727.16	10.876
727.48	11.009
727.80	8.609
728.11	8.481
728.43	11.111
728.74	6.020
729.06	9.603
729.38	8.442
729.69	7.047
730.01	9.226
730.32	7.273
730.64	11.635
730.96	10.248
731.27	10.894
731.59	10.165
731.90	10.390
732.22	12.240
732.53	8.564
732.85	14.000
733.16	9.384
733.48	6.098
733.80	8.635
734.11	8.832
734.43	9.189
734.74	10.886
735.06	7.538
735.37	8.649
735.69	8.919
736.00	12.712
736.32	8.625
736.63	9.167
736.95	5.172
737.26	8.788
737.58	5.152
737.89	8.529
738.21	6.422
738.52	7.541
738.83	8.874
739.15	8.865
739.46	10.884
739.78	10.736
740.09	7.163
740.41	11.370
740.72	7.000
741.04	11.003
741.35	10.526
741.66	5.098
741.98	6.557
742.29	5.439
742.61	7.018
742.92	5.000
743.23	11.191
743.55	10.078
743.86	8.000
744.18	5.372
744.49	5.907
744.80	8.642
745.12	5.485
745.43	8.130
745.74	4.310
746.06	10.169
746.37	10.127
746.68	14.228
747.00	7.500
747.31	8.155
747.62	11.923
747.94	8.907
748.25	9.639
748.56	3.673
748.88	5.983
749.19	11.207
749.50	7.792
749.82	6.426
750.13	12.100
750.44	5.667
750.75	8.308
751.07	10.769
751.38	7.256
751.69	8.626
752.01	3.560
752.32	11.438
752.63	5.442
752.94	9.343
753.26	7.063
753.57	5.556
753.88	5.993
754.19	9.968
754.51	9.003
754.82	6.752
755.13	10.164
755.44	7.167
755.75	3.947
756.07	9.552
756.38	7.862
756.69	9.337
757.00	9.695
757.31	8.743
757.63	5.882
757.94	8.451
758.25	11.061
758.56	9.804
758.87	9.545
759.18	7.733
759.50	9.348
759.81	9.804
760.12	10.512
760.43	9.635
760.74	8.867
761.05	6.750
761.36	8.916
761.67	9.137
761.99	7.297
762.30	8.232
762.61	6.271
762.92	8.955
763.23	10.487
763.54	4.317
763.85	6.529
764.16	8.081
764.47	10.563
764.78	7.029
765.10	7.918
765.41	12.051
765.72	7.407
766.03	11.017
766.34	5.016
766.65	2.091
766.96	5.976
767.27	7.373
767.58	0.995
767.89	8.654
768.20	11.268
768.51	5.093
768.82	10.442
769.13	7.576
769.44	3.462
769.75	8.664
770.06	10.000
770.37	9.843
770.68	3.830
770.99	-0.810
771.30	12.593
771.61	7.605
771.92	7.778
772.23	9.717
772.54	3.704
772.85	12.903
773.16	10.000
773.47	-1.587
773.78	1.081
774.09	2.273
774.39	5.000
774.70	7.650
775.01	-2.439
775.32	0.588
775.63	6.135
775.94	-0.637
776.25	5.161
776.56	9.615
776.87	3.401
777.18	4.828
777.48	6.294
777.79	5.405
778.10	-1.471
778.41	6.250
778.72	8.276
779.03	5.556
779.34	3.030
779.65	8.290
779.95	11.667
780.26	6.250
780.57	4.516
780.88	6.522
781.19	9.032
781.50	11.765
781.80	7.527
782.11	8.466
782.42	1.010
782.73	2.994
783.04	6.704
783.34	0.606
783.65	7.190
783.96	9.317
784.27	10.714
784.57	3.311
784.88	3.571
785.19	0.000
785.50	3.150
785.81	3.008
786.11	7.692
786.42	2.158
786.73	2.878
787.04	8.271
787.34	-1.639
787.65	3.200
787.96	2.239
788.26	7.692
788.57	8.392
788.88	10.526
789.19	11.111
789.49	-0.685
789.80	4.255
790.11	4.724
790.41	3.125
790.72	6.780
791.03	0.971
791.33	7.826
791.64	12.281
791.95	2.679
792.25	-3.810
792.56	8.036
792.87	-1.042
793.17	7.143
793.48	-3.125
793.79	-9.639
794.09	-6.422
794.40	-4.587
794.70	4.762
795.01	-2.597
795.32	15.753
795.62	1.408
795.93	1.515
796.23	1.639
796.54	6.250
796.85	-2.128
797.15	-6.522
797.46	-6.849
797.76	-2.500
798.07	-1.087
798.37	-12.371
798.68	-9.091
798.99	3.448
799.29	-10.112
799.60	10.638
799.90	2.410
800.21	-9.231
800.51	-2.985
800.82	-5.882
801.12	-12.329
801.43	-27.941
801.73	-16.949
802.04	-9.091
802.34	-13.333
802.65	-8.475
802.95	-13.433
803.26	-15.254
803.56	-2.740
803.87	0.000
804.17	-2.740
804.48	-8.772
804.78	5.556
805.09	-20.690
805.39	-2.703
805.70	-5.634
806.00	-8.537
806.30	-3.614
806.61	-8.219
806.91	4.808
807.22	-2.222
807.52	-5.747
807.83	0.000
808.13	10.843
808.43	5.618
808.74	-1.250
809.04	-10.294
809.35	-2.667
809.65	0.000
809.95	8.219
810.26	-19.298
810.56	22.414
810.86	5.882
811.17	-7.018
811.47	-8.197
811.77	-33.333
812.08	0.000
812.38	1.667
812.69	5.172
812.99	-1.887
813.29	-41.026
813.59	12.000
813.90	-3.509
814.20	-25.455
814.50	8.451
814.81	-2.564
815.11	14.754
815.41	-5.970
815.72	-3.448
816.02	1.786
816.32	0.000
816.62	-13.636
816.93	-31.111
817.23	5.556
817.53	-23.404
817.84	-9.524
818.14	-23.529
818.44	-14.286
818.74	0.000
819.04	-17.949
819.35	-40.000
819.65	-84.615
819.95	-1.887
820.25	11.111
820.56	-33.333
820.86	-21.875
821.16	-10.256
821.46	-30.233
821.76	-8.000
822.07	-12.500
822.37	-13.043
822.67	-6.383
822.97	-51.351
823.27	-25.000
823.57	-4.082
823.88	33.333
824.18	-7.500
824.48	-20.000
824.78	-32.000
825.08	3.030
825.38	-4.444
825.69	0.000
825.99	19.444
826.29	-34.286
826.59	-28.205
826.89	-20.930
827.19	-2.000
827.49	-29.412
827.79	-6.250
828.09	-43.243
828.39	0.000
828.70	-14.634
829.00	-13.953
829.30	-42.857
829.60	-23.529
829.90	-13.043
830.20	-31.429
830.50	-44.828
830.80	-44.444
831.10	-26.923
831.40	-17.647
831.70	-76.190
832.00	0.000
832.30	-164.706
832.60	-25.000
832.90	-61.538
833.20	-63.158
833.50	-95.000
833.80	-36.842
834.10	-95.238
834.40	-27.778
834.70	15.625
835.00	-40.000
835.30	-35.294
835.60	-36.667
835.90	-28.000
836.20	-68.182
836.50	-24.000
836.80	-57.576
837.10	-22.222
837.40	-40.741
837.70	-118.750
838.00	-17.857
838.30	-82.609
838.60	-51.724
838.90	-92.857
839.19	-95.652
839.49	-141.667
839.79	-78.261
840.09	-87.500
840.39	-65.000
840.69	0.000
840.99	-28.571
841.29	-6.667
841.59	-36.842
841.88	-20.513
842.18	-38.462
842.48	-100.000
842.78	-70.000
843.08	-16.667
843.38	-25.806
843.68	-77.778
843.97	-14.706
844.27	-50.000
844.57	-63.158
844.87	-180.000
845.17	-100.000
845.47	-23.810
845.76	-33.333
846.06	-122.222
846.36	-147.059
846.66	-26.923
846.96	-60.000
847.25	-88.235
847.55	-26.087
847.85	-25.000
848.15	-17.647
848.44	-72.727
848.74	14.286
849.04	-54.167
849.34	-87.500
849.63	-17.391
849.93	850.000
850.23	-60.000
850.53	0.000
850.82	-154.545
851.12	40.909
851.42	-145.455
851.71	23.077
852.01	-30.000
852.31	-76.923
852.61	-31.579
852.90	-75.000
853.20	-27.778
853.50	-133.333
853.79	-66.667
854.09	-40.909
854.39	-150.000
854.68	-25.806
854.98	-46.154
855.28	-33.333
855.57	-25.000
855.87	-28.000
856.17	-72.727
856.46	-29.630
856.76	16.667
857.05	-17.391
857.35	-25.000
857.65	-92.308
857.94	-28.571
858.24	-7.407
858.53	-8.696
858.83	-35.294
859.13	-41.176
859.42	-23.529
859.72	-21.429
860.01	-40.000
860.31	-144.444
860.60	-160.000
860.90	-60.000
861.20	-11.111
861.49	-7.692
861.79	-23.333
862.08	-38.462
862.38	-6.250
862.67	-47.059
862.97	-68.750
863.26	-77.778
863.56	-20.000
863.85	-72.727
864.15	-16.667
864.44	-700.000
864.74	-28.571
865.03	-25.000
865.33	-140.000
865.62	-22.581
865.92	22.727
866.21	13.043
866.51	-71.429
866.80	-180.000
867.10	-91.667
867.39	-200.000
867.69	2000.000
867.98	-114.286
868.27	-35.294
868.57	-1700.000
868.86	-180.000
869.16	-52.381
869.45	-41.667
869.75	-90.909
870.04	-71.429
870.33	-41.667
870.63	-142.857
870.92	-325.000
871.22	-262.500
871.51	-154.545
871.80	-800.000
872.10	-750.000
>>>>>End Processed Spectral Data<<<<<
