SpectraSuite Data File
++++++++++++++++++++++++++++++++++++
Date: Thu May 14 14:29:56 PDT 2015
User: schluterlab
Dark Spectrum Present: Yes
Reference Spectrum Present: Yes
Number of Sampled Component Spectra: 1
Spectrometers: USB2E3373
Integration Time (usec): 3000 (USB2E3373)
Spectra Averaged: 3 (USB2E3373)
Boxcar Smoothing: 0 (USB2E3373)
Correct for Electrical Dark: No (USB2E3373)
Strobe/Lamp Enabled: No (USB2E3373)
Correct for Detector Non-linearity: No (USB2E3373)
Correct for Stray Light: No (USB2E3373)
Number of Pixels in Processed Spectrum: 2048
>>>>>Begin Processed Spectral Data<<<<<
178.53	0.000
178.91	-200.000
179.29	200.000
179.67	1600.000
180.04	71.429
180.42	-90.000
180.80	-100.000
181.18	1400.000
181.56	2300.000
181.94	-300.000
182.31	500.000
182.69	-433.333
183.07	550.000
183.45	-75.000
183.83	116.667
184.20	266.667
184.58	-900.000
184.96	275.000
185.34	211.111
185.72	240.000
186.09	-88.889
186.47	-550.000
186.85	-80.000
187.23	77.778
187.61	0.000
187.98	-200.000
188.36	-100.000
188.74	375.000
189.12	633.333
189.49	112.500
189.87	212.500
190.25	233.333
190.63	280.000
191.00	122.222
191.38	0.000
191.76	275.000
192.14	350.000
192.51	-650.000
192.89	383.333
193.27	0.000
193.65	271.429
194.02	200.000
194.40	185.714
194.78	-114.286
195.15	0.000
195.53	127.273
195.91	0.000
196.29	425.000
196.66	215.385
197.04	2100.000
197.42	242.857
197.79	100.000
198.17	125.000
198.55	157.143
198.92	211.111
199.30	200.000
199.68	72.727
200.05	150.000
200.43	1050.000
200.81	-57.143
201.18	0.000
201.56	-33.333
201.94	0.000
202.31	-366.667
202.69	111.111
203.07	-2400.000
203.44	177.778
203.82	-75.000
204.19	216.667
204.57	250.000
204.95	137.500
205.32	700.000
205.70	-175.000
206.08	150.000
206.45	133.333
206.83	-160.000
207.20	283.333
207.58	140.000
207.96	133.333
208.33	466.667
208.71	-125.000
209.08	333.333
209.46	0.000
209.84	-16.667
210.21	-700.000
210.59	-900.000
210.96	-366.667
211.34	400.000
211.71	212.500
212.09	1100.000
212.46	0.000
212.84	-350.000
213.22	300.000
213.59	500.000
213.97	140.000
214.34	300.000
214.72	-216.667
215.09	100.000
215.47	0.000
215.84	-228.571
216.22	-300.000
216.59	280.000
216.97	400.000
217.34	475.000
217.72	237.500
218.09	150.000
218.47	350.000
218.84	0.000
219.22	-80.000
219.59	123.529
219.97	60.000
220.34	-250.000
220.72	166.667
221.09	192.308
221.47	600.000
221.84	170.000
222.22	85.714
222.59	0.000
222.97	237.500
223.34	140.000
223.72	700.000
224.09	350.000
224.46	275.000
224.84	400.000
225.21	85.714
225.59	175.000
225.96	475.000
226.34	107.692
226.71	-250.000
227.08	250.000
227.46	146.667
227.83	600.000
228.21	110.526
228.58	-162.500
228.95	-750.000
229.33	141.667
229.70	110.000
230.08	94.737
230.45	-110.000
230.82	633.333
231.20	185.714
231.57	108.333
231.95	154.545
232.32	190.909
232.69	150.000
233.07	375.000
233.44	94.118
233.81	160.000
234.19	144.444
234.56	104.545
234.93	75.862
235.31	100.000
235.68	138.889
236.05	25.000
236.43	119.231
236.80	128.000
237.17	62.963
237.55	103.030
237.92	80.000
238.29	87.097
238.67	84.091
239.04	86.111
239.41	73.810
239.79	63.043
240.16	53.704
240.53	67.391
240.91	37.255
241.28	50.820
241.65	64.179
242.02	62.162
242.40	43.077
242.77	58.667
243.14	45.122
243.51	38.158
243.89	50.000
244.26	40.594
244.63	41.176
245.00	42.991
245.38	37.719
245.75	34.513
246.12	44.444
246.49	36.434
246.87	45.714
247.24	41.060
247.61	33.553
247.98	38.255
248.36	35.185
248.73	35.583
249.10	28.415
249.47	38.308
249.84	39.791
250.22	30.052
250.59	32.778
250.96	32.273
251.33	31.122
251.70	29.487
252.08	32.083
252.45	33.607
252.82	28.099
253.19	29.688
253.56	33.080
253.94	28.846
254.31	31.818
254.68	33.566
255.05	32.248
255.42	30.612
255.79	30.421
256.16	29.470
256.54	31.457
256.91	33.443
257.28	33.443
257.65	28.025
258.02	28.614
258.39	29.060
258.76	35.474
259.14	35.057
259.51	33.718
259.88	29.462
260.25	30.833
260.62	31.507
260.99	34.699
261.36	31.367
261.73	32.095
262.10	33.516
262.47	29.759
262.85	31.818
263.22	30.390
263.59	26.579
263.96	31.458
264.33	30.435
264.70	32.593
265.07	30.788
265.44	33.333
265.81	28.241
266.18	30.612
266.55	29.241
266.92	29.385
267.29	31.947
267.66	31.486
268.03	29.694
268.40	30.898
268.77	28.474
269.14	31.057
269.51	28.947
269.88	28.279
270.25	29.577
270.62	31.857
270.99	29.495
271.36	29.307
271.73	30.059
272.10	29.860
272.47	30.862
272.84	27.309
273.21	31.062
273.58	26.210
273.95	30.385
274.32	28.707
274.69	29.014
275.06	32.784
275.43	26.802
275.80	28.748
276.17	26.667
276.54	29.104
276.91	28.623
277.28	26.763
277.65	27.289
278.02	27.390
278.39	29.529
278.76	26.889
279.13	28.014
279.50	29.038
279.87	28.801
280.23	24.472
280.60	28.305
280.97	29.770
281.34	25.637
281.71	30.118
282.08	29.236
282.45	27.332
282.82	26.688
283.19	26.979
283.56	25.574
283.92	27.477
284.29	27.172
284.66	30.049
285.03	24.038
285.40	26.893
285.77	27.245
286.14	26.260
286.51	26.941
286.87	26.856
287.24	26.958
287.61	27.205
287.98	23.716
288.35	26.036
288.72	27.367
289.08	26.940
289.45	24.112
289.82	24.699
290.19	25.862
290.56	24.085
290.93	23.966
291.29	24.518
291.66	23.416
292.03	23.066
292.40	24.354
292.77	24.394
293.13	24.899
293.50	22.996
293.87	22.685
294.24	24.267
294.60	25.032
294.97	21.208
295.34	23.816
295.71	21.942
296.08	21.964
296.44	20.098
296.81	22.899
297.18	21.420
297.55	21.226
297.91	21.590
298.28	22.275
298.65	22.235
299.02	21.251
299.38	21.396
299.75	21.379
300.12	21.296
300.48	21.544
300.85	21.372
301.22	20.582
301.59	19.977
301.95	20.565
302.32	20.667
302.69	19.825
303.05	20.457
303.42	19.956
303.79	20.833
304.15	21.136
304.52	19.873
304.89	19.267
305.25	20.807
305.62	21.630
305.99	20.206
306.35	19.556
306.72	19.235
307.09	20.406
307.45	21.014
307.82	20.888
308.19	19.374
308.55	19.961
308.92	20.935
309.29	20.498
309.65	20.078
310.02	20.594
310.38	21.752
310.75	20.583
311.12	20.230
311.48	20.723
311.85	20.703
312.22	20.209
312.58	20.657
312.95	19.790
313.31	20.958
313.68	19.963
314.05	22.313
314.41	21.767
314.78	21.253
315.14	20.599
315.51	21.976
315.87	22.322
316.24	22.648
316.61	22.114
316.97	21.448
317.34	20.635
317.70	22.358
318.07	22.046
318.43	21.429
318.80	23.746
319.16	22.661
319.53	21.765
319.89	20.684
320.26	22.954
320.62	22.606
320.99	22.438
321.35	21.072
321.72	23.163
322.08	22.362
322.45	22.674
322.81	24.458
323.18	23.186
323.54	24.224
323.91	24.021
324.27	23.408
324.64	23.174
325.00	23.549
325.37	23.342
325.73	24.545
326.10	24.655
326.46	24.674
326.83	24.740
327.19	24.016
327.56	24.269
327.92	23.289
328.29	23.145
328.65	24.121
329.01	24.027
329.38	26.032
329.74	26.284
330.11	25.856
330.47	24.768
330.84	24.548
331.20	25.750
331.56	25.303
331.93	25.523
332.29	26.271
332.66	24.668
333.02	25.544
333.38	24.497
333.75	25.253
334.11	25.605
334.48	25.495
334.84	25.828
335.20	25.357
335.57	25.717
335.93	25.785
336.29	24.958
336.66	25.315
337.02	24.916
337.38	25.510
337.75	26.446
338.11	25.315
338.47	25.227
338.84	25.635
339.20	25.190
339.56	25.453
339.93	25.287
340.29	25.443
340.65	24.980
341.02	24.980
341.38	26.758
341.74	25.182
342.11	24.940
342.47	25.179
342.83	25.201
343.20	25.920
343.56	25.662
343.92	24.900
344.28	24.922
344.65	25.736
345.01	25.507
345.37	26.516
345.73	26.033
346.10	26.209
346.46	25.396
346.82	25.094
347.19	26.203
347.55	26.100
347.91	24.294
348.27	25.417
348.63	26.047
349.00	25.578
349.36	26.022
349.72	25.893
350.08	24.666
350.45	25.856
350.81	25.038
351.17	26.617
351.53	25.095
351.89	25.968
352.26	24.403
352.62	25.224
352.98	24.962
353.34	24.869
353.70	25.116
354.07	24.292
354.43	26.120
354.79	25.355
355.15	25.828
355.51	26.608
355.87	25.280
356.24	26.160
356.60	24.982
356.96	25.574
357.32	25.502
357.68	24.597
358.04	25.449
358.40	25.149
358.77	25.731
359.13	25.406
359.49	24.981
359.85	24.511
360.21	25.179
360.57	24.264
360.93	25.458
361.29	25.333
361.66	25.416
362.02	25.539
362.38	26.283
362.74	26.327
363.10	25.997
363.46	25.970
363.82	24.929
364.18	26.460
364.54	25.450
364.90	26.020
365.26	24.966
365.62	25.533
365.98	25.800
366.35	25.705
366.71	26.463
367.07	25.981
367.43	24.754
367.79	26.211
368.15	26.823
368.51	26.658
368.87	25.931
369.23	26.933
369.59	26.230
369.95	25.896
370.31	26.469
370.67	26.066
371.03	26.247
371.39	26.461
371.75	25.997
372.11	26.558
372.47	25.728
372.83	26.571
373.19	26.351
373.55	26.152
373.91	25.153
374.27	25.809
374.63	26.725
374.99	26.857
375.35	26.753
375.71	27.032
376.07	26.210
376.42	27.078
376.78	26.476
377.14	26.700
377.50	26.882
377.86	27.771
378.22	26.527
378.58	26.813
378.94	27.876
379.30	26.714
379.66	27.572
380.02	27.351
380.38	26.671
380.74	26.592
381.09	27.991
381.45	27.045
381.81	28.571
382.17	27.316
382.53	27.719
382.89	27.483
383.25	28.253
383.61	27.894
383.97	27.680
384.32	28.888
384.68	26.624
385.04	28.687
385.40	28.403
385.76	28.546
386.12	27.469
386.48	28.647
386.83	29.082
387.19	28.100
387.55	28.110
387.91	27.740
388.27	28.176
388.62	27.950
388.98	27.806
389.34	28.403
389.70	28.356
390.06	28.242
390.42	28.494
390.77	28.958
391.13	28.815
391.49	28.925
391.85	29.394
392.20	29.300
392.56	29.002
392.92	29.226
393.28	29.464
393.64	28.547
393.99	30.273
394.35	29.614
394.71	29.042
395.07	27.844
395.42	29.126
395.78	29.250
396.14	29.887
396.50	29.572
396.85	29.219
397.21	29.231
397.57	28.799
397.92	29.152
398.28	29.060
398.64	29.176
399.00	28.377
399.35	29.215
399.71	28.370
400.07	29.646
400.42	29.220
400.78	29.572
401.14	29.368
401.49	29.619
401.85	29.651
402.21	29.664
402.57	30.692
402.92	29.137
403.28	28.806
403.63	29.296
403.99	29.454
404.35	29.960
404.70	29.688
405.06	29.457
405.42	29.742
405.77	29.607
406.13	29.065
406.49	29.279
406.84	29.252
407.20	30.408
407.55	29.740
407.91	30.484
408.27	28.916
408.62	30.716
408.98	29.425
409.34	29.326
409.69	29.913
410.05	29.894
410.40	30.394
410.76	30.174
411.11	30.508
411.47	30.283
411.83	30.394
412.18	31.145
412.54	30.468
412.89	29.977
413.25	30.474
413.60	29.523
413.96	31.061
414.31	29.858
414.67	31.902
415.03	30.400
415.38	31.084
415.74	30.177
416.09	30.722
416.45	28.992
416.80	30.171
417.16	31.098
417.51	29.888
417.87	30.472
418.22	30.539
418.58	31.722
418.93	31.432
419.29	30.888
419.64	30.732
420.00	30.564
420.35	30.994
420.71	30.787
421.06	30.707
421.42	31.365
421.77	30.372
422.12	30.180
422.48	30.876
422.83	31.599
423.19	31.088
423.54	31.471
423.90	32.082
424.25	31.733
424.61	30.999
424.96	30.478
425.31	32.006
425.67	31.240
426.02	31.046
426.38	31.515
426.73	31.083
427.09	33.103
427.44	31.622
427.79	30.956
428.15	32.021
428.50	32.584
428.85	32.606
429.21	32.819
429.56	32.330
429.92	31.646
430.27	31.422
430.62	32.096
430.98	32.415
431.33	31.623
431.68	31.849
432.04	32.961
432.39	32.994
432.74	33.333
433.10	33.315
433.45	32.441
433.80	32.779
434.16	32.903
434.51	32.374
434.86	33.442
435.22	32.891
435.57	33.844
435.92	32.944
436.28	33.675
436.63	33.861
436.98	32.904
437.34	33.822
437.69	33.517
438.04	33.157
438.39	34.118
438.75	32.761
439.10	34.461
439.45	33.706
439.81	34.181
440.16	35.067
440.51	35.173
440.86	33.963
441.22	33.976
441.57	34.277
441.92	33.026
442.27	33.788
442.63	33.631
442.98	34.685
443.33	34.982
443.68	35.233
444.03	34.619
444.39	34.951
444.74	35.528
445.09	35.479
445.44	34.510
445.79	35.393
446.15	34.892
446.50	35.194
446.85	35.944
447.20	35.638
447.55	35.303
447.91	34.817
448.26	34.249
448.61	34.750
448.96	36.212
449.31	34.571
449.66	34.641
450.02	35.865
450.37	35.376
450.72	36.329
451.07	35.706
451.42	35.875
451.77	34.797
452.12	36.625
452.47	35.472
452.83	36.712
453.18	35.377
453.53	35.784
453.88	35.395
454.23	36.158
454.58	36.564
454.93	35.012
455.28	36.303
455.63	34.792
455.98	36.704
456.34	36.690
456.69	36.273
457.04	36.466
457.39	36.142
457.74	36.689
458.09	34.816
458.44	37.231
458.79	35.534
459.14	35.501
459.49	36.729
459.84	37.041
460.19	35.924
460.54	37.535
460.89	37.215
461.24	35.977
461.59	36.635
461.94	35.881
462.29	36.730
462.64	36.572
462.99	37.539
463.34	37.249
463.69	37.280
464.04	37.521
464.39	37.444
464.74	36.944
465.09	36.563
465.44	36.534
465.79	37.123
466.14	35.487
466.49	37.000
466.84	36.970
467.19	36.936
467.54	37.133
467.89	36.954
468.24	36.122
468.59	37.290
468.94	37.646
469.29	36.893
469.64	36.300
469.99	38.560
470.34	37.562
470.68	39.371
471.03	39.882
471.38	37.737
471.73	38.231
472.08	37.246
472.43	37.809
472.78	39.106
473.13	37.863
473.48	38.852
473.83	37.435
474.17	37.808
474.52	38.124
474.87	38.594
475.22	38.761
475.57	37.020
475.92	37.880
476.27	37.540
476.61	37.850
476.96	37.696
477.31	38.960
477.66	39.192
478.01	38.434
478.36	37.587
478.70	37.783
479.05	38.599
479.40	38.894
479.75	38.713
480.10	37.897
480.45	38.469
480.79	38.866
481.14	38.741
481.49	38.710
481.84	38.468
482.19	37.892
482.53	38.784
482.88	39.389
483.23	40.151
483.58	37.642
483.92	37.988
484.27	38.442
484.62	38.160
484.97	37.753
485.31	37.874
485.66	36.619
486.01	34.478
486.36	34.134
486.70	34.489
487.05	35.757
487.40	36.499
487.75	37.863
488.09	37.954
488.44	38.286
488.79	39.191
489.13	38.849
489.48	38.835
489.83	38.109
490.17	38.072
490.52	38.588
490.87	38.663
491.22	38.995
491.56	38.524
491.91	38.770
492.26	38.468
492.60	38.522
492.95	38.745
493.30	39.399
493.64	38.896
493.99	38.904
494.34	38.458
494.68	38.373
495.03	39.736
495.37	39.325
495.72	38.866
496.07	39.132
496.41	38.396
496.76	39.450
497.11	39.278
497.45	39.145
497.80	39.449
498.14	39.229
498.49	39.752
498.84	39.854
499.18	39.451
499.53	39.821
499.87	39.473
500.22	39.403
500.56	39.766
500.91	39.908
501.26	39.455
501.60	39.284
501.95	39.687
502.29	39.315
502.64	39.921
502.98	38.913
503.33	38.920
503.67	40.078
504.02	39.580
504.36	40.974
504.71	39.642
505.06	40.518
505.40	40.676
505.75	39.526
506.09	40.562
506.44	40.204
506.78	40.000
507.13	40.479
507.47	41.023
507.82	40.057
508.16	40.583
508.51	40.366
508.85	40.529
509.19	41.071
509.54	41.162
509.88	40.845
510.23	40.894
510.57	42.049
510.92	41.316
511.26	40.067
511.61	40.174
511.95	40.654
512.30	40.817
512.64	39.780
512.98	41.271
513.33	41.683
513.67	40.948
514.02	41.288
514.36	41.176
514.70	41.562
515.05	42.023
515.39	41.890
515.74	42.948
516.08	42.895
516.42	42.700
516.77	41.746
517.11	42.135
517.46	42.842
517.80	44.415
518.14	42.655
518.49	43.004
518.83	41.724
519.17	42.326
519.52	41.614
519.86	42.714
520.20	42.386
520.55	42.004
520.89	43.074
521.23	43.160
521.58	43.559
521.92	42.266
522.26	42.325
522.61	43.866
522.95	42.561
523.29	43.103
523.64	42.545
523.98	42.898
524.32	44.011
524.66	42.345
525.01	42.695
525.35	42.906
525.69	42.227
526.04	43.915
526.38	42.816
526.72	42.849
527.06	43.812
527.41	42.041
527.75	43.705
528.09	43.329
528.43	42.866
528.78	41.850
529.12	42.947
529.46	41.596
529.80	42.391
530.15	42.319
530.49	43.179
530.83	43.093
531.17	43.309
531.51	43.321
531.86	42.488
532.20	44.085
532.54	43.088
532.88	42.788
533.22	43.017
533.57	42.412
533.91	41.582
534.25	42.453
534.59	42.701
534.93	41.087
535.27	43.380
535.62	42.467
535.96	44.277
536.30	42.244
536.64	43.964
536.98	43.727
537.32	44.198
537.66	43.918
538.01	43.384
538.35	42.631
538.69	42.668
539.03	42.918
539.37	42.462
539.71	42.523
540.05	42.386
540.39	43.276
540.73	42.805
541.07	43.102
541.42	41.878
541.76	41.281
542.10	43.486
542.44	42.022
542.78	42.336
543.12	43.325
543.46	42.125
543.80	41.427
544.14	42.490
544.48	41.903
544.82	42.549
545.16	41.741
545.50	42.421
545.84	42.192
546.18	42.963
546.52	42.420
546.86	43.208
547.20	42.684
547.54	42.572
547.88	41.953
548.22	41.930
548.56	43.125
548.90	42.030
549.24	42.188
549.58	44.227
549.92	43.048
550.26	43.301
550.60	42.310
550.94	43.079
551.28	44.290
551.62	42.520
551.96	42.589
552.30	43.722
552.64	42.750
552.98	41.921
553.32	42.637
553.66	42.637
554.00	43.064
554.34	42.857
554.68	42.866
555.02	44.021
555.36	43.721
555.69	41.704
556.03	43.253
556.37	42.553
556.71	42.993
557.05	42.748
557.39	43.198
557.73	43.395
558.07	42.583
558.41	43.920
558.75	44.422
559.08	43.702
559.42	42.867
559.76	42.944
560.10	43.269
560.44	42.612
560.78	44.063
561.12	42.549
561.45	42.944
561.79	42.369
562.13	42.575
562.47	42.232
562.81	42.405
563.15	42.740
563.48	42.387
563.82	42.443
564.16	42.399
564.50	41.836
564.84	41.003
565.17	41.882
565.51	41.772
565.85	42.577
566.19	42.339
566.52	42.657
566.86	41.596
567.20	40.783
567.54	41.370
567.88	40.061
568.21	41.008
568.55	40.528
568.89	40.218
569.23	40.431
569.56	38.179
569.90	38.881
570.24	38.179
570.57	38.390
570.91	37.355
571.25	37.807
571.59	37.323
571.92	37.074
572.26	37.110
572.60	37.920
572.93	38.408
573.27	37.595
573.61	37.586
573.95	36.999
574.28	36.627
574.62	36.153
574.96	35.708
575.29	35.867
575.63	36.383
575.97	36.862
576.30	36.985
576.64	36.674
576.98	36.993
577.31	36.859
577.65	36.628
577.98	35.862
578.32	35.705
578.66	35.846
578.99	35.982
579.33	36.438
579.67	36.582
580.00	36.772
580.34	36.889
580.67	36.849
581.01	36.218
581.35	35.924
581.68	35.759
582.02	35.521
582.35	35.515
582.69	35.888
583.02	36.255
583.36	36.989
583.70	38.105
584.03	37.557
584.37	37.843
584.70	38.068
585.04	36.736
585.37	36.876
585.71	36.742
586.04	36.570
586.38	36.630
586.72	36.901
587.05	37.196
587.39	37.646
587.72	37.679
588.06	36.968
588.39	37.491
588.73	37.619
589.06	37.782
589.40	39.305
589.73	38.785
590.07	38.594
590.40	38.776
590.73	38.565
591.07	39.576
591.40	38.608
591.74	39.030
592.07	39.626
592.41	38.722
592.74	38.481
593.08	37.389
593.41	37.620
593.75	36.954
594.08	37.655
594.41	37.692
594.75	37.429
595.08	37.719
595.42	38.182
595.75	38.424
596.09	39.139
596.42	38.338
596.75	39.174
597.09	39.960
597.42	39.333
597.75	39.436
598.09	39.643
598.42	39.204
598.76	37.600
599.09	38.199
599.42	37.110
599.76	38.263
600.09	38.071
600.42	37.571
600.76	37.517
601.09	37.736
601.42	38.071
601.76	38.724
602.09	38.956
602.42	38.313
602.76	38.893
603.09	38.583
603.42	38.692
603.76	38.231
604.09	38.822
604.42	39.193
604.76	38.432
605.09	38.931
605.42	39.195
605.75	38.192
606.09	38.298
606.42	37.468
606.75	38.606
607.09	38.287
607.42	38.497
607.75	38.843
608.08	38.200
608.42	39.178
608.75	39.138
609.08	38.667
609.41	39.391
609.75	39.018
610.08	39.930
610.41	39.422
610.74	38.193
611.07	38.988
611.41	39.372
611.74	39.677
612.07	39.411
612.40	40.114
612.73	39.707
613.07	39.511
613.40	39.557
613.73	39.047
614.06	39.892
614.39	39.116
614.72	39.641
615.06	39.269
615.39	38.473
615.72	39.621
616.05	39.922
616.38	40.414
616.71	40.543
617.05	38.871
617.38	39.700
617.71	39.849
618.04	40.313
618.37	41.967
618.70	40.271
619.03	40.382
619.36	41.554
619.69	41.448
620.03	41.055
620.36	39.877
620.69	41.641
621.02	42.520
621.35	44.267
621.68	43.384
622.01	41.566
622.34	40.725
622.67	41.237
623.00	40.283
623.33	42.535
623.66	40.726
623.99	40.685
624.32	41.845
624.65	40.283
624.99	42.198
625.32	41.411
625.65	42.886
625.98	41.424
626.31	43.799
626.64	42.930
626.97	42.611
627.30	43.508
627.63	42.911
627.96	43.769
628.29	42.335
628.62	43.157
628.95	43.996
629.28	43.076
629.61	45.455
629.94	41.841
630.26	42.288
630.59	43.696
630.92	43.636
631.25	44.633
631.58	45.292
631.91	45.736
632.24	45.341
632.57	44.687
632.90	45.838
633.23	45.918
633.56	45.000
633.89	44.525
634.22	46.985
634.55	46.347
634.88	45.779
635.20	45.748
635.53	44.407
635.86	45.504
636.19	46.023
636.52	45.886
636.85	43.820
637.18	44.283
637.51	44.946
637.83	46.179
638.16	46.083
638.49	46.009
638.82	46.900
639.15	45.361
639.48	47.460
639.81	44.688
640.13	46.172
640.46	43.273
640.79	45.343
641.12	46.584
641.45	45.922
641.77	49.037
642.10	47.375
642.43	47.606
642.76	46.341
643.09	47.671
643.41	48.459
643.74	48.966
644.07	47.862
644.40	47.242
644.73	47.896
645.05	49.046
645.38	50.360
645.71	48.680
646.04	47.489
646.36	47.883
646.69	47.853
647.02	53.211
647.35	48.092
647.67	49.436
648.00	50.796
648.33	48.799
648.66	48.217
648.98	45.034
649.31	46.414
649.64	47.809
649.96	44.695
650.29	45.063
650.62	45.969
650.94	49.550
651.27	44.760
651.60	46.784
651.92	46.960
652.25	48.480
652.58	44.567
652.90	47.093
653.23	46.761
653.56	47.646
653.88	48.034
654.21	46.761
654.54	45.087
654.86	47.025
655.19	42.284
655.52	37.909
655.84	30.085
656.17	37.314
656.49	53.153
656.82	60.278
657.15	48.642
657.47	37.155
657.80	28.244
658.13	23.162
658.45	31.298
658.78	39.480
659.10	40.328
659.43	41.592
659.75	44.021
660.08	45.882
660.41	46.650
660.73	47.548
661.06	49.633
661.38	50.080
661.71	47.759
662.03	49.030
662.36	49.553
662.68	51.782
663.01	47.257
663.33	51.796
663.66	49.451
663.98	50.000
664.31	51.220
664.63	50.674
664.96	50.454
665.28	46.279
665.61	50.699
665.93	47.500
666.26	49.821
666.58	49.631
666.91	50.654
667.23	48.190
667.56	49.310
667.88	51.600
668.21	47.461
668.53	48.456
668.86	47.544
669.18	49.287
669.50	51.690
669.83	51.800
670.15	49.213
670.48	49.008
670.80	48.184
671.13	51.229
671.45	53.937
671.77	48.399
672.10	45.167
672.42	46.440
672.75	44.240
673.07	43.731
673.39	44.222
673.72	49.497
674.04	47.414
674.37	48.122
674.69	46.914
675.01	50.095
675.34	47.137
675.66	46.629
675.98	46.642
676.31	48.438
676.63	49.810
676.95	47.893
677.28	46.573
677.60	50.197
677.92	47.601
678.25	49.177
678.57	46.085
678.89	46.416
679.22	46.167
679.54	47.009
679.86	43.898
680.18	46.434
680.51	45.597
680.83	44.354
681.15	46.207
681.48	46.632
681.80	45.941
682.12	47.203
682.44	45.075
682.77	47.518
683.09	45.455
683.41	47.674
683.73	48.008
684.06	45.572
684.38	46.333
684.70	46.140
685.02	49.398
685.34	45.757
685.67	43.849
685.99	45.245
686.31	43.459
686.63	45.340
686.96	43.691
687.28	46.417
687.60	46.465
687.92	42.765
688.24	43.072
688.56	44.483
688.89	46.098
689.21	48.141
689.53	47.647
689.85	44.970
690.17	47.407
690.49	47.410
690.82	48.317
691.14	46.559
691.46	46.654
691.78	48.250
692.10	45.505
692.42	43.571
692.74	46.279
693.06	45.000
693.39	46.110
693.71	42.857
694.03	46.840
694.35	45.714
694.67	47.844
694.99	45.532
695.31	46.799
695.63	48.268
695.95	46.377
696.27	47.692
696.59	48.451
696.91	44.369
697.23	45.934
697.56	42.974
697.88	46.970
698.20	45.386
698.52	46.970
698.84	46.570
699.16	47.959
699.48	45.188
699.80	45.106
700.12	46.725
700.44	49.309
700.76	48.219
701.08	49.395
701.40	49.223
701.72	49.005
702.04	50.000
702.36	47.120
702.68	45.232
703.00	45.966
703.32	46.552
703.64	47.188
703.96	50.119
704.28	47.666
704.60	47.848
704.91	48.980
705.23	51.507
705.55	49.304
705.87	55.152
706.19	51.534
706.51	51.807
706.83	47.839
707.15	44.974
707.47	47.897
707.79	44.541
708.11	41.314
708.43	40.860
708.74	44.866
709.06	46.868
709.38	47.183
709.70	46.650
710.02	47.545
710.34	50.000
710.66	47.486
710.98	48.634
711.29	48.352
711.61	46.045
711.93	50.712
712.25	49.730
712.57	54.867
712.89	50.294
713.20	47.337
713.52	50.000
713.84	45.404
714.16	44.211
714.48	45.361
714.80	46.494
715.11	48.031
715.43	45.889
715.75	44.211
716.07	46.133
716.39	49.727
716.70	49.398
717.02	49.180
717.34	45.993
717.66	48.658
717.97	48.973
718.29	51.546
718.61	45.395
718.93	45.955
719.24	46.273
719.56	47.546
719.88	42.342
720.20	46.452
720.51	45.342
720.83	43.125
721.15	50.000
721.46	45.890
721.78	48.667
722.10	44.337
722.42	50.000
722.73	44.194
723.05	48.772
723.37	49.306
723.68	50.538
724.00	48.014
724.32	44.014
724.63	53.497
724.95	48.227
725.27	48.084
725.58	45.936
725.90	48.966
726.22	42.633
726.53	48.701
726.85	46.855
727.16	46.526
727.48	45.566
727.80	49.007
728.11	48.057
728.43	50.168
728.74	46.488
729.06	47.351
729.38	47.727
729.69	45.973
730.01	44.345
730.32	42.424
730.64	43.711
730.96	46.894
731.27	44.972
731.59	45.055
731.90	42.597
732.22	41.667
732.53	42.541
732.85	45.143
733.16	41.056
733.48	41.768
733.80	42.897
734.11	42.165
734.43	42.703
734.74	43.797
735.06	41.206
735.37	44.595
735.69	44.324
736.00	42.655
736.32	41.779
736.63	43.889
736.95	43.678
737.26	48.182
737.58	42.727
737.89	46.765
738.21	39.144
738.52	41.967
738.83	44.369
739.15	48.227
739.46	49.660
739.78	45.092
740.09	44.126
740.41	41.691
740.72	43.000
741.04	43.689
741.35	47.368
741.66	49.412
741.98	51.639
742.29	48.117
742.61	47.807
742.92	46.538
743.23	50.542
743.55	47.287
743.86	48.000
744.18	47.521
744.49	45.992
744.80	44.856
745.12	48.523
745.43	47.154
745.74	44.397
746.06	49.153
746.37	52.321
746.68	49.593
747.00	48.750
747.31	50.644
747.62	48.077
747.94	47.773
748.25	45.783
748.56	45.306
748.88	46.581
749.19	52.586
749.50	47.619
749.82	46.988
750.13	48.754
750.44	43.000
750.75	45.231
751.07	44.923
751.38	45.110
751.69	46.645
752.01	44.660
752.32	47.059
752.63	45.578
752.94	46.021
753.26	43.866
753.57	42.963
753.88	44.944
754.19	45.016
754.51	45.338
754.82	40.836
755.13	43.934
755.44	44.369
755.75	43.092
756.07	46.866
756.38	40.881
756.69	43.675
757.00	38.781
757.31	39.071
757.63	40.665
757.94	39.671
758.25	40.181
758.56	36.166
758.87	40.909
759.18	39.467
759.50	43.059
759.81	43.978
760.12	42.588
760.43	37.240
760.74	40.887
761.05	39.750
761.36	40.482
761.67	41.117
761.99	44.054
762.30	45.122
762.61	37.954
762.92	43.657
763.23	47.566
763.54	43.525
763.85	42.612
764.16	43.434
764.47	41.901
764.78	46.006
765.10	40.176
765.41	41.538
765.72	39.947
766.03	45.198
766.34	39.812
766.65	44.599
766.96	47.809
767.27	52.074
767.58	55.721
767.89	48.077
768.20	46.948
768.51	45.833
768.82	42.169
769.13	42.803
769.44	40.385
769.75	44.765
770.06	45.769
770.37	46.063
770.68	44.255
770.99	40.891
771.30	46.667
771.61	44.106
771.92	41.481
772.23	48.988
772.54	38.426
772.85	45.161
773.16	51.905
773.47	46.032
773.78	47.568
774.09	56.818
774.39	51.500
774.70	54.645
775.01	53.049
775.32	37.647
775.63	48.466
775.94	45.223
776.25	55.484
776.56	46.795
776.87	60.544
777.18	52.414
777.48	53.846
777.79	54.730
778.10	44.118
778.41	46.528
778.72	53.793
779.03	53.086
779.34	49.091
779.65	44.041
779.95	47.222
780.26	44.318
780.57	47.097
780.88	53.623
781.19	49.032
781.50	47.059
781.80	43.548
782.11	44.974
782.42	36.869
782.73	46.108
783.04	45.810
783.34	42.424
783.65	45.752
783.96	46.584
784.27	50.000
784.57	54.967
784.88	45.714
785.19	48.819
785.50	52.756
785.81	54.135
786.11	47.692
786.42	40.288
786.73	51.079
787.04	48.872
787.34	49.180
787.65	40.000
787.96	43.284
788.26	56.643
788.57	52.448
788.88	44.079
789.19	41.176
789.49	41.096
789.80	51.064
790.11	56.693
790.41	52.344
790.72	48.305
791.03	58.252
791.33	51.304
791.64	51.754
791.95	54.464
792.25	57.143
792.56	46.429
792.87	54.167
793.17	53.571
793.48	41.667
793.79	49.398
794.09	49.541
794.40	43.119
794.70	48.980
795.01	43.506
795.32	41.781
795.62	54.930
795.93	51.515
796.23	45.902
796.54	43.750
796.85	48.936
797.15	44.565
797.46	46.575
797.76	55.000
798.07	51.087
798.37	48.454
798.68	54.545
798.99	58.621
799.29	58.427
799.60	48.936
799.90	60.241
800.21	66.154
800.51	50.746
800.82	47.059
801.12	54.795
801.43	50.000
801.73	66.102
802.04	62.121
802.34	65.000
802.65	83.051
802.95	64.179
803.26	81.356
803.56	50.685
803.87	58.571
804.17	63.014
804.48	56.140
804.78	66.667
805.09	60.345
805.39	71.622
805.70	50.704
806.00	59.756
806.30	46.988
806.61	53.425
806.91	45.192
807.22	48.889
807.52	49.425
807.83	62.500
808.13	53.012
808.43	50.562
808.74	55.000
809.04	36.765
809.35	60.000
809.65	50.000
809.95	60.274
810.26	57.895
810.56	72.414
810.86	63.235
811.17	61.404
811.47	50.820
811.77	62.222
812.08	61.017
812.38	53.333
812.69	55.172
812.99	56.604
813.29	43.590
813.59	58.000
813.90	71.930
814.20	54.545
814.50	64.789
814.81	55.128
815.11	59.016
815.41	56.716
815.72	62.069
816.02	64.286
816.32	64.444
816.62	79.545
816.93	73.333
817.23	81.481
817.53	80.851
817.84	73.810
818.14	117.647
818.44	79.592
818.74	77.778
819.04	56.410
819.35	68.571
819.65	53.846
819.95	56.604
820.25	80.000
820.56	54.762
820.86	96.875
821.16	64.103
821.46	37.209
821.76	50.000
822.07	53.571
822.37	58.696
822.67	51.064
822.97	64.865
823.27	85.000
823.57	65.306
823.88	111.111
824.18	85.000
824.48	93.333
824.78	100.000
825.08	103.030
825.38	80.000
825.69	80.851
825.99	100.000
826.29	45.714
826.59	82.051
826.89	62.791
827.19	32.000
827.49	94.118
827.79	77.083
828.09	56.757
828.39	93.333
828.70	75.610
829.00	41.860
829.30	92.857
829.60	88.235
829.90	58.696
830.20	60.000
830.50	96.552
830.80	133.333
831.10	119.231
831.40	82.353
831.70	100.000
832.00	90.323
832.30	64.706
832.60	129.167
832.90	200.000
833.20	100.000
833.50	100.000
833.80	110.526
834.10	66.667
834.40	75.000
834.70	103.125
835.00	54.286
835.30	52.941
835.60	66.667
835.90	120.000
836.20	72.727
836.50	108.000
836.80	45.455
837.10	81.481
837.40	111.111
837.70	106.250
838.00	103.571
838.30	65.217
838.60	79.310
838.90	135.714
839.19	39.130
839.49	33.333
839.79	113.043
840.09	56.250
840.39	90.000
840.69	96.774
840.99	46.429
841.29	153.333
841.59	173.684
841.88	94.872
842.18	84.615
842.48	260.000
842.78	105.000
843.08	70.000
843.38	70.968
843.68	66.667
843.97	79.412
844.27	212.500
844.57	100.000
844.87	150.000
845.17	126.667
845.47	114.286
845.76	95.238
846.06	166.667
846.36	141.176
846.66	96.154
846.96	133.333
847.25	135.294
847.55	139.130
847.85	105.000
848.15	76.471
848.44	136.364
848.74	109.524
849.04	91.667
849.34	168.750
849.63	86.957
849.93	-450.000
850.23	166.667
850.53	92.308
850.82	190.909
851.12	77.273
851.42	118.182
851.71	200.000
852.01	75.000
852.31	207.692
852.61	110.526
852.90	208.333
853.20	105.556
853.50	100.000
853.79	71.429
854.09	77.273
854.39	200.000
854.68	67.742
854.98	50.000
855.28	183.333
855.57	67.857
855.87	88.000
856.17	109.091
856.46	70.370
856.76	122.222
857.05	73.913
857.35	66.667
857.65	169.231
857.94	147.619
858.24	107.407
858.53	69.565
858.83	123.529
859.13	111.765
859.42	200.000
859.72	142.857
860.01	65.000
860.31	211.111
860.60	240.000
860.90	180.000
861.20	133.333
861.49	115.385
861.79	100.000
862.08	130.769
862.38	75.000
862.67	135.294
862.97	137.500
863.26	122.222
863.56	190.000
863.85	181.818
864.15	77.778
864.44	566.667
864.74	121.429
865.03	106.250
865.33	180.000
865.62	54.839
865.92	118.182
866.21	69.565
866.51	150.000
866.80	80.000
867.10	83.333
867.39	75.000
867.69	-900.000
867.98	357.143
868.27	164.706
868.57	-400.000
868.86	110.000
869.16	109.524
869.45	125.000
869.75	163.636
870.04	228.571
870.33	108.333
870.63	114.286
870.92	400.000
871.22	0.000
871.51	72.727
871.80	100.000
872.10	550.000
>>>>>End Processed Spectral Data<<<<<
