SpectraSuite Data File
++++++++++++++++++++++++++++++++++++
Date: Thu May 14 14:30:01 PDT 2015
User: schluterlab
Dark Spectrum Present: Yes
Reference Spectrum Present: Yes
Number of Sampled Component Spectra: 1
Spectrometers: USB2E3373
Integration Time (usec): 3000 (USB2E3373)
Spectra Averaged: 3 (USB2E3373)
Boxcar Smoothing: 0 (USB2E3373)
Correct for Electrical Dark: No (USB2E3373)
Strobe/Lamp Enabled: No (USB2E3373)
Correct for Detector Non-linearity: No (USB2E3373)
Correct for Stray Light: No (USB2E3373)
Number of Pixels in Processed Spectrum: 2048
>>>>>Begin Processed Spectral Data<<<<<
178.53	0.000
178.91	-214.286
179.29	1200.000
179.67	1400.000
180.04	-42.857
180.42	-100.000
180.80	-100.000
181.18	1500.000
181.56	1600.000
181.94	-525.000
182.31	275.000
182.69	-566.667
183.07	450.000
183.45	-300.000
183.83	266.667
184.20	500.000
184.58	-1700.000
184.96	-25.000
185.34	166.667
185.72	500.000
186.09	-66.667
186.47	-650.000
186.85	-140.000
187.23	100.000
187.61	800.000
187.98	-340.000
188.36	-25.000
188.74	500.000
189.12	700.000
189.49	118.750
189.87	25.000
190.25	222.222
190.63	360.000
191.00	66.667
191.38	0.000
191.76	100.000
192.14	216.667
192.51	-650.000
192.89	350.000
193.27	0.000
193.65	342.857
194.02	1400.000
194.40	285.714
194.78	-128.571
195.15	0.000
195.53	127.273
195.91	0.000
196.29	500.000
196.66	107.692
197.04	1300.000
197.42	285.714
197.79	450.000
198.17	112.500
198.55	242.857
198.92	177.778
199.30	175.000
199.68	154.545
200.05	128.571
200.43	700.000
200.81	-200.000
201.18	0.000
201.56	66.667
201.94	0.000
202.31	-166.667
202.69	155.556
203.07	-1900.000
203.44	166.667
203.82	125.000
204.19	158.333
204.57	183.333
204.95	125.000
205.32	1200.000
205.70	-375.000
206.08	150.000
206.45	283.333
206.83	-60.000
207.20	133.333
207.58	-40.000
207.96	66.667
208.33	183.333
208.71	-83.333
209.08	316.667
209.46	0.000
209.84	-100.000
210.21	-600.000
210.59	-750.000
210.96	-466.667
211.34	375.000
211.71	162.500
212.09	1900.000
212.46	0.000
212.84	-300.000
213.22	220.000
213.59	250.000
213.97	90.000
214.34	100.000
214.72	-83.333
215.09	350.000
215.47	0.000
215.84	-171.429
216.22	-100.000
216.59	120.000
216.97	280.000
217.34	400.000
217.72	262.500
218.09	325.000
218.47	200.000
218.84	0.000
219.22	-240.000
219.59	141.176
219.97	120.000
220.34	-500.000
220.72	55.556
221.09	200.000
221.47	733.333
221.84	130.000
222.22	100.000
222.59	0.000
222.97	125.000
223.34	220.000
223.72	900.000
224.09	250.000
224.46	175.000
224.84	340.000
225.21	228.571
225.59	225.000
225.96	325.000
226.34	69.231
226.71	-183.333
227.08	550.000
227.46	126.667
227.83	225.000
228.21	78.947
228.58	12.500
228.95	-450.000
229.33	116.667
229.70	190.000
230.08	147.368
230.45	-60.000
230.82	433.333
231.20	157.143
231.57	125.000
231.95	154.545
232.32	190.909
232.69	85.000
233.07	450.000
233.44	76.471
233.81	120.000
234.19	133.333
234.56	113.636
234.93	79.310
235.31	121.053
235.68	100.000
236.05	90.000
236.43	130.769
236.80	160.000
237.17	114.815
237.55	69.697
237.92	170.000
238.29	61.290
238.67	38.636
239.04	77.778
239.41	66.667
239.79	56.522
240.16	59.259
240.53	54.348
240.91	43.137
241.28	39.344
241.65	62.687
242.02	40.541
242.40	40.000
242.77	53.333
243.14	34.146
243.51	35.526
243.89	42.308
244.26	51.485
244.63	48.039
245.00	42.991
245.38	48.246
245.75	33.628
246.12	40.476
246.49	41.860
246.87	34.286
247.24	39.073
247.61	41.447
247.98	40.268
248.36	31.481
248.73	36.196
249.10	33.333
249.47	38.308
249.84	31.414
250.22	33.679
250.59	38.889
250.96	36.364
251.33	33.163
251.70	36.325
252.08	30.833
252.45	36.885
252.82	30.579
253.19	32.031
253.56	32.319
253.94	33.846
254.31	32.955
254.68	35.315
255.05	35.505
255.42	32.993
255.79	30.744
256.16	34.106
256.54	28.477
256.91	36.721
257.28	31.475
257.65	33.439
258.02	29.794
258.39	31.909
258.76	35.780
259.14	37.356
259.51	33.141
259.88	32.295
260.25	35.000
260.62	33.699
260.99	34.153
261.36	35.925
261.73	31.565
262.10	32.418
262.47	34.316
262.85	32.323
263.22	31.948
263.59	28.684
263.96	34.271
264.33	32.992
264.70	34.074
265.07	32.936
265.44	32.880
265.81	32.176
266.18	33.333
266.55	33.036
266.92	31.435
267.29	32.823
267.66	33.259
268.03	32.096
268.40	30.898
268.77	29.841
269.14	29.515
269.51	30.921
269.88	32.377
270.25	30.785
270.62	30.380
270.99	33.737
271.36	30.495
271.73	29.666
272.10	32.064
272.47	28.257
272.84	30.924
273.21	34.469
273.58	30.847
273.95	31.346
274.32	30.038
274.69	31.915
275.06	30.952
275.43	28.835
275.80	32.275
276.17	31.111
276.54	29.478
276.91	29.696
277.28	30.741
277.65	30.341
278.02	29.779
278.39	30.978
278.76	29.174
279.13	30.496
279.50	28.694
279.87	29.696
280.23	29.049
280.60	31.695
280.97	30.757
281.34	30.730
281.71	28.765
282.08	29.402
282.45	29.787
282.82	31.083
283.19	27.787
283.56	27.869
283.92	29.429
284.29	29.858
284.66	28.900
285.03	27.885
285.40	29.366
285.77	27.709
286.14	28.550
286.51	28.767
286.87	29.542
287.24	30.873
287.61	26.457
287.98	27.341
288.35	28.254
288.72	28.550
289.08	27.818
289.45	27.219
289.82	28.313
290.19	28.161
290.56	28.169
290.93	27.104
291.29	27.273
291.66	28.099
292.03	24.152
292.40	27.755
292.77	26.685
293.13	26.928
293.50	25.887
293.87	25.638
294.24	28.133
294.60	27.181
294.97	26.577
295.34	26.633
295.71	23.834
296.08	24.677
296.44	26.103
296.81	26.066
297.18	25.654
297.55	24.882
297.91	26.453
298.28	24.645
298.65	25.565
299.02	25.974
299.38	24.714
299.75	23.598
300.12	24.537
300.48	24.194
300.85	25.534
301.22	24.049
301.59	23.288
301.95	24.407
302.32	24.444
302.69	23.877
303.05	24.918
303.42	24.501
303.79	25.000
304.15	25.762
304.52	23.890
304.89	22.618
305.25	24.120
305.62	22.989
305.99	23.505
306.35	23.488
306.72	24.509
307.09	24.569
307.45	24.224
307.82	24.218
308.19	24.016
308.55	24.397
308.92	24.440
309.29	24.617
309.65	24.756
310.02	23.762
310.38	23.819
310.75	25.340
311.12	24.640
311.48	24.438
311.85	24.406
312.22	25.712
312.58	24.507
312.95	24.761
313.31	25.113
313.68	25.366
314.05	25.926
314.41	26.047
314.78	25.613
315.14	26.044
315.51	26.316
315.87	25.653
316.24	26.027
316.61	26.909
316.97	25.520
317.34	25.573
317.70	27.686
318.07	26.014
318.43	27.636
318.80	26.672
319.16	27.468
319.53	25.450
319.89	27.082
320.26	26.157
320.62	26.330
320.99	27.239
321.35	26.895
321.72	28.279
322.08	27.142
322.45	28.997
322.81	29.603
323.18	27.788
323.54	27.931
323.91	28.559
324.27	26.420
324.64	28.128
325.00	28.690
325.37	29.238
325.73	29.587
326.10	28.548
326.46	29.642
326.83	30.024
327.19	29.843
327.56	30.830
327.92	29.819
328.29	29.355
328.65	30.235
329.01	31.810
329.38	31.845
329.74	33.134
330.11	32.877
330.47	31.845
330.84	31.352
331.20	33.833
331.56	32.149
331.93	33.640
332.29	33.644
332.66	33.389
333.02	32.915
333.38	33.641
333.75	34.091
334.11	34.112
334.48	33.746
334.84	33.900
335.20	33.753
335.57	34.654
335.93	34.793
336.29	33.278
336.66	34.819
337.02	34.114
337.38	33.759
337.75	34.132
338.11	34.062
338.47	35.401
338.84	33.249
339.20	33.698
339.56	34.596
339.93	34.154
340.29	33.655
340.65	33.009
341.02	33.759
341.38	34.519
341.74	33.414
342.11	34.272
342.47	32.963
342.83	33.736
343.20	34.015
343.56	33.360
343.92	34.187
344.28	34.453
344.65	34.806
345.01	32.605
345.37	33.748
345.73	34.451
346.10	33.073
346.46	33.623
346.82	32.584
347.19	32.086
347.55	33.915
347.91	33.284
348.27	33.612
348.63	32.826
349.00	32.811
349.36	33.532
349.72	33.110
350.08	33.432
350.45	31.863
350.81	32.127
351.17	31.880
351.53	33.055
351.89	33.713
352.26	32.910
352.62	32.687
352.98	32.061
353.34	32.114
353.70	33.205
354.07	31.520
354.43	32.194
354.79	32.311
355.15	31.862
355.51	32.383
355.87	32.162
356.24	33.460
356.60	31.855
356.96	32.987
357.32	31.599
357.68	32.796
358.04	33.084
358.40	32.463
358.77	32.310
359.13	32.866
359.49	31.896
359.85	32.415
360.21	32.425
360.57	31.084
360.93	31.241
361.29	32.211
361.66	32.440
362.02	33.125
362.38	32.748
362.74	32.332
363.10	33.219
363.46	32.618
363.82	32.457
364.18	32.372
364.54	32.918
364.90	33.177
365.26	32.483
365.62	31.667
365.98	32.403
366.35	31.611
366.71	32.245
367.07	31.191
367.43	31.123
367.79	32.847
368.15	32.776
368.51	32.341
368.87	31.221
369.23	32.467
369.59	32.719
369.95	31.237
370.31	31.600
370.67	32.600
371.03	31.302
371.39	30.154
371.75	32.256
372.11	31.369
372.47	31.889
372.83	32.657
373.19	31.488
373.55	31.572
373.91	31.288
374.27	31.501
374.63	32.273
374.99	31.565
375.35	32.273
375.71	32.194
376.07	32.085
376.42	32.620
376.78	33.437
377.14	32.377
377.50	31.183
377.86	31.958
378.22	32.216
378.58	32.164
378.94	31.573
379.30	31.927
379.66	32.569
380.02	32.602
380.38	32.488
380.74	32.056
381.09	31.882
381.45	31.420
381.81	32.963
382.17	33.492
382.53	32.632
382.89	31.828
383.25	31.243
383.61	32.755
383.97	31.861
384.32	32.416
384.68	31.032
385.04	32.447
385.40	31.939
385.76	33.060
386.12	31.777
386.48	32.118
386.83	32.181
387.19	30.649
387.55	31.279
387.91	31.336
388.27	31.986
388.62	32.073
388.98	31.416
389.34	31.762
389.70	31.551
390.06	31.616
390.42	31.386
390.77	32.149
391.13	31.162
391.49	31.763
391.85	31.758
392.20	30.308
392.56	31.778
392.92	30.425
393.28	31.509
393.64	30.447
393.99	30.912
394.35	31.600
394.71	31.437
395.07	31.377
395.42	30.725
395.78	31.505
396.14	30.660
396.50	30.582
396.85	29.636
397.21	30.533
397.57	30.860
397.92	30.813
398.28	29.821
398.64	30.034
399.00	29.267
399.35	29.215
399.71	29.565
400.07	29.085
400.42	29.802
400.78	28.993
401.14	29.482
401.49	30.244
401.85	29.244
402.21	29.374
402.57	29.636
402.92	29.374
403.28	28.513
403.63	28.282
403.99	28.741
404.35	28.596
404.70	28.159
405.06	27.880
405.42	29.040
405.77	28.517
406.13	27.499
406.49	27.421
406.84	28.255
407.20	27.949
407.55	27.741
407.91	28.410
408.27	28.151
408.62	27.167
408.98	27.452
409.34	27.507
409.69	27.565
410.05	27.902
410.40	28.654
410.76	26.640
411.11	27.937
411.47	27.703
411.83	28.689
412.18	27.892
412.54	28.275
412.89	27.183
413.25	27.991
413.60	28.030
413.96	27.681
414.31	26.799
414.67	28.086
415.03	27.138
415.38	27.238
415.74	27.611
416.09	28.748
416.45	27.740
416.80	27.050
417.16	27.522
417.51	27.833
417.87	28.081
418.22	27.665
418.58	28.191
418.93	28.522
419.29	27.744
419.64	27.551
420.00	27.418
420.35	27.120
420.71	27.226
421.06	27.947
421.42	28.383
421.77	27.894
422.12	28.647
422.48	28.571
422.83	28.970
423.19	28.488
423.54	29.148
423.90	29.045
424.25	29.333
424.61	28.645
424.96	29.215
425.31	28.981
425.67	29.093
426.02	29.607
426.38	29.104
426.73	29.743
427.09	29.815
427.44	29.547
427.79	29.795
428.15	29.395
428.50	29.775
428.85	30.482
429.21	30.904
429.56	30.405
429.92	30.319
430.27	31.325
430.62	30.874
430.98	30.546
431.33	30.987
431.68	30.939
432.04	31.640
432.39	31.548
432.74	31.393
433.10	31.639
433.45	31.661
433.80	32.511
434.16	33.006
434.51	32.991
434.86	32.573
435.22	33.103
435.57	33.844
435.92	33.445
436.28	32.480
436.63	34.134
436.98	33.226
437.34	34.160
437.69	33.682
438.04	34.691
438.39	34.635
438.75	33.592
439.10	35.359
439.45	34.880
439.81	34.237
440.16	33.673
440.51	35.452
440.86	35.075
441.22	35.370
441.57	35.692
441.92	35.548
442.27	35.909
442.63	35.320
442.98	35.379
443.33	35.718
443.68	37.017
444.03	37.112
444.39	36.847
444.74	37.621
445.09	36.189
445.44	37.197
445.79	37.548
446.15	38.438
446.50	37.468
446.85	39.008
447.20	36.702
447.55	37.971
447.91	37.330
448.26	37.685
448.61	37.938
448.96	39.431
449.31	38.706
449.66	38.889
450.02	39.188
450.37	39.318
450.72	39.720
451.07	38.952
451.42	38.764
451.77	37.799
452.12	39.221
452.47	39.810
452.83	39.583
453.18	39.346
453.53	39.460
453.88	40.751
454.23	40.508
454.58	40.975
454.93	40.352
455.28	40.096
455.63	40.421
455.98	40.056
456.34	40.165
456.69	41.329
457.04	41.194
457.39	40.022
457.74	41.443
458.09	41.461
458.44	41.110
458.79	40.640
459.14	41.164
459.49	41.653
459.84	40.556
460.19	40.589
460.54	41.681
460.89	41.186
461.24	41.494
461.59	41.173
461.94	41.529
462.29	41.601
462.64	41.581
462.99	42.373
463.34	41.531
463.69	42.145
464.04	43.524
464.39	41.928
464.74	42.132
465.09	43.080
465.44	42.167
465.79	42.623
466.14	42.053
466.49	42.211
466.84	42.424
467.19	43.237
467.54	42.538
467.89	42.184
468.24	42.715
468.59	43.196
468.94	42.716
469.29	42.891
469.64	42.085
469.99	42.511
470.34	43.441
470.68	43.062
471.03	44.663
471.38	42.969
471.73	44.798
472.08	44.607
472.43	43.648
472.78	45.151
473.13	44.058
473.48	44.834
473.83	44.515
474.17	44.607
474.52	44.558
474.87	42.913
475.22	44.338
475.57	42.939
475.92	43.803
476.27	44.622
476.61	44.081
476.96	43.743
477.31	44.604
477.66	45.960
478.01	44.382
478.36	44.118
478.70	44.729
479.05	45.143
479.40	44.768
479.75	45.053
480.10	44.766
480.45	44.531
480.79	45.034
481.14	45.221
481.49	44.480
481.84	45.083
482.19	45.720
482.53	45.955
482.88	45.503
483.23	45.709
483.58	45.633
483.92	44.770
484.27	44.454
484.62	43.358
484.97	44.984
485.31	43.647
485.66	43.370
486.01	42.438
486.36	42.109
486.70	42.132
487.05	42.452
487.40	43.209
487.75	43.868
488.09	44.153
488.44	43.403
488.79	45.093
489.13	44.569
489.48	45.592
489.83	45.553
490.17	45.079
490.52	44.663
490.87	45.897
491.22	47.227
491.56	46.075
491.91	45.704
492.26	44.872
492.60	45.780
492.95	44.932
493.30	45.809
493.64	45.817
493.99	45.658
494.34	45.383
494.68	46.039
495.03	46.079
495.37	46.605
495.72	46.259
496.07	47.108
496.41	46.332
496.76	46.205
497.11	45.732
497.45	46.612
497.80	46.335
498.14	46.576
498.49	46.232
498.84	47.258
499.18	47.233
499.53	46.816
499.87	46.505
500.22	45.726
500.56	46.199
500.91	47.735
501.26	47.273
501.60	46.354
501.95	47.026
502.29	47.170
502.64	46.218
502.98	46.462
503.33	46.609
503.67	46.315
504.02	47.373
504.36	47.632
504.71	46.578
505.06	46.112
505.40	46.664
505.75	46.995
506.09	47.468
506.44	47.586
506.78	48.211
507.13	47.487
507.47	47.560
507.82	47.727
508.16	47.419
508.51	47.867
508.85	47.615
509.19	48.555
509.54	48.175
509.88	47.499
510.23	48.713
510.57	48.526
510.92	49.057
511.26	47.186
511.61	47.079
511.95	48.853
512.30	48.843
512.64	47.126
512.98	48.474
513.33	48.891
513.67	49.669
514.02	49.259
514.36	49.207
514.70	49.219
515.05	49.531
515.39	48.924
515.74	49.894
516.08	48.653
516.42	50.183
516.77	49.632
517.11	49.407
517.46	49.152
517.80	50.134
518.14	50.272
518.49	50.054
518.83	48.057
519.17	48.627
519.52	49.476
519.86	49.419
520.20	49.095
520.55	49.288
520.89	49.268
521.23	49.079
521.58	50.113
521.92	49.688
522.26	48.969
522.61	50.231
522.95	49.769
523.29	49.080
523.64	49.944
523.98	50.770
524.32	51.748
524.66	49.972
525.01	49.151
525.35	49.799
525.69	49.478
526.04	48.450
526.38	49.310
526.72	48.328
527.06	49.443
527.41	49.738
527.75	50.000
528.09	48.996
528.43	48.194
528.78	48.382
529.12	48.509
529.46	48.791
529.80	49.256
530.15	48.406
530.49	49.526
530.83	48.819
531.17	48.387
531.51	48.917
531.86	49.159
532.20	49.329
532.54	49.491
532.88	48.121
533.22	47.908
533.57	47.259
533.91	48.373
534.25	48.050
534.59	49.425
534.93	47.708
535.27	48.113
535.62	48.437
535.96	48.402
536.30	47.885
536.64	48.408
536.98	48.893
537.32	49.506
537.66	48.409
538.01	47.915
538.35	47.320
538.69	48.858
539.03	48.437
539.37	47.527
539.71	47.447
540.05	47.842
540.39	46.638
540.73	47.237
541.07	47.639
541.42	46.545
541.76	46.323
542.10	46.502
542.44	46.650
542.78	47.324
543.12	47.855
543.46	47.009
543.80	47.602
544.14	47.277
544.48	47.340
544.82	47.098
545.16	47.764
545.50	47.034
545.84	46.908
546.18	47.716
546.52	47.707
546.86	47.610
547.20	48.473
547.54	48.190
547.88	47.016
548.22	47.778
548.56	46.870
548.90	48.597
549.24	48.085
549.58	48.139
549.92	48.788
550.26	48.479
550.60	47.926
550.94	47.607
551.28	47.393
551.62	49.259
551.96	48.350
552.30	47.737
552.64	48.973
552.98	47.785
553.32	49.389
553.66	47.910
554.00	49.243
554.34	49.356
554.68	47.644
555.02	48.555
555.36	50.427
555.69	48.302
556.03	48.613
556.37	49.687
556.71	49.968
557.05	48.946
557.39	49.834
557.73	49.538
558.07	47.947
558.41	49.037
558.75	49.425
559.08	50.244
559.42	49.383
559.76	49.389
560.10	50.033
560.44	49.011
560.78	50.250
561.12	49.507
561.45	49.331
561.79	48.779
562.13	49.538
562.47	48.459
562.81	49.747
563.15	48.295
563.48	49.347
563.82	48.549
564.16	48.577
564.50	48.987
564.84	48.437
565.17	49.471
565.51	48.216
565.85	49.109
566.19	47.523
566.52	47.806
566.86	48.161
567.20	47.852
567.54	47.053
567.88	47.299
568.21	47.085
568.55	47.482
568.89	46.936
569.23	45.754
569.56	44.939
569.90	44.797
570.24	44.823
570.57	43.778
570.91	43.601
571.25	42.870
571.59	43.724
571.92	43.683
572.26	43.383
572.60	43.380
572.93	43.306
573.27	43.046
573.61	43.356
573.95	42.680
574.28	42.233
574.62	42.110
574.96	41.729
575.29	41.661
575.63	41.834
575.97	42.347
576.30	41.846
576.64	42.209
576.98	41.959
577.31	42.050
577.65	42.427
577.98	42.244
578.32	41.478
578.66	41.896
578.99	41.634
579.33	42.263
579.67	41.591
580.00	41.515
580.34	42.343
580.67	41.990
581.01	42.406
581.35	42.373
581.68	42.023
582.02	41.629
582.35	41.828
582.69	42.131
583.02	42.758
583.36	42.740
583.70	43.217
584.03	43.317
584.37	43.619
584.70	43.619
585.04	42.990
585.37	43.195
585.71	42.977
586.04	43.395
586.38	43.338
586.72	42.968
587.05	44.129
587.39	44.353
587.72	44.258
588.06	44.802
588.39	44.511
588.73	44.471
589.06	44.949
589.40	45.237
589.73	45.533
590.07	45.855
590.40	46.078
590.73	44.998
591.07	46.016
591.40	46.423
591.74	46.542
592.07	46.285
592.41	46.293
592.74	46.361
593.08	46.178
593.41	46.369
593.75	45.891
594.08	46.350
594.41	46.218
594.75	45.633
595.08	46.030
595.42	46.558
595.75	47.013
596.09	46.086
596.42	46.578
596.75	47.704
597.09	47.434
597.42	47.080
597.75	47.001
598.09	47.063
598.42	48.291
598.76	47.230
599.09	45.603
599.42	45.055
599.76	45.923
600.09	45.546
600.42	45.913
600.76	45.707
601.09	45.735
601.42	46.207
601.76	46.414
602.09	46.426
602.42	46.238
602.76	47.122
603.09	47.467
603.42	47.182
603.76	46.970
604.09	48.013
604.42	46.972
604.76	46.689
605.09	46.949
605.42	47.807
605.75	46.615
606.09	47.182
606.42	46.406
606.75	46.439
607.09	46.352
607.42	46.435
607.75	47.167
608.08	46.409
608.42	47.521
608.75	47.554
609.08	46.647
609.41	47.640
609.75	47.768
610.08	48.681
610.41	46.686
610.74	46.597
611.07	47.957
611.41	48.744
611.74	47.760
612.07	47.920
612.40	48.337
612.73	48.509
613.07	48.949
613.40	47.738
613.73	48.532
614.06	47.694
614.39	48.056
614.72	47.744
615.06	46.535
615.39	47.221
615.72	47.962
616.05	48.227
616.38	48.739
616.71	48.485
617.05	47.817
617.38	48.422
617.71	47.786
618.04	49.811
618.37	48.197
618.70	49.038
619.03	49.223
619.36	49.507
619.69	49.391
620.03	49.655
620.36	48.712
620.69	48.982
621.02	51.115
621.35	52.395
621.68	50.832
622.01	50.961
622.34	48.815
622.67	49.416
623.00	49.258
623.33	49.900
623.66	49.611
623.99	49.638
624.32	49.058
624.65	48.906
624.99	50.585
625.32	49.510
625.65	49.966
625.98	49.220
626.31	49.681
626.64	50.769
626.97	50.863
627.30	49.810
627.63	50.113
627.96	51.201
628.29	50.895
628.62	51.469
628.95	53.199
629.28	51.487
629.61	51.094
629.94	50.460
630.26	51.356
630.59	51.123
630.92	51.429
631.25	51.878
631.58	54.143
631.91	52.952
632.24	53.314
632.57	53.416
632.90	54.463
633.23	54.388
633.56	53.673
633.89	53.719
634.22	54.262
634.55	52.818
634.88	54.437
635.20	54.144
635.53	54.237
635.86	53.629
636.19	53.765
636.52	53.903
636.85	51.481
637.18	52.807
637.51	51.720
637.83	53.710
638.16	55.069
638.49	53.638
638.82	52.086
639.15	54.296
639.48	55.081
639.81	52.425
640.13	54.064
640.46	51.758
640.79	53.064
641.12	57.019
641.45	54.203
641.77	55.584
642.10	53.018
642.43	56.117
642.76	53.930
643.09	55.205
643.41	56.443
643.74	54.759
644.07	57.103
644.40	53.041
644.73	57.039
645.05	55.653
645.38	55.396
645.71	57.625
646.04	56.528
646.36	53.431
646.69	55.828
647.02	57.034
647.35	56.641
647.67	56.522
648.00	57.962
648.33	57.357
648.66	54.208
648.98	53.878
649.31	54.398
649.64	53.918
649.96	53.581
650.29	52.712
650.62	53.465
650.94	54.955
651.27	52.695
651.60	53.509
651.92	55.015
652.25	52.533
652.58	51.994
652.90	54.360
653.23	52.817
653.56	52.924
653.88	56.180
654.21	52.676
654.54	54.624
654.86	52.691
655.19	48.808
655.52	44.453
655.84	38.580
656.17	48.944
656.49	68.517
656.82	76.186
657.15	58.997
657.47	44.101
657.80	32.799
658.13	26.512
658.45	34.501
658.78	43.446
659.10	43.185
659.43	44.345
659.75	46.737
660.08	48.179
660.41	51.282
660.73	51.767
661.06	53.304
661.38	54.386
661.71	54.138
662.03	54.321
662.36	55.277
662.68	54.034
663.01	52.743
663.33	57.089
663.66	56.227
663.98	56.346
664.31	56.098
664.63	55.106
664.96	54.991
665.28	52.995
665.61	54.720
665.93	54.643
666.26	55.556
666.58	55.535
666.91	58.505
667.23	55.619
667.56	54.043
667.88	59.400
668.21	55.859
668.53	51.737
668.86	56.385
669.18	56.415
669.50	57.853
669.83	56.200
670.15	54.134
670.48	58.333
670.80	53.155
671.13	51.796
671.45	57.087
671.77	54.237
672.10	51.667
672.42	50.971
672.75	50.998
673.07	52.090
673.39	50.847
673.72	53.859
674.04	51.379
674.37	52.236
674.69	55.203
675.01	56.190
675.34	55.153
675.66	53.558
675.98	55.410
676.31	53.711
676.63	56.084
676.95	56.705
677.28	55.847
677.60	50.197
677.92	54.127
678.25	53.382
678.57	51.423
678.89	52.048
679.22	50.000
679.54	50.940
679.86	50.508
680.18	52.073
680.51	50.000
680.83	51.555
681.15	50.172
681.48	51.986
681.80	50.777
682.12	52.098
682.44	48.748
682.77	51.418
683.09	53.030
683.41	53.876
683.73	52.372
684.06	51.661
684.38	49.732
684.70	53.501
685.02	52.668
685.34	48.586
685.67	48.265
685.99	48.466
686.31	47.965
686.63	49.131
686.96	48.107
687.28	48.534
687.60	51.010
687.92	49.678
688.24	50.918
688.56	48.276
688.89	50.817
689.21	53.620
689.53	52.745
689.85	53.452
690.17	48.704
690.49	50.996
690.82	50.693
691.14	50.000
691.46	52.581
691.78	50.829
692.10	51.376
692.42	48.571
692.74	49.365
693.06	48.333
693.39	48.956
693.71	50.564
694.03	49.071
694.35	50.857
694.67	51.129
694.99	49.787
695.31	52.539
695.63	52.814
695.95	48.033
696.27	52.747
696.59	49.558
696.91	54.279
697.23	52.527
697.56	48.473
697.88	47.917
698.20	53.296
698.52	51.136
698.84	51.767
699.16	52.449
699.48	52.092
699.80	48.936
700.12	50.655
700.44	51.613
700.76	50.594
701.08	54.479
701.40	56.218
701.72	51.244
702.04	54.278
702.36	54.188
702.68	49.389
703.00	49.633
703.32	52.709
703.64	51.100
703.96	50.358
704.28	47.912
704.60	55.949
704.91	53.061
705.23	56.438
705.55	49.582
705.87	52.727
706.19	57.055
706.51	50.602
706.83	51.873
707.15	49.735
707.47	49.766
707.79	48.035
708.11	41.525
708.43	47.527
708.74	46.205
709.06	49.188
709.38	50.469
709.70	50.124
710.02	45.736
710.34	51.862
710.66	46.927
710.98	50.000
711.29	51.099
711.61	52.825
711.93	52.707
712.25	46.486
712.57	53.982
712.89	58.529
713.20	49.704
713.52	51.734
713.84	53.482
714.16	49.737
714.48	49.742
714.80	50.390
715.11	50.131
715.43	46.419
715.75	51.579
716.07	48.619
716.39	46.721
716.70	50.301
717.02	52.787
717.34	54.704
717.66	52.349
717.97	52.055
718.29	51.546
718.61	49.013
718.93	53.398
719.24	47.826
719.56	51.840
719.88	48.649
720.20	52.258
720.51	50.621
720.83	44.688
721.15	53.289
721.46	52.740
721.78	54.333
722.10	48.867
722.42	51.007
722.73	48.710
723.05	59.298
723.37	51.042
723.68	53.405
724.00	50.542
724.32	46.127
724.63	48.601
724.95	54.965
725.27	51.568
725.58	48.763
725.90	52.414
726.22	45.455
726.53	51.299
726.85	51.572
727.16	47.734
727.48	53.823
727.80	49.007
728.11	49.823
728.43	47.138
728.74	43.813
729.06	49.338
729.38	48.701
729.69	50.336
730.01	46.131
730.32	45.758
730.64	49.371
730.96	44.099
731.27	49.721
731.59	47.527
731.90	42.338
732.22	44.010
732.53	43.923
732.85	48.286
733.16	46.334
733.48	44.512
733.80	46.518
734.11	44.160
734.43	47.568
734.74	47.848
735.06	40.955
735.37	47.297
735.69	46.216
736.00	46.610
736.32	47.439
736.63	43.611
736.95	47.126
737.26	46.970
737.58	44.848
737.89	46.765
738.21	47.095
738.52	44.918
738.83	48.123
739.15	52.128
739.46	51.701
739.78	48.466
740.09	45.845
740.41	48.688
740.72	46.667
741.04	46.278
741.35	47.368
741.66	48.235
741.98	49.590
742.29	41.841
742.61	53.509
742.92	46.154
743.23	49.819
743.55	50.775
743.86	50.000
744.18	40.083
744.49	45.992
744.80	51.440
745.12	54.430
745.43	51.220
745.74	50.000
746.06	50.000
746.37	48.523
746.68	52.033
747.00	49.167
747.31	49.785
747.62	51.538
747.94	48.583
748.25	51.807
748.56	46.122
748.88	44.444
749.19	52.155
749.50	49.351
749.82	52.209
750.13	49.110
750.44	42.333
750.75	45.231
751.07	45.231
751.38	47.950
751.69	47.604
752.01	47.573
752.32	44.771
752.63	46.599
752.94	46.021
753.26	48.327
753.57	48.889
753.88	47.940
754.19	43.730
754.51	41.479
754.82	46.945
755.13	48.852
755.44	47.099
755.75	44.737
756.07	45.970
756.38	47.170
756.69	46.988
757.00	42.105
757.31	42.077
757.63	39.642
757.94	38.967
758.25	42.889
758.56	37.473
758.87	40.227
759.18	43.467
759.50	43.626
759.81	45.938
760.12	44.474
760.43	42.708
760.74	46.059
761.05	40.000
761.36	40.482
761.67	41.878
761.99	45.676
762.30	46.037
762.61	42.244
762.92	47.388
763.23	46.442
763.54	43.525
763.85	43.643
764.16	43.771
764.47	45.070
764.78	45.367
765.10	38.416
765.41	44.103
765.72	40.476
766.03	44.068
766.34	40.125
766.65	43.206
766.96	46.215
767.27	52.995
767.58	46.766
767.89	50.962
768.20	46.479
768.51	49.537
768.82	42.570
769.13	45.455
769.44	40.769
769.75	45.126
770.06	46.154
770.37	48.425
770.68	43.830
770.99	40.891
771.30	48.889
771.61	47.148
771.92	41.852
772.23	48.583
772.54	44.444
772.85	48.848
773.16	52.857
773.47	37.566
773.78	43.784
774.09	46.591
774.39	49.000
774.70	49.727
775.01	50.000
775.32	45.294
775.63	46.626
775.94	44.586
776.25	51.613
776.56	48.718
776.87	63.946
777.18	51.034
777.48	49.650
777.79	51.351
778.10	52.206
778.41	40.972
778.72	48.276
779.03	48.765
779.34	52.121
779.65	49.223
779.95	47.222
780.26	44.318
780.57	52.258
780.88	55.072
781.19	49.677
781.50	44.706
781.80	46.237
782.11	52.910
782.42	40.404
782.73	43.114
783.04	48.603
783.34	40.606
783.65	43.137
783.96	44.099
784.27	41.071
784.57	52.318
784.88	56.429
785.19	51.181
785.50	54.331
785.81	55.639
786.11	53.077
786.42	49.640
786.73	48.921
787.04	52.632
787.34	51.639
787.65	52.000
787.96	44.030
788.26	53.147
788.57	48.951
788.88	40.789
789.19	52.288
789.49	40.411
789.80	47.518
790.11	57.480
790.41	50.000
790.72	49.153
791.03	46.602
791.33	46.087
791.64	50.877
791.95	49.107
792.25	52.381
792.56	42.857
792.87	48.958
793.17	46.429
793.48	50.000
793.79	44.578
794.09	46.789
794.40	43.119
794.70	41.497
795.01	43.506
795.32	52.055
795.62	46.479
795.93	50.000
796.23	50.820
796.54	41.964
796.85	48.936
797.15	39.130
797.46	49.315
797.76	46.250
798.07	59.783
798.37	39.175
798.68	62.338
798.99	58.621
799.29	51.685
799.60	56.383
799.90	51.807
800.21	55.385
800.51	56.716
800.82	58.824
801.12	46.575
801.43	47.059
801.73	50.847
802.04	74.242
802.34	71.667
802.65	64.407
802.95	70.149
803.26	76.271
803.56	47.945
803.87	71.429
804.17	61.644
804.48	56.140
804.78	55.556
805.09	58.621
805.39	58.108
805.70	46.479
806.00	46.341
806.30	48.193
806.61	60.274
806.91	49.038
807.22	48.889
807.52	41.379
807.83	45.833
808.13	46.988
808.43	51.685
808.74	58.750
809.04	51.471
809.35	66.667
809.65	54.286
809.95	58.904
810.26	45.614
810.56	75.862
810.86	61.765
811.17	57.895
811.47	70.492
811.77	64.444
812.08	64.407
812.38	53.333
812.69	60.345
812.99	39.623
813.29	35.897
813.59	60.000
813.90	68.421
814.20	69.091
814.50	60.563
814.81	55.128
815.11	55.738
815.41	46.269
815.72	74.138
816.02	69.643
816.32	77.778
816.62	72.727
816.93	44.444
817.23	77.778
817.53	72.340
817.84	71.429
818.14	88.235
818.44	73.469
818.74	66.667
819.04	51.282
819.35	48.571
819.65	103.846
819.95	58.491
820.25	60.000
820.56	52.381
820.86	53.125
821.16	56.410
821.46	51.163
821.76	42.000
822.07	64.286
822.37	67.391
822.67	70.213
822.97	62.162
823.27	67.500
823.57	67.347
823.88	80.000
824.18	105.000
824.48	126.667
824.78	124.000
825.08	103.030
825.38	75.556
825.69	78.723
825.99	86.111
826.29	60.000
826.59	74.359
826.89	48.837
827.19	48.000
827.49	47.059
827.79	50.000
828.09	64.865
828.39	56.667
828.70	43.902
829.00	79.070
829.30	82.143
829.60	94.118
829.90	50.000
830.20	82.857
830.50	79.310
830.80	150.000
831.10	65.385
831.40	85.294
831.70	90.476
832.00	129.032
832.30	70.588
832.60	75.000
832.90	100.000
833.20	52.632
833.50	100.000
833.80	63.158
834.10	61.905
834.40	66.667
834.70	100.000
835.00	34.286
835.30	85.294
835.60	83.333
835.90	44.000
836.20	63.636
836.50	104.000
836.80	57.576
837.10	88.889
837.40	111.111
837.70	106.250
838.00	92.857
838.30	73.913
838.60	100.000
838.90	121.429
839.19	56.522
839.49	166.667
839.79	82.609
840.09	56.250
840.39	65.000
840.69	87.097
840.99	67.857
841.29	93.333
841.59	89.474
841.88	74.359
842.18	61.538
842.48	270.000
842.78	115.000
843.08	43.333
843.38	90.323
843.68	55.556
843.97	94.118
844.27	87.500
844.57	84.211
844.87	180.000
845.17	193.333
845.47	114.286
845.76	100.000
846.06	166.667
846.36	111.765
846.66	119.231
846.96	73.333
847.25	105.882
847.55	100.000
847.85	80.000
848.15	111.765
848.44	127.273
848.74	123.810
849.04	54.167
849.34	150.000
849.63	91.304
849.93	-700.000
850.23	146.667
850.53	84.615
850.82	118.182
851.12	122.727
851.42	200.000
851.71	200.000
852.01	85.000
852.31	184.615
852.61	57.895
852.90	183.333
853.20	122.222
853.50	77.778
853.79	61.905
854.09	63.636
854.39	33.333
854.68	61.290
854.98	119.231
855.28	105.556
855.57	64.286
855.87	80.000
856.17	77.273
856.46	77.778
856.76	122.222
857.05	73.913
857.35	87.500
857.65	100.000
857.94	80.952
858.24	114.815
858.53	86.957
858.83	111.765
859.13	70.588
859.42	135.294
859.72	164.286
860.01	110.000
860.31	177.778
860.60	240.000
860.90	133.333
861.20	122.222
861.49	184.615
861.79	73.333
862.08	115.385
862.38	84.375
862.67	129.412
862.97	118.750
863.26	166.667
863.56	250.000
863.85	181.818
864.15	122.222
864.44	300.000
864.74	92.857
865.03	125.000
865.33	50.000
865.62	45.161
865.92	104.545
866.21	117.391
866.51	150.000
866.80	120.000
867.10	66.667
867.39	100.000
867.69	-1600.000
867.98	314.286
868.27	141.176
868.57	-400.000
868.86	30.000
869.16	80.952
869.45	75.000
869.75	172.727
870.04	242.857
870.33	116.667
870.63	171.429
870.92	375.000
871.22	100.000
871.51	136.364
871.80	166.667
872.10	950.000
>>>>>End Processed Spectral Data<<<<<
