SpectraSuite Data File
++++++++++++++++++++++++++++++++++++
Date: Thu May 14 14:28:48 PDT 2015
User: schluterlab
Dark Spectrum Present: Yes
Reference Spectrum Present: Yes
Number of Sampled Component Spectra: 1
Spectrometers: USB2E3373
Integration Time (usec): 3000 (USB2E3373)
Spectra Averaged: 3 (USB2E3373)
Boxcar Smoothing: 0 (USB2E3373)
Correct for Electrical Dark: No (USB2E3373)
Strobe/Lamp Enabled: No (USB2E3373)
Correct for Detector Non-linearity: No (USB2E3373)
Correct for Stray Light: No (USB2E3373)
Number of Pixels in Processed Spectrum: 2048
>>>>>Begin Processed Spectral Data<<<<<
178.53	0.000
178.91	-228.571
179.29	500.000
179.67	400.000
180.04	64.286
180.42	-190.000
180.80	-180.000
181.18	700.000
181.56	1300.000
181.94	-275.000
182.31	450.000
182.69	-66.667
183.07	350.000
183.45	-275.000
183.83	183.333
184.20	566.667
184.58	-1400.000
184.96	75.000
185.34	155.556
185.72	340.000
186.09	-66.667
186.47	-100.000
186.85	-100.000
187.23	88.889
187.61	-800.000
187.98	-180.000
188.36	-275.000
188.74	250.000
189.12	433.333
189.49	118.750
189.87	175.000
190.25	233.333
190.63	640.000
191.00	88.889
191.38	0.000
191.76	50.000
192.14	183.333
192.51	-750.000
192.89	300.000
193.27	0.000
193.65	200.000
194.02	400.000
194.40	185.714
194.78	-14.286
195.15	0.000
195.53	127.273
195.91	0.000
196.29	475.000
196.66	107.692
197.04	900.000
197.42	228.571
197.79	450.000
198.17	250.000
198.55	114.286
198.92	155.556
199.30	162.500
199.68	209.091
200.05	200.000
200.43	650.000
200.81	-71.429
201.18	0.000
201.56	-11.111
201.94	0.000
202.31	-100.000
202.69	44.444
203.07	-2100.000
203.44	122.222
203.82	325.000
204.19	91.667
204.57	266.667
204.95	137.500
205.32	1600.000
205.70	-225.000
206.08	50.000
206.45	316.667
206.83	20.000
207.20	133.333
207.58	200.000
207.96	33.333
208.33	250.000
208.71	-66.667
209.08	300.000
209.46	0.000
209.84	-83.333
210.21	-500.000
210.59	-350.000
210.96	-100.000
211.34	325.000
211.71	100.000
212.09	400.000
212.46	0.000
212.84	-150.000
213.22	140.000
213.59	325.000
213.97	180.000
214.34	200.000
214.72	-50.000
215.09	250.000
215.47	0.000
215.84	-85.714
216.22	-550.000
216.59	300.000
216.97	60.000
217.34	450.000
217.72	187.500
218.09	275.000
218.47	200.000
218.84	0.000
219.22	-340.000
219.59	129.412
219.97	105.000
220.34	-150.000
220.72	155.556
221.09	153.846
221.47	366.667
221.84	60.000
222.22	128.571
222.59	0.000
222.97	212.500
223.34	180.000
223.72	600.000
224.09	175.000
224.46	275.000
224.84	280.000
225.21	100.000
225.59	-50.000
225.96	250.000
226.34	84.615
226.71	-66.667
227.08	550.000
227.46	66.667
227.83	250.000
228.21	52.632
228.58	-100.000
228.95	-500.000
229.33	125.000
229.70	120.000
230.08	178.947
230.45	-90.000
230.82	266.667
231.20	100.000
231.57	108.333
231.95	81.818
232.32	154.545
232.69	85.000
233.07	525.000
233.44	129.412
233.81	150.000
234.19	94.444
234.56	95.455
234.93	75.862
235.31	121.053
235.68	100.000
236.05	35.000
236.43	100.000
236.80	92.000
237.17	18.519
237.55	39.394
237.92	60.000
238.29	25.806
238.67	52.273
239.04	38.889
239.41	35.714
239.79	4.348
240.16	24.074
240.53	47.826
240.91	19.608
241.28	24.590
241.65	44.776
242.02	33.784
242.40	24.615
242.77	34.667
243.14	26.829
243.51	19.737
243.89	30.769
244.26	31.683
244.63	23.529
245.00	25.234
245.38	19.298
245.75	15.929
246.12	25.397
246.49	13.953
246.87	25.000
247.24	19.205
247.61	26.316
247.98	23.490
248.36	21.605
248.73	20.245
249.10	22.404
249.47	23.383
249.84	18.325
250.22	14.508
250.59	23.333
250.96	18.182
251.33	13.776
251.70	20.513
252.08	20.417
252.45	19.672
252.82	19.835
253.19	16.797
253.56	20.913
253.94	16.538
254.31	17.803
254.68	20.629
255.05	19.544
255.42	16.327
255.79	13.916
256.16	15.563
256.54	16.225
256.91	17.377
257.28	19.016
257.65	13.376
258.02	15.929
258.39	16.524
258.76	17.737
259.14	15.517
259.51	15.562
259.88	17.280
260.25	13.611
260.62	18.904
260.99	18.579
261.36	19.303
261.73	12.732
262.10	14.560
262.47	16.354
262.85	18.434
263.22	12.987
263.59	12.895
263.96	15.857
264.33	14.578
264.70	13.827
265.07	16.945
265.44	18.821
265.81	15.741
266.18	16.327
266.55	14.286
266.92	14.351
267.29	17.287
267.66	14.856
268.03	13.100
268.40	15.240
268.77	13.667
269.14	12.775
269.51	15.132
269.88	16.803
270.25	16.499
270.62	14.979
270.99	16.364
271.36	15.446
271.73	15.128
272.10	14.629
272.47	15.030
272.84	14.257
273.21	16.032
273.58	12.500
273.95	16.154
274.32	12.738
274.69	12.573
275.06	14.652
275.43	12.754
275.80	14.462
276.17	14.630
276.54	14.552
276.91	13.059
277.28	16.275
277.65	14.004
278.02	14.706
278.39	13.949
278.76	13.708
279.13	15.071
279.50	14.089
279.87	13.953
280.23	11.972
280.60	14.746
280.97	14.803
281.34	12.054
281.71	14.382
282.08	12.625
282.45	10.802
282.82	14.443
283.19	11.309
283.56	13.279
283.92	14.114
284.29	16.114
284.66	14.450
285.03	11.859
285.40	14.529
285.77	13.622
286.14	14.656
286.51	13.546
286.87	13.112
287.24	14.307
287.61	12.257
287.98	11.934
288.35	14.053
288.72	13.609
289.08	13.763
289.45	12.278
289.82	13.102
290.19	14.080
290.56	13.521
290.93	13.980
291.29	12.397
291.66	12.121
292.03	11.940
292.40	13.061
292.77	11.321
293.13	12.449
293.50	11.564
293.87	10.872
294.24	12.400
294.60	12.769
294.97	11.275
295.34	13.188
295.71	11.854
296.08	12.274
296.44	11.520
296.81	11.815
297.18	10.834
297.55	10.849
297.91	11.269
298.28	10.190
298.65	9.869
299.02	10.153
299.38	11.327
299.75	10.864
300.12	9.259
300.48	11.060
300.85	11.699
301.22	11.969
301.59	9.589
301.95	9.605
302.32	11.556
302.69	10.624
303.05	10.773
303.42	11.641
303.79	10.521
304.15	11.356
304.52	10.254
304.89	11.518
305.25	11.801
305.62	10.449
305.99	11.546
306.35	10.081
306.72	11.479
307.09	10.761
307.45	12.008
307.82	11.100
308.19	10.898
308.55	11.958
308.92	11.003
309.29	11.015
309.65	10.624
310.02	10.297
310.38	10.531
310.75	12.524
311.12	12.464
311.48	10.557
311.85	10.541
312.22	11.385
312.58	10.892
312.95	10.229
313.31	11.382
313.68	12.179
314.05	12.195
314.41	12.295
314.78	12.080
315.14	12.976
315.51	12.096
315.87	11.971
316.24	12.420
316.61	12.433
316.97	10.588
317.34	11.993
317.70	12.664
318.07	11.376
318.43	12.500
318.80	13.127
319.16	11.073
319.53	11.825
319.89	12.883
320.26	11.566
320.62	12.145
320.99	13.481
321.35	11.553
321.72	12.930
322.08	11.722
322.45	12.827
322.81	12.906
323.18	12.389
323.54	12.241
323.91	14.502
324.27	12.565
324.64	13.518
325.00	12.272
325.37	13.514
325.73	14.132
326.10	13.706
326.46	14.088
326.83	14.251
327.19	13.622
327.56	14.466
327.92	13.061
328.29	13.790
328.65	13.819
329.01	13.706
329.38	14.996
329.74	13.955
330.11	14.469
330.47	14.912
330.84	13.695
331.20	14.500
331.56	13.605
331.93	15.565
332.29	15.085
332.66	14.120
333.02	13.149
333.38	13.842
333.75	14.141
334.11	15.096
334.48	15.017
334.84	16.058
335.20	14.945
335.57	14.840
335.93	14.050
336.29	14.309
336.66	14.382
337.02	14.298
337.38	14.796
337.75	14.628
338.11	13.373
338.47	14.640
338.84	12.944
339.20	13.479
339.56	14.745
339.93	14.039
340.29	13.366
340.65	15.004
341.02	14.286
341.38	15.279
341.74	14.447
342.11	15.125
342.47	13.582
342.83	14.412
343.20	13.982
343.56	14.435
343.92	14.251
344.28	14.531
344.65	15.116
345.01	14.431
345.37	14.308
345.73	13.718
346.10	15.289
346.46	13.291
346.82	14.607
347.19	14.668
347.55	15.099
347.91	13.076
348.27	13.657
348.63	14.547
349.00	14.169
349.36	13.309
349.72	14.286
350.08	14.562
350.45	14.144
350.81	13.801
351.17	14.060
351.53	14.936
351.89	14.123
352.26	13.731
352.62	14.254
352.98	13.893
353.34	13.742
353.70	14.407
354.07	14.456
354.43	13.667
354.79	14.361
355.15	14.128
355.51	15.351
355.87	13.687
356.24	14.829
356.60	13.008
356.96	13.936
357.32	14.052
357.68	12.958
358.04	14.746
358.40	14.104
358.77	14.474
359.13	13.589
359.49	13.011
359.85	13.706
360.21	13.989
360.57	14.501
360.93	14.175
361.29	14.526
361.66	13.903
362.02	15.240
362.38	14.687
362.74	14.316
363.10	15.268
363.46	13.435
363.82	15.341
364.18	14.004
364.54	13.970
364.90	15.050
365.26	13.931
365.62	14.533
365.98	15.248
366.35	14.698
366.71	14.558
367.07	15.223
367.43	14.970
367.79	14.864
368.15	14.314
368.51	14.750
368.87	14.239
369.23	14.400
369.59	15.096
369.95	15.619
370.31	15.327
370.67	14.305
371.03	14.681
371.39	15.111
371.75	15.612
372.11	15.379
372.47	13.947
372.83	15.707
373.19	14.743
373.55	15.244
373.91	14.247
374.27	15.395
374.63	15.494
374.99	15.716
375.35	15.325
375.71	15.355
376.07	14.913
376.42	15.680
376.78	16.283
377.14	15.533
377.50	16.256
377.86	16.749
378.22	15.629
378.58	16.587
378.94	15.376
379.30	16.579
379.66	16.226
380.02	16.445
380.38	16.878
380.74	16.169
381.09	16.551
381.45	16.705
381.81	17.330
382.17	16.983
382.53	16.901
382.89	16.309
383.25	16.647
383.61	16.725
383.97	16.902
384.32	17.045
384.68	17.111
385.04	18.045
385.40	18.150
385.76	18.347
386.12	17.295
386.48	17.706
386.83	18.474
387.19	17.555
387.55	16.901
387.91	17.751
388.27	18.533
388.62	18.786
388.98	17.710
389.34	18.857
389.70	18.942
390.06	18.413
390.42	18.976
390.77	18.964
391.13	18.603
391.49	19.263
391.85	18.606
392.20	18.743
392.56	18.901
392.92	18.757
393.28	19.016
393.64	18.380
393.99	19.640
394.35	18.750
394.71	19.341
395.07	18.024
395.42	19.075
395.78	19.866
396.14	19.073
396.50	19.359
396.85	19.141
397.21	19.822
397.57	19.258
397.92	18.786
398.28	19.066
398.64	18.764
399.00	18.691
399.35	19.162
399.71	19.076
400.07	19.652
400.42	19.965
400.78	18.866
401.14	18.953
401.49	18.818
401.85	18.372
402.21	18.714
402.57	19.777
402.92	19.681
403.28	18.970
403.63	18.795
403.99	19.418
404.35	19.557
404.70	19.263
405.06	19.348
405.42	19.614
405.77	20.284
406.13	18.909
406.49	18.919
406.84	19.668
407.20	19.452
407.55	18.716
407.91	18.730
408.27	18.669
408.62	19.779
408.98	18.688
409.34	18.592
409.69	19.283
410.05	19.050
410.40	19.084
410.76	19.013
411.11	18.995
411.47	19.349
411.83	19.518
412.18	19.398
412.54	19.917
412.89	19.849
413.25	18.623
413.60	19.184
413.96	19.406
414.31	18.980
414.67	18.724
415.03	18.277
415.38	20.240
415.74	19.059
416.09	19.432
416.45	18.910
416.80	19.278
417.16	18.646
417.51	19.925
417.87	19.375
418.22	19.222
418.58	19.021
418.93	19.558
419.29	20.037
419.64	18.908
420.00	19.347
420.35	19.203
420.71	18.610
421.06	19.091
421.42	19.954
421.77	18.632
422.12	18.975
422.48	18.894
422.83	19.934
423.19	18.886
423.54	18.916
423.90	18.609
424.25	19.573
424.61	18.542
424.96	19.440
425.31	18.949
425.67	18.680
426.02	19.092
426.38	19.403
426.73	19.085
427.09	19.954
427.44	18.678
427.79	19.348
428.15	18.950
428.50	19.551
428.85	18.886
429.21	19.734
429.56	19.200
429.92	18.919
430.27	19.566
430.62	18.857
430.98	19.429
431.33	19.404
431.68	19.205
432.04	19.147
432.39	19.068
432.74	19.178
433.10	19.416
433.45	18.283
433.80	20.118
434.16	19.267
434.51	19.733
434.86	19.110
435.22	20.191
435.57	19.517
435.92	18.809
436.28	19.113
436.63	19.934
436.98	19.646
437.34	19.391
437.69	19.318
438.04	18.985
438.39	19.586
438.75	18.650
439.10	19.926
439.45	19.285
439.81	19.096
440.16	18.552
440.51	19.565
440.86	19.400
441.22	19.400
441.57	20.493
441.92	20.029
442.27	19.798
442.63	19.921
442.98	20.651
443.33	19.411
443.68	20.515
444.03	20.602
444.39	19.787
444.74	19.806
445.09	19.564
445.44	19.863
445.79	20.354
446.15	20.195
446.50	19.587
446.85	20.088
447.20	20.455
447.55	19.874
447.91	19.634
448.26	20.402
448.61	20.670
448.96	20.601
449.31	20.148
449.66	19.118
450.02	20.411
450.37	20.991
450.72	20.291
451.07	20.786
451.42	19.353
451.77	19.455
452.12	19.752
452.47	20.083
452.83	20.552
453.18	19.323
453.53	19.472
453.88	20.431
454.23	20.508
454.58	20.081
454.93	19.053
455.28	20.409
455.63	19.898
455.98	20.000
456.34	20.848
456.69	19.283
457.04	19.917
457.39	19.069
457.74	20.694
458.09	20.044
458.44	20.690
458.79	20.217
459.14	19.769
459.49	19.808
459.84	20.042
460.19	19.545
460.54	20.500
460.89	20.699
461.24	20.230
461.59	21.140
461.94	18.654
462.29	20.381
462.64	20.036
462.99	20.465
463.34	20.766
463.69	20.633
464.04	20.233
464.39	20.516
464.74	20.582
465.09	20.185
465.44	19.796
465.79	20.201
466.14	19.646
466.49	20.474
466.84	19.835
467.19	19.711
467.54	19.506
467.89	19.138
468.24	20.277
468.59	19.398
468.94	19.814
469.29	19.496
469.64	20.216
469.99	20.204
470.34	19.554
470.68	20.164
471.03	20.694
471.38	20.798
471.73	19.571
472.08	20.114
472.43	20.169
472.78	20.151
473.13	21.429
473.48	20.846
473.83	19.849
474.17	19.519
474.52	20.144
474.87	20.377
475.22	19.775
475.57	19.730
475.92	19.512
476.27	19.595
476.61	19.938
476.96	19.135
477.31	20.594
477.66	20.934
478.01	20.742
478.36	20.239
478.70	20.000
479.05	19.581
479.40	20.385
479.75	19.981
480.10	19.659
480.45	19.781
480.79	20.499
481.14	19.715
481.49	19.491
481.84	19.930
482.19	19.484
482.53	19.808
482.88	20.115
483.23	19.475
483.58	19.127
483.92	18.794
484.27	19.771
484.62	18.688
484.97	19.984
485.31	19.958
485.66	20.065
486.01	20.185
486.36	20.282
486.70	20.006
487.05	19.790
487.40	19.457
487.75	19.593
488.09	19.555
488.44	19.081
488.79	19.865
489.13	19.732
489.48	18.369
489.83	18.310
490.17	18.834
490.52	19.171
490.87	18.655
491.22	19.411
491.56	19.283
491.91	19.276
492.26	19.126
492.60	18.977
492.95	18.824
493.30	19.095
493.64	18.835
493.99	18.640
494.34	19.207
494.68	19.058
495.03	18.987
495.37	18.464
495.72	18.050
496.07	18.668
496.41	18.404
496.76	19.725
497.11	18.641
497.45	18.386
497.80	20.080
498.14	18.549
498.49	19.485
498.84	18.876
499.18	19.028
499.53	19.596
499.87	19.297
500.22	19.056
500.56	18.893
500.91	18.673
501.26	19.682
501.60	19.090
501.95	19.409
502.29	19.702
502.64	19.327
502.98	19.629
503.33	19.266
503.67	19.058
504.02	19.396
504.36	19.526
504.71	19.201
505.06	19.145
505.40	19.607
505.75	19.171
506.09	19.797
506.44	19.638
506.78	19.587
507.13	20.009
507.47	19.422
507.82	19.508
508.16	19.264
508.51	19.878
508.85	19.509
509.19	19.991
509.54	20.173
509.88	19.378
510.23	19.670
510.57	19.816
510.92	19.545
511.26	20.058
511.61	19.701
511.95	19.863
512.30	19.449
512.64	19.290
512.98	19.510
513.33	19.960
513.67	19.684
514.02	20.542
514.36	20.000
514.70	19.792
515.05	19.969
515.39	19.738
515.74	20.785
516.08	20.338
516.42	20.617
516.77	20.294
517.11	20.010
517.46	19.883
517.80	20.684
518.14	20.675
518.49	20.282
518.83	19.904
519.17	19.225
519.52	19.811
519.86	20.116
520.20	19.436
520.55	20.208
520.89	19.426
521.23	19.319
521.58	20.734
521.92	20.397
522.26	20.332
522.61	19.676
522.95	20.300
523.29	19.540
523.64	20.011
523.98	20.707
524.32	21.547
524.66	20.717
525.01	19.422
525.35	19.127
525.69	20.418
526.04	19.977
526.38	20.517
526.72	20.588
527.06	20.587
527.41	20.058
527.75	20.665
528.09	20.425
528.43	20.012
528.78	19.711
529.12	20.126
529.46	19.505
529.80	20.366
530.15	20.638
530.49	19.929
530.83	20.661
531.17	20.311
531.51	20.939
531.86	20.613
532.20	20.122
532.54	20.168
532.88	20.121
533.22	20.625
533.57	20.369
533.91	20.539
534.25	21.198
534.59	20.115
534.93	20.374
535.27	20.620
535.62	21.205
535.96	20.860
536.30	20.035
536.64	20.480
536.98	20.726
537.32	20.494
537.66	21.210
538.01	20.121
538.35	20.219
538.69	19.892
539.03	20.846
539.37	20.848
539.71	20.901
540.05	20.923
540.39	20.721
540.73	20.279
541.07	19.926
541.42	20.496
541.76	20.344
542.10	20.084
542.44	19.671
542.78	19.343
543.12	20.441
543.46	20.391
543.80	20.144
544.14	19.928
544.48	20.626
544.82	21.664
545.16	20.394
545.50	19.832
545.84	19.535
546.18	21.358
546.52	20.191
546.86	19.497
547.20	20.165
547.54	20.412
547.88	19.771
548.22	19.942
548.56	20.480
548.90	19.940
549.24	20.790
549.58	19.558
549.92	19.962
550.26	20.065
550.60	19.719
550.94	20.052
551.28	20.264
551.62	20.081
551.96	19.806
552.30	20.076
552.64	20.348
552.98	19.963
553.32	21.029
553.66	21.029
554.00	20.933
554.34	19.949
554.68	19.690
555.02	20.894
555.36	20.973
555.69	19.603
556.03	20.303
556.37	20.401
556.71	19.975
557.05	19.042
557.39	19.443
557.73	20.343
558.07	18.675
558.41	20.797
558.75	20.352
559.08	20.390
559.42	20.165
559.76	20.081
560.10	19.625
560.44	19.459
560.78	20.187
561.12	20.567
561.45	19.586
561.79	19.841
562.13	20.271
562.47	19.420
562.81	19.937
563.15	19.634
563.48	20.261
563.82	19.891
564.16	19.806
564.50	19.964
564.84	19.587
565.17	19.706
565.51	19.735
565.85	19.656
566.19	19.585
566.52	20.129
566.86	19.864
567.20	20.011
567.54	20.393
567.88	20.693
568.21	20.553
568.55	20.767
568.89	20.427
569.23	20.659
569.56	20.399
569.90	20.813
570.24	21.147
570.57	20.334
570.91	20.178
571.25	20.712
571.59	20.456
571.92	20.629
572.26	20.461
572.60	20.721
572.93	20.206
573.27	20.455
573.61	20.937
573.95	20.879
574.28	20.579
574.62	21.055
574.96	20.534
575.29	20.379
575.63	20.397
575.97	20.719
576.30	20.429
576.64	20.377
576.98	20.706
577.31	20.850
577.65	20.966
577.98	20.557
578.32	20.353
578.66	20.580
578.99	20.193
579.33	20.520
579.67	20.308
580.00	20.274
580.34	20.746
580.67	19.903
581.01	19.991
581.35	20.631
581.68	20.763
582.02	20.993
582.35	20.980
582.69	20.698
583.02	20.669
583.36	20.538
583.70	20.245
584.03	20.230
584.37	20.143
584.70	20.465
585.04	20.623
585.37	20.901
585.71	20.971
586.04	20.586
586.38	20.682
586.72	20.055
587.05	20.491
587.39	20.992
587.72	20.646
588.06	20.793
588.39	20.538
588.73	20.503
589.06	20.372
589.40	20.836
589.73	20.469
590.07	20.822
590.40	21.163
590.73	20.184
591.07	20.737
591.40	19.635
591.74	20.072
592.07	20.341
592.41	20.110
592.74	20.305
593.08	21.051
593.41	20.764
593.75	20.316
594.08	20.963
594.41	20.128
594.75	20.126
595.08	20.020
595.42	20.325
595.75	20.956
596.09	20.569
596.42	20.100
596.75	20.610
597.09	20.566
597.42	20.262
597.75	20.031
598.09	20.079
598.42	21.271
598.76	19.908
599.09	20.292
599.42	20.717
599.76	20.139
600.09	20.420
600.42	20.554
600.76	20.046
601.09	19.814
601.42	19.670
601.76	20.241
602.09	20.157
602.42	19.775
602.76	19.742
603.09	19.530
603.42	20.629
603.76	20.155
604.09	21.008
604.42	20.771
604.76	19.787
605.09	20.463
605.42	20.455
605.75	20.038
606.09	20.045
606.42	19.847
606.75	19.190
607.09	19.700
607.42	20.077
607.75	19.930
608.08	19.732
608.42	20.153
608.75	20.522
609.08	20.076
609.41	20.159
609.75	19.554
610.08	20.449
610.41	19.499
610.74	19.622
611.07	19.938
611.41	20.135
611.74	19.723
612.07	20.196
612.40	19.772
612.73	19.756
613.07	19.315
613.40	19.731
613.73	20.510
614.06	20.559
614.39	19.922
614.72	18.729
615.06	19.682
615.39	19.188
615.72	20.047
616.05	19.815
616.38	19.879
616.71	20.376
617.05	19.862
617.38	20.064
617.71	20.032
618.04	20.076
618.37	20.055
618.70	19.966
619.03	18.698
619.36	19.236
619.69	19.283
620.03	20.465
620.36	19.448
620.69	20.111
621.02	20.210
621.35	20.247
621.68	19.595
622.01	19.359
622.34	19.177
622.67	19.588
623.00	18.286
623.33	19.509
623.66	20.039
623.99	19.223
624.32	19.493
624.65	18.855
624.99	19.246
625.32	20.248
625.65	18.746
625.98	18.508
626.31	18.710
626.64	19.341
626.97	19.505
627.30	18.527
627.63	19.580
627.96	19.745
628.29	19.533
628.62	19.060
628.95	18.755
629.28	17.842
629.61	18.771
629.94	18.410
630.26	18.475
630.59	17.962
630.92	18.355
631.25	18.336
631.58	19.115
631.91	18.838
632.24	18.540
632.57	18.311
632.90	18.556
633.23	19.286
633.56	18.673
633.89	17.975
634.22	19.335
634.55	18.058
634.88	17.749
635.20	19.806
635.53	18.983
635.86	20.477
636.19	18.664
636.52	17.932
636.85	20.429
637.18	19.439
637.51	17.849
637.83	19.601
638.16	19.355
638.49	18.427
638.82	19.729
639.15	17.755
639.48	19.284
639.81	18.938
640.13	17.903
640.46	16.485
640.79	17.157
641.12	20.000
641.45	18.946
641.77	20.282
642.10	17.979
642.43	19.947
642.76	19.919
643.09	19.589
643.41	17.927
643.74	18.483
644.07	18.207
644.40	18.388
644.73	17.997
645.05	17.327
645.38	19.568
645.71	18.328
646.04	19.799
646.36	15.328
646.69	17.025
647.02	18.807
647.35	18.779
647.67	18.680
648.00	18.471
648.33	18.769
648.66	19.401
648.98	18.503
649.31	18.945
649.64	19.522
649.96	18.037
650.29	17.246
650.62	16.832
650.94	18.769
651.27	17.515
651.60	16.374
651.92	18.237
652.25	18.524
652.58	18.982
652.90	18.023
653.23	21.690
653.56	19.258
653.88	20.365
654.21	18.732
654.54	17.919
654.86	18.414
655.19	18.193
655.52	18.835
655.84	18.534
656.17	24.302
656.49	34.174
656.82	37.338
657.15	28.280
657.47	20.719
657.80	15.030
658.13	11.797
658.45	15.717
658.78	19.242
659.10	18.712
659.43	19.749
659.75	19.862
660.08	19.832
660.41	20.596
660.73	17.560
661.06	17.474
661.38	18.820
661.71	20.517
662.03	18.342
662.36	18.784
662.68	18.762
663.01	17.876
663.33	19.660
663.66	18.864
663.98	18.846
664.31	17.073
664.63	17.534
664.96	17.241
665.28	15.245
665.61	18.357
665.93	16.964
666.26	20.251
666.58	18.450
666.91	20.000
667.23	17.333
667.56	18.935
667.88	17.200
668.21	15.820
668.53	16.795
668.86	17.092
669.18	16.904
669.50	16.899
669.83	17.800
670.15	19.882
670.48	17.659
670.80	15.488
671.13	18.147
671.45	17.717
671.77	18.832
672.10	19.000
672.42	19.094
672.75	17.972
673.07	19.254
673.39	17.257
673.72	19.128
674.04	17.931
674.37	18.247
674.69	19.753
675.01	19.238
675.34	16.031
675.66	18.539
675.98	19.963
676.31	18.945
676.63	19.202
676.95	19.349
677.28	18.145
677.60	15.748
677.92	16.315
678.25	17.185
678.57	17.082
678.89	17.747
679.22	16.376
679.54	17.778
679.86	17.119
680.18	17.579
680.51	19.654
680.83	18.494
681.15	16.034
681.48	20.553
681.80	17.098
682.12	19.580
682.44	18.030
682.77	17.553
683.09	18.561
683.41	19.961
683.73	18.596
684.06	17.343
684.38	16.816
684.70	17.774
685.02	17.900
685.34	17.637
685.67	16.877
685.99	16.258
686.31	17.151
686.63	18.167
686.96	18.454
687.28	19.218
687.60	17.845
687.92	15.916
688.24	19.533
688.56	17.414
688.89	19.964
689.21	18.395
689.53	16.471
689.85	17.751
690.17	19.630
690.49	18.127
690.82	17.426
691.14	16.194
691.46	18.356
691.78	20.810
692.10	17.798
692.42	16.071
692.74	18.693
693.06	15.556
693.39	19.165
693.71	18.045
694.03	17.658
694.35	19.429
694.67	18.686
694.99	17.872
695.31	15.232
695.63	17.316
695.95	16.770
696.27	17.802
696.59	18.805
696.91	17.793
697.23	16.703
697.56	18.534
697.88	17.803
698.20	19.021
698.52	18.561
698.84	19.335
699.16	18.163
699.48	19.665
699.80	20.000
700.12	19.651
700.44	16.820
700.76	19.477
701.08	17.433
701.40	20.207
701.72	18.657
702.04	17.112
702.36	14.660
702.68	15.159
703.00	15.159
703.32	15.764
703.64	18.582
703.96	18.138
704.28	17.199
704.60	20.000
704.91	18.112
705.23	17.534
705.55	18.942
705.87	20.000
706.19	19.325
706.51	16.867
706.83	16.715
707.15	16.402
707.47	17.757
707.79	18.777
708.11	14.619
708.43	16.989
708.74	16.741
709.06	18.097
709.38	20.423
709.70	19.851
710.02	17.571
710.34	20.479
710.66	17.318
710.98	20.492
711.29	17.033
711.61	17.514
711.93	21.083
712.25	19.730
712.57	21.829
712.89	19.412
713.20	15.976
713.52	18.786
713.84	16.156
714.16	21.579
714.48	19.072
714.80	20.779
715.11	20.472
715.43	20.159
715.75	18.421
716.07	18.785
716.39	20.765
716.70	19.578
717.02	19.344
717.34	18.467
717.66	18.792
717.97	16.781
718.29	18.557
718.61	17.105
718.93	18.123
719.24	17.391
719.56	19.325
719.88	21.922
720.20	20.323
720.51	17.391
720.83	18.125
721.15	14.474
721.46	14.041
721.78	18.333
722.10	16.181
722.42	16.779
722.73	13.226
723.05	23.509
723.37	18.403
723.68	21.864
724.00	17.329
724.32	15.493
724.63	16.783
724.95	23.050
725.27	14.983
725.58	17.668
725.90	21.379
726.22	18.809
726.53	15.584
726.85	21.384
727.16	19.940
727.48	19.266
727.80	19.205
728.11	17.668
728.43	17.845
728.74	18.060
729.06	17.881
729.38	20.779
729.69	15.772
730.01	21.131
730.32	16.364
730.64	20.755
730.96	18.634
731.27	22.905
731.59	19.231
731.90	17.662
732.22	19.792
732.53	16.022
732.85	16.571
733.16	20.235
733.48	18.902
733.80	19.220
734.11	17.949
734.43	18.649
734.74	18.228
735.06	19.598
735.37	21.081
735.69	18.649
736.00	19.492
736.32	18.059
736.63	19.722
736.95	20.115
737.26	18.182
737.58	16.061
737.89	19.118
738.21	20.489
738.52	15.738
738.83	20.137
739.15	17.730
739.46	22.109
739.78	21.166
740.09	17.765
740.41	20.408
740.72	19.000
741.04	18.123
741.35	18.596
741.66	22.745
741.98	22.131
742.29	18.828
742.61	21.930
742.92	19.231
743.23	21.300
743.55	22.481
743.86	22.400
744.18	18.182
744.49	17.300
744.80	20.988
745.12	20.253
745.43	20.732
745.74	15.086
746.06	19.492
746.37	20.253
746.68	23.171
747.00	21.667
747.31	23.605
747.62	22.692
747.94	19.838
748.25	18.474
748.56	17.551
748.88	15.812
749.19	20.259
749.50	19.048
749.82	19.277
750.13	22.420
750.44	18.667
750.75	21.231
751.07	21.846
751.38	17.981
751.69	18.211
752.01	17.799
752.32	18.627
752.63	17.687
752.94	19.031
753.26	15.242
753.57	20.000
753.88	15.730
754.19	16.399
754.51	18.971
754.82	17.042
755.13	19.344
755.44	18.430
755.75	22.039
756.07	19.403
756.38	20.440
756.69	18.373
757.00	15.235
757.31	20.765
757.63	17.136
757.94	17.606
758.25	20.542
758.56	18.736
758.87	20.000
759.18	21.067
759.50	18.980
759.81	18.768
760.12	20.755
760.43	16.667
760.74	16.502
761.05	19.000
761.36	16.386
761.67	17.766
761.99	19.189
762.30	17.378
762.61	19.472
762.92	19.403
763.23	20.225
763.54	19.065
763.85	19.931
764.16	20.539
764.47	17.958
764.78	18.211
765.10	17.889
765.41	20.000
765.72	17.989
766.03	17.797
766.34	15.047
766.65	19.512
766.96	18.327
767.27	18.894
767.58	21.891
767.89	22.596
768.20	19.249
768.51	16.667
768.82	20.080
769.13	24.242
769.44	17.692
769.75	23.466
770.06	19.615
770.37	22.835
770.68	20.851
770.99	21.053
771.30	25.556
771.61	16.730
771.92	14.444
772.23	23.887
772.54	18.056
772.85	24.885
773.16	24.762
773.47	22.751
773.78	18.919
774.09	26.136
774.39	21.000
774.70	18.033
775.01	18.902
775.32	12.941
775.63	21.472
775.94	12.102
776.25	20.000
776.56	30.128
776.87	30.612
777.18	22.069
777.48	23.776
777.79	20.270
778.10	15.441
778.41	26.389
778.72	22.759
779.03	20.988
779.34	21.212
779.65	20.725
779.95	25.000
780.26	19.886
780.57	23.871
780.88	29.710
781.19	22.581
781.50	25.294
781.80	22.043
782.11	22.222
782.42	14.646
782.73	19.162
783.04	18.994
783.34	19.394
783.65	15.686
783.96	24.224
784.27	25.000
784.57	23.179
784.88	25.714
785.19	25.197
785.50	20.472
785.81	25.564
786.11	28.462
786.42	23.741
786.73	18.705
787.04	29.323
787.34	21.311
787.65	22.400
787.96	18.657
788.26	25.874
788.57	33.566
788.88	27.632
789.19	24.837
789.49	18.493
789.80	25.532
790.11	22.835
790.41	21.875
790.72	27.966
791.03	7.767
791.33	23.478
791.64	21.930
791.95	29.464
792.25	22.857
792.56	21.429
792.87	18.750
793.17	29.464
793.48	17.708
793.79	21.687
794.09	22.018
794.40	22.018
794.70	29.932
795.01	22.727
795.32	23.288
795.62	24.648
795.93	25.758
796.23	22.131
796.54	22.321
796.85	27.660
797.15	28.261
797.46	36.986
797.76	22.500
798.07	17.391
798.37	15.464
798.68	15.584
798.99	39.080
799.29	29.213
799.60	25.532
799.90	22.892
800.21	26.154
800.51	29.851
800.82	30.882
801.12	17.808
801.43	8.824
801.73	28.814
802.04	25.758
802.34	18.333
802.65	25.424
802.95	37.313
803.26	25.424
803.56	34.247
803.87	32.857
804.17	30.137
804.48	17.544
804.78	34.722
805.09	22.414
805.39	28.378
805.70	25.352
806.00	32.927
806.30	30.120
806.61	23.288
806.91	25.000
807.22	32.222
807.52	25.287
807.83	29.167
808.13	32.530
808.43	25.843
808.74	32.500
809.04	17.647
809.35	24.000
809.65	22.857
809.95	16.438
810.26	42.105
810.56	25.862
810.86	35.294
811.17	28.070
811.47	11.475
811.77	6.667
812.08	35.593
812.38	38.333
812.69	18.966
812.99	15.094
813.29	38.462
813.59	54.000
813.90	29.825
814.20	30.909
814.50	36.620
814.81	23.077
815.11	47.541
815.41	25.373
815.72	37.931
816.02	48.214
816.32	44.444
816.62	45.455
816.93	46.667
817.23	48.148
817.53	44.681
817.84	42.857
818.14	52.941
818.44	32.653
818.74	48.889
819.04	15.385
819.35	22.857
819.65	23.077
819.95	26.415
820.25	31.111
820.56	38.095
820.86	28.125
821.16	51.282
821.46	23.256
821.76	30.000
822.07	55.357
822.37	34.783
822.67	31.915
822.97	5.405
823.27	35.000
823.57	44.898
823.88	57.778
824.18	55.000
824.48	36.667
824.78	80.000
825.08	57.576
825.38	73.333
825.69	53.191
825.99	47.222
826.29	8.571
826.59	43.590
826.89	48.837
827.19	36.000
827.49	44.118
827.79	41.667
828.09	40.541
828.39	50.000
828.70	24.390
829.00	6.977
829.30	21.429
829.60	76.471
829.90	41.304
830.20	8.571
830.50	20.690
830.80	72.222
831.10	80.769
831.40	38.235
831.70	52.381
832.00	77.419
832.30	29.412
832.60	54.167
832.90	123.077
833.20	73.684
833.50	15.000
833.80	73.684
834.10	42.857
834.40	72.222
834.70	65.625
835.00	20.000
835.30	58.824
835.60	20.000
835.90	28.000
836.20	31.818
836.50	64.000
836.80	24.242
837.10	51.852
837.40	7.407
837.70	37.500
838.00	89.286
838.30	43.478
838.60	68.966
838.90	57.143
839.19	0.000
839.49	83.333
839.79	47.826
840.09	-43.750
840.39	65.000
840.69	58.065
840.99	25.000
841.29	60.000
841.59	47.368
841.88	56.410
842.18	61.538
842.48	50.000
842.78	80.000
843.08	36.667
843.38	58.065
843.68	77.778
843.97	50.000
844.27	100.000
844.57	15.789
844.87	-40.000
845.17	80.000
845.47	95.238
845.76	57.143
846.06	100.000
846.36	88.235
846.66	73.077
846.96	120.000
847.25	94.118
847.55	113.043
847.85	65.000
848.15	135.294
848.44	72.727
848.74	61.905
849.04	62.500
849.34	68.750
849.63	43.478
849.93	-700.000
850.23	60.000
850.53	92.308
850.82	190.909
851.12	68.182
851.42	90.909
851.71	130.769
852.01	10.000
852.31	100.000
852.61	78.947
852.90	150.000
853.20	33.333
853.50	155.556
853.79	47.619
854.09	63.636
854.39	-8.333
854.68	80.645
854.98	46.154
855.28	94.444
855.57	67.857
855.87	36.000
856.17	100.000
856.46	29.630
856.76	77.778
857.05	39.130
857.35	37.500
857.65	7.692
857.94	47.619
858.24	107.407
858.53	86.957
858.83	117.647
859.13	64.706
859.42	105.882
859.72	35.714
860.01	25.000
860.31	122.222
860.60	100.000
860.90	60.000
861.20	105.556
861.49	115.385
861.79	50.000
862.08	38.462
862.38	34.375
862.67	141.176
862.97	150.000
863.26	88.889
863.56	50.000
863.85	54.545
864.15	88.889
864.44	633.333
864.74	100.000
865.03	62.500
865.33	-20.000
865.62	19.355
865.92	109.091
866.21	95.652
866.51	78.571
866.80	180.000
867.10	50.000
867.39	8.333
867.69	-600.000
867.98	128.571
868.27	129.412
868.57	-600.000
868.86	50.000
869.16	47.619
869.45	62.500
869.75	218.182
870.04	42.857
870.33	166.667
870.63	-42.857
870.92	350.000
871.22	12.500
871.51	18.182
871.80	-266.667
872.10	400.000
>>>>>End Processed Spectral Data<<<<<
