SpectraSuite Data File
++++++++++++++++++++++++++++++++++++
Date: Thu May 14 14:31:27 PDT 2015
User: schluterlab
Dark Spectrum Present: Yes
Reference Spectrum Present: Yes
Number of Sampled Component Spectra: 1
Spectrometers: USB2E3373
Integration Time (usec): 3000 (USB2E3373)
Spectra Averaged: 3 (USB2E3373)
Boxcar Smoothing: 0 (USB2E3373)
Correct for Electrical Dark: No (USB2E3373)
Strobe/Lamp Enabled: No (USB2E3373)
Correct for Detector Non-linearity: No (USB2E3373)
Correct for Stray Light: No (USB2E3373)
Number of Pixels in Processed Spectrum: 2048
>>>>>Begin Processed Spectral Data<<<<<
178.53	0.000
178.91	-100.000
179.29	300.000
179.67	900.000
180.04	7.143
180.42	-220.000
180.80	-240.000
181.18	800.000
181.56	1500.000
181.94	-375.000
182.31	625.000
182.69	-500.000
183.07	750.000
183.45	-175.000
183.83	300.000
184.20	700.000
184.58	-1700.000
184.96	275.000
185.34	188.889
185.72	440.000
186.09	-122.222
186.47	-700.000
186.85	-140.000
187.23	122.222
187.61	700.000
187.98	-420.000
188.36	-450.000
188.74	500.000
189.12	466.667
189.49	175.000
189.87	150.000
190.25	188.889
190.63	480.000
191.00	222.222
191.38	0.000
191.76	425.000
192.14	316.667
192.51	-200.000
192.89	400.000
193.27	0.000
193.65	285.714
194.02	1800.000
194.40	171.429
194.78	-85.714
195.15	0.000
195.53	163.636
195.91	0.000
196.29	475.000
196.66	184.615
197.04	1500.000
197.42	200.000
197.79	500.000
198.17	212.500
198.55	314.286
198.92	277.778
199.30	212.500
199.68	254.545
200.05	164.286
200.43	400.000
200.81	28.571
201.18	0.000
201.56	-133.333
201.94	0.000
202.31	-433.333
202.69	155.556
203.07	-1800.000
203.44	200.000
203.82	350.000
204.19	175.000
204.57	166.667
204.95	125.000
205.32	1700.000
205.70	-275.000
206.08	316.667
206.45	283.333
206.83	-140.000
207.20	300.000
207.58	360.000
207.96	166.667
208.33	400.000
208.71	-175.000
209.08	450.000
209.46	0.000
209.84	-200.000
210.21	-750.000
210.59	-750.000
210.96	-166.667
211.34	575.000
211.71	112.500
212.09	1500.000
212.46	0.000
212.84	-450.000
213.22	380.000
213.59	550.000
213.97	170.000
214.34	433.333
214.72	-150.000
215.09	375.000
215.47	0.000
215.84	-200.000
216.22	-900.000
216.59	400.000
216.97	400.000
217.34	325.000
217.72	250.000
218.09	275.000
218.47	375.000
218.84	0.000
219.22	-420.000
219.59	123.529
219.97	85.000
220.34	-1050.000
220.72	255.556
221.09	169.231
221.47	266.667
221.84	200.000
222.22	185.714
222.59	0.000
222.97	350.000
223.34	200.000
223.72	1500.000
224.09	375.000
224.46	350.000
224.84	440.000
225.21	271.429
225.59	200.000
225.96	450.000
226.34	69.231
226.71	-133.333
227.08	1150.000
227.46	180.000
227.83	575.000
228.21	142.105
228.58	-250.000
228.95	-550.000
229.33	175.000
229.70	150.000
230.08	157.895
230.45	-150.000
230.82	700.000
231.20	164.286
231.57	158.333
231.95	190.909
232.32	209.091
232.69	150.000
233.07	600.000
233.44	88.235
233.81	180.000
234.19	183.333
234.56	95.455
234.93	100.000
235.31	131.579
235.68	83.333
236.05	110.000
236.43	107.692
236.80	132.000
237.17	81.481
237.55	84.848
237.92	140.000
238.29	77.419
238.67	61.364
239.04	75.000
239.41	50.000
239.79	63.043
240.16	29.630
240.53	56.522
240.91	35.294
241.28	39.344
241.65	49.254
242.02	45.946
242.40	38.462
242.77	30.667
243.14	37.805
243.51	31.579
243.89	32.051
244.26	42.574
244.63	42.157
245.00	41.121
245.38	38.596
245.75	29.204
246.12	41.270
246.49	41.860
246.87	28.571
247.24	42.384
247.61	32.895
247.98	36.242
248.36	27.778
248.73	37.423
249.10	33.333
249.47	32.836
249.84	37.696
250.22	23.834
250.59	36.667
250.96	31.364
251.33	33.673
251.70	26.923
252.08	35.833
252.45	31.967
252.82	27.273
253.19	23.828
253.56	30.418
253.94	28.462
254.31	28.788
254.68	31.469
255.05	28.664
255.42	25.510
255.79	26.537
256.16	27.483
256.54	24.834
256.91	27.213
257.28	24.590
257.65	25.796
258.02	25.369
258.39	27.635
258.76	30.887
259.14	29.885
259.51	23.055
259.88	29.178
260.25	25.556
260.62	27.397
260.99	29.235
261.36	27.346
261.73	29.178
262.10	27.473
262.47	28.150
262.85	29.293
263.22	24.935
263.59	24.474
263.96	24.808
264.33	23.529
264.70	29.383
265.07	27.685
265.44	29.705
265.81	27.315
266.18	27.664
266.55	28.348
266.92	25.740
267.29	27.133
267.66	25.277
268.03	26.856
268.40	24.843
268.77	25.285
269.14	25.771
269.51	25.439
269.88	25.820
270.25	24.346
270.62	28.270
270.99	29.697
271.36	26.535
271.73	25.147
272.10	28.457
272.47	26.653
272.84	25.301
273.21	26.854
273.58	25.605
273.95	22.885
274.32	23.954
274.69	25.532
275.06	24.908
275.43	21.996
275.80	23.810
276.17	25.556
276.54	24.254
276.91	23.435
277.28	25.497
277.65	25.314
278.02	25.368
278.39	23.732
278.76	24.077
279.13	23.759
279.50	25.945
279.87	26.297
280.23	22.007
280.60	24.915
280.97	23.520
281.34	22.071
281.71	26.396
282.08	26.412
282.45	24.877
282.82	22.449
283.19	23.263
283.56	22.951
283.92	23.423
284.29	23.855
284.66	24.631
285.03	24.199
285.40	23.802
285.77	22.446
286.14	25.191
286.51	22.374
286.87	23.539
287.24	22.440
287.61	23.169
287.98	22.205
288.35	22.633
288.72	24.556
289.08	23.133
289.45	22.337
289.82	23.042
290.19	23.420
290.56	23.944
290.93	23.538
291.29	22.727
291.66	22.727
292.03	21.438
292.40	23.946
292.77	21.833
293.13	20.704
293.50	20.762
293.87	21.477
294.24	24.267
294.60	22.377
294.97	18.523
295.34	22.023
295.71	20.555
296.08	20.801
296.44	21.078
296.81	22.899
297.18	20.174
297.55	21.816
297.91	21.827
298.28	20.972
298.65	21.522
299.02	20.779
299.38	21.625
299.75	21.028
300.12	20.833
300.48	21.774
300.85	21.035
301.22	23.602
301.59	21.689
301.95	20.791
302.32	21.889
302.69	22.453
303.05	22.742
303.42	22.506
303.79	21.979
304.15	21.872
304.52	21.670
304.89	22.199
305.25	21.946
305.62	21.212
305.99	22.887
306.35	21.270
306.72	22.337
307.09	20.711
307.45	22.878
307.82	22.805
308.19	20.686
308.55	21.215
308.92	21.908
309.29	22.222
309.65	22.125
310.02	21.386
310.38	22.146
310.75	23.301
311.12	24.545
311.48	22.190
311.85	23.267
312.22	22.296
312.58	23.756
312.95	24.092
313.31	22.042
313.68	24.725
314.05	25.384
314.41	25.228
314.78	23.887
315.14	24.410
315.51	26.131
315.87	26.103
316.24	26.575
316.61	27.087
316.97	25.249
317.34	24.868
317.70	26.550
318.07	26.455
318.43	27.721
318.80	27.676
319.16	26.094
319.53	26.135
319.89	26.117
320.26	27.402
320.62	26.950
320.99	27.608
321.35	28.651
321.72	29.581
322.08	28.494
322.45	28.365
322.81	28.520
323.18	29.558
323.54	30.172
323.91	30.071
324.27	31.067
324.64	31.822
325.00	30.680
325.37	32.351
325.73	32.645
326.10	32.685
326.46	33.550
326.83	33.147
327.19	34.882
327.56	33.597
327.92	33.517
328.29	34.113
328.65	34.925
329.01	35.956
329.38	36.310
329.74	36.387
330.11	37.757
330.47	37.152
330.84	37.898
331.20	38.250
331.56	38.648
331.93	38.996
332.29	39.068
332.66	38.704
333.02	37.605
333.38	38.255
333.75	37.205
334.11	38.532
334.48	38.201
334.84	39.167
335.20	38.203
335.57	39.039
335.93	38.595
336.29	37.271
336.66	39.529
337.02	39.548
337.38	38.520
337.75	37.190
338.11	40.370
338.47	37.965
338.84	37.986
339.20	38.753
339.56	39.621
339.93	38.177
340.29	38.245
340.65	38.686
341.02	38.867
341.38	40.097
341.74	38.660
342.11	38.214
342.47	38.125
342.83	39.372
343.20	38.757
343.56	37.931
343.92	39.632
344.28	38.516
344.65	39.457
345.01	38.456
345.37	39.114
345.73	36.477
346.10	39.158
346.46	39.161
346.82	37.603
347.19	39.114
347.55	38.392
347.91	38.113
348.27	37.936
348.63	39.299
349.00	40.119
349.36	40.372
349.72	37.351
350.08	37.221
350.45	38.707
350.81	37.255
351.17	38.647
351.53	39.121
351.89	39.711
352.26	38.955
352.62	38.806
352.98	40.229
353.34	37.640
353.70	38.521
354.07	38.376
354.43	39.484
354.79	37.921
355.15	38.779
355.51	38.962
355.87	37.472
356.24	39.392
356.60	38.211
356.96	38.473
357.32	37.621
357.68	38.799
358.04	37.725
358.40	38.806
358.77	39.108
359.13	39.143
359.49	37.918
359.85	39.304
360.21	38.809
360.57	38.478
360.93	38.293
361.29	39.228
361.66	38.885
362.02	38.065
362.38	38.018
362.74	39.735
363.10	38.239
363.46	38.781
363.82	39.205
364.18	39.127
364.54	40.249
364.90	39.197
365.26	39.724
365.62	39.600
365.98	39.415
366.35	38.859
366.71	39.388
367.07	39.851
367.43	39.199
367.79	39.681
368.15	40.134
368.51	40.528
368.87	38.994
369.23	39.133
369.59	41.120
369.95	39.013
370.31	40.176
370.67	39.477
371.03	39.058
371.39	39.490
371.75	39.684
372.11	38.686
372.47	38.524
372.83	39.005
373.19	39.693
373.55	39.566
373.91	40.082
374.27	40.298
374.63	41.204
374.99	39.125
375.35	40.584
375.71	41.226
376.07	40.478
376.42	40.239
376.78	40.211
377.14	40.362
377.50	41.429
377.86	40.948
378.22	41.557
378.58	40.666
378.94	41.138
379.30	41.535
379.66	42.093
380.02	40.854
380.38	40.956
380.74	41.183
381.09	41.057
381.45	40.909
381.81	42.155
382.17	41.983
382.53	41.579
382.89	40.463
383.25	41.970
383.61	41.956
383.97	41.696
384.32	42.584
384.68	40.893
385.04	41.932
385.40	42.369
385.76	43.083
386.12	42.250
386.48	42.000
386.83	42.968
387.19	42.121
387.55	42.958
387.91	42.009
388.27	42.206
388.62	42.039
388.98	41.512
389.34	42.605
389.70	42.127
390.06	41.800
390.42	41.928
390.77	44.431
391.13	41.667
391.49	42.089
391.85	41.636
392.20	42.645
392.56	43.946
392.92	42.857
393.28	42.399
393.64	41.173
393.99	43.289
394.35	43.692
394.71	43.713
395.07	43.054
395.42	43.404
395.78	43.754
396.14	42.068
396.50	43.409
396.85	42.755
397.21	43.787
397.57	42.344
397.92	43.757
398.28	42.368
398.64	42.677
399.00	42.670
399.35	42.147
399.71	42.174
400.07	42.897
400.42	44.179
400.78	43.981
401.14	43.199
401.49	43.491
401.85	43.081
402.21	44.032
402.57	44.131
402.92	43.499
403.28	42.330
403.63	42.959
403.99	42.340
404.35	42.979
404.70	43.513
405.06	42.337
405.42	43.150
405.77	43.730
406.13	42.788
406.49	43.356
406.84	43.546
407.20	43.600
407.55	43.186
407.91	41.923
408.27	42.933
408.62	42.874
408.98	42.368
409.34	43.284
409.69	43.511
410.05	43.728
410.40	44.606
410.76	43.073
411.11	43.425
411.47	43.366
411.83	43.504
412.18	43.253
412.54	43.331
412.89	43.423
413.25	42.438
413.60	42.791
413.96	43.765
414.31	43.003
414.67	44.305
415.03	43.754
415.38	44.578
415.74	43.616
416.09	44.849
416.45	43.081
416.80	44.247
417.16	44.891
417.51	44.707
417.87	44.758
418.22	45.090
418.58	44.734
418.93	45.460
419.29	45.746
419.64	44.598
420.00	45.401
420.35	44.975
420.71	43.940
421.06	45.256
421.42	45.470
421.77	45.396
422.12	44.186
422.48	45.059
422.83	45.838
423.19	46.260
423.54	46.792
423.90	46.549
424.25	45.813
424.61	46.556
424.96	47.392
425.31	47.346
425.67	46.430
426.02	47.205
426.38	46.096
426.73	46.987
427.09	48.097
427.44	46.696
427.79	47.982
428.15	48.002
428.50	47.191
428.85	47.015
429.21	47.713
429.56	48.174
429.92	48.501
430.27	48.434
430.62	48.363
430.98	47.319
431.33	47.801
431.68	47.941
432.04	48.603
432.39	48.581
432.74	49.087
433.10	50.676
433.45	49.721
433.80	50.268
434.16	49.122
434.51	50.822
434.86	50.109
435.22	51.169
435.57	52.594
435.92	49.638
436.28	50.853
436.63	51.447
436.98	50.993
437.34	50.282
437.69	51.348
438.04	51.243
438.39	51.752
438.75	51.190
439.10	52.167
439.45	51.761
439.81	51.638
440.16	50.724
440.51	52.062
440.86	51.529
441.22	52.572
441.57	53.092
441.92	51.940
442.27	51.869
442.63	53.105
442.98	52.882
443.33	53.709
443.68	54.311
444.03	53.622
444.39	53.907
444.74	53.752
445.09	52.914
445.44	54.373
445.79	54.262
446.15	53.905
446.50	55.194
446.85	54.912
447.20	55.222
447.55	54.184
447.91	55.026
448.26	53.805
448.61	55.792
448.96	56.062
449.31	54.984
449.66	53.704
450.02	55.327
450.37	54.981
450.72	55.005
451.07	56.435
451.42	56.153
451.77	54.364
452.12	56.941
452.47	55.971
452.83	57.320
453.18	56.684
453.53	56.806
453.88	56.046
454.23	56.667
454.58	57.226
454.93	57.221
455.28	57.194
455.63	57.760
455.98	56.034
456.34	56.832
456.69	57.437
457.04	58.333
457.39	57.095
457.74	59.340
458.09	57.661
458.44	57.920
458.79	56.524
459.14	56.948
459.49	58.630
459.84	58.447
460.19	59.023
460.54	58.717
460.89	58.867
461.24	58.103
461.59	58.163
461.94	56.361
462.29	58.903
462.64	58.479
462.99	60.578
463.34	60.610
463.69	58.441
464.04	59.811
464.39	59.137
464.74	58.381
465.09	59.285
465.44	59.067
465.79	58.540
466.14	58.468
466.49	58.684
466.84	60.386
467.19	59.249
467.54	59.401
467.89	58.678
468.24	59.501
468.59	57.846
468.94	59.324
469.29	59.508
469.64	58.932
469.99	60.484
470.34	59.839
470.68	61.107
471.03	61.166
471.38	61.151
471.73	61.508
472.08	60.723
472.43	60.807
472.78	61.650
473.13	61.125
473.48	60.906
473.83	61.637
474.17	61.196
474.52	62.117
474.87	60.687
475.22	60.901
475.57	60.228
475.92	60.577
476.27	60.490
476.61	61.215
476.96	61.157
477.31	59.109
477.66	61.542
478.01	61.261
478.36	60.020
478.70	60.936
479.05	62.014
479.40	61.056
479.75	61.479
480.10	62.009
480.45	60.438
480.79	60.952
481.14	60.570
481.49	61.154
481.84	61.010
482.19	61.204
482.53	61.522
482.88	61.187
483.23	61.316
483.58	61.528
483.92	60.816
484.27	61.981
484.62	60.107
484.97	61.003
485.31	60.401
485.66	59.330
486.01	56.657
486.36	56.819
486.70	57.129
487.05	57.884
487.40	58.672
487.75	59.338
488.09	61.088
488.44	60.758
488.79	62.091
489.13	62.093
489.48	60.738
489.83	61.569
490.17	61.199
490.52	61.617
490.87	61.168
491.22	62.478
491.56	62.201
491.91	61.535
492.26	61.921
492.60	62.046
492.95	61.430
493.30	62.573
493.64	62.374
493.99	61.404
494.34	61.760
494.68	62.355
495.03	61.366
495.37	62.095
495.72	61.950
496.07	62.358
496.41	62.334
496.76	62.719
497.11	61.826
497.45	62.495
497.80	62.195
498.14	62.948
498.49	63.373
498.84	63.300
499.18	62.393
499.53	63.004
499.87	62.198
500.22	62.110
500.56	63.203
500.91	63.249
501.26	63.864
501.60	64.207
501.95	62.744
502.29	63.449
502.64	64.670
502.98	62.985
503.33	62.549
503.67	62.276
504.02	62.084
504.36	62.466
504.71	63.666
505.06	63.711
505.40	63.346
505.75	63.616
506.09	64.365
506.44	64.531
506.78	63.257
507.13	64.223
507.47	64.661
507.82	64.725
508.16	63.480
508.51	62.729
508.85	63.439
509.19	64.377
509.54	64.361
509.88	64.497
510.23	65.323
510.57	64.717
510.92	64.683
511.26	63.348
511.61	63.930
511.95	63.641
512.30	63.762
512.64	64.468
512.98	65.133
513.33	64.214
513.67	65.171
514.02	65.713
514.36	64.859
514.70	65.208
515.05	67.153
515.39	64.934
515.74	65.960
516.08	64.765
516.42	65.986
516.77	65.668
517.11	63.332
517.46	66.702
517.80	66.168
518.14	66.322
518.49	66.106
518.83	64.609
519.17	64.405
519.52	64.832
519.86	64.467
520.20	65.069
520.55	65.553
520.89	65.878
521.23	66.778
521.58	67.006
521.92	65.382
522.26	65.578
522.61	66.493
522.95	66.724
523.29	65.862
523.64	65.751
523.98	66.400
524.32	67.106
524.66	66.648
525.01	65.572
525.35	65.480
525.69	64.501
526.04	65.959
526.38	66.264
526.72	64.764
527.06	66.628
527.41	66.531
527.75	66.508
528.09	66.411
528.43	66.726
528.78	65.491
529.12	67.202
529.46	64.250
529.80	65.389
530.15	65.565
530.49	67.378
530.83	64.935
531.17	66.249
531.51	65.945
531.86	66.286
532.20	67.256
532.54	65.649
532.88	66.303
533.22	64.820
533.57	63.705
533.91	64.141
534.25	65.461
534.59	66.379
534.93	64.629
535.27	64.620
535.62	65.549
535.96	64.497
536.30	65.335
536.64	66.366
536.98	66.359
537.32	65.309
537.66	66.625
538.01	63.988
538.35	64.251
538.69	63.942
539.03	65.543
539.37	64.252
539.71	64.925
540.05	64.149
540.39	64.731
540.73	63.449
541.07	65.727
541.42	64.383
541.76	62.871
542.10	65.199
542.44	63.825
542.78	63.564
543.12	64.005
543.46	64.225
543.80	63.669
544.14	63.076
544.48	64.953
544.82	64.273
545.16	63.685
545.50	63.032
545.84	61.911
546.18	64.506
546.52	66.561
546.86	64.403
547.20	66.031
547.54	64.607
547.88	63.472
548.22	62.749
548.56	63.604
548.90	63.522
549.24	64.255
549.58	65.426
549.92	64.541
550.26	64.466
550.60	63.880
550.94	65.524
551.28	65.017
551.62	65.499
551.96	63.301
552.30	64.755
552.64	64.095
552.98	64.504
553.32	64.051
553.66	64.566
554.00	64.376
554.34	64.672
554.68	63.073
555.02	64.455
555.36	66.272
555.69	64.574
556.03	62.610
556.37	65.144
556.71	65.124
557.05	65.687
557.39	66.158
557.73	64.003
558.07	65.364
558.41	64.917
558.75	64.909
559.08	66.736
559.42	65.706
559.76	63.840
560.10	64.233
560.44	64.446
560.78	64.750
561.12	63.300
561.45	64.173
561.79	64.713
562.13	64.140
562.47	63.687
562.81	64.557
563.15	63.573
563.48	64.450
563.82	63.482
564.16	63.295
564.50	62.157
564.84	62.301
565.17	62.353
565.51	61.623
565.85	63.717
566.19	60.772
566.52	63.019
566.86	61.573
567.20	61.011
567.54	62.666
567.88	60.907
568.21	60.919
568.55	60.288
568.89	60.327
569.23	58.048
569.56	58.578
569.90	56.450
570.24	57.099
570.57	56.543
570.91	56.216
571.25	55.163
571.59	55.803
571.92	55.224
572.26	55.214
572.60	55.119
572.93	55.330
573.27	56.139
573.61	55.691
573.95	54.892
574.28	53.189
574.62	53.979
574.96	53.838
575.29	53.250
575.63	53.777
575.97	54.635
576.30	54.157
576.64	54.545
576.98	53.781
577.31	54.424
577.65	54.127
577.98	53.502
578.32	52.454
578.66	52.167
578.99	52.468
579.33	53.468
579.67	53.377
580.00	53.697
580.34	53.469
580.67	53.729
581.01	53.808
581.35	52.757
581.68	51.535
582.02	52.394
582.35	52.598
582.69	52.891
583.02	53.224
583.36	53.728
583.70	55.147
584.03	54.908
584.37	54.505
584.70	54.254
585.04	53.592
585.37	53.690
585.71	53.463
586.04	53.677
586.38	53.900
586.72	54.249
587.05	54.004
587.39	53.927
587.72	53.923
588.06	54.328
588.39	54.767
588.73	54.444
589.06	55.135
589.40	56.238
589.73	55.045
590.07	56.001
590.40	55.578
590.73	55.709
591.07	57.856
591.40	56.415
591.74	57.472
592.07	57.694
592.41	57.177
592.74	55.165
593.08	54.522
593.41	54.447
593.75	53.707
594.08	54.529
594.41	54.776
594.75	54.600
595.08	55.384
595.42	55.422
595.75	54.601
596.09	55.879
596.42	54.747
596.75	55.924
597.09	57.737
597.42	55.940
597.75	56.056
598.09	55.794
598.42	56.494
598.76	55.827
599.09	54.183
599.42	53.436
599.76	53.219
600.09	54.655
600.42	54.521
600.76	54.095
601.09	54.564
601.42	54.205
601.76	54.034
602.09	55.647
602.42	54.162
602.76	55.277
603.09	55.800
603.42	55.527
603.76	54.651
604.09	54.826
604.42	54.936
604.76	54.795
605.09	55.564
605.42	55.463
605.75	53.615
606.09	54.274
606.42	55.016
606.75	53.561
607.09	53.495
607.42	53.950
607.75	53.497
608.08	54.065
608.42	54.857
608.75	55.224
609.08	54.244
609.41	56.109
609.75	55.446
610.08	55.805
610.41	54.333
610.74	54.580
611.07	55.773
611.41	55.919
611.74	55.935
612.07	55.587
612.40	56.036
612.73	56.333
613.07	55.452
613.40	56.112
613.73	55.609
614.06	56.183
614.39	56.220
614.72	55.653
615.06	54.957
615.39	54.954
615.72	55.166
616.05	55.561
616.38	55.853
616.71	56.270
617.05	56.177
617.38	55.752
617.71	57.775
618.04	56.719
618.37	57.158
618.70	56.900
619.03	57.467
619.36	57.460
619.69	58.808
620.03	57.815
620.36	57.362
620.69	56.570
621.02	58.268
621.35	60.015
621.68	59.870
622.01	58.932
622.34	58.020
622.67	59.656
623.00	56.410
623.33	57.465
623.66	57.523
623.99	57.209
624.32	56.920
624.65	57.722
624.99	57.152
625.32	58.589
625.65	57.923
625.98	57.627
626.31	58.894
626.64	60.366
626.97	58.890
627.30	60.137
627.63	60.465
627.96	59.535
628.29	60.233
628.62	61.629
628.95	61.700
629.28	60.408
629.61	60.101
629.94	59.916
630.26	59.237
630.59	61.917
630.92	60.606
631.25	61.091
631.58	63.936
631.91	62.887
632.24	61.287
632.57	61.480
632.90	62.387
633.23	62.245
633.56	62.857
633.89	61.777
634.22	63.617
634.55	63.674
634.88	63.095
635.20	64.478
635.53	64.972
635.86	61.972
636.19	62.248
636.52	60.865
636.85	62.206
637.18	60.499
637.51	61.720
637.83	62.901
638.16	63.825
638.49	64.085
638.82	63.134
639.15	63.574
639.48	65.589
639.81	62.933
640.13	64.311
640.46	62.303
640.79	62.500
641.12	63.602
641.45	64.366
641.77	68.164
642.10	65.223
642.43	68.617
642.76	66.125
643.09	67.123
643.41	64.706
643.74	66.069
644.07	64.828
644.40	66.902
644.73	63.716
645.05	65.932
645.38	67.050
645.71	65.689
646.04	65.710
646.36	65.547
646.69	65.337
647.02	66.667
647.35	66.718
647.67	68.116
648.00	67.038
648.33	66.667
648.66	64.765
648.98	61.497
649.31	62.517
649.64	63.479
649.96	62.599
650.29	60.918
650.62	60.113
650.94	65.015
651.27	64.222
651.60	62.573
651.92	65.198
652.25	65.847
652.58	60.798
652.90	63.081
653.23	63.944
653.56	62.767
653.88	63.764
654.21	61.831
654.54	61.705
654.86	63.456
655.19	57.967
655.52	50.279
655.84	40.059
656.17	49.292
656.49	70.087
656.82	79.147
657.15	62.680
657.47	47.935
657.80	36.149
658.13	28.802
658.45	38.768
658.78	48.447
659.10	48.993
659.43	50.120
659.75	52.533
660.08	53.838
660.41	57.237
660.73	60.661
661.06	65.198
661.38	61.404
661.71	65.172
662.03	65.432
662.36	66.547
662.68	67.917
663.01	63.186
663.33	67.864
663.66	66.850
663.98	64.231
664.31	67.542
664.63	65.318
664.96	66.606
665.28	61.525
665.61	63.287
665.93	61.607
666.26	63.082
666.58	64.022
666.91	65.607
667.23	68.952
667.56	66.864
667.88	67.000
668.21	63.477
668.53	62.355
668.86	64.833
669.18	65.580
669.50	63.618
669.83	64.800
670.15	64.961
670.48	66.270
670.80	63.098
671.13	60.870
671.45	63.976
671.77	65.537
672.10	59.500
672.42	58.738
672.75	59.447
673.07	56.567
673.39	57.011
673.72	64.765
674.04	59.483
674.37	62.791
674.69	61.199
675.01	62.667
675.34	61.450
675.66	60.674
675.98	62.500
676.31	64.453
676.63	62.548
676.95	65.326
677.28	63.508
677.60	60.630
677.92	62.956
678.25	61.426
678.57	60.498
678.89	61.604
679.22	58.188
679.54	59.316
679.86	55.424
680.18	59.370
680.51	58.333
680.83	57.938
681.15	60.000
681.48	59.931
681.80	59.585
682.12	59.266
682.44	59.766
682.77	59.752
683.09	59.091
683.41	60.659
683.73	60.342
684.06	58.303
684.38	57.424
684.70	59.964
685.02	60.585
685.34	54.576
685.67	57.413
685.99	54.601
686.31	52.180
686.63	56.714
686.96	54.574
687.28	57.980
687.60	57.239
687.92	55.949
688.24	57.596
688.56	56.724
688.89	58.258
689.21	61.448
689.53	56.667
689.85	60.158
690.17	56.852
690.49	59.163
690.82	58.812
691.14	56.073
691.46	56.788
691.78	60.589
692.10	59.633
692.42	56.429
692.74	55.717
693.06	53.333
693.39	57.495
693.71	57.331
694.03	57.621
694.35	57.905
694.67	59.548
694.99	59.787
695.31	62.031
695.63	59.957
695.95	59.006
696.27	56.703
696.59	64.602
696.91	58.784
697.23	60.220
697.56	54.990
697.88	53.598
698.20	58.380
698.52	60.038
698.84	59.459
699.16	58.163
699.48	57.950
699.80	55.532
700.12	59.825
700.44	58.065
700.76	59.145
701.08	59.322
701.40	66.580
701.72	58.706
702.04	62.032
702.36	59.424
702.68	57.213
703.00	59.169
703.32	59.606
703.64	59.658
703.96	58.711
704.28	59.705
704.60	59.494
704.91	59.184
705.23	60.000
705.55	59.053
705.87	66.061
706.19	62.883
706.51	59.337
706.83	59.366
707.15	56.878
707.47	55.841
707.79	52.183
708.11	53.602
708.43	50.968
708.74	54.018
709.06	54.292
709.38	59.390
709.70	58.809
710.02	60.465
710.34	61.968
710.66	55.587
710.98	56.557
711.29	55.495
711.61	57.627
711.93	57.835
712.25	55.405
712.57	62.537
712.89	59.118
713.20	57.396
713.52	58.960
713.84	55.432
714.16	58.684
714.48	56.186
714.80	57.662
715.11	55.906
715.43	53.050
715.75	58.947
716.07	55.249
716.39	57.650
716.70	56.024
717.02	63.607
717.34	64.111
717.66	60.067
717.97	57.192
718.29	57.388
718.61	59.539
718.93	57.929
719.24	57.453
719.56	56.442
719.88	53.453
720.20	58.710
720.51	60.870
720.83	52.813
721.15	59.868
721.46	58.219
721.78	55.667
722.10	58.252
722.42	60.067
722.73	55.806
723.05	60.000
723.37	61.111
723.68	58.423
724.00	58.484
724.32	53.873
724.63	53.497
724.95	60.638
725.27	58.885
725.58	51.590
725.90	58.276
726.22	52.351
726.53	58.117
726.85	57.862
727.16	53.474
727.48	54.434
727.80	53.642
728.11	55.477
728.43	57.239
728.74	54.181
729.06	53.642
729.38	55.844
729.69	51.678
730.01	55.655
730.32	50.606
730.64	54.088
730.96	54.037
731.27	50.838
731.59	52.198
731.90	50.130
732.22	45.573
732.53	49.724
732.85	52.000
733.16	53.372
733.48	50.305
733.80	51.811
734.11	51.567
734.43	48.649
734.74	50.886
735.06	48.492
735.37	50.541
735.69	52.162
736.00	53.955
736.32	49.057
736.63	50.000
736.95	50.287
737.26	49.697
737.58	51.515
737.89	50.000
738.21	52.294
738.52	51.475
738.83	56.314
739.15	56.738
739.46	54.762
739.78	51.227
740.09	49.284
740.41	51.603
740.72	54.333
741.04	52.427
741.35	52.632
741.66	58.039
741.98	56.148
742.29	52.301
742.61	62.719
742.92	55.000
743.23	55.596
743.55	54.264
743.86	55.200
744.18	52.066
744.49	56.962
744.80	55.967
745.12	62.025
745.43	56.504
745.74	60.345
746.06	56.780
746.37	60.338
746.68	57.724
747.00	51.250
747.31	55.794
747.62	56.923
747.94	51.822
748.25	51.406
748.56	55.102
748.88	60.684
749.19	57.328
749.50	58.874
749.82	58.233
750.13	56.228
750.44	49.333
750.75	46.154
751.07	49.538
751.38	49.527
751.69	49.840
752.01	49.515
752.32	50.980
752.63	52.381
752.94	51.557
753.26	53.903
753.57	52.222
753.88	48.689
754.19	50.161
754.51	44.695
754.82	48.875
755.13	51.148
755.44	51.536
755.75	51.645
756.07	46.567
756.38	47.799
756.69	53.012
757.00	44.598
757.31	47.814
757.63	45.013
757.94	42.254
758.25	43.567
758.56	42.484
758.87	42.500
759.18	45.867
759.50	46.176
759.81	45.938
760.12	43.666
760.43	45.052
760.74	42.365
761.05	44.250
761.36	45.060
761.67	41.624
761.99	45.676
762.30	49.390
762.61	46.205
762.92	51.493
763.23	49.064
763.54	42.806
763.85	49.828
764.16	52.862
764.47	52.113
764.78	50.479
765.10	46.041
765.41	47.949
765.72	46.296
766.03	42.938
766.34	47.335
766.65	44.948
766.96	46.614
767.27	52.995
767.58	54.229
767.89	53.365
768.20	46.479
768.51	50.000
768.82	44.578
769.13	43.561
769.44	43.846
769.75	48.014
770.06	45.000
770.37	53.150
770.68	47.234
770.99	42.915
771.30	50.000
771.61	53.612
771.92	46.296
772.23	45.344
772.54	43.056
772.85	56.682
773.16	52.381
773.47	45.503
773.78	55.676
774.09	51.705
774.39	56.000
774.70	57.377
775.01	51.829
775.32	54.118
775.63	49.080
775.94	49.045
776.25	59.355
776.56	60.256
776.87	53.061
777.18	57.931
777.48	57.343
777.79	51.351
778.10	56.618
778.41	54.167
778.72	53.793
779.03	55.556
779.34	53.939
779.65	49.741
779.95	52.778
780.26	47.159
780.57	56.774
780.88	68.841
781.19	55.484
781.50	54.706
781.80	51.613
782.11	48.677
782.42	41.414
782.73	52.096
783.04	48.045
783.34	49.697
783.65	54.248
783.96	47.826
784.27	45.238
784.57	49.007
784.88	53.571
785.19	60.630
785.50	53.543
785.81	50.376
786.11	67.692
786.42	53.957
786.73	51.079
787.04	61.654
787.34	60.656
787.65	48.800
787.96	55.224
788.26	55.944
788.57	57.343
788.88	49.342
789.19	54.248
789.49	43.151
789.80	46.809
790.11	53.543
790.41	51.562
790.72	48.305
791.03	55.340
791.33	55.652
791.64	55.263
791.95	50.893
792.25	61.905
792.56	58.929
792.87	61.458
793.17	61.607
793.48	56.250
793.79	60.241
794.09	55.046
794.40	52.294
794.70	44.218
795.01	46.753
795.32	51.370
795.62	41.549
795.93	43.182
796.23	61.475
796.54	44.643
796.85	60.638
797.15	52.174
797.46	61.644
797.76	63.750
798.07	57.609
798.37	50.515
798.68	63.636
798.99	63.218
799.29	57.303
799.60	56.383
799.90	60.241
800.21	73.846
800.51	55.224
800.82	60.294
801.12	47.945
801.43	42.647
801.73	74.576
802.04	83.333
802.34	46.667
802.65	93.220
802.95	70.149
803.26	71.186
803.56	60.274
803.87	71.429
804.17	75.342
804.48	54.386
804.78	61.111
805.09	77.586
805.39	50.000
805.70	43.662
806.00	62.195
806.30	43.373
806.61	35.616
806.91	50.962
807.22	50.000
807.52	45.977
807.83	69.444
808.13	65.060
808.43	53.933
808.74	57.500
809.04	76.471
809.35	53.333
809.65	57.143
809.95	60.274
810.26	50.877
810.56	51.724
810.86	85.294
811.17	78.947
811.47	68.852
811.77	64.444
812.08	69.492
812.38	71.667
812.69	79.310
812.99	60.377
813.29	97.436
813.59	80.000
813.90	64.912
814.20	56.364
814.50	69.014
814.81	69.231
815.11	73.770
815.41	56.716
815.72	72.414
816.02	58.929
816.32	91.111
816.62	77.273
816.93	95.556
817.23	70.370
817.53	82.979
817.84	83.333
818.14	82.353
818.44	73.469
818.74	68.889
819.04	66.667
819.35	85.714
819.65	88.462
819.95	73.585
820.25	97.778
820.56	52.381
820.86	84.375
821.16	74.359
821.46	76.744
821.76	64.000
822.07	73.214
822.37	47.826
822.67	65.957
822.97	78.378
823.27	65.000
823.57	87.755
823.88	88.889
824.18	122.500
824.48	123.333
824.78	108.000
825.08	103.030
825.38	77.778
825.69	93.617
825.99	91.667
826.29	74.286
826.59	76.923
826.89	62.791
827.19	60.000
827.49	82.353
827.79	79.167
828.09	78.378
828.39	76.667
828.70	75.610
829.00	69.767
829.30	67.857
829.60	111.765
829.90	71.739
830.20	74.286
830.50	100.000
830.80	172.222
831.10	126.923
831.40	70.588
831.70	138.095
832.00	132.258
832.30	35.294
832.60	125.000
832.90	115.385
833.20	110.526
833.50	120.000
833.80	142.105
834.10	61.905
834.40	77.778
834.70	118.750
835.00	31.429
835.30	85.294
835.60	96.667
835.90	104.000
836.20	77.273
836.50	92.000
836.80	48.485
837.10	77.778
837.40	77.778
837.70	68.750
838.00	92.857
838.30	121.739
838.60	103.448
838.90	214.286
839.19	69.565
839.49	150.000
839.79	108.696
840.09	93.750
840.39	165.000
840.69	112.903
840.99	71.429
841.29	120.000
841.59	131.579
841.88	87.179
842.18	107.692
842.48	150.000
842.78	120.000
843.08	100.000
843.38	151.613
843.68	150.000
843.97	82.353
844.27	93.750
844.57	121.053
844.87	170.000
845.17	146.667
845.47	128.571
845.76	104.762
846.06	266.667
846.36	129.412
846.66	107.692
846.96	153.333
847.25	100.000
847.55	143.478
847.85	100.000
848.15	205.882
848.44	154.545
848.74	161.905
849.04	91.667
849.34	125.000
849.63	139.130
849.93	-350.000
850.23	73.333
850.53	111.538
850.82	145.455
851.12	131.818
851.42	145.455
851.71	215.385
852.01	85.000
852.31	176.923
852.61	100.000
852.90	200.000
853.20	88.889
853.50	100.000
853.79	119.048
854.09	104.545
854.39	116.667
854.68	106.452
854.98	103.846
855.28	127.778
855.57	103.571
855.87	132.000
856.17	118.182
856.46	114.815
856.76	111.111
857.05	73.913
857.35	112.500
857.65	215.385
857.94	180.952
858.24	111.111
858.53	113.043
858.83	164.706
859.13	70.588
859.42	158.824
859.72	185.714
860.01	140.000
860.31	255.556
860.60	320.000
860.90	133.333
861.20	127.778
861.49	92.308
861.79	83.333
862.08	100.000
862.38	115.625
862.67	129.412
862.97	118.750
863.26	233.333
863.56	280.000
863.85	227.273
864.15	116.667
864.44	700.000
864.74	128.571
865.03	156.250
865.33	100.000
865.62	74.194
865.92	154.545
866.21	86.957
866.51	228.571
866.80	260.000
867.10	166.667
867.39	75.000
867.69	-1100.000
867.98	257.143
868.27	117.647
868.57	1200.000
868.86	110.000
869.16	100.000
869.45	104.167
869.75	218.182
870.04	257.143
870.33	216.667
870.63	57.143
870.92	675.000
871.22	237.500
871.51	172.727
871.80	333.333
872.10	850.000
>>>>>End Processed Spectral Data<<<<<
