SpectraSuite Data File
++++++++++++++++++++++++++++++++++++
Date: Thu May 14 14:28:54 PDT 2015
User: schluterlab
Dark Spectrum Present: Yes
Reference Spectrum Present: Yes
Number of Sampled Component Spectra: 1
Spectrometers: USB2E3373
Integration Time (usec): 3000 (USB2E3373)
Spectra Averaged: 3 (USB2E3373)
Boxcar Smoothing: 0 (USB2E3373)
Correct for Electrical Dark: No (USB2E3373)
Strobe/Lamp Enabled: No (USB2E3373)
Correct for Detector Non-linearity: No (USB2E3373)
Correct for Stray Light: No (USB2E3373)
Number of Pixels in Processed Spectrum: 2048
>>>>>Begin Processed Spectral Data<<<<<
178.53	0.000
178.91	-157.143
179.29	-500.000
179.67	700.000
180.04	57.143
180.42	-70.000
180.80	-160.000
181.18	200.000
181.56	2700.000
181.94	-325.000
182.31	300.000
182.69	-433.333
183.07	300.000
183.45	-75.000
183.83	283.333
184.20	500.000
184.58	-1100.000
184.96	375.000
185.34	66.667
185.72	340.000
186.09	-44.444
186.47	-600.000
186.85	80.000
187.23	44.444
187.61	1800.000
187.98	-180.000
188.36	-225.000
188.74	175.000
189.12	233.333
189.49	112.500
189.87	112.500
190.25	177.778
190.63	80.000
191.00	-11.111
191.38	0.000
191.76	125.000
192.14	233.333
192.51	-450.000
192.89	283.333
193.27	0.000
193.65	157.143
194.02	100.000
194.40	214.286
194.78	-28.571
195.15	0.000
195.53	145.455
195.91	0.000
196.29	325.000
196.66	38.462
197.04	300.000
197.42	157.143
197.79	650.000
198.17	37.500
198.55	-14.286
198.92	166.667
199.30	37.500
199.68	118.182
200.05	107.143
200.43	150.000
200.81	-0.000
201.18	0.000
201.56	-11.111
201.94	0.000
202.31	-66.667
202.69	0.000
203.07	-1300.000
203.44	122.222
203.82	250.000
204.19	58.333
204.57	333.333
204.95	150.000
205.32	1500.000
205.70	-175.000
206.08	166.667
206.45	216.667
206.83	-20.000
207.20	116.667
207.58	140.000
207.96	166.667
208.33	233.333
208.71	-83.333
209.08	333.333
209.46	0.000
209.84	100.000
210.21	-450.000
210.59	-450.000
210.96	-66.667
211.34	450.000
211.71	175.000
212.09	2000.000
212.46	0.000
212.84	-550.000
213.22	80.000
213.59	225.000
213.97	140.000
214.34	166.667
214.72	-33.333
215.09	150.000
215.47	0.000
215.84	-128.571
216.22	-700.000
216.59	40.000
216.97	260.000
217.34	175.000
217.72	175.000
218.09	0.000
218.47	250.000
218.84	0.000
219.22	-280.000
219.59	117.647
219.97	85.000
220.34	-300.000
220.72	44.444
221.09	123.077
221.47	366.667
221.84	110.000
222.22	314.286
222.59	0.000
222.97	225.000
223.34	180.000
223.72	900.000
224.09	125.000
224.46	100.000
224.84	100.000
225.21	142.857
225.59	325.000
225.96	350.000
226.34	50.000
226.71	-116.667
227.08	750.000
227.46	126.667
227.83	300.000
228.21	89.474
228.58	-50.000
228.95	-400.000
229.33	166.667
229.70	200.000
230.08	168.421
230.45	50.000
230.82	433.333
231.20	128.571
231.57	141.667
231.95	118.182
232.32	227.273
232.69	95.000
233.07	400.000
233.44	94.118
233.81	150.000
234.19	116.667
234.56	59.091
234.93	58.621
235.31	68.421
235.68	72.222
236.05	5.000
236.43	73.077
236.80	84.000
237.17	48.148
237.55	33.333
237.92	130.000
238.29	35.484
238.67	27.273
239.04	41.667
239.41	38.095
239.79	47.826
240.16	9.259
240.53	41.304
240.91	15.686
241.28	31.148
241.65	32.836
242.02	32.432
242.40	6.154
242.77	29.333
243.14	17.073
243.51	9.211
243.89	15.385
244.26	14.851
244.63	21.569
245.00	26.168
245.38	22.807
245.75	3.540
246.12	12.698
246.49	10.078
246.87	10.000
247.24	12.583
247.61	10.526
247.98	6.040
248.36	6.173
248.73	3.067
249.10	7.650
249.47	13.930
249.84	11.518
250.22	7.772
250.59	12.778
250.96	9.091
251.33	2.041
251.70	11.538
252.08	7.917
252.45	9.426
252.82	6.198
253.19	8.594
253.56	8.745
253.94	8.077
254.31	6.439
254.68	10.140
255.05	13.355
255.42	8.844
255.79	7.767
256.16	6.954
256.54	7.616
256.91	11.803
257.28	8.525
257.65	7.325
258.02	5.310
258.39	7.407
258.76	9.480
259.14	8.908
259.51	8.069
259.88	4.533
260.25	4.722
260.62	8.767
260.99	9.836
261.36	8.579
261.73	6.366
262.10	6.044
262.47	7.507
262.85	9.596
263.22	5.974
263.59	4.474
263.96	7.417
264.33	3.581
264.70	7.407
265.07	10.979
265.44	9.751
265.81	5.556
266.18	7.029
266.55	7.812
266.92	4.784
267.29	9.847
267.66	8.426
268.03	6.332
268.40	7.724
268.77	4.328
269.14	3.965
269.51	7.895
269.88	7.377
270.25	8.451
270.62	7.384
270.99	9.697
271.36	6.931
271.73	9.627
272.10	5.411
272.47	6.413
272.84	4.618
273.21	5.812
273.58	6.048
273.95	6.346
274.32	4.183
274.69	5.609
275.06	6.960
275.43	4.621
275.80	7.055
276.17	3.148
276.54	6.343
276.91	6.261
277.28	9.042
277.65	4.847
278.02	7.353
278.39	5.435
278.76	5.624
279.13	5.319
279.50	7.732
279.87	7.156
280.23	4.225
280.60	5.763
280.97	5.099
281.34	3.565
281.71	8.460
282.08	5.980
282.45	4.255
282.82	6.279
283.19	4.362
283.56	6.885
283.92	6.907
284.29	9.005
284.66	8.046
285.03	3.526
285.40	7.883
285.77	5.882
286.14	6.565
286.51	4.566
286.87	6.319
287.24	5.422
287.61	4.933
287.98	4.834
288.35	4.438
288.72	5.325
289.08	7.028
289.45	5.325
289.82	6.325
290.19	4.885
290.56	6.901
290.93	6.847
291.29	5.096
291.66	5.372
292.03	4.342
292.40	8.299
292.77	3.908
293.13	5.142
293.50	3.811
293.87	4.698
294.24	6.533
294.60	5.815
294.97	3.221
295.34	7.939
295.71	4.540
296.08	4.522
296.44	4.534
296.81	4.750
297.18	4.857
297.55	3.774
297.91	4.982
298.28	4.976
298.65	5.589
299.02	3.896
299.38	4.119
299.75	4.206
300.12	4.051
300.48	5.069
300.85	4.499
301.22	4.810
301.59	5.479
301.95	4.520
302.32	5.444
302.69	5.038
303.05	5.441
303.42	4.656
303.79	4.896
304.15	5.047
304.52	4.863
304.89	4.084
305.25	5.072
305.62	4.075
305.99	6.082
306.35	4.234
306.72	4.654
307.09	4.162
307.45	4.865
307.82	4.844
308.19	4.339
308.55	4.436
308.92	4.382
309.29	4.693
309.65	3.996
310.02	4.158
310.38	4.331
310.75	5.146
311.12	4.890
311.48	5.376
311.85	4.843
312.22	4.649
312.58	4.601
312.95	4.876
313.31	5.059
313.68	5.311
314.05	5.872
314.41	5.647
314.78	4.632
315.14	5.263
315.51	6.187
315.87	6.481
316.24	5.023
316.61	4.973
316.97	5.520
317.34	4.938
317.70	6.114
318.07	5.644
318.43	5.357
318.80	6.522
319.16	5.322
319.53	3.856
319.89	5.171
320.26	6.050
320.62	5.762
320.99	6.371
321.35	6.007
321.72	6.140
322.08	5.500
322.45	6.233
322.81	5.415
323.18	4.867
323.54	5.948
323.91	5.872
324.27	5.852
324.64	5.542
325.00	5.638
325.37	6.388
325.73	6.777
326.10	6.732
326.46	6.596
326.83	7.366
327.19	5.906
327.56	6.087
327.92	5.901
328.29	6.452
328.65	6.449
329.01	6.937
329.38	7.245
329.74	6.592
330.11	6.421
330.47	5.729
330.84	6.546
331.20	6.417
331.56	6.326
331.93	6.192
332.29	7.119
332.66	6.146
333.02	6.533
333.38	6.124
333.75	5.724
334.11	5.922
334.48	6.023
334.84	6.712
335.20	5.877
335.57	6.324
335.93	6.446
336.29	5.324
336.66	6.140
337.02	6.438
337.38	5.612
337.75	6.529
338.11	7.065
338.47	7.196
338.84	5.499
339.20	5.897
339.56	6.343
339.93	5.993
340.29	6.361
340.65	6.164
341.02	6.624
341.38	6.871
341.74	4.520
342.11	6.275
342.47	5.560
342.83	6.119
343.20	5.560
343.56	6.335
343.92	5.845
344.28	5.781
344.65	6.744
345.01	6.630
345.37	6.532
345.73	5.846
346.10	6.630
346.46	6.171
346.82	6.816
347.19	6.264
347.55	5.842
347.91	6.612
348.27	6.070
348.63	6.474
349.00	5.817
349.36	5.279
349.72	6.548
350.08	6.389
350.45	5.856
350.81	5.505
351.17	6.165
351.53	5.762
351.89	6.074
352.26	5.746
352.62	5.149
352.98	5.573
353.34	6.273
353.70	5.932
354.07	5.812
354.43	5.087
354.79	5.759
355.15	5.887
355.51	6.652
355.87	5.684
356.24	6.312
356.60	4.952
356.96	5.560
357.32	4.610
357.68	5.857
358.04	4.566
358.40	5.672
358.77	5.556
359.13	5.465
359.49	4.758
359.85	5.511
360.21	5.954
360.57	5.097
360.93	5.712
361.29	6.035
361.66	6.372
362.02	6.750
362.38	5.622
362.74	5.307
363.10	5.846
363.46	5.055
363.82	5.611
364.18	5.278
364.54	5.947
364.90	5.552
365.26	4.759
365.62	5.933
365.98	5.174
366.35	5.638
366.71	5.374
367.07	6.089
367.43	6.763
367.79	6.238
368.15	6.020
368.51	6.022
368.87	5.552
369.23	5.333
369.59	5.669
369.95	6.288
370.31	6.752
370.67	5.502
371.03	5.540
371.39	4.970
371.75	5.640
372.11	5.691
372.47	5.213
372.83	5.955
373.19	5.737
373.55	5.759
373.91	5.112
374.27	5.951
374.63	5.819
374.99	6.300
375.35	6.169
375.71	5.355
376.07	5.939
376.42	5.605
376.78	6.526
377.14	5.989
377.50	5.250
377.86	6.404
378.22	6.048
378.58	5.589
378.94	6.455
379.30	5.917
379.66	5.409
380.02	5.886
380.38	5.818
380.74	6.085
381.09	5.691
381.45	6.307
381.81	6.616
382.17	7.007
382.53	6.199
382.89	6.716
383.25	6.038
383.61	5.266
383.97	6.243
384.32	5.801
384.68	5.394
385.04	6.593
385.40	6.305
385.76	6.331
386.12	6.164
386.48	6.588
386.83	6.794
387.19	6.025
387.55	5.340
387.91	6.336
388.27	6.524
388.62	6.472
388.98	6.148
389.34	6.423
389.70	6.508
390.06	6.335
390.42	6.265
390.77	7.104
391.13	6.279
391.49	7.065
391.85	6.000
392.20	6.109
392.56	6.911
392.92	6.816
393.28	6.965
393.64	7.151
393.99	6.915
394.35	6.308
394.71	6.886
395.07	6.407
395.42	7.310
395.78	7.069
396.14	6.239
396.50	6.295
396.85	6.798
397.21	6.391
397.57	7.126
397.92	6.987
398.28	6.247
398.64	6.121
399.00	6.283
399.35	6.440
399.71	6.141
400.07	6.401
400.42	6.810
400.78	6.597
401.14	6.659
401.49	6.538
401.85	6.686
402.21	6.837
402.57	7.218
402.92	5.792
403.28	6.265
403.63	6.325
403.99	6.057
404.35	5.912
404.70	6.459
405.06	6.413
405.42	6.148
405.77	6.761
406.13	5.997
406.49	6.588
406.84	6.094
407.20	6.540
407.55	5.451
407.91	6.662
408.27	5.889
408.62	6.806
408.98	5.746
409.34	5.103
409.69	5.748
410.05	6.389
410.40	6.148
410.76	5.665
411.11	6.780
411.47	7.002
411.83	6.526
412.18	6.145
412.54	6.402
412.89	6.054
413.25	6.659
413.60	5.629
413.96	6.643
414.31	6.516
414.67	7.096
415.03	6.708
415.38	6.305
415.74	5.987
416.09	5.676
416.45	5.886
416.80	6.365
417.16	6.641
417.51	6.164
417.87	5.947
418.22	6.647
418.58	6.196
418.93	7.276
419.29	6.165
419.64	6.242
420.00	5.757
420.35	6.457
420.71	6.203
421.06	6.210
421.42	5.505
421.77	5.924
422.12	6.554
422.48	6.042
422.83	6.188
423.19	6.366
423.54	5.586
423.90	6.681
424.25	5.867
424.61	5.798
424.96	6.535
425.31	6.316
425.67	6.012
426.02	5.977
426.38	5.798
426.73	6.306
427.09	6.690
427.44	5.461
427.79	6.357
428.15	5.308
428.50	5.899
428.85	6.200
429.21	6.809
429.56	5.726
429.92	5.946
430.27	5.976
430.62	5.569
430.98	6.198
431.33	5.718
431.68	5.795
432.04	6.348
432.39	6.481
432.74	5.708
433.10	5.733
433.45	6.299
433.80	6.384
434.16	5.733
434.51	6.115
434.86	5.592
435.22	6.270
435.57	5.837
435.92	6.066
436.28	6.200
436.63	6.117
436.98	6.656
437.34	6.088
437.69	5.834
438.04	5.923
438.39	6.491
438.75	6.143
439.10	6.977
439.45	6.484
439.81	5.876
440.16	5.684
440.51	6.132
440.86	6.281
441.22	6.324
441.57	5.818
441.92	6.305
442.27	6.212
442.63	6.061
442.98	6.510
443.33	6.523
443.68	6.343
444.03	6.773
444.39	6.334
444.74	6.534
445.09	6.690
445.44	5.848
445.79	6.992
446.15	7.040
446.50	6.873
446.85	6.323
447.20	6.721
447.55	7.374
447.91	6.073
448.26	5.867
448.61	6.589
448.96	7.135
449.31	6.469
449.66	6.373
450.02	6.857
450.37	6.287
450.72	6.189
451.07	5.638
451.42	6.181
451.77	6.948
452.12	6.998
452.47	6.120
452.83	6.194
453.18	6.480
453.53	5.916
453.88	6.626
454.23	7.401
454.58	6.616
454.93	6.371
455.28	6.984
455.63	7.277
455.98	6.480
456.34	6.125
456.69	5.996
457.04	6.087
457.39	6.319
457.74	7.383
458.09	6.150
458.44	7.058
458.79	6.240
459.14	6.293
459.49	6.169
459.84	6.139
460.19	6.219
460.54	6.985
460.89	6.247
461.24	6.322
461.59	6.696
461.94	6.104
462.29	6.775
462.64	6.820
462.99	6.654
463.34	6.489
463.69	6.917
464.04	7.059
464.39	6.558
464.74	6.956
465.09	6.171
465.44	6.062
465.79	6.504
466.14	6.410
466.49	6.421
466.84	6.612
467.19	6.994
467.54	7.109
467.89	6.264
468.24	6.704
468.59	6.022
468.94	5.536
469.29	6.659
469.64	5.976
469.99	6.437
470.34	6.621
470.68	6.220
471.03	7.007
471.38	6.540
471.73	6.242
472.08	6.409
472.43	6.683
472.78	6.549
473.13	5.689
473.48	6.526
473.83	6.732
474.17	6.389
474.52	5.773
474.87	6.866
475.22	6.479
475.57	6.231
475.92	5.874
476.27	6.283
476.61	6.334
476.96	5.839
477.31	6.584
477.66	7.135
478.01	6.457
478.36	6.331
478.70	5.961
479.05	6.493
479.40	5.824
479.75	6.916
480.10	5.969
480.45	6.427
480.79	7.029
481.14	5.836
481.49	5.861
481.84	6.527
482.19	6.108
482.53	6.253
482.88	6.114
483.23	6.003
483.58	5.852
483.92	5.851
484.27	6.308
484.62	5.899
484.97	6.221
485.31	6.441
485.66	5.887
486.01	5.688
486.36	5.556
486.70	5.812
487.05	5.685
487.40	5.805
487.75	6.056
488.09	6.340
488.44	6.628
488.79	6.779
489.13	6.734
489.48	5.709
489.83	6.036
490.17	5.792
490.52	6.034
490.87	6.430
491.22	6.066
491.56	6.357
491.91	5.800
492.26	5.928
492.60	6.034
492.95	6.055
493.30	5.917
493.64	6.088
493.99	5.439
494.34	5.052
494.68	5.867
495.03	6.476
495.37	6.658
495.72	5.669
496.07	5.960
496.41	5.749
496.76	6.547
497.11	5.775
497.45	6.129
497.80	6.708
498.14	5.850
498.49	5.515
498.84	6.307
499.18	6.388
499.53	6.323
499.87	5.978
500.22	5.521
500.56	5.668
500.91	5.446
501.26	6.000
501.60	6.275
501.95	6.296
502.29	5.792
502.64	6.340
502.98	6.169
503.33	5.918
503.67	5.975
504.02	5.604
504.36	5.943
504.71	6.293
505.06	6.003
505.40	6.079
505.75	6.512
506.09	6.262
506.44	5.896
506.78	6.376
507.13	5.717
507.47	6.158
507.82	6.108
508.16	5.449
508.51	6.048
508.85	5.810
509.19	5.969
509.54	6.772
509.88	6.071
510.23	6.411
510.57	6.428
510.92	6.144
511.26	5.868
511.61	5.311
511.95	6.296
512.30	5.810
512.64	6.147
512.98	6.703
513.33	6.351
513.67	5.813
514.02	5.519
514.36	5.985
514.70	6.094
515.05	6.204
515.39	6.089
515.74	7.052
516.08	6.233
516.42	6.332
516.77	6.362
517.11	5.982
517.46	6.469
517.80	7.108
518.14	6.420
518.49	6.182
518.83	6.493
519.17	6.085
519.52	5.870
519.86	6.230
520.20	6.124
520.55	6.572
520.89	5.800
521.23	6.142
521.58	6.271
521.92	6.969
522.26	6.472
522.61	6.597
522.95	6.690
523.29	5.517
523.64	6.166
523.98	7.074
524.32	6.476
524.66	7.057
525.01	6.229
525.35	6.663
525.69	6.090
526.04	6.716
526.38	6.839
526.72	6.344
527.06	6.452
527.41	6.414
527.75	7.185
528.09	6.848
528.43	5.980
528.78	5.607
529.12	6.250
529.46	6.521
529.80	6.178
530.15	6.145
530.49	6.109
530.83	6.553
531.17	6.392
531.51	5.957
531.86	6.550
532.20	6.402
532.54	6.224
532.88	6.121
533.22	7.189
533.57	6.982
533.91	6.117
534.25	6.331
534.59	6.494
534.93	6.508
535.27	6.254
535.62	6.652
535.96	6.566
536.30	5.817
536.64	6.787
536.98	6.212
537.32	6.790
537.66	7.174
538.01	5.982
538.35	5.725
538.69	6.070
539.03	6.193
539.37	6.478
539.71	6.967
540.05	6.355
540.39	6.296
540.73	6.072
541.07	6.193
541.42	6.084
541.76	6.406
542.10	5.669
542.44	5.847
542.78	7.238
543.12	6.794
543.46	6.166
543.80	5.695
544.14	5.147
544.48	6.915
544.82	6.822
545.16	6.321
545.50	6.651
545.84	6.062
546.18	7.037
546.52	6.115
546.86	5.912
547.20	6.043
547.54	6.367
547.88	6.209
548.22	5.906
548.56	6.027
548.90	5.791
549.24	6.565
549.58	5.615
549.92	5.676
550.26	6.214
550.60	6.828
550.94	6.468
551.28	6.601
551.62	6.469
551.96	6.796
552.30	7.011
552.64	6.472
552.98	5.802
553.32	6.367
553.66	5.916
554.00	6.368
554.34	6.628
554.68	6.068
555.02	6.439
555.36	6.640
555.69	6.022
556.03	5.990
556.37	6.633
556.71	6.531
557.05	6.581
557.39	6.238
557.73	6.671
558.07	6.159
558.41	6.445
558.75	5.680
559.08	6.472
559.42	6.104
559.76	6.920
560.10	6.229
560.44	6.201
560.78	6.625
561.12	6.219
561.45	6.569
561.79	6.227
562.13	6.716
562.47	5.919
562.81	5.759
563.15	5.682
563.48	5.966
563.82	5.985
564.16	6.541
564.50	6.436
564.84	6.018
565.17	6.176
565.51	5.639
565.85	6.413
566.19	5.760
566.52	5.793
566.86	6.055
567.20	5.927
567.54	5.895
567.88	6.014
568.21	6.571
568.55	6.043
568.89	5.765
569.23	6.379
569.56	6.487
569.90	5.987
570.24	5.801
570.57	5.677
570.91	5.481
571.25	5.930
571.59	6.179
571.92	5.704
572.26	5.956
572.60	6.224
572.93	5.900
573.27	6.013
573.61	6.035
573.95	6.094
574.28	5.746
574.62	5.753
574.96	5.845
575.29	5.772
575.63	5.752
575.97	6.036
576.30	5.724
576.64	6.108
576.98	5.968
577.31	5.913
577.65	5.943
577.98	5.685
578.32	5.828
578.66	5.692
578.99	5.775
579.33	5.558
579.67	5.870
580.00	6.069
580.34	6.457
580.67	5.803
581.01	5.582
581.35	6.059
581.68	5.909
582.02	5.879
582.35	6.001
582.69	5.850
583.02	5.812
583.36	6.120
583.70	5.953
584.03	6.383
584.37	6.344
584.70	6.308
585.04	6.208
585.37	6.231
585.71	6.127
586.04	5.768
586.38	6.012
586.72	5.866
587.05	6.063
587.39	6.083
587.72	6.077
588.06	6.310
588.39	6.248
588.73	5.899
589.06	6.151
589.40	5.931
589.73	6.491
590.07	6.366
590.40	6.525
590.73	6.575
591.07	6.813
591.40	5.949
591.74	6.399
592.07	6.415
592.41	5.915
592.74	6.461
593.08	6.401
593.41	6.416
593.75	5.690
594.08	5.938
594.41	6.346
594.75	6.277
595.08	6.023
595.42	6.104
595.75	6.587
596.09	6.167
596.42	5.984
596.75	6.986
597.09	6.667
597.42	6.397
597.75	6.546
598.09	6.587
598.42	6.795
598.76	5.770
599.09	5.732
599.42	5.967
599.76	5.612
600.09	6.406
600.42	6.039
600.76	6.440
601.09	5.875
601.42	6.454
601.76	6.414
602.09	6.076
602.42	6.034
602.76	6.162
603.09	6.424
603.42	6.178
603.76	5.884
604.09	6.671
604.42	5.982
604.76	6.050
605.09	6.502
605.42	6.180
605.75	6.231
606.09	6.383
606.42	5.837
606.75	6.072
607.09	6.144
607.42	6.204
607.75	6.057
608.08	6.393
608.42	6.086
608.75	6.716
609.08	6.282
609.41	6.043
609.75	5.670
610.08	6.640
610.41	6.287
610.74	5.882
611.07	6.439
611.41	6.502
611.74	6.697
612.07	6.498
612.40	6.654
612.73	6.553
613.07	6.601
613.40	6.545
613.73	6.259
614.06	5.839
614.39	6.074
614.72	6.356
615.06	6.449
615.39	6.042
615.72	6.066
616.05	6.702
616.38	6.912
616.71	6.531
617.05	5.644
617.38	7.009
617.71	6.317
618.04	6.368
618.37	6.831
618.70	7.240
619.03	5.615
619.36	6.165
619.69	6.470
620.03	5.964
620.36	6.319
620.69	6.601
621.02	5.709
621.35	6.967
621.68	7.737
622.01	6.406
622.34	5.858
622.67	6.048
623.00	5.331
623.33	6.835
623.66	6.291
623.99	6.320
624.32	7.407
624.65	6.371
624.99	6.242
625.32	6.793
625.65	6.541
625.98	6.508
626.31	6.591
626.64	5.934
626.97	5.551
627.30	4.708
627.63	5.251
627.96	6.832
628.29	5.992
628.62	6.381
628.95	6.748
629.28	5.523
629.61	6.566
629.94	5.105
630.26	5.763
630.59	5.613
630.92	5.714
631.25	6.887
631.58	7.250
631.91	5.904
632.24	7.109
632.57	7.590
632.90	6.018
633.23	6.122
633.56	6.531
633.89	5.888
634.22	7.173
634.55	6.263
634.88	5.303
635.20	7.535
635.53	6.554
635.86	6.392
636.19	8.271
636.52	6.646
636.85	6.537
637.18	6.861
637.51	6.882
637.83	7.087
638.16	7.719
638.49	5.164
638.82	5.975
639.15	5.842
639.48	7.275
639.81	7.621
640.13	7.892
640.46	5.091
640.79	6.127
641.12	7.702
641.45	7.026
641.77	9.499
642.10	6.168
642.43	7.314
642.76	8.537
643.09	6.164
643.41	5.042
643.74	6.069
644.07	8.138
644.40	6.931
644.73	7.257
645.05	7.489
645.38	9.065
645.71	7.625
646.04	8.895
646.36	6.423
646.69	6.135
647.02	8.869
647.35	8.092
647.67	7.568
648.00	5.414
648.33	7.057
648.66	7.561
648.98	6.667
649.31	6.631
649.64	7.304
649.96	8.090
650.29	4.590
650.62	6.365
650.94	6.306
651.27	6.737
651.60	7.602
651.92	6.991
652.25	8.394
652.58	7.428
652.90	5.087
653.23	7.465
653.56	7.846
653.88	8.146
654.21	5.211
654.54	7.948
654.86	7.365
655.19	6.650
655.52	6.305
655.84	4.979
656.17	6.201
656.49	8.811
656.82	10.461
657.15	8.606
657.47	6.785
657.80	5.310
658.13	4.376
658.45	5.725
658.78	7.677
659.10	7.752
659.43	8.558
659.75	8.958
660.08	8.964
660.41	9.512
660.73	6.727
661.06	6.608
661.38	7.018
661.71	8.793
662.03	5.996
662.36	8.229
662.68	8.068
663.01	7.965
663.33	7.940
663.66	10.989
663.98	7.692
664.31	6.942
664.63	5.973
664.96	7.623
665.28	5.445
665.61	8.042
665.93	7.679
666.26	7.885
666.58	7.749
666.91	8.037
667.23	9.524
667.56	7.298
667.88	7.200
668.21	6.445
668.53	4.440
668.86	7.662
669.18	6.110
669.50	9.344
669.83	7.400
670.15	7.480
670.48	8.333
670.80	4.780
671.13	7.940
671.45	3.937
671.77	7.345
672.10	6.500
672.42	6.796
672.75	5.684
673.07	6.716
673.39	5.393
673.72	7.550
674.04	7.759
674.37	8.408
674.69	8.113
675.01	5.714
675.34	5.534
675.66	8.052
675.98	8.396
676.31	8.008
676.63	10.456
676.95	8.621
677.28	7.056
677.60	5.118
677.92	7.294
678.25	7.495
678.57	6.584
678.89	8.362
679.22	6.272
679.54	7.009
679.86	5.254
680.18	7.960
680.51	8.648
680.83	6.383
681.15	6.034
681.48	7.599
681.80	7.599
682.12	6.818
682.44	6.845
682.77	6.206
683.09	5.303
683.41	6.977
683.73	7.780
684.06	7.380
684.38	6.798
684.70	8.797
685.02	6.368
685.34	6.988
685.67	4.890
685.99	7.515
686.31	7.267
686.63	6.319
686.96	6.940
687.28	6.189
687.60	6.061
687.92	5.788
688.24	6.678
688.56	6.897
688.89	5.626
689.21	8.806
689.53	5.686
689.85	4.931
690.17	6.667
690.49	7.171
690.82	7.129
691.14	6.073
691.46	6.692
691.78	7.919
692.10	7.523
692.42	4.821
692.74	5.445
693.06	5.556
693.39	7.400
693.71	5.075
694.03	8.550
694.35	7.238
694.67	9.035
694.99	6.170
695.31	8.168
695.63	9.740
695.95	7.660
696.27	8.132
696.59	9.292
696.91	6.982
697.23	7.473
697.56	4.073
697.88	4.924
698.20	6.968
698.52	9.659
698.84	6.445
699.16	9.592
699.48	8.159
699.80	5.745
700.12	6.332
700.44	7.604
700.76	8.076
701.08	7.022
701.40	9.326
701.72	7.960
702.04	7.219
702.36	5.497
702.68	6.112
703.00	9.291
703.32	8.867
703.64	10.024
703.96	10.979
704.28	6.143
704.60	8.101
704.91	5.867
705.23	8.767
705.55	11.421
705.87	6.667
706.19	8.589
706.51	6.325
706.83	6.916
707.15	5.556
707.47	5.374
707.79	7.424
708.11	3.602
708.43	6.022
708.74	3.795
709.06	6.265
709.38	6.808
709.70	11.166
710.02	9.044
710.34	6.383
710.66	4.749
710.98	8.197
711.29	7.418
711.61	5.085
711.93	8.832
712.25	9.189
712.57	10.324
712.89	12.353
713.20	8.580
713.52	9.249
713.84	9.471
714.16	7.632
714.48	5.670
714.80	9.610
715.11	8.136
715.43	9.284
715.75	10.263
716.07	8.287
716.39	7.377
716.70	8.735
717.02	4.590
717.34	7.666
717.66	8.389
717.97	6.507
718.29	6.529
718.61	7.566
718.93	5.825
719.24	8.075
719.56	7.669
719.88	10.811
720.20	7.097
720.51	7.453
720.83	7.813
721.15	6.250
721.46	4.110
721.78	7.000
722.10	7.767
722.42	4.027
722.73	8.065
723.05	11.579
723.37	9.722
723.68	8.961
724.00	11.191
724.32	7.746
724.63	9.441
724.95	10.993
725.27	10.801
725.58	7.774
725.90	13.103
726.22	9.404
726.53	7.792
726.85	9.119
727.16	9.366
727.48	9.174
727.80	11.921
728.11	6.360
728.43	8.754
728.74	8.696
729.06	9.603
729.38	10.390
729.69	11.074
730.01	9.226
730.32	4.242
730.64	7.547
730.96	7.143
731.27	10.615
731.59	11.813
731.90	8.052
732.22	6.250
732.53	4.696
732.85	8.857
733.16	6.745
733.48	5.793
733.80	6.407
734.11	9.402
734.43	9.189
734.74	9.873
735.06	9.045
735.37	8.378
735.69	10.000
736.00	8.757
736.32	8.895
736.63	9.444
736.95	10.057
737.26	8.485
737.58	5.455
737.89	8.529
738.21	6.422
738.52	7.213
738.83	12.287
739.15	6.028
739.46	7.823
739.78	9.202
740.09	6.877
740.41	11.370
740.72	7.333
741.04	8.414
741.35	11.579
741.66	11.373
741.98	9.426
742.29	5.021
742.61	12.281
742.92	9.615
743.23	10.108
743.55	13.178
743.86	10.800
744.18	7.025
744.49	6.329
744.80	14.815
745.12	9.283
745.43	11.789
745.74	4.310
746.06	6.356
746.37	11.392
746.68	12.195
747.00	10.833
747.31	6.009
747.62	14.231
747.94	10.526
748.25	6.024
748.56	6.531
748.88	5.983
749.19	10.345
749.50	10.390
749.82	11.245
750.13	14.235
750.44	7.000
750.75	8.308
751.07	5.231
751.38	9.464
751.69	9.585
752.01	8.738
752.32	10.131
752.63	6.463
752.94	7.958
753.26	5.204
753.57	6.667
753.88	7.116
754.19	8.360
754.51	8.039
754.82	10.289
755.13	15.410
755.44	9.556
755.75	8.224
756.07	10.448
756.38	8.491
756.69	9.639
757.00	6.094
757.31	8.470
757.63	6.138
757.94	5.399
758.25	9.029
758.56	5.882
758.87	10.682
759.18	10.133
759.50	11.331
759.81	9.524
760.12	7.817
760.43	10.156
760.74	10.099
761.05	8.500
761.36	5.301
761.67	8.629
761.99	8.378
762.30	7.927
762.61	8.911
762.92	7.836
763.23	11.610
763.54	12.590
763.85	10.653
764.16	14.478
764.47	8.099
764.78	9.585
765.10	9.384
765.41	9.744
765.72	6.349
766.03	11.582
766.34	6.897
766.65	6.969
766.96	11.554
767.27	7.834
767.58	8.955
767.89	14.423
768.20	11.268
768.51	7.407
768.82	6.827
769.13	6.439
769.44	5.769
769.75	12.635
770.06	13.462
770.37	11.811
770.68	5.106
770.99	8.097
771.30	12.222
771.61	12.548
771.92	10.000
772.23	17.004
772.54	4.630
772.85	16.590
773.16	11.905
773.47	11.111
773.78	7.027
774.09	13.636
774.39	18.000
774.70	14.208
775.01	8.537
775.32	7.647
775.63	14.724
775.94	7.643
776.25	10.323
776.56	16.026
776.87	18.367
777.18	8.966
777.48	7.692
777.79	10.135
778.10	11.765
778.41	20.139
778.72	8.966
779.03	14.198
779.34	10.909
779.65	15.544
779.95	19.444
780.26	17.614
780.57	10.968
780.88	26.087
781.19	18.065
781.50	18.824
781.80	16.129
782.11	13.228
782.42	8.081
782.73	10.778
783.04	15.084
783.34	7.879
783.65	5.229
783.96	14.286
784.27	12.500
784.57	5.960
784.88	18.571
785.19	16.535
785.50	7.874
785.81	15.038
786.11	13.077
786.42	10.072
786.73	9.353
787.04	14.286
787.34	16.393
787.65	12.800
787.96	17.164
788.26	18.881
788.57	20.280
788.88	8.553
789.19	19.608
789.49	19.178
789.80	19.858
790.11	12.598
790.41	17.188
790.72	17.797
791.03	0.971
791.33	14.783
791.64	20.175
791.95	12.500
792.25	20.952
792.56	17.857
792.87	9.375
793.17	18.750
793.48	18.750
793.79	-1.205
794.09	10.092
794.40	11.927
794.70	12.245
795.01	18.182
795.32	10.274
795.62	11.972
795.93	18.182
796.23	9.016
796.54	14.286
796.85	8.511
797.15	14.130
797.46	17.808
797.76	25.000
798.07	26.087
798.37	9.278
798.68	6.494
798.99	17.241
799.29	24.719
799.60	26.596
799.90	13.253
800.21	23.077
800.51	17.910
800.82	22.059
801.12	6.849
801.43	-1.471
801.73	8.475
802.04	36.364
802.34	13.333
802.65	18.644
802.95	26.866
803.26	16.949
803.56	24.658
803.87	21.429
804.17	23.288
804.48	-1.754
804.78	20.833
805.09	12.069
805.39	13.514
805.70	11.268
806.00	28.049
806.30	22.892
806.61	6.849
806.91	20.192
807.22	15.556
807.52	17.241
807.83	31.944
808.13	33.735
808.43	21.348
808.74	17.500
809.04	8.824
809.35	17.333
809.65	17.143
809.95	30.137
810.26	21.053
810.56	20.690
810.86	35.294
811.17	24.561
811.47	26.230
811.77	-2.222
812.08	25.424
812.38	26.667
812.69	36.207
812.99	32.075
813.29	25.641
813.59	20.000
813.90	29.825
814.20	20.000
814.50	29.577
814.81	26.923
815.11	36.066
815.41	28.358
815.72	36.207
816.02	19.643
816.32	35.556
816.62	45.455
816.93	24.444
817.23	33.333
817.53	38.298
817.84	47.619
818.14	26.471
818.44	28.571
818.74	46.667
819.04	23.077
819.35	31.429
819.65	3.846
819.95	22.642
820.25	53.333
820.56	2.381
820.86	71.875
821.16	12.821
821.46	-6.977
821.76	20.000
822.07	35.714
822.37	32.609
822.67	23.404
822.97	18.919
823.27	27.500
823.57	48.980
823.88	35.556
824.18	62.500
824.48	26.667
824.78	12.000
825.08	42.424
825.38	44.444
825.69	40.426
825.99	50.000
826.29	-5.714
826.59	33.333
826.89	20.930
827.19	22.000
827.49	29.412
827.79	22.917
828.09	32.432
828.39	20.000
828.70	29.268
829.00	11.628
829.30	21.429
829.60	58.824
829.90	28.261
830.20	54.286
830.50	13.793
830.80	22.222
831.10	26.923
831.40	44.118
831.70	52.381
832.00	38.710
832.30	-17.647
832.60	33.333
832.90	15.385
833.20	57.895
833.50	30.000
833.80	21.053
834.10	19.048
834.40	47.222
834.70	71.875
835.00	20.000
835.30	38.235
835.60	23.333
835.90	60.000
836.20	-4.545
836.50	24.000
836.80	-6.061
837.10	14.815
837.40	37.037
837.70	75.000
838.00	53.571
838.30	39.130
838.60	34.483
838.90	71.429
839.19	0.000
839.49	41.667
839.79	34.783
840.09	-12.500
840.39	20.000
840.69	74.194
840.99	39.286
841.29	26.667
841.59	68.421
841.88	41.026
842.18	53.846
842.48	60.000
842.78	40.000
843.08	30.000
843.38	45.161
843.68	-55.556
843.97	61.765
844.27	68.750
844.57	63.158
844.87	130.000
845.17	20.000
845.47	66.667
845.76	28.571
846.06	100.000
846.36	70.588
846.66	26.923
846.96	13.333
847.25	11.765
847.55	104.348
847.85	70.000
848.15	111.765
848.44	36.364
848.74	42.857
849.04	37.500
849.34	43.750
849.63	91.304
849.93	-300.000
850.23	120.000
850.53	80.769
850.82	81.818
851.12	77.273
851.42	63.636
851.71	76.923
852.01	10.000
852.31	69.231
852.61	100.000
852.90	50.000
853.20	55.556
853.50	77.778
853.79	33.333
854.09	45.455
854.39	16.667
854.68	54.839
854.98	69.231
855.28	105.556
855.57	42.857
855.87	40.000
856.17	59.091
856.46	51.852
856.76	77.778
857.05	8.696
857.35	25.000
857.65	84.615
857.94	57.143
858.24	66.667
858.53	78.261
858.83	105.882
859.13	76.471
859.42	94.118
859.72	128.571
860.01	115.000
860.31	77.778
860.60	70.000
860.90	106.667
861.20	44.444
861.49	130.769
861.79	70.000
862.08	92.308
862.38	62.500
862.67	152.941
862.97	68.750
863.26	88.889
863.56	170.000
863.85	163.636
864.15	150.000
864.44	66.667
864.74	64.286
865.03	93.750
865.33	20.000
865.62	51.613
865.92	72.727
866.21	26.087
866.51	107.143
866.80	300.000
867.10	50.000
867.39	75.000
867.69	100.000
867.98	228.571
868.27	82.353
868.57	400.000
868.86	40.000
869.16	38.095
869.45	58.333
869.75	127.273
870.04	142.857
870.33	91.667
870.63	-85.714
870.92	225.000
871.22	25.000
871.51	36.364
871.80	266.667
872.10	350.000
>>>>>End Processed Spectral Data<<<<<
