SpectraSuite Data File
++++++++++++++++++++++++++++++++++++
Date: Thu May 14 14:43:58 PDT 2015
User: schluterlab
Dark Spectrum Present: Yes
Reference Spectrum Present: Yes
Number of Sampled Component Spectra: 1
Spectrometers: USB2E3373
Integration Time (usec): 3000 (USB2E3373)
Spectra Averaged: 3 (USB2E3373)
Boxcar Smoothing: 0 (USB2E3373)
Correct for Electrical Dark: No (USB2E3373)
Strobe/Lamp Enabled: No (USB2E3373)
Correct for Detector Non-linearity: No (USB2E3373)
Correct for Stray Light: No (USB2E3373)
Number of Pixels in Processed Spectrum: 2048
>>>>>Begin Processed Spectral Data<<<<<
178.53	0.000
178.91	-14.286
179.29	-1000.000
179.67	-600.000
180.04	164.286
180.42	30.000
180.80	-0.000
181.18	-400.000
181.56	600.000
181.94	150.000
182.31	50.000
182.69	133.333
183.07	100.000
183.45	-150.000
183.83	166.667
184.20	300.000
184.58	-300.000
184.96	-75.000
185.34	11.111
185.72	20.000
186.09	44.444
186.47	50.000
186.85	60.000
187.23	-66.667
187.61	-200.000
187.98	120.000
188.36	75.000
188.74	50.000
189.12	266.667
189.49	37.500
189.87	12.500
190.25	122.222
190.63	20.000
191.00	-77.778
191.38	0.000
191.76	-175.000
192.14	133.333
192.51	-200.000
192.89	216.667
193.27	0.000
193.65	85.714
194.02	-400.000
194.40	157.143
194.78	-14.286
195.15	0.000
195.53	72.727
195.91	0.000
196.29	100.000
196.66	-53.846
197.04	-800.000
197.42	0.000
197.79	-50.000
198.17	-12.500
198.55	-42.857
198.92	55.556
199.30	25.000
199.68	45.455
200.05	78.571
200.43	-50.000
200.81	100.000
201.18	0.000
201.56	66.667
201.94	0.000
202.31	66.667
202.69	-11.111
203.07	-1000.000
203.44	77.778
203.82	-100.000
204.19	-41.667
204.57	-16.667
204.95	25.000
205.32	-100.000
205.70	-50.000
206.08	33.333
206.45	50.000
206.83	160.000
207.20	-16.667
207.58	-140.000
207.96	-100.000
208.33	183.333
208.71	25.000
209.08	233.333
209.46	0.000
209.84	66.667
210.21	-150.000
210.59	100.000
210.96	266.667
211.34	175.000
211.71	-37.500
212.09	200.000
212.46	0.000
212.84	750.000
213.22	0.000
213.59	-50.000
213.97	-20.000
214.34	-166.667
214.72	-83.333
215.09	225.000
215.47	0.000
215.84	-14.286
216.22	-0.000
216.59	-20.000
216.97	180.000
217.34	225.000
217.72	162.500
218.09	0.000
218.47	-125.000
218.84	0.000
219.22	60.000
219.59	41.176
219.97	60.000
220.34	-100.000
220.72	-44.444
221.09	69.231
221.47	-33.333
221.84	100.000
222.22	-28.571
222.59	0.000
222.97	100.000
223.34	120.000
223.72	300.000
224.09	100.000
224.46	50.000
224.84	40.000
225.21	-57.143
225.59	-200.000
225.96	-50.000
226.34	50.000
226.71	133.333
227.08	-50.000
227.46	-13.333
227.83	-125.000
228.21	68.421
228.58	87.500
228.95	350.000
229.33	-25.000
229.70	80.000
230.08	105.263
230.45	-0.000
230.82	400.000
231.20	50.000
231.57	100.000
231.95	0.000
232.32	36.364
232.69	55.000
233.07	250.000
233.44	70.588
233.81	-10.000
234.19	83.333
234.56	18.182
234.93	34.483
235.31	21.053
235.68	66.667
236.05	35.000
236.43	34.615
236.80	84.000
237.17	22.222
237.55	24.242
237.92	30.000
238.29	32.258
238.67	38.636
239.04	27.778
239.41	9.524
239.79	21.739
240.16	9.259
240.53	30.435
240.91	19.608
241.28	26.230
241.65	26.866
242.02	22.973
242.40	6.154
242.77	17.333
243.14	17.073
243.51	7.895
243.89	16.667
244.26	33.663
244.63	21.569
245.00	14.953
245.38	23.684
245.75	23.009
246.12	13.492
246.49	20.930
246.87	22.143
247.24	19.868
247.61	25.000
247.98	24.161
248.36	15.432
248.73	11.656
249.10	18.579
249.47	22.886
249.84	23.560
250.22	18.653
250.59	20.556
250.96	21.818
251.33	19.388
251.70	21.368
252.08	19.583
252.45	23.361
252.82	19.835
253.19	17.969
253.56	22.814
253.94	17.308
254.31	20.833
254.68	20.979
255.05	22.150
255.42	19.728
255.79	22.330
256.16	18.212
256.54	17.550
256.91	16.066
257.28	22.951
257.65	18.153
258.02	18.289
258.39	18.519
258.76	22.018
259.14	24.138
259.51	20.461
259.88	19.830
260.25	20.278
260.62	19.452
260.99	21.858
261.36	18.767
261.73	22.546
262.10	17.033
262.47	19.571
262.85	21.212
263.22	16.883
263.59	18.947
263.96	19.693
264.33	16.368
264.70	21.728
265.07	22.196
265.44	23.810
265.81	17.824
266.18	20.862
266.55	20.759
266.92	18.451
267.29	20.788
267.66	18.625
268.03	19.651
268.40	20.877
268.77	19.134
269.14	19.824
269.51	19.298
269.88	19.057
270.25	20.121
270.62	22.996
270.99	23.434
271.36	18.218
271.73	19.843
272.10	21.242
272.47	19.238
272.84	20.482
273.21	19.840
273.58	20.968
273.95	17.115
274.32	18.821
274.69	20.890
275.06	19.414
275.43	18.484
275.80	17.813
276.17	19.444
276.54	18.097
276.91	16.279
277.28	18.264
277.65	20.287
278.02	20.221
278.39	17.572
278.76	19.156
279.13	18.794
279.50	19.244
279.87	18.962
280.23	16.197
280.60	17.627
280.97	17.928
281.34	18.506
281.71	19.459
282.08	20.598
282.45	18.494
282.82	17.268
283.19	17.771
283.56	18.033
283.92	19.670
284.29	20.379
284.66	18.883
285.03	17.628
285.40	19.320
285.77	17.183
286.14	18.779
286.51	17.960
286.87	16.272
287.24	18.524
287.61	18.087
287.98	16.163
288.35	16.272
288.72	16.864
289.08	18.448
289.45	18.047
289.82	17.470
290.19	17.241
290.56	16.901
290.93	19.258
291.29	16.529
291.66	15.152
292.03	16.282
292.40	17.007
292.77	15.633
293.13	15.291
293.50	15.375
293.87	14.765
294.24	16.533
294.60	15.929
294.97	14.094
295.34	17.286
295.71	15.132
296.08	15.891
296.44	14.706
296.81	14.738
297.18	14.197
297.55	12.618
297.91	15.777
298.28	12.322
298.65	15.815
299.02	14.286
299.38	13.959
299.75	14.953
300.12	14.352
300.48	14.055
300.85	13.048
301.22	13.870
301.59	13.242
301.95	12.881
302.32	15.000
302.69	13.253
303.05	14.255
303.42	13.525
303.79	14.062
304.15	13.775
304.52	14.059
304.89	13.089
305.25	14.700
305.62	14.211
305.99	14.536
306.35	13.105
306.72	14.478
307.09	14.112
307.45	14.907
307.82	14.531
308.19	13.219
308.55	13.790
308.92	13.632
309.29	12.739
309.65	12.963
310.02	13.267
310.38	14.173
310.75	13.301
311.12	15.149
311.48	14.076
311.85	14.150
312.22	14.516
312.58	13.146
312.95	13.862
313.31	13.911
313.68	15.568
314.05	14.724
314.41	14.208
314.78	14.805
315.14	14.610
315.51	15.235
315.87	14.401
316.24	15.068
316.61	15.364
316.97	14.661
317.34	14.374
317.70	15.983
318.07	16.843
318.43	15.986
318.80	16.806
319.16	16.309
319.53	16.195
319.89	15.425
320.26	17.794
320.62	16.401
320.99	17.359
321.35	18.115
321.72	17.767
322.08	18.485
322.45	18.519
322.81	17.960
323.18	17.965
323.54	18.966
323.91	20.107
324.27	19.535
324.64	20.991
325.00	20.730
325.37	21.622
325.73	22.314
326.10	23.439
326.46	23.127
326.83	23.619
327.19	24.961
327.56	24.980
327.92	23.761
328.29	25.161
328.65	25.126
329.01	27.242
329.38	26.622
329.74	27.654
330.11	28.168
330.47	28.391
330.84	28.252
331.20	28.917
331.56	28.769
331.93	27.866
332.29	30.254
332.66	30.066
333.02	29.229
333.38	29.195
333.75	29.209
334.11	30.192
334.48	30.281
334.84	30.501
335.20	28.967
335.57	31.619
335.93	30.579
336.29	29.700
336.66	31.203
337.02	31.187
337.38	31.633
337.75	30.413
338.11	31.539
338.47	30.687
338.84	30.457
339.20	30.160
339.56	30.725
339.93	29.721
340.29	29.791
340.65	29.116
341.02	30.726
341.38	31.366
341.74	30.670
342.11	30.088
342.47	30.421
342.83	31.643
343.20	31.643
343.56	30.794
343.92	30.344
344.28	30.313
344.65	31.473
345.01	31.123
345.37	30.949
345.73	29.228
346.10	31.279
346.46	29.589
346.82	29.813
347.19	30.481
347.55	31.032
347.91	30.461
348.27	30.728
348.63	30.693
349.00	31.096
349.36	29.740
349.72	30.580
350.08	30.461
350.45	30.418
350.81	29.412
351.17	30.301
351.53	30.250
351.89	30.296
352.26	29.552
352.62	30.970
352.98	31.298
353.34	30.097
353.70	31.972
354.07	31.148
354.43	30.752
354.79	31.114
355.15	29.948
355.51	31.287
355.87	31.114
356.24	31.331
356.60	29.194
356.96	30.912
357.32	30.409
357.68	30.454
358.04	30.314
358.40	30.448
358.77	30.482
359.13	30.576
359.49	30.855
359.85	31.545
360.21	31.636
360.57	30.366
360.93	31.664
361.29	32.000
361.66	30.702
362.02	33.055
362.38	31.413
362.74	31.913
363.10	32.118
363.46	31.510
363.82	31.108
364.18	32.653
364.54	31.535
364.90	32.709
365.26	31.172
365.62	33.000
365.98	32.403
366.35	31.812
366.71	31.973
367.07	33.085
367.43	32.567
367.79	32.648
368.15	33.043
368.51	32.476
368.87	32.071
369.23	31.867
369.59	33.265
369.95	33.198
370.31	33.896
370.67	33.012
371.03	33.241
371.39	32.841
371.75	33.012
372.11	33.266
372.47	33.311
372.83	33.312
373.19	32.555
373.55	34.146
373.91	34.015
374.27	33.700
374.63	34.709
374.99	34.019
375.35	34.156
375.71	34.387
376.07	34.603
376.42	34.635
376.78	34.431
377.14	34.435
377.50	35.610
377.86	35.160
378.22	35.090
378.58	35.731
378.94	35.446
379.30	36.497
379.66	35.979
380.02	36.815
380.38	36.578
380.74	36.056
381.09	36.818
381.45	36.534
381.81	38.700
382.17	38.480
382.53	37.485
382.89	37.302
383.25	38.277
383.61	38.831
383.97	37.338
384.32	38.696
384.68	37.065
385.04	38.115
385.40	40.012
385.76	39.977
386.12	38.779
386.48	38.941
386.83	39.571
387.19	39.166
387.55	39.437
387.91	39.098
388.27	39.896
388.62	39.920
388.98	38.804
389.34	40.071
389.70	39.338
390.06	40.675
390.42	40.241
390.77	41.722
391.13	39.906
391.49	40.157
391.85	40.000
392.20	40.688
392.56	40.697
392.92	40.294
393.28	40.409
393.64	40.782
393.99	41.720
394.35	41.297
394.71	42.395
395.07	41.497
395.42	40.605
395.78	43.449
396.14	41.295
396.50	41.805
396.85	41.264
397.21	41.538
397.57	41.755
397.92	42.898
398.28	40.630
398.64	41.362
399.00	41.414
399.35	41.728
399.71	41.957
400.07	41.437
400.42	41.735
400.78	42.593
401.14	41.890
401.49	42.297
401.85	43.023
402.21	43.337
402.57	42.899
402.92	43.144
403.28	41.393
403.63	42.661
403.99	41.746
404.35	41.956
404.70	41.643
405.06	41.304
405.42	42.330
405.77	42.312
406.13	41.977
406.49	42.173
406.84	42.105
407.20	41.811
407.55	42.217
407.91	42.238
408.27	41.814
408.62	43.805
408.98	41.904
409.34	41.760
409.69	43.634
410.05	43.259
410.40	42.981
410.76	42.344
411.11	43.542
411.47	43.305
411.83	43.210
412.18	43.373
412.54	42.205
412.89	42.957
413.25	42.946
413.60	42.562
413.96	43.473
414.31	43.059
414.67	43.172
415.03	43.385
415.38	42.245
415.74	43.005
416.09	42.998
416.45	42.142
416.80	42.656
417.16	43.423
417.51	42.030
417.87	43.102
418.22	43.114
418.58	42.751
418.93	43.830
419.29	43.033
419.64	42.797
420.00	42.967
420.35	43.122
420.71	42.906
421.06	42.093
421.42	43.865
421.77	43.134
422.12	43.288
422.48	43.779
422.83	44.304
423.19	43.077
423.54	44.192
423.90	44.616
424.25	43.733
424.61	42.997
424.96	43.712
425.31	44.374
425.67	43.693
426.02	44.660
426.38	44.546
426.73	43.471
427.09	46.136
427.44	43.583
427.79	43.836
428.15	43.265
428.50	44.494
428.85	43.571
429.21	44.681
429.56	45.262
429.92	43.931
430.27	45.157
430.62	44.113
430.98	44.122
431.33	44.721
431.68	43.630
432.04	44.997
432.39	44.831
432.74	44.349
433.10	45.160
433.45	44.760
433.80	45.333
434.16	44.318
434.51	44.656
434.86	45.928
435.22	46.068
435.57	46.285
435.92	45.576
436.28	45.620
436.63	46.040
436.98	44.176
437.34	45.378
437.69	45.405
438.04	44.791
438.39	45.778
438.75	44.660
439.10	45.455
439.45	44.271
439.81	45.311
440.16	44.933
440.51	45.095
440.86	43.858
441.22	45.874
441.57	45.964
441.92	45.587
442.27	45.354
442.63	45.653
442.98	45.891
443.33	45.608
443.68	46.581
444.03	47.319
444.39	46.093
444.74	46.503
445.09	45.666
445.44	46.944
445.79	46.264
446.15	45.992
446.50	46.357
446.85	45.136
447.20	46.615
447.55	46.705
447.91	45.079
448.26	45.825
448.61	45.855
448.96	47.371
449.31	46.341
449.66	46.732
450.02	47.046
450.37	47.150
450.72	45.694
451.07	47.267
451.42	45.985
451.77	46.304
452.12	46.783
452.47	46.405
452.83	47.691
453.18	47.052
453.53	46.640
453.88	46.107
454.23	46.610
454.58	46.082
454.93	47.816
455.28	46.418
455.63	47.072
455.98	47.039
456.34	45.995
456.69	46.972
457.04	47.400
457.39	46.729
457.74	47.260
458.09	47.062
458.44	47.575
458.79	46.364
459.14	46.408
459.49	47.199
459.84	46.800
460.19	46.530
460.54	47.587
460.89	47.856
461.24	46.494
461.59	46.375
461.94	46.378
462.29	46.976
462.64	45.926
462.99	46.767
463.34	48.021
463.69	45.780
464.04	47.248
464.39	47.422
464.74	46.351
465.09	47.116
465.44	47.157
465.79	45.637
466.14	46.483
466.49	47.316
466.84	47.383
467.19	47.052
467.54	46.592
467.89	47.414
468.24	45.485
468.59	46.091
468.94	46.562
469.29	45.171
469.64	46.599
469.99	45.953
470.34	45.359
470.68	46.411
471.03	47.020
471.38	47.678
471.73	47.464
472.08	47.208
472.43	46.237
472.78	46.411
473.13	46.587
473.48	46.526
473.83	47.882
474.17	46.776
474.52	48.527
474.87	46.235
475.22	47.211
475.57	47.456
475.92	47.636
476.27	47.338
476.61	46.989
476.96	47.132
477.31	46.436
477.66	48.006
478.01	46.314
478.36	46.411
478.70	47.291
479.05	47.342
479.40	46.594
479.75	46.878
480.10	46.566
480.45	46.901
480.79	46.485
481.14	46.232
481.49	46.888
481.84	47.389
482.19	47.699
482.53	47.180
482.88	47.895
483.23	46.999
483.58	47.074
483.92	46.099
484.27	46.486
484.62	46.452
484.97	47.045
485.31	46.885
485.66	45.207
486.01	45.411
486.36	47.451
486.70	49.004
487.05	48.673
487.40	47.249
487.75	46.921
488.09	46.323
488.44	45.222
488.79	46.206
489.13	46.379
489.48	46.136
489.83	45.915
490.17	45.889
490.52	45.156
490.87	46.489
491.22	47.140
491.56	47.355
491.91	46.184
492.26	46.733
492.60	45.824
492.95	46.468
493.30	46.616
493.64	46.518
493.99	45.614
494.34	45.688
494.68	45.696
495.03	46.784
495.37	47.625
495.72	46.531
496.07	46.626
496.41	45.431
496.76	46.289
497.11	46.709
497.45	46.871
497.80	46.868
498.14	45.896
498.49	45.956
498.84	46.252
499.18	46.514
499.53	47.220
499.87	46.725
500.22	45.726
500.56	47.143
500.91	47.231
501.26	47.955
501.60	46.620
501.95	47.112
502.29	46.336
502.64	47.530
502.98	45.384
503.33	45.875
503.67	45.835
504.02	46.410
504.36	46.872
504.71	46.991
505.06	45.794
505.40	46.755
505.75	46.311
506.09	46.133
506.44	47.911
506.78	46.284
507.13	45.920
507.47	47.134
507.82	45.786
508.16	46.558
508.51	45.101
508.85	46.386
509.19	45.760
509.54	47.550
509.88	45.945
510.23	46.479
510.57	46.834
510.92	46.105
511.26	45.166
511.61	45.389
511.95	46.608
512.30	45.052
512.64	45.377
512.98	45.873
513.33	45.968
513.67	46.762
514.02	46.398
514.36	46.598
514.70	46.354
515.05	45.255
515.39	45.302
515.74	46.235
516.08	44.849
516.42	46.782
516.77	46.162
517.11	44.353
517.46	46.448
517.80	46.820
518.14	47.062
518.49	46.421
518.83	46.195
519.17	44.911
519.52	46.017
519.86	45.407
520.20	46.273
520.55	45.728
520.89	45.270
521.23	45.505
521.58	45.819
521.92	45.836
522.26	45.704
522.61	45.891
522.95	46.078
523.29	46.437
523.64	44.843
523.98	45.693
524.32	46.648
524.66	45.931
525.01	45.130
525.35	45.032
525.69	45.302
526.04	45.637
526.38	46.092
526.72	45.271
527.06	47.097
527.41	45.831
527.75	46.259
528.09	45.159
528.43	44.760
528.78	43.815
529.12	44.725
529.46	45.025
529.80	44.680
530.15	44.754
530.49	44.662
530.83	45.986
531.17	45.579
531.51	44.765
531.86	46.154
532.20	46.890
532.54	44.704
532.88	45.576
533.22	44.019
533.57	45.239
533.91	44.837
534.25	45.280
534.59	45.287
534.93	44.709
535.27	45.183
535.62	45.708
535.96	44.858
536.30	45.182
536.64	46.486
536.98	46.310
537.32	45.247
537.66	45.602
538.01	44.773
538.35	44.580
538.69	43.990
539.03	45.739
539.37	44.464
539.71	44.805
540.05	44.245
540.39	45.110
540.73	44.202
541.07	45.003
541.42	43.591
541.76	44.840
542.10	44.753
542.44	44.945
542.78	45.925
543.12	44.100
543.46	45.849
543.80	44.604
544.14	43.806
544.48	45.508
544.82	45.841
545.16	45.558
545.50	44.817
545.84	44.825
546.18	45.864
546.52	44.013
546.86	44.843
547.20	44.211
547.54	44.132
547.88	44.605
548.22	45.439
548.56	44.705
548.90	45.015
549.24	44.134
549.58	45.174
549.92	43.495
550.26	45.566
550.60	44.352
550.94	44.373
551.28	44.950
551.62	44.272
551.96	44.013
552.30	46.272
552.64	44.742
552.98	44.729
553.32	44.887
553.66	44.180
554.00	45.460
554.34	44.080
554.68	44.803
555.02	45.138
555.36	45.431
555.69	44.331
556.03	44.704
556.37	45.119
556.71	45.276
557.05	44.537
557.39	44.592
557.73	44.254
558.07	45.033
558.41	45.116
558.75	44.151
559.08	44.607
559.42	43.896
559.76	44.301
560.10	44.139
560.44	45.119
560.78	45.062
561.12	44.581
561.45	45.803
561.79	45.116
562.13	45.163
562.47	43.465
562.81	45.316
563.15	44.444
563.48	45.681
563.82	44.861
564.16	44.094
564.50	45.352
564.84	44.307
565.17	44.824
565.51	44.304
565.85	44.952
566.19	44.931
566.52	44.587
566.86	45.501
567.20	44.372
567.54	44.981
567.88	45.515
568.21	45.158
568.55	45.228
568.89	45.347
569.23	45.627
569.56	44.783
569.90	45.011
570.24	45.531
570.57	45.574
570.91	43.907
571.25	43.708
571.59	44.503
571.92	44.216
572.26	44.044
572.60	44.144
572.93	44.030
573.27	44.282
573.61	44.336
573.95	44.550
574.28	44.639
574.62	44.497
574.96	43.979
575.29	43.776
575.63	44.190
575.97	43.760
576.30	43.770
576.64	43.307
576.98	43.417
577.31	44.087
577.65	44.676
577.98	45.030
578.32	43.795
578.66	43.818
578.99	44.481
579.33	44.153
579.67	43.699
580.00	44.190
580.34	44.110
580.67	43.535
581.01	44.137
581.35	44.341
581.68	44.170
582.02	44.658
582.35	45.100
582.69	44.971
583.02	44.851
583.36	44.486
583.70	44.195
584.03	43.868
584.37	43.816
584.70	43.570
585.04	43.502
585.37	44.653
585.71	44.531
586.04	44.276
586.38	43.338
586.72	43.821
587.05	44.231
587.39	44.926
587.72	44.880
588.06	44.705
588.39	44.337
588.73	44.735
589.06	44.498
589.40	44.161
589.73	44.344
590.07	43.866
590.40	44.828
590.73	43.796
591.07	44.974
591.40	44.323
591.74	43.760
592.07	44.823
592.41	44.795
592.74	43.983
593.08	44.777
593.41	46.194
593.75	44.368
594.08	44.835
594.41	45.449
594.75	43.972
595.08	43.708
595.42	45.292
595.75	43.720
596.09	44.764
596.42	44.715
596.75	44.500
597.09	44.364
597.42	43.941
597.75	44.179
598.09	44.286
598.42	44.471
598.76	43.523
599.09	44.571
599.42	43.983
599.76	43.876
600.09	44.144
600.42	43.310
600.76	44.353
601.09	43.246
601.42	44.216
601.76	44.172
602.09	44.460
602.42	43.657
602.76	43.764
603.09	43.869
603.42	44.762
603.76	43.904
604.09	45.493
604.42	44.257
604.76	43.379
605.09	44.236
605.42	44.856
605.75	43.615
606.09	44.718
606.42	43.086
606.75	43.366
607.09	43.472
607.42	43.969
607.75	44.236
608.08	43.291
608.42	43.934
608.75	44.071
609.08	42.912
609.41	43.979
609.75	43.973
610.08	44.327
610.41	43.458
610.74	44.580
611.07	44.272
611.41	44.484
611.74	45.219
612.07	43.899
612.40	43.916
612.73	44.450
613.07	44.303
613.40	44.418
613.73	43.572
614.06	43.425
614.39	43.537
614.72	43.717
615.06	43.936
615.39	43.161
615.72	44.123
616.05	44.051
616.38	44.601
616.71	44.096
617.05	43.024
617.38	44.248
617.71	43.089
618.04	43.065
618.37	44.754
618.70	44.344
619.03	44.444
619.36	43.280
619.69	44.074
620.03	43.566
620.36	43.620
620.69	44.664
621.02	44.488
621.35	44.049
621.68	44.179
622.01	44.342
622.34	44.142
622.67	43.093
623.00	44.332
623.33	45.322
623.66	45.006
623.99	43.647
624.32	45.484
624.65	43.565
624.99	44.278
625.32	44.481
625.65	43.358
625.98	43.119
626.31	43.444
626.64	44.029
626.97	44.336
627.30	43.432
627.63	44.261
627.96	44.069
628.29	43.346
628.62	42.737
628.95	44.347
629.28	43.840
629.61	43.434
629.94	43.933
630.26	42.966
630.59	43.523
630.92	43.723
631.25	44.097
631.58	44.633
631.91	43.580
632.24	42.363
632.57	41.271
632.90	44.233
633.23	44.184
633.56	43.980
633.89	42.149
634.22	43.659
634.55	44.885
634.88	43.398
635.20	45.102
635.53	44.746
635.86	44.745
636.19	44.433
636.52	42.932
636.85	41.777
637.18	43.451
637.51	43.011
637.83	43.965
638.16	43.318
638.49	43.779
638.82	43.630
639.15	44.559
639.48	44.919
639.81	43.187
640.13	44.170
640.46	42.667
640.79	41.667
641.12	45.093
641.45	43.162
641.77	45.058
642.10	43.438
642.43	43.218
642.76	43.089
643.09	44.110
643.41	43.137
643.74	42.621
644.07	43.310
644.40	41.443
644.73	42.235
645.05	44.787
645.38	43.885
645.71	43.255
646.04	43.042
646.36	41.168
646.69	44.632
647.02	44.495
647.35	42.748
647.67	44.444
648.00	45.064
648.33	43.994
648.66	44.080
648.98	43.810
649.31	44.114
649.64	43.161
649.96	43.767
650.29	44.367
650.62	41.443
650.94	43.544
651.27	41.766
651.60	41.082
651.92	40.578
652.25	41.823
652.58	43.054
652.90	41.279
653.23	42.817
653.56	43.937
653.88	44.382
654.21	39.859
654.54	42.052
654.86	44.618
655.19	41.907
655.52	41.740
655.84	42.836
656.17	52.744
656.49	73.228
656.82	79.460
657.15	61.119
657.47	45.374
657.80	32.723
658.13	25.511
658.45	33.056
658.78	39.578
659.10	39.251
659.43	38.540
659.75	38.914
660.08	37.815
660.41	37.634
660.73	39.567
661.06	39.941
661.38	41.308
661.71	38.621
662.03	41.093
662.36	43.828
662.68	43.152
663.01	44.425
663.33	41.588
663.66	43.773
663.98	44.615
664.31	44.090
664.63	41.233
664.96	44.283
665.28	38.294
665.61	42.483
665.93	39.821
666.26	42.473
666.58	43.358
666.91	44.299
667.23	42.095
667.56	42.604
667.88	44.800
668.21	40.039
668.53	39.575
668.86	42.829
669.18	40.122
669.50	42.545
669.83	42.800
670.15	41.339
670.48	41.071
670.80	42.256
671.13	39.698
671.45	40.354
671.77	42.938
672.10	40.167
672.42	41.262
672.75	41.321
673.07	41.493
673.39	40.832
673.72	41.443
674.04	41.552
674.37	41.324
674.69	43.034
675.01	41.714
675.34	41.794
675.66	36.704
675.98	42.351
676.31	39.844
676.63	40.684
676.95	41.762
677.28	43.750
677.60	39.173
677.92	43.762
678.25	41.682
678.57	41.993
678.89	43.003
679.22	40.767
679.54	40.342
679.86	38.814
680.18	39.303
680.51	41.195
680.83	41.735
681.15	39.483
681.48	40.415
681.80	44.560
682.12	39.510
682.44	40.735
682.77	40.426
683.09	41.667
683.41	42.054
683.73	40.228
684.06	38.561
684.38	38.998
684.70	41.293
685.02	41.136
685.34	39.268
685.67	39.117
685.99	41.564
686.31	39.390
686.63	39.336
686.96	39.748
687.28	39.902
687.60	39.226
687.92	39.711
688.24	39.065
688.56	37.759
688.89	39.927
689.21	40.509
689.53	37.843
689.85	39.645
690.17	38.519
690.49	41.434
690.82	40.198
691.14	38.866
691.46	40.535
691.78	39.779
692.10	40.183
692.42	40.357
692.74	38.838
693.06	37.778
693.39	42.125
693.71	38.722
694.03	38.662
694.35	41.905
694.67	39.836
694.99	39.574
695.31	40.618
695.63	42.208
695.95	40.580
696.27	38.681
696.59	41.814
696.91	37.613
697.23	43.297
697.56	40.122
697.88	38.068
698.20	37.853
698.52	43.182
698.84	39.917
699.16	43.878
699.48	42.469
699.80	36.809
700.12	36.245
700.44	40.783
700.76	40.380
701.08	43.099
701.40	37.306
701.72	42.040
702.04	44.118
702.36	39.791
702.68	41.320
703.00	39.364
703.32	40.640
703.64	40.831
703.96	39.618
704.28	39.066
704.60	39.747
704.91	42.857
705.23	38.356
705.55	40.390
705.87	39.394
706.19	42.331
706.51	38.253
706.83	42.939
707.15	36.508
707.47	37.383
707.79	40.175
708.11	37.712
708.43	36.559
708.74	36.384
709.06	39.675
709.38	39.671
709.70	39.702
710.02	37.726
710.34	41.223
710.66	36.872
710.98	38.251
711.29	39.286
711.61	42.373
711.93	41.595
712.25	37.027
712.57	42.183
712.89	37.353
713.20	39.941
713.52	42.775
713.84	36.490
714.16	39.211
714.48	39.691
714.80	43.377
715.11	41.732
715.43	37.401
715.75	37.895
716.07	37.845
716.39	38.798
716.70	40.361
717.02	40.000
717.34	38.676
717.66	35.906
717.97	35.616
718.29	35.739
718.61	38.487
718.93	37.864
719.24	39.130
719.56	35.890
719.88	36.637
720.20	40.645
720.51	37.888
720.83	36.250
721.15	37.500
721.46	35.274
721.78	40.667
722.10	35.275
722.42	37.248
722.73	36.129
723.05	37.544
723.37	37.153
723.68	39.785
724.00	42.238
724.32	36.268
724.63	38.112
724.95	40.426
725.27	31.707
725.58	38.163
725.90	42.414
726.22	36.677
726.53	42.532
726.85	38.365
727.16	37.462
727.48	40.061
727.80	34.437
728.11	33.216
728.43	42.761
728.74	37.793
729.06	41.060
729.38	40.909
729.69	37.584
730.01	37.500
730.32	36.667
730.64	39.623
730.96	38.820
731.27	38.268
731.59	36.264
731.90	38.182
732.22	34.896
732.53	36.464
732.85	36.286
733.16	36.364
733.48	35.671
733.80	34.262
734.11	38.462
734.43	38.378
734.74	40.506
735.06	35.427
735.37	39.459
735.69	39.730
736.00	38.983
736.32	37.736
736.63	36.111
736.95	35.920
737.26	39.697
737.58	34.545
737.89	40.000
738.21	32.722
738.52	35.410
738.83	37.543
739.15	41.135
739.46	35.034
739.78	40.798
740.09	34.384
740.41	40.233
740.72	37.667
741.04	38.511
741.35	35.789
741.66	36.078
741.98	37.705
742.29	34.310
742.61	39.035
742.92	36.923
743.23	34.657
743.55	34.884
743.86	39.200
744.18	35.537
744.49	36.287
744.80	41.152
745.12	37.131
745.43	38.618
745.74	34.483
746.06	38.559
746.37	35.443
746.68	38.618
747.00	32.917
747.31	36.481
747.62	37.692
747.94	35.223
748.25	35.743
748.56	40.000
748.88	28.205
749.19	34.914
749.50	38.528
749.82	42.169
750.13	34.875
750.44	36.000
750.75	34.154
751.07	36.308
751.38	40.694
751.69	38.658
752.01	36.570
752.32	36.601
752.63	35.374
752.94	37.370
753.26	37.918
753.57	32.963
753.88	34.082
754.19	38.907
754.51	32.797
754.82	33.441
755.13	40.000
755.44	35.836
755.75	36.842
756.07	37.910
756.38	32.390
756.69	37.952
757.00	34.072
757.31	37.158
757.63	34.783
757.94	35.446
758.25	35.666
758.56	36.601
758.87	32.727
759.18	33.867
759.50	37.110
759.81	38.375
760.12	37.197
760.43	36.719
760.74	37.685
761.05	35.500
761.36	34.940
761.67	34.518
761.99	36.216
762.30	34.146
762.61	31.023
762.92	36.567
763.23	38.202
763.54	37.410
763.85	37.801
764.16	34.680
764.47	41.549
764.78	37.700
765.10	36.950
765.41	35.385
765.72	34.656
766.03	36.723
766.34	35.423
766.65	34.843
766.96	32.669
767.27	35.023
767.58	28.358
767.89	37.500
768.20	32.864
768.51	38.426
768.82	37.751
769.13	37.500
769.44	33.462
769.75	36.823
770.06	38.077
770.37	39.764
770.68	29.787
770.99	32.794
771.30	35.926
771.61	38.023
771.92	35.185
772.23	36.842
772.54	33.796
772.85	37.788
773.16	37.619
773.47	33.862
773.78	32.973
774.09	35.795
774.39	37.000
774.70	36.612
775.01	33.537
775.32	32.353
775.63	33.742
775.94	36.943
776.25	41.935
776.56	35.897
776.87	44.218
777.18	31.034
777.48	34.266
777.79	31.081
778.10	28.676
778.41	34.722
778.72	40.000
779.03	34.568
779.34	35.152
779.65	32.124
779.95	41.667
780.26	27.273
780.57	38.710
780.88	32.609
781.19	36.774
781.50	41.176
781.80	37.097
782.11	35.979
782.42	31.313
782.73	33.533
783.04	34.078
783.34	30.303
783.65	26.797
783.96	37.267
784.27	34.524
784.57	39.735
784.88	43.571
785.19	31.496
785.50	27.559
785.81	38.346
786.11	36.154
786.42	31.655
786.73	26.619
787.04	33.835
787.34	29.508
787.65	34.400
787.96	29.851
788.26	39.860
788.57	44.755
788.88	34.211
789.19	38.562
789.49	31.507
789.80	35.461
790.11	30.709
790.41	33.594
790.72	22.881
791.03	34.951
791.33	33.043
791.64	36.842
791.95	27.679
792.25	37.143
792.56	30.357
792.87	34.375
793.17	32.143
793.48	27.083
793.79	24.096
794.09	35.780
794.40	31.193
794.70	34.014
795.01	27.273
795.32	32.192
795.62	30.282
795.93	37.879
796.23	26.230
796.54	28.571
796.85	25.532
797.15	20.652
797.46	23.288
797.76	28.750
798.07	28.261
798.37	30.928
798.68	23.377
798.99	27.586
799.29	31.461
799.60	30.851
799.90	30.120
800.21	35.385
800.51	38.806
800.82	22.059
801.12	28.767
801.43	27.941
801.73	42.373
802.04	30.303
802.34	36.667
802.65	42.373
802.95	34.328
803.26	35.593
803.56	38.356
803.87	28.571
804.17	42.466
804.48	8.772
804.78	44.444
805.09	34.483
805.39	31.081
805.70	26.761
806.00	25.610
806.30	31.325
806.61	28.767
806.91	37.500
807.22	28.889
807.52	20.690
807.83	44.444
808.13	37.349
808.43	33.708
808.74	28.750
809.04	19.118
809.35	25.333
809.65	37.143
809.95	30.137
810.26	24.561
810.56	43.103
810.86	36.765
811.17	26.316
811.47	11.475
811.77	28.889
812.08	22.034
812.38	41.667
812.69	31.034
812.99	7.547
813.29	10.256
813.59	46.000
813.90	49.123
814.20	25.455
814.50	33.803
814.81	35.897
815.11	40.984
815.41	32.836
815.72	43.103
816.02	10.714
816.32	60.000
816.62	45.455
816.93	24.444
817.23	57.407
817.53	23.404
817.84	54.762
818.14	41.176
818.44	40.816
818.74	37.778
819.04	12.821
819.35	20.000
819.65	34.615
819.95	35.849
820.25	46.667
820.56	33.333
820.86	71.875
821.16	33.333
821.46	41.860
821.76	10.000
822.07	28.571
822.37	23.913
822.67	38.298
822.97	16.216
823.27	5.000
823.57	40.816
823.88	53.333
824.18	35.000
824.48	6.667
824.78	40.000
825.08	36.364
825.38	42.222
825.69	42.553
825.99	66.667
826.29	-2.857
826.59	0.000
826.89	11.628
827.19	4.000
827.49	32.353
827.79	27.083
828.09	8.108
828.39	53.333
828.70	17.073
829.00	13.953
829.30	46.429
829.60	23.529
829.90	34.783
830.20	20.000
830.50	3.448
830.80	100.000
831.10	57.692
831.40	14.706
831.70	33.333
832.00	80.645
832.30	11.765
832.60	12.500
832.90	23.077
833.20	31.579
833.50	10.000
833.80	0.000
834.10	-4.762
834.40	22.222
834.70	62.500
835.00	8.571
835.30	38.235
835.60	36.667
835.90	24.000
836.20	-22.727
836.50	52.000
836.80	21.212
837.10	22.222
837.40	33.333
837.70	-68.750
838.00	39.286
838.30	43.478
838.60	31.034
838.90	64.286
839.19	-39.130
839.49	25.000
839.79	0.000
840.09	25.000
840.39	45.000
840.69	48.387
840.99	21.429
841.29	-6.667
841.59	42.105
841.88	48.718
842.18	38.462
842.48	-20.000
842.78	-5.000
843.08	43.333
843.38	38.710
843.68	5.556
843.97	23.529
844.27	93.750
844.57	10.526
844.87	-70.000
845.17	0.000
845.47	61.905
845.76	23.810
846.06	55.556
846.36	35.294
846.66	61.538
846.96	6.667
847.25	5.882
847.55	65.217
847.85	20.000
848.15	41.176
848.44	-18.182
848.74	33.333
849.04	20.833
849.34	-25.000
849.63	39.130
849.93	350.000
850.23	40.000
850.53	65.385
850.82	81.818
851.12	40.909
851.42	36.364
851.71	115.385
852.01	-5.000
852.31	-15.385
852.61	5.263
852.90	25.000
853.20	50.000
853.50	-33.333
853.79	-47.619
854.09	-18.182
854.39	-50.000
854.68	29.032
854.98	-11.538
855.28	33.333
855.57	21.429
855.87	32.000
856.17	31.818
856.46	22.222
856.76	33.333
857.05	26.087
857.35	4.167
857.65	-7.692
857.94	23.810
858.24	14.815
858.53	30.435
858.83	52.941
859.13	5.882
859.42	17.647
859.72	114.286
860.01	40.000
860.31	55.556
860.60	70.000
860.90	26.667
861.20	44.444
861.49	38.462
861.79	36.667
862.08	23.077
862.38	46.875
862.67	52.941
862.97	31.250
863.26	-66.667
863.56	30.000
863.85	9.091
864.15	50.000
864.44	66.667
864.74	92.857
865.03	6.250
865.33	-50.000
865.62	6.452
865.92	31.818
866.21	47.826
866.51	50.000
866.80	180.000
867.10	33.333
867.39	75.000
867.69	100.000
867.98	142.857
868.27	64.706
868.57	-400.000
868.86	-50.000
869.16	19.048
869.45	33.333
869.75	36.364
870.04	14.286
870.33	116.667
870.63	0.000
870.92	175.000
871.22	-12.500
871.51	0.000
871.80	-566.667
872.10	-300.000
>>>>>End Processed Spectral Data<<<<<
