SpectraSuite Data File
++++++++++++++++++++++++++++++++++++
Date: Thu May 14 14:36:41 PDT 2015
User: schluterlab
Dark Spectrum Present: Yes
Reference Spectrum Present: Yes
Number of Sampled Component Spectra: 1
Spectrometers: USB2E3373
Integration Time (usec): 3000 (USB2E3373)
Spectra Averaged: 3 (USB2E3373)
Boxcar Smoothing: 0 (USB2E3373)
Correct for Electrical Dark: No (USB2E3373)
Strobe/Lamp Enabled: No (USB2E3373)
Correct for Detector Non-linearity: No (USB2E3373)
Correct for Stray Light: No (USB2E3373)
Number of Pixels in Processed Spectrum: 2048
>>>>>Begin Processed Spectral Data<<<<<
178.53	0.000
178.91	-257.143
179.29	800.000
179.67	900.000
180.04	21.429
180.42	-90.000
180.80	-180.000
181.18	800.000
181.56	1800.000
181.94	-275.000
182.31	500.000
182.69	-766.667
183.07	1050.000
183.45	-200.000
183.83	283.333
184.20	433.333
184.58	-2100.000
184.96	250.000
185.34	66.667
185.72	340.000
186.09	-22.222
186.47	-400.000
186.85	-160.000
187.23	77.778
187.61	700.000
187.98	-300.000
188.36	-475.000
188.74	475.000
189.12	633.333
189.49	131.250
189.87	150.000
190.25	311.111
190.63	520.000
191.00	111.111
191.38	0.000
191.76	175.000
192.14	183.333
192.51	-900.000
192.89	300.000
193.27	0.000
193.65	300.000
194.02	1000.000
194.40	128.571
194.78	-328.571
195.15	0.000
195.53	172.727
195.91	0.000
196.29	550.000
196.66	123.077
197.04	200.000
197.42	100.000
197.79	700.000
198.17	150.000
198.55	185.714
198.92	322.222
199.30	262.500
199.68	227.273
200.05	164.286
200.43	-150.000
200.81	-128.571
201.18	0.000
201.56	-77.778
201.94	0.000
202.31	-500.000
202.69	155.556
203.07	-2300.000
203.44	288.889
203.82	500.000
204.19	133.333
204.57	250.000
204.95	162.500
205.32	1600.000
205.70	-175.000
206.08	283.333
206.45	300.000
206.83	-160.000
207.20	316.667
207.58	160.000
207.96	316.667
208.33	466.667
208.71	-75.000
209.08	266.667
209.46	0.000
209.84	-133.333
210.21	-1100.000
210.59	-350.000
210.96	-266.667
211.34	325.000
211.71	162.500
212.09	2300.000
212.46	0.000
212.84	-400.000
213.22	280.000
213.59	525.000
213.97	210.000
214.34	566.667
214.72	-183.333
215.09	475.000
215.47	0.000
215.84	-257.143
216.22	-300.000
216.59	500.000
216.97	260.000
217.34	550.000
217.72	350.000
218.09	400.000
218.47	100.000
218.84	0.000
219.22	-360.000
219.59	129.412
219.97	140.000
220.34	-950.000
220.72	111.111
221.09	223.077
221.47	666.667
221.84	220.000
222.22	214.286
222.59	0.000
222.97	150.000
223.34	220.000
223.72	1100.000
224.09	350.000
224.46	275.000
224.84	360.000
225.21	128.571
225.59	350.000
225.96	275.000
226.34	65.385
226.71	-183.333
227.08	1000.000
227.46	113.333
227.83	275.000
228.21	105.263
228.58	-125.000
228.95	-850.000
229.33	266.667
229.70	140.000
230.08	184.211
230.45	-60.000
230.82	800.000
231.20	121.429
231.57	141.667
231.95	163.636
232.32	218.182
232.69	85.000
233.07	250.000
233.44	94.118
233.81	140.000
234.19	150.000
234.56	95.455
234.93	131.034
235.31	131.579
235.68	127.778
236.05	60.000
236.43	73.077
236.80	88.000
237.17	88.889
237.55	60.606
237.92	70.000
238.29	67.742
238.67	36.364
239.04	50.000
239.41	33.333
239.79	56.522
240.16	44.444
240.53	6.522
240.91	21.569
241.28	27.869
241.65	32.836
242.02	36.486
242.40	20.000
242.77	24.000
243.14	18.293
243.51	25.000
243.89	7.692
244.26	19.802
244.63	24.510
245.00	17.757
245.38	11.404
245.75	16.814
246.12	20.635
246.49	6.202
246.87	21.429
247.24	15.894
247.61	17.763
247.98	16.107
248.36	11.728
248.73	6.135
249.10	15.301
249.47	18.408
249.84	19.372
250.22	14.508
250.59	13.889
250.96	12.727
251.33	9.694
251.70	13.675
252.08	10.833
252.45	11.885
252.82	7.851
253.19	8.594
253.56	9.125
253.94	5.000
254.31	10.227
254.68	11.538
255.05	12.052
255.42	7.823
255.79	3.560
256.16	5.960
256.54	6.291
256.91	8.852
257.28	6.557
257.65	6.051
258.02	5.900
258.39	10.256
258.76	12.844
259.14	7.759
259.51	7.205
259.88	5.949
260.25	7.222
260.62	7.397
260.99	7.377
261.36	9.383
261.73	6.897
262.10	6.044
262.47	6.434
262.85	10.859
263.22	7.013
263.59	2.105
263.96	8.184
264.33	3.581
264.70	4.691
265.07	7.876
265.44	8.617
265.81	2.546
266.18	5.896
266.55	5.580
266.92	4.556
267.29	6.127
267.66	6.430
268.03	6.114
268.40	7.098
268.77	4.328
269.14	5.507
269.51	7.895
269.88	6.352
270.25	7.243
270.62	8.017
270.99	8.081
271.36	8.713
271.73	5.108
272.10	6.814
272.47	5.411
272.84	4.016
273.21	7.014
273.58	6.452
273.95	6.346
274.32	4.753
274.69	5.029
275.06	6.044
275.43	4.251
275.80	8.995
276.17	4.815
276.54	5.597
276.91	5.903
277.28	7.776
277.65	5.925
278.02	5.699
278.39	5.616
278.76	5.272
279.13	5.142
279.50	6.873
279.87	6.082
280.23	3.521
280.60	8.475
280.97	6.250
281.34	3.905
281.71	8.122
282.08	6.312
282.45	5.401
282.82	6.436
283.19	4.200
283.56	3.607
283.92	6.757
284.29	6.793
284.66	7.061
285.03	5.288
285.40	8.501
285.77	4.025
286.14	8.092
286.51	5.023
286.87	6.161
287.24	5.873
287.61	5.680
287.98	4.834
288.35	5.917
288.72	6.213
289.08	5.857
289.45	4.586
289.82	6.024
290.19	5.891
290.56	6.901
290.93	4.850
291.29	4.545
291.66	4.959
292.03	5.156
292.40	8.980
292.77	5.256
293.13	5.819
293.50	5.125
293.87	5.906
294.24	6.000
294.60	6.574
294.97	5.369
295.34	7.042
295.71	5.044
296.08	5.943
296.44	5.392
296.81	5.725
297.18	6.227
297.55	5.778
297.91	4.389
298.28	4.384
298.65	5.826
299.02	5.431
299.38	6.407
299.75	5.724
300.12	4.398
300.48	5.300
300.85	7.424
301.22	6.711
301.59	5.594
301.95	6.102
302.32	6.556
302.69	6.243
303.05	6.094
303.42	5.987
303.79	5.521
304.15	6.519
304.52	5.285
304.89	6.387
305.25	6.004
305.62	5.747
305.99	6.804
306.35	4.637
306.72	6.101
307.09	5.990
307.45	6.315
307.82	6.054
308.19	5.752
308.55	7.618
308.92	6.037
309.29	6.322
309.65	5.945
310.02	5.644
310.38	5.709
310.75	6.602
311.12	6.232
311.48	6.061
311.85	5.413
312.22	5.882
312.58	6.667
312.95	5.163
313.31	6.414
313.68	7.601
314.05	7.588
314.41	6.375
314.78	6.994
315.14	7.260
315.51	7.479
315.87	7.651
316.24	7.489
316.61	7.815
316.97	6.154
317.34	6.614
317.70	7.598
318.07	7.231
318.43	6.888
318.80	7.441
319.16	7.296
319.53	5.827
319.89	7.099
320.26	6.495
320.62	6.383
320.99	7.664
321.35	7.209
321.72	6.698
322.08	6.583
322.45	7.317
322.81	7.310
323.18	7.168
323.54	7.845
323.91	7.028
324.27	6.971
324.64	8.396
325.00	7.297
325.37	8.190
325.73	8.926
326.10	8.516
326.46	8.713
326.83	7.206
327.19	8.346
327.56	9.091
327.92	8.733
328.29	8.548
328.65	7.956
329.01	9.560
329.38	9.014
329.74	9.247
330.11	8.904
330.47	9.183
330.84	9.044
331.20	9.417
331.56	9.705
331.93	9.121
332.29	9.746
332.66	10.133
333.02	9.883
333.38	8.893
333.75	9.764
334.11	10.008
334.48	9.653
334.84	10.025
335.20	8.900
335.57	10.118
335.93	10.165
336.29	9.900
336.66	9.336
337.02	10.117
337.38	11.139
337.75	10.331
338.11	9.167
338.47	10.587
338.84	9.475
339.20	9.267
339.56	9.061
339.93	9.606
340.29	10.950
340.65	9.895
341.02	9.737
341.38	10.914
341.74	9.847
342.11	10.056
342.47	9.293
342.83	10.145
343.20	9.321
343.56	8.661
343.92	9.688
344.28	10.156
344.65	9.922
345.01	9.672
345.37	10.342
345.73	9.197
346.10	10.530
346.46	8.782
346.82	9.438
347.19	8.938
347.55	9.788
347.91	9.064
348.27	9.105
348.63	10.739
349.00	8.352
349.36	9.219
349.72	10.342
350.08	10.327
350.45	9.430
350.81	9.729
351.17	9.248
351.53	9.249
351.89	10.251
352.26	9.552
352.62	9.403
352.98	7.481
353.34	9.709
353.70	9.630
354.07	9.687
354.43	9.415
354.79	8.975
355.15	9.713
355.51	9.576
355.87	9.499
356.24	10.038
356.60	9.460
356.96	9.785
357.32	9.814
357.68	9.810
358.04	9.506
358.40	9.552
358.77	9.868
359.13	8.789
359.49	9.071
359.85	9.572
360.21	8.824
360.57	9.476
360.93	9.803
361.29	10.667
361.66	10.138
362.02	10.230
362.38	9.417
362.74	9.427
363.10	9.354
363.46	9.557
363.82	8.949
364.18	9.852
364.54	10.235
364.90	10.234
365.26	9.103
365.62	9.267
365.98	9.394
366.35	8.658
366.71	10.068
367.07	9.878
367.43	9.915
367.79	10.219
368.15	9.699
368.51	9.608
368.87	9.732
369.23	9.267
369.59	9.153
369.95	10.480
370.31	9.858
370.67	9.835
371.03	10.042
371.39	9.201
371.75	10.316
372.11	9.688
372.47	10.427
372.83	10.275
373.19	10.340
373.55	9.282
373.91	9.952
374.27	9.185
374.63	10.284
374.99	9.085
375.35	11.234
375.71	10.710
376.07	9.296
376.42	10.076
376.78	10.752
377.14	10.418
377.50	9.424
377.86	10.653
378.22	11.257
378.58	10.285
378.94	9.918
379.30	10.603
379.66	10.641
380.02	11.137
380.38	10.426
380.74	10.817
381.09	10.627
381.45	10.341
381.81	11.183
382.17	10.986
382.53	10.468
382.89	10.440
383.25	10.785
383.61	10.185
383.97	10.718
384.32	11.065
384.68	10.673
385.04	11.163
385.40	11.373
385.76	11.489
386.12	10.592
386.48	11.824
386.83	11.859
387.19	11.066
387.55	10.739
387.91	11.587
388.27	11.490
388.62	11.340
388.98	11.844
389.34	11.019
389.70	11.563
390.06	10.539
390.42	11.566
390.77	11.921
391.13	11.092
391.49	12.138
391.85	11.333
392.20	11.329
392.56	12.227
392.92	11.941
393.28	11.774
393.64	11.788
393.99	11.912
394.35	12.442
394.71	13.054
395.07	11.198
395.42	12.107
395.78	12.980
396.14	11.586
396.50	11.936
396.85	11.628
397.21	12.130
397.57	12.309
397.92	12.085
398.28	11.950
398.64	11.957
399.00	11.571
399.35	12.094
399.71	11.793
400.07	12.072
400.42	12.456
400.78	11.574
401.14	11.611
401.49	12.393
401.85	11.453
402.21	12.167
402.57	12.735
402.92	12.411
403.28	11.944
403.63	11.695
403.99	11.817
404.35	11.825
404.70	12.465
405.06	12.717
405.42	11.885
405.77	12.377
406.13	11.345
406.49	11.712
406.84	12.078
407.20	11.683
407.55	11.811
407.91	12.131
408.27	12.073
408.62	12.158
408.98	12.652
409.34	11.378
409.69	11.867
410.05	12.134
410.40	12.993
410.76	12.058
411.11	12.507
411.47	12.101
411.83	11.875
412.18	12.651
412.54	12.092
412.89	12.456
413.25	12.077
413.60	11.717
413.96	12.063
414.31	12.125
414.67	12.642
415.03	12.615
415.38	12.232
415.74	12.095
416.09	12.338
416.45	11.647
416.80	12.485
417.16	13.027
417.51	12.765
417.87	12.692
418.22	13.114
418.58	12.268
418.93	12.922
419.29	12.207
419.64	12.125
420.00	12.641
420.35	12.128
420.71	11.717
421.06	11.961
421.42	13.016
421.77	11.955
422.12	12.844
422.48	12.391
422.83	12.322
423.19	12.573
423.54	12.777
423.90	13.031
424.25	12.267
424.61	12.629
424.96	12.740
425.31	12.473
425.67	12.560
426.02	12.673
426.38	13.031
426.73	12.612
427.09	12.630
427.44	12.288
427.79	12.714
428.15	12.900
428.50	12.640
428.85	12.629
429.21	13.138
429.56	12.241
429.92	11.941
430.27	12.434
430.62	12.799
430.98	12.691
431.33	12.219
431.68	12.692
432.04	12.646
432.39	12.908
432.74	12.215
433.10	12.655
433.45	12.152
433.80	13.036
434.16	12.397
434.51	12.333
434.86	13.138
435.22	12.646
435.57	13.267
435.92	13.244
436.28	12.799
436.63	13.381
436.98	12.936
437.34	13.472
437.69	12.548
438.04	12.639
438.39	12.924
438.75	11.732
439.10	13.636
439.45	13.583
439.81	13.107
440.16	13.137
440.51	12.988
440.86	12.674
441.22	12.808
441.57	13.417
441.92	12.561
442.27	13.182
442.63	12.618
442.98	13.287
443.33	13.204
443.68	13.082
444.03	13.594
444.39	12.529
444.74	12.557
445.09	13.127
445.44	13.330
445.79	13.314
446.15	12.539
446.50	13.075
446.85	13.084
447.20	13.491
447.55	13.128
447.91	12.880
448.26	13.266
448.61	12.806
448.96	13.627
449.31	12.672
449.66	12.636
450.02	13.027
450.37	13.372
450.72	12.540
451.07	13.269
451.42	13.114
451.77	14.008
452.12	13.431
452.47	12.359
452.83	13.007
453.18	13.018
453.53	13.153
453.88	12.535
454.23	12.825
454.58	12.826
454.93	12.500
455.28	14.148
455.63	13.644
455.98	13.520
456.34	12.780
456.69	12.287
457.04	12.707
457.39	13.304
457.74	13.423
458.09	12.795
458.44	14.062
458.79	12.532
459.14	13.162
459.49	12.733
459.84	13.064
460.19	12.271
460.54	12.947
460.89	12.970
461.24	12.529
461.59	13.558
461.94	12.721
462.29	13.494
462.64	12.372
462.99	12.743
463.34	14.147
463.69	13.951
464.04	13.563
464.39	12.612
464.74	13.341
465.09	13.091
465.44	13.144
465.79	13.326
466.14	12.559
466.49	12.632
466.84	13.333
467.19	13.064
467.54	12.456
467.89	12.759
468.24	12.798
468.59	12.218
468.94	12.529
469.29	12.537
469.64	12.333
469.99	12.811
470.34	13.243
470.68	13.329
471.03	13.360
471.38	12.753
471.73	13.199
472.08	12.310
472.43	13.064
472.78	12.909
473.13	13.654
473.48	13.112
473.83	13.465
474.17	12.778
474.52	12.568
474.87	12.625
475.22	13.465
475.57	13.499
475.92	12.693
476.27	12.673
476.61	12.980
476.96	12.044
477.31	12.525
477.66	13.641
478.01	12.862
478.36	12.612
478.70	13.103
479.05	12.986
479.40	12.537
479.75	12.488
480.10	12.743
480.45	12.944
480.79	12.789
481.14	11.903
481.49	12.994
481.84	12.620
482.19	13.161
482.53	12.768
482.88	12.627
483.23	12.628
483.58	12.140
483.92	11.835
484.27	12.616
484.62	12.335
484.97	12.636
485.31	11.897
485.66	11.855
486.01	11.487
486.36	11.786
486.70	12.155
487.05	11.906
487.40	11.864
487.75	12.316
488.09	12.482
488.44	12.423
488.79	12.884
489.13	12.491
489.48	11.883
489.83	12.475
490.17	11.665
490.52	12.521
490.87	11.971
491.22	12.738
491.56	12.713
491.91	12.734
492.26	12.029
492.60	12.199
492.95	12.418
493.30	12.550
493.64	12.834
493.99	11.974
494.34	11.977
494.68	12.377
495.03	12.687
495.37	12.472
495.72	12.290
496.07	12.883
496.41	11.969
496.76	12.010
497.11	12.017
497.45	12.085
497.80	12.306
498.14	12.200
498.49	12.362
498.84	12.340
499.18	12.281
499.53	12.422
499.87	12.527
500.22	11.754
500.56	12.011
500.91	12.815
501.26	12.818
501.60	11.975
501.95	12.809
502.29	12.242
502.64	11.937
502.98	12.166
503.33	11.620
503.67	11.993
504.02	12.303
504.36	12.556
504.71	12.816
505.06	13.097
505.40	12.203
505.75	11.612
506.09	12.707
506.44	11.606
506.78	12.248
507.13	12.540
507.47	12.459
507.82	12.689
508.16	12.380
508.51	12.096
508.85	12.187
509.19	12.269
509.54	12.344
509.88	12.482
510.23	12.288
510.57	12.131
510.92	12.433
511.26	11.929
511.61	11.492
511.95	11.908
512.30	12.457
512.64	11.294
512.98	12.056
513.33	12.248
513.67	11.372
514.02	12.008
514.36	13.043
514.70	12.083
515.05	12.409
515.39	11.811
515.74	12.990
516.08	12.573
516.42	12.454
516.77	11.987
517.11	12.326
517.46	12.831
517.80	12.346
518.14	12.405
518.49	12.636
518.83	12.773
519.17	12.493
519.52	12.579
519.86	12.566
520.20	12.780
520.55	12.377
520.89	11.824
521.23	13.065
521.58	12.712
521.92	11.898
522.26	11.627
522.61	11.806
522.95	12.687
523.29	12.874
523.64	11.267
523.98	12.721
524.32	12.779
524.66	12.294
525.01	12.627
525.35	12.005
525.69	12.297
526.04	12.400
526.38	12.241
526.72	12.168
527.06	12.199
527.41	13.353
527.75	13.124
528.09	12.338
528.43	12.137
528.78	11.850
529.12	12.271
529.46	12.085
529.80	12.014
530.15	11.478
530.49	11.744
530.83	12.279
531.17	11.470
531.51	12.034
531.86	12.500
532.20	13.110
532.54	12.148
532.88	12.970
533.22	12.257
533.57	12.579
533.91	12.851
534.25	12.832
534.59	12.356
534.93	12.168
535.27	11.887
535.62	11.939
535.96	12.202
536.30	12.045
536.64	12.553
536.98	12.792
537.32	12.840
537.66	11.541
538.01	12.326
538.35	12.241
538.69	11.779
539.03	12.446
539.37	12.191
539.71	12.012
540.05	12.590
540.39	12.225
540.73	11.900
541.07	12.569
541.42	11.813
541.76	12.278
542.10	11.942
542.44	10.962
542.78	12.774
543.12	12.277
543.46	12.576
543.80	11.691
544.14	12.029
544.48	12.116
544.82	12.867
545.16	12.165
545.50	11.923
545.84	11.635
546.18	13.395
546.52	11.720
546.86	11.761
547.20	12.405
547.54	13.358
547.88	11.754
548.22	12.690
548.56	12.171
548.90	12.119
549.24	12.462
549.58	12.429
549.92	11.416
550.26	13.074
550.60	12.763
550.94	12.160
551.28	12.343
551.62	12.534
551.96	12.168
552.30	12.173
552.64	12.881
552.98	12.477
553.32	12.476
553.66	12.026
554.00	12.106
554.34	12.033
554.68	12.266
555.02	12.155
555.36	13.149
555.69	11.723
556.03	11.412
556.37	12.703
556.71	12.492
557.05	12.843
557.39	12.210
557.73	11.757
558.07	12.185
558.41	11.694
558.75	11.629
559.08	13.779
559.42	11.866
559.76	12.347
560.10	11.855
560.44	12.335
560.78	12.625
561.12	12.254
561.45	12.895
561.79	12.943
562.13	12.384
562.47	11.406
562.81	12.785
563.15	12.184
563.48	12.554
563.82	12.213
564.16	11.508
564.50	12.157
564.84	12.271
565.17	11.824
565.51	11.795
565.85	12.411
566.19	11.521
566.52	11.293
566.86	11.771
567.20	12.072
567.54	11.524
567.88	11.570
568.21	11.957
568.55	11.703
568.89	11.530
569.23	12.125
569.56	11.098
569.90	11.333
570.24	11.366
570.57	11.065
570.91	11.176
571.25	11.368
571.59	11.606
571.92	10.901
572.26	11.196
572.60	10.784
572.93	11.634
573.27	11.071
573.61	11.435
573.95	11.022
574.28	10.769
574.62	10.573
574.96	11.028
575.29	10.773
575.63	10.811
575.97	11.186
576.30	11.152
576.64	10.785
576.98	11.025
577.31	11.257
577.65	10.896
577.98	10.900
578.32	10.609
578.66	10.573
578.99	11.018
579.33	11.049
579.67	10.902
580.00	10.789
580.34	10.973
580.67	10.856
581.01	10.818
581.35	10.929
581.68	10.665
582.02	10.928
582.35	10.769
582.69	10.640
583.02	10.671
583.36	11.111
583.70	11.066
584.03	11.159
584.37	11.010
584.70	11.149
585.04	10.928
585.37	10.959
585.71	10.917
586.04	10.920
586.38	10.956
586.72	10.604
587.05	10.617
587.39	10.596
587.72	11.388
588.06	10.904
588.39	11.551
588.73	11.111
589.06	11.230
589.40	11.524
589.73	10.958
590.07	11.107
590.40	11.934
590.73	11.311
591.07	11.914
591.40	10.964
591.74	11.407
592.07	12.180
592.41	10.883
592.74	10.898
593.08	11.274
593.41	11.403
593.75	11.322
594.08	11.027
594.41	11.410
594.75	11.126
595.08	11.036
595.42	11.234
595.75	11.430
596.09	11.183
596.42	11.107
596.75	11.617
597.09	11.434
597.42	11.561
597.75	11.486
598.09	11.310
598.42	11.500
598.76	11.272
599.09	11.321
599.42	10.828
599.76	11.489
600.09	11.411
600.42	10.944
600.76	11.196
601.09	11.152
601.42	11.157
601.76	11.414
602.09	11.258
602.42	10.941
602.76	11.218
603.09	11.380
603.42	10.983
603.76	10.712
604.09	11.639
604.42	11.339
604.76	11.416
605.09	11.767
605.42	11.404
605.75	11.538
606.09	10.862
606.42	11.164
606.75	10.982
607.09	11.175
607.42	11.484
607.75	11.293
608.08	11.089
608.42	11.649
608.75	11.360
609.08	10.993
609.41	11.160
609.75	11.830
610.08	11.126
610.41	11.852
610.74	10.966
611.07	11.634
611.41	11.749
611.74	11.178
612.07	12.155
612.40	12.025
612.73	11.687
613.07	11.443
613.40	11.405
613.73	11.314
614.06	12.267
614.39	10.982
614.72	11.208
615.06	11.357
615.39	11.165
615.72	11.043
616.05	12.142
616.38	11.403
616.71	11.703
617.05	10.916
617.38	12.253
617.71	11.609
618.04	11.657
618.37	11.311
618.70	12.443
619.03	11.350
619.36	12.330
619.69	12.364
620.03	11.927
620.36	11.656
620.69	12.276
621.02	12.402
621.35	12.264
621.68	12.292
622.01	11.673
622.34	11.646
622.67	11.134
623.00	11.066
623.33	13.139
623.66	12.062
623.99	11.323
624.32	12.801
624.65	12.033
624.99	11.638
625.32	12.280
625.65	12.744
625.98	11.661
626.31	12.190
626.64	12.234
626.97	12.078
627.30	11.845
627.63	11.778
627.96	12.838
628.29	12.840
628.62	12.427
628.95	11.919
629.28	11.810
629.61	13.636
629.94	10.879
630.26	12.542
630.59	13.472
630.92	12.727
631.25	13.685
631.58	12.429
631.91	12.840
632.24	12.872
632.57	13.378
632.90	13.139
633.23	12.245
633.56	12.857
633.89	13.017
634.22	14.553
634.55	12.630
634.88	13.312
635.20	13.886
635.53	13.446
635.86	12.784
636.19	15.058
636.52	13.608
636.85	12.360
637.18	13.721
637.51	12.473
637.83	12.292
638.16	13.825
638.49	13.146
638.82	13.191
639.15	11.340
639.48	15.012
639.81	13.857
640.13	13.663
640.46	11.636
640.79	12.500
641.12	14.037
641.45	14.053
641.77	15.148
642.10	13.648
642.43	14.894
642.76	13.821
643.09	15.068
643.41	12.325
643.74	12.690
644.07	14.759
644.40	14.710
644.73	13.788
645.05	13.216
645.38	13.669
645.71	13.930
646.04	16.069
646.36	13.431
646.69	14.877
647.02	14.832
647.35	15.878
647.67	14.976
648.00	14.013
648.33	13.213
648.66	12.839
648.98	14.014
649.31	13.396
649.64	15.007
649.96	12.599
650.29	13.908
650.62	13.720
650.94	13.814
651.27	13.772
651.60	13.889
651.92	13.830
652.25	14.906
652.58	13.755
652.90	12.645
653.23	14.648
653.56	15.264
653.88	16.011
654.21	15.775
654.54	13.728
654.86	13.739
655.19	12.798
655.52	11.812
655.84	9.431
656.17	11.825
656.49	17.282
656.82	19.403
657.15	15.575
657.47	11.695
657.80	8.872
658.13	7.005
658.45	9.624
658.78	11.643
659.10	11.686
659.43	12.118
659.75	11.958
660.08	12.101
660.41	12.986
660.73	12.771
661.06	13.803
661.38	16.587
661.71	16.034
662.03	15.697
662.36	15.921
662.68	15.947
663.01	15.221
663.33	16.635
663.66	15.385
663.98	15.000
664.31	17.448
664.63	13.102
664.96	14.519
665.28	12.341
665.61	17.308
665.93	14.821
666.26	15.771
666.58	11.993
666.91	14.766
667.23	16.190
667.56	15.187
667.88	17.200
668.21	12.109
668.53	13.514
668.86	16.306
669.18	11.405
669.50	14.115
669.83	13.600
670.15	15.945
670.48	15.675
670.80	13.193
671.13	13.422
671.45	13.976
671.77	15.254
672.10	13.500
672.42	12.945
672.75	13.210
673.07	13.284
673.39	13.559
673.72	14.094
674.04	14.310
674.37	14.848
674.69	15.520
675.01	12.571
675.34	14.122
675.66	13.109
675.98	16.418
676.31	15.625
676.63	17.110
676.95	16.858
677.28	14.113
677.60	13.976
677.92	16.507
678.25	14.808
678.57	14.947
678.89	14.846
679.22	13.763
679.54	13.162
679.86	12.373
680.18	12.769
680.51	15.409
680.83	14.566
681.15	12.759
681.48	16.753
681.80	17.098
682.12	12.413
682.44	13.523
682.77	14.894
683.09	14.773
683.41	16.667
683.73	15.370
684.06	14.022
684.38	14.132
684.70	14.004
685.02	14.630
685.34	13.810
685.67	14.038
685.99	12.730
686.31	12.500
686.63	12.480
686.96	13.722
687.28	13.844
687.60	13.973
687.92	13.505
688.24	15.192
688.56	14.138
688.89	15.064
689.21	14.873
689.53	11.961
689.85	14.398
690.17	15.370
690.49	14.940
690.82	13.663
691.14	14.777
691.46	14.914
691.78	15.285
692.10	14.679
692.42	10.714
692.74	14.338
693.06	12.407
693.39	14.801
693.71	14.286
694.03	15.985
694.35	15.048
694.67	16.016
694.99	15.319
695.31	13.245
695.63	13.636
695.95	14.700
696.27	15.385
696.59	17.699
696.91	15.991
697.23	16.923
697.56	11.813
697.88	14.015
698.20	13.936
698.52	14.962
698.84	14.553
699.16	17.755
699.48	13.808
699.80	14.894
700.12	15.939
700.44	16.129
700.76	14.489
701.08	15.981
701.40	16.580
701.72	14.925
702.04	15.775
702.36	14.660
702.68	16.381
703.00	13.203
703.32	13.054
703.64	15.159
703.96	13.842
704.28	14.988
704.60	17.215
704.91	13.520
705.23	15.890
705.55	16.156
705.87	16.364
706.19	15.951
706.51	15.663
706.83	14.986
707.15	10.317
707.47	15.421
707.79	13.537
708.11	12.500
708.43	12.258
708.74	13.170
709.06	13.921
709.38	14.554
709.70	17.618
710.02	15.504
710.34	15.691
710.66	15.642
710.98	15.301
711.29	14.011
711.61	14.972
711.93	17.094
712.25	15.946
712.57	12.684
712.89	17.647
713.20	15.385
713.52	17.341
713.84	16.156
714.16	15.526
714.48	15.464
714.80	16.623
715.11	15.486
715.43	15.915
715.75	18.158
716.07	14.641
716.39	18.579
716.70	14.458
717.02	15.082
717.34	15.679
717.66	18.456
717.97	13.356
718.29	15.464
718.61	14.145
718.93	16.181
719.24	18.012
719.56	15.337
719.88	14.715
720.20	17.097
720.51	17.391
720.83	16.250
721.15	14.474
721.46	13.014
721.78	15.667
722.10	16.828
722.42	16.107
722.73	15.161
723.05	17.193
723.37	16.319
723.68	22.581
724.00	19.134
724.32	16.197
724.63	14.336
724.95	19.149
725.27	14.286
725.58	13.074
725.90	18.276
726.22	15.047
726.53	15.584
726.85	17.296
727.16	16.012
727.48	17.125
727.80	16.887
728.11	15.548
728.43	16.162
728.74	16.722
729.06	14.238
729.38	15.260
729.69	14.765
730.01	13.690
730.32	11.515
730.64	16.667
730.96	15.839
731.27	17.877
731.59	14.286
731.90	13.506
732.22	15.365
732.53	11.878
732.85	20.857
733.16	16.129
733.48	12.195
733.80	13.928
734.11	14.815
734.43	18.919
734.74	20.253
735.06	12.060
735.37	12.973
735.69	15.405
736.00	17.514
736.32	16.981
736.63	17.222
736.95	14.943
737.26	15.455
737.58	11.818
737.89	17.353
738.21	11.621
738.52	13.443
738.83	17.065
739.15	17.021
739.46	16.327
739.78	15.337
740.09	15.473
740.41	14.286
740.72	15.000
741.04	17.152
741.35	19.649
741.66	16.471
741.98	15.164
742.29	20.084
742.61	17.982
742.92	14.615
743.23	19.856
743.55	15.504
743.86	14.400
744.18	14.050
744.49	13.502
744.80	18.930
745.12	16.878
745.43	17.073
745.74	15.086
746.06	16.949
746.37	17.300
746.68	16.667
747.00	19.583
747.31	12.876
747.62	14.615
747.94	16.599
748.25	13.655
748.56	15.102
748.88	19.658
749.19	17.672
749.50	19.048
749.82	17.671
750.13	18.149
750.44	13.667
750.75	16.000
751.07	18.154
751.38	12.934
751.69	17.252
752.01	15.858
752.32	18.301
752.63	13.265
752.94	13.149
753.26	17.472
753.57	14.444
753.88	13.109
754.19	15.434
754.51	15.756
754.82	17.685
755.13	17.049
755.44	13.993
755.75	17.763
756.07	18.209
756.38	14.151
756.69	16.265
757.00	11.911
757.31	12.568
757.63	14.066
757.94	12.911
758.25	14.447
758.56	12.418
758.87	16.818
759.18	14.933
759.50	18.697
759.81	17.927
760.12	15.633
760.43	15.104
760.74	15.271
761.05	13.500
761.36	14.699
761.67	12.437
761.99	17.297
762.30	17.073
762.61	16.172
762.92	15.672
763.23	12.734
763.54	16.906
763.85	14.433
764.16	17.508
764.47	15.493
764.78	18.211
765.10	14.370
765.41	17.949
765.72	13.228
766.03	18.079
766.34	12.539
766.65	12.544
766.96	17.131
767.27	20.737
767.58	17.413
767.89	24.038
768.20	16.901
768.51	21.296
768.82	18.876
769.13	20.455
769.44	11.538
769.75	19.495
770.06	16.538
770.37	20.866
770.68	15.745
770.99	13.765
771.30	24.074
771.61	17.110
771.92	12.593
772.23	17.004
772.54	9.259
772.85	23.041
773.16	19.048
773.47	11.111
773.78	16.757
774.09	21.023
774.39	17.500
774.70	22.404
775.01	18.293
775.32	12.941
775.63	19.018
775.94	15.924
776.25	22.581
776.56	28.846
776.87	31.973
777.18	19.310
777.48	26.573
777.79	19.595
778.10	19.853
778.41	25.694
778.72	25.517
779.03	22.840
779.34	20.000
779.65	20.207
779.95	22.222
780.26	19.886
780.57	21.935
780.88	25.362
781.19	28.387
781.50	25.294
781.80	20.968
782.11	25.397
782.42	14.141
782.73	17.964
783.04	17.877
783.34	16.364
783.65	8.497
783.96	20.497
784.27	17.857
784.57	17.881
784.88	23.571
785.19	22.047
785.50	29.921
785.81	25.564
786.11	24.615
786.42	14.388
786.73	25.899
787.04	19.549
787.34	25.410
787.65	20.800
787.96	27.612
788.26	28.671
788.57	25.175
788.88	19.737
789.19	31.373
789.49	17.123
789.80	21.986
790.11	22.835
790.41	16.406
790.72	34.746
791.03	13.592
791.33	31.304
791.64	24.561
791.95	12.500
792.25	28.571
792.56	21.429
792.87	21.875
793.17	31.250
793.48	29.167
793.79	20.482
794.09	22.018
794.40	21.101
794.70	23.810
795.01	18.182
795.32	19.178
795.62	20.423
795.93	26.515
796.23	22.951
796.54	25.000
796.85	28.723
797.15	16.304
797.46	30.137
797.76	8.750
798.07	19.565
798.37	23.711
798.68	35.065
798.99	22.989
799.29	26.966
799.60	29.787
799.90	30.120
800.21	15.385
800.51	28.358
800.82	33.824
801.12	21.918
801.43	16.176
801.73	22.034
802.04	31.818
802.34	31.667
802.65	38.983
802.95	31.343
803.26	40.678
803.56	38.356
803.87	20.000
804.17	31.507
804.48	12.281
804.78	31.944
805.09	31.034
805.39	29.730
805.70	19.718
806.00	35.366
806.30	36.145
806.61	31.507
806.91	29.808
807.22	26.667
807.52	16.092
807.83	50.000
808.13	40.964
808.43	31.461
808.74	18.750
809.04	20.588
809.35	22.667
809.65	20.000
809.95	47.945
810.26	28.070
810.56	43.103
810.86	44.118
811.17	40.351
811.47	27.869
811.77	22.222
812.08	42.373
812.38	38.333
812.69	39.655
812.99	20.755
813.29	38.462
813.59	46.000
813.90	61.404
814.20	25.455
814.50	28.169
814.81	24.359
815.11	37.705
815.41	28.358
815.72	44.828
816.02	48.214
816.32	64.444
816.62	52.273
816.93	42.222
817.23	51.852
817.53	51.064
817.84	59.524
818.14	58.824
818.44	44.898
818.74	40.000
819.04	43.590
819.35	37.143
819.65	38.462
819.95	43.396
820.25	42.222
820.56	26.190
820.86	84.375
821.16	58.974
821.46	32.558
821.76	16.000
822.07	44.643
822.37	34.783
822.67	48.936
822.97	40.541
823.27	50.000
823.57	65.306
823.88	55.556
824.18	67.500
824.48	56.667
824.78	60.000
825.08	72.727
825.38	51.111
825.69	72.340
825.99	72.222
826.29	17.143
826.59	74.359
826.89	62.791
827.19	48.000
827.49	50.000
827.79	35.417
828.09	13.514
828.39	3.333
828.70	43.902
829.00	46.512
829.30	46.429
829.60	61.765
829.90	54.348
830.20	91.429
830.50	68.966
830.80	138.889
831.10	46.154
831.40	47.059
831.70	100.000
832.00	77.419
832.30	70.588
832.60	50.000
832.90	69.231
833.20	73.684
833.50	85.000
833.80	47.368
834.10	23.810
834.40	66.667
834.70	46.875
835.00	28.571
835.30	50.000
835.60	60.000
835.90	76.000
836.20	54.545
836.50	124.000
836.80	51.515
837.10	55.556
837.40	77.778
837.70	50.000
838.00	85.714
838.30	104.348
838.60	82.759
838.90	114.286
839.19	13.043
839.49	0.000
839.79	95.652
840.09	68.750
840.39	105.000
840.69	87.097
840.99	67.857
841.29	113.333
841.59	105.263
841.88	92.308
842.18	34.615
842.48	200.000
842.78	65.000
843.08	73.333
843.38	48.387
843.68	77.778
843.97	94.118
844.27	106.250
844.57	94.737
844.87	120.000
845.17	100.000
845.47	119.048
845.76	42.857
846.06	155.556
846.36	41.176
846.66	84.615
846.96	53.333
847.25	70.588
847.55	86.957
847.85	55.000
848.15	117.647
848.44	190.909
848.74	66.667
849.04	83.333
849.34	106.250
849.63	91.304
849.93	-700.000
850.23	166.667
850.53	115.385
850.82	127.273
851.12	104.545
851.42	90.909
851.71	176.923
852.01	45.000
852.31	146.154
852.61	105.263
852.90	166.667
853.20	122.222
853.50	111.111
853.79	61.905
854.09	68.182
854.39	116.667
854.68	83.871
854.98	88.462
855.28	94.444
855.57	64.286
855.87	96.000
856.17	100.000
856.46	92.593
856.76	88.889
857.05	78.261
857.35	54.167
857.65	115.385
857.94	90.476
858.24	81.481
858.53	104.348
858.83	105.882
859.13	100.000
859.42	111.765
859.72	178.571
860.01	65.000
860.31	188.889
860.60	170.000
860.90	120.000
861.20	83.333
861.49	84.615
861.79	103.333
862.08	84.615
862.38	78.125
862.67	76.471
862.97	106.250
863.26	166.667
863.56	260.000
863.85	245.455
864.15	116.667
864.44	366.667
864.74	178.571
865.03	68.750
865.33	150.000
865.62	51.613
865.92	100.000
866.21	82.609
866.51	128.571
866.80	180.000
867.10	83.333
867.39	158.333
867.69	-0.000
867.98	185.714
868.27	111.765
868.57	-100.000
868.86	-20.000
869.16	90.476
869.45	66.667
869.75	181.818
870.04	157.143
870.33	133.333
870.63	100.000
870.92	400.000
871.22	50.000
871.51	145.455
871.80	333.333
872.10	850.000
>>>>>End Processed Spectral Data<<<<<
