SpectraSuite Data File
++++++++++++++++++++++++++++++++++++
Date: Thu May 14 15:19:28 PDT 2015
User: schluterlab
Dark Spectrum Present: Yes
Reference Spectrum Present: Yes
Number of Sampled Component Spectra: 1
Spectrometers: USB2E3373
Integration Time (usec): 3000 (USB2E3373)
Spectra Averaged: 3 (USB2E3373)
Boxcar Smoothing: 0 (USB2E3373)
Correct for Electrical Dark: No (USB2E3373)
Strobe/Lamp Enabled: No (USB2E3373)
Correct for Detector Non-linearity: No (USB2E3373)
Correct for Stray Light: No (USB2E3373)
Number of Pixels in Processed Spectrum: 2048
>>>>>Begin Processed Spectral Data<<<<<
178.53	0.000
178.91	542.857
179.29	-5000.000
179.67	-4700.000
180.04	428.571
180.42	430.000
180.80	1020.000
181.18	-4000.000
181.56	-3400.000
181.94	1000.000
182.31	-1075.000
182.69	1500.000
183.07	-2450.000
183.45	1200.000
183.83	-666.667
184.20	-1233.333
184.58	3400.000
184.96	-1100.000
185.34	-577.778
185.72	-700.000
186.09	611.111
186.47	2100.000
186.85	860.000
187.23	-500.000
187.61	-4500.000
187.98	800.000
188.36	1100.000
188.74	-950.000
189.12	-966.667
189.49	-218.750
189.87	-437.500
190.25	-433.333
190.63	-780.000
191.00	-433.333
191.38	0.000
191.76	-950.000
192.14	-633.333
192.51	1900.000
192.89	-650.000
193.27	0.000
193.65	-600.000
194.02	-5200.000
194.40	-457.143
194.78	600.000
195.15	0.000
195.53	-263.636
195.91	0.000
196.29	-900.000
196.66	-284.615
197.04	-4700.000
197.42	-642.857
197.79	-1950.000
198.17	-475.000
198.55	-657.143
198.92	-377.778
199.30	-450.000
199.68	-254.545
200.05	-235.714
200.43	-2250.000
200.81	671.429
201.18	0.000
201.56	511.111
201.94	0.000
202.31	1266.667
202.69	-544.444
203.07	3000.000
203.44	-400.000
203.82	-975.000
204.19	-308.333
204.57	-566.667
204.95	-412.500
205.32	-4000.000
205.70	825.000
206.08	-733.333
206.45	-600.000
206.83	920.000
207.20	-750.000
207.58	-720.000
207.96	-700.000
208.33	-516.667
208.71	366.667
209.08	-533.333
209.46	0.000
209.84	666.667
210.21	2200.000
210.59	1900.000
210.96	1833.333
211.34	-975.000
211.71	-437.500
212.09	-3700.000
212.46	0.000
212.84	2750.000
213.22	-1020.000
213.59	-1225.000
213.97	-360.000
214.34	-1100.000
214.72	666.667
215.09	-1000.000
215.47	0.000
215.84	528.571
216.22	2700.000
216.59	-680.000
216.97	-720.000
217.34	-1025.000
217.72	-387.500
218.09	-1275.000
218.47	-1275.000
218.84	0.000
219.22	820.000
219.59	-258.824
219.97	-145.000
220.34	2100.000
220.72	-455.556
221.09	-215.385
221.47	-1133.333
221.84	-380.000
222.22	-485.714
222.59	0.000
222.97	-575.000
223.34	-880.000
223.72	-4200.000
224.09	-1175.000
224.46	-1125.000
224.84	-660.000
225.21	-614.286
225.59	-1050.000
225.96	-850.000
226.34	-173.077
226.71	650.000
227.08	-2200.000
227.46	-253.333
227.83	-1125.000
228.21	-200.000
228.58	575.000
228.95	2500.000
229.33	-308.333
229.70	-360.000
230.08	-94.737
230.45	460.000
230.82	-1233.333
231.20	-264.286
231.57	-241.667
231.95	-290.909
232.32	-381.818
232.69	-160.000
233.07	-925.000
233.44	-205.882
233.81	-270.000
234.19	-172.222
234.56	-136.364
234.93	-113.793
235.31	-110.526
235.68	-194.444
236.05	-200.000
236.43	-103.846
236.80	-120.000
237.17	-111.111
237.55	-78.788
237.92	-480.000
238.29	-106.452
238.67	-70.455
239.04	-66.667
239.41	-88.095
239.79	-65.217
240.16	-50.000
240.53	-65.217
240.91	-64.706
241.28	-40.984
241.65	-25.373
242.02	-14.865
242.40	-43.077
242.77	-36.000
243.14	-30.488
243.51	-50.000
243.89	-32.051
244.26	-12.871
244.63	-17.647
245.00	-15.888
245.38	-12.281
245.75	-28.319
246.12	-7.937
246.49	-7.752
246.87	-4.286
247.24	-5.960
247.61	0.000
247.98	1.342
248.36	-1.852
248.73	-2.454
249.10	-1.093
249.47	6.468
249.84	6.283
250.22	0.000
250.59	9.444
250.96	5.000
251.33	4.082
251.70	5.983
252.08	6.250
252.45	9.836
252.82	5.785
253.19	6.250
253.56	9.506
253.94	5.385
254.31	7.955
254.68	13.986
255.05	11.401
255.42	5.782
255.79	9.709
256.16	8.940
256.54	7.285
256.91	10.164
257.28	8.197
257.65	10.828
258.02	10.324
258.39	13.390
258.76	14.679
259.14	14.080
259.51	13.545
259.88	9.915
260.25	10.556
260.62	14.247
260.99	13.388
261.36	13.941
261.73	10.875
262.10	10.714
262.47	13.137
262.85	15.152
263.22	11.169
263.59	9.211
263.96	15.090
264.33	11.509
264.70	13.333
265.07	14.081
265.44	17.914
265.81	15.972
266.18	15.193
266.55	14.955
266.92	14.579
267.29	15.536
267.66	16.408
268.03	14.847
268.40	13.779
268.77	12.301
269.14	12.555
269.51	16.447
269.88	15.164
270.25	15.292
270.62	17.722
270.99	15.556
271.36	15.842
271.73	13.949
272.10	15.431
272.47	14.228
272.84	16.867
273.21	13.627
273.58	16.129
273.95	14.038
274.32	14.639
274.69	14.313
275.06	16.850
275.43	12.384
275.80	15.520
276.17	13.519
276.54	13.060
276.91	13.417
277.28	14.647
277.65	17.056
278.02	15.625
278.39	15.399
278.76	15.817
279.13	14.007
279.50	16.151
279.87	15.206
280.23	13.556
280.60	15.254
280.97	16.283
281.34	16.808
281.71	16.244
282.08	14.120
282.45	14.894
282.82	13.972
283.19	13.893
283.56	14.754
283.92	15.766
284.29	17.536
284.66	15.764
285.03	15.865
285.40	16.538
285.77	15.789
286.14	15.420
286.51	15.068
286.87	14.376
287.24	15.964
287.61	13.602
287.98	15.257
288.35	17.456
288.72	15.680
289.08	16.252
289.45	15.237
289.82	15.663
290.19	13.793
290.56	13.380
290.93	13.552
291.29	14.325
291.66	15.014
292.03	12.076
292.40	15.918
292.77	11.725
293.13	15.020
293.50	13.141
293.87	12.886
294.24	14.800
294.60	13.274
294.97	13.154
295.34	12.164
295.71	12.863
296.08	11.886
296.44	12.255
296.81	11.815
297.18	13.948
297.55	12.854
297.91	11.507
298.28	13.033
298.65	12.128
299.02	12.987
299.38	11.785
299.75	13.551
300.12	12.847
300.48	13.134
300.85	13.386
301.22	13.087
301.59	11.187
301.95	12.542
302.32	12.667
302.69	12.048
303.05	13.602
303.42	11.863
303.79	12.708
304.15	12.934
304.52	12.474
304.89	13.927
305.25	12.836
305.62	12.226
305.99	12.887
306.35	13.004
306.72	14.168
307.09	11.980
307.45	14.182
307.82	12.916
308.19	13.118
308.55	13.983
308.92	12.950
309.29	12.835
309.65	12.476
310.02	13.366
310.38	12.500
310.75	14.272
311.12	13.231
311.48	12.610
311.85	13.675
312.22	13.378
312.58	12.864
312.95	13.193
313.31	13.911
313.68	14.011
314.05	13.821
314.41	15.392
314.78	14.078
315.14	14.701
315.51	14.312
315.87	14.761
316.24	15.160
316.61	16.607
316.97	14.842
317.34	15.608
317.70	14.934
318.07	14.903
318.43	16.412
318.80	17.391
319.16	16.052
319.53	14.824
319.89	14.899
320.26	15.036
320.62	16.223
320.99	16.343
321.35	15.804
321.72	16.930
322.08	16.772
322.45	17.254
322.81	17.058
323.18	16.106
323.54	16.983
323.91	16.904
324.27	16.609
324.64	16.961
325.00	17.579
325.37	17.772
325.73	17.851
326.10	17.680
326.46	19.300
326.83	18.975
327.19	18.583
327.56	19.289
327.92	18.804
328.29	19.355
328.65	18.342
329.01	18.613
329.38	19.545
329.74	20.976
330.11	19.092
330.47	19.124
330.84	19.983
331.20	21.000
331.56	20.191
331.93	20.167
332.29	20.763
332.66	21.761
333.02	19.933
333.38	19.295
333.75	19.276
334.11	20.934
334.48	21.205
334.84	21.071
335.20	21.243
335.57	21.332
335.93	21.653
336.29	20.466
336.66	20.774
337.02	20.401
337.38	21.939
337.75	19.835
338.11	21.194
338.47	21.505
338.84	20.981
339.20	20.051
339.56	20.758
339.93	20.854
340.29	21.578
340.65	20.519
341.02	20.990
341.38	22.150
341.74	20.823
342.11	20.917
342.47	20.572
342.83	22.383
343.20	21.995
343.56	21.251
343.92	22.098
344.28	20.781
344.65	22.481
345.01	20.671
345.37	22.006
345.73	21.356
346.10	21.217
346.46	20.411
346.82	21.573
347.19	22.307
347.55	21.472
347.91	21.620
348.27	22.003
348.63	22.011
349.00	22.148
349.36	22.751
349.72	21.875
350.08	22.437
350.45	21.977
350.81	21.116
351.17	21.278
351.53	22.441
351.89	22.475
352.26	22.313
352.62	22.313
352.98	21.908
353.34	21.210
353.70	22.573
354.07	22.727
354.43	23.007
354.79	22.812
355.15	21.854
355.51	22.953
355.87	22.887
356.24	24.106
356.60	21.508
356.96	22.387
357.32	22.379
357.68	23.133
358.04	22.156
358.40	22.612
358.77	23.392
359.13	22.526
359.49	22.379
359.85	23.205
360.21	23.960
360.57	23.259
360.93	23.131
361.29	24.281
361.66	23.027
362.02	24.078
362.38	23.331
362.74	23.045
363.10	24.140
363.46	23.546
363.82	23.580
364.18	24.138
364.54	23.237
364.90	24.147
365.26	23.379
365.62	25.200
365.98	24.643
366.35	23.758
366.71	25.238
367.07	24.357
367.43	25.082
367.79	24.818
368.15	25.485
368.51	25.507
368.87	25.278
369.23	24.200
369.59	24.249
369.95	24.949
370.31	26.063
370.67	25.516
371.03	24.861
371.39	24.916
371.75	25.309
372.11	25.474
372.47	24.848
372.83	25.000
373.19	25.550
373.55	24.797
373.91	25.631
374.27	26.197
374.63	27.267
374.99	26.724
375.35	26.169
375.71	27.548
376.07	26.791
376.42	26.196
376.78	26.476
377.14	25.140
377.50	26.692
377.86	27.094
378.22	27.605
378.58	27.348
378.94	26.878
379.30	27.768
379.66	27.572
380.02	27.640
380.38	28.168
380.74	28.169
381.09	29.501
381.45	28.580
381.81	29.098
382.17	28.325
382.53	28.947
382.89	28.950
383.25	29.777
383.61	28.646
383.97	29.152
384.32	28.768
384.68	28.654
385.04	29.381
385.40	30.171
385.76	30.129
386.12	29.623
386.48	29.706
386.83	30.632
387.19	29.374
387.55	29.577
387.91	30.651
388.27	30.716
388.62	30.412
388.98	30.400
389.34	31.173
389.70	32.365
390.06	31.676
390.42	30.723
390.77	31.367
391.13	30.516
391.49	32.307
391.85	31.030
392.20	31.673
392.56	31.305
392.92	31.461
393.28	31.896
393.64	30.615
393.99	31.900
394.35	32.477
394.71	31.796
395.07	31.916
395.42	30.954
395.78	32.176
396.14	32.799
396.50	32.067
396.85	31.366
397.21	32.544
397.57	31.625
397.92	32.990
398.28	31.287
398.64	32.666
399.00	31.047
399.35	32.304
399.71	32.065
400.07	31.948
400.42	32.189
400.78	31.713
401.14	32.442
401.49	32.405
401.85	32.965
402.21	33.082
402.57	32.746
402.92	32.151
403.28	32.260
403.63	33.771
403.99	31.829
404.35	32.007
404.70	32.578
405.06	32.174
405.42	31.792
405.77	32.225
406.13	32.685
406.49	33.502
406.84	33.075
407.20	32.029
407.55	31.799
407.91	32.621
408.27	31.508
408.62	32.810
408.98	32.153
409.34	32.141
409.69	33.375
410.05	32.181
410.40	33.121
410.76	32.698
411.11	32.846
411.47	32.187
411.83	32.216
412.18	32.831
412.54	32.543
412.89	32.421
413.25	33.014
413.60	33.314
413.96	32.809
414.31	33.144
414.67	32.677
415.03	32.308
415.38	33.291
415.74	32.376
416.09	33.436
416.45	32.123
416.80	33.170
417.16	34.547
417.51	33.624
417.87	34.028
418.22	34.012
418.58	33.147
418.93	33.469
419.29	34.279
419.64	33.733
420.00	33.709
420.35	33.577
420.71	33.314
421.06	34.100
421.42	34.633
421.77	33.226
422.12	34.567
422.48	34.153
422.83	34.556
423.19	34.589
423.54	36.338
423.90	34.346
424.25	35.040
424.61	33.812
424.96	35.255
425.31	35.138
425.67	35.158
426.02	35.861
426.38	35.591
426.73	34.487
427.09	36.851
427.44	35.172
427.79	36.153
428.15	35.731
428.50	36.910
428.85	35.763
429.21	36.330
429.56	36.278
429.92	35.676
430.27	36.193
430.62	36.199
430.98	36.695
431.33	36.461
431.68	36.686
432.04	37.430
432.39	37.333
432.74	37.272
433.10	36.993
433.45	35.563
433.80	37.071
434.16	36.467
434.51	37.564
434.86	37.948
435.22	38.948
435.57	37.913
435.92	37.396
436.28	37.884
436.63	37.903
436.98	37.305
437.34	38.557
437.69	37.259
438.04	37.441
438.39	37.220
438.75	38.628
439.10	38.266
439.45	37.731
439.81	38.814
440.16	37.748
440.51	38.852
440.86	38.299
441.22	37.621
441.57	39.256
441.92	38.312
442.27	39.040
442.63	39.096
442.98	39.007
443.33	38.769
443.68	39.445
444.03	40.499
444.39	40.222
444.74	39.969
445.09	39.078
445.44	40.411
445.79	40.757
446.15	39.723
446.50	40.052
446.85	40.029
447.20	40.184
447.55	39.854
447.91	39.791
448.26	40.169
448.61	39.107
448.96	40.290
449.31	40.350
449.66	39.052
450.02	39.715
450.37	39.957
450.72	40.581
451.07	40.376
451.42	40.035
451.77	40.300
452.12	40.124
452.47	39.988
452.83	40.315
453.18	40.047
453.53	39.977
453.88	40.806
454.23	40.282
454.58	39.698
454.93	40.655
455.28	41.120
455.63	39.909
455.98	40.838
456.34	40.931
456.69	40.564
457.04	41.194
457.39	40.355
457.74	41.443
458.09	39.044
458.44	40.302
458.79	40.382
459.14	39.643
459.49	41.879
459.84	41.081
460.19	40.422
460.54	41.511
460.89	41.133
461.24	41.322
461.59	41.671
461.94	40.673
462.29	41.769
462.64	40.978
462.99	41.306
463.34	40.883
463.69	40.563
464.04	40.967
464.39	42.096
464.74	40.821
465.09	40.657
465.44	40.826
465.79	40.984
466.14	40.490
466.49	41.842
466.84	42.534
467.19	42.312
467.54	39.777
467.89	41.954
468.24	41.607
468.59	41.517
468.94	40.152
469.29	41.632
469.64	41.132
469.99	43.085
470.34	42.574
470.68	42.789
471.03	42.764
471.38	42.708
471.73	41.873
472.08	41.117
472.43	42.203
472.78	42.380
473.13	42.857
473.48	41.934
473.83	43.006
474.17	42.849
474.52	43.656
474.87	43.300
475.22	43.775
475.57	42.368
475.92	42.708
476.27	42.758
476.61	42.160
476.96	43.431
477.31	44.653
477.66	45.016
478.01	43.569
478.36	42.921
478.70	42.906
479.05	43.763
479.40	44.867
479.75	42.891
480.10	44.055
480.45	43.847
480.79	43.311
481.14	42.785
481.49	43.662
481.84	43.386
482.19	44.043
482.53	44.950
482.88	44.794
483.23	45.442
483.58	43.275
483.92	43.262
484.27	43.607
484.62	42.822
484.97	42.691
485.31	42.168
485.66	39.454
486.01	39.982
486.36	42.155
486.70	44.669
487.05	46.751
487.40	45.229
487.75	45.140
488.09	44.830
488.44	43.218
488.79	44.216
489.13	42.071
489.48	42.602
489.83	43.018
490.17	43.378
490.52	43.883
490.87	43.359
491.22	43.761
491.56	43.857
491.91	43.524
492.26	44.353
492.60	44.119
492.95	44.888
493.30	44.688
493.64	43.627
493.99	45.088
494.34	43.641
494.68	44.026
495.03	44.714
495.37	45.184
495.72	44.943
496.07	45.048
496.41	43.801
496.76	45.538
497.11	45.138
497.45	45.274
497.80	45.446
498.14	44.671
498.49	45.037
498.84	45.293
499.18	44.309
499.53	44.933
499.87	45.758
500.22	44.524
500.56	44.894
500.91	46.087
501.26	46.545
501.60	44.012
501.95	45.332
502.29	45.853
502.64	45.912
502.98	45.384
503.33	45.313
503.67	44.745
504.02	45.578
504.36	47.051
504.71	45.062
505.06	46.658
505.40	46.389
505.75	46.630
506.09	46.455
506.44	47.354
506.78	47.661
507.13	46.842
507.47	48.318
507.82	47.396
508.16	46.797
508.51	47.023
508.85	46.906
509.19	47.892
509.54	47.887
509.88	48.179
510.23	48.324
510.57	47.849
510.92	48.283
511.26	47.908
511.61	47.127
511.95	48.121
512.30	49.286
512.64	46.777
512.98	48.724
513.33	49.042
513.67	49.516
514.02	49.974
514.36	49.565
514.70	50.313
515.05	51.147
515.39	50.446
515.74	49.629
516.08	49.921
516.42	51.491
516.77	50.789
517.11	49.665
517.46	50.583
517.80	51.844
518.14	51.469
518.49	51.681
518.83	50.346
519.17	50.996
519.52	50.419
519.86	51.109
520.20	51.491
520.55	50.931
520.89	52.252
521.23	51.591
521.58	53.051
521.92	52.578
522.26	51.375
522.61	52.488
522.95	52.595
523.29	53.046
523.64	51.738
523.98	52.139
524.32	54.269
524.66	53.159
525.01	52.661
525.35	52.269
525.69	52.262
526.04	51.607
526.38	52.874
526.72	52.595
527.06	53.666
527.41	53.469
527.75	53.563
528.09	53.306
528.43	53.049
528.78	52.832
529.12	53.899
529.46	53.288
529.80	53.432
530.15	53.623
530.49	52.550
530.83	52.538
531.17	54.301
531.51	52.948
531.86	54.387
532.20	54.329
532.54	53.740
532.88	52.848
533.22	52.504
533.57	52.914
533.91	52.806
534.25	53.872
534.59	53.793
534.93	54.329
535.27	53.183
535.62	54.349
535.96	55.026
536.30	53.643
536.64	53.994
536.98	54.182
537.32	54.136
537.66	54.273
538.01	51.601
538.35	52.741
538.69	53.786
539.03	53.464
539.37	52.650
539.71	53.694
540.05	54.017
540.39	52.689
540.73	53.491
541.07	53.403
541.42	53.514
541.76	52.254
542.10	52.835
542.44	53.654
542.78	53.589
543.12	53.159
543.46	52.808
543.80	52.818
544.14	52.902
544.48	53.960
544.82	54.279
545.16	53.011
545.50	53.984
545.84	53.766
546.18	53.889
546.52	54.841
546.86	52.390
547.20	54.135
547.54	53.246
547.88	52.441
548.22	54.094
548.56	53.482
548.90	53.851
549.24	53.860
549.58	53.123
549.92	54.082
550.26	54.628
550.60	54.499
550.94	53.558
551.28	54.455
551.62	54.582
551.96	52.880
552.30	52.900
552.64	53.703
552.98	53.712
553.32	55.563
553.66	55.820
554.00	55.738
554.34	54.826
554.68	53.389
555.02	54.205
555.36	54.767
555.69	53.555
556.03	53.909
556.37	55.194
556.71	54.090
557.05	54.824
557.39	53.484
557.73	54.029
558.07	52.980
558.41	54.219
558.75	55.578
559.08	55.045
559.42	54.115
559.76	54.138
560.10	53.048
560.44	54.288
560.78	54.937
561.12	54.002
561.45	54.927
561.79	54.579
562.13	55.699
562.47	53.946
562.81	54.747
563.15	54.293
563.48	54.568
563.82	54.776
564.16	54.634
564.50	53.278
564.84	53.746
565.17	53.471
565.51	53.913
565.85	54.335
566.19	53.514
566.52	54.184
566.86	53.933
567.20	53.290
567.54	53.478
567.88	53.262
568.21	53.113
568.55	52.950
568.89	53.109
569.23	52.471
569.56	53.185
569.90	52.174
570.24	51.939
570.57	52.726
570.91	51.225
571.25	50.969
571.59	51.712
571.92	50.480
572.26	50.688
572.60	51.734
572.93	50.905
573.27	50.688
573.61	50.238
573.95	50.328
574.28	50.993
574.62	50.364
574.96	49.735
575.29	49.857
575.63	49.965
575.97	50.012
576.30	50.308
576.64	50.251
576.98	49.863
577.31	50.153
577.65	50.186
577.98	49.981
578.32	49.274
578.66	49.416
578.99	50.072
579.33	51.312
579.67	50.068
580.00	49.831
580.34	49.978
580.67	49.823
581.01	49.373
581.35	49.367
581.68	49.210
582.02	49.642
582.35	51.085
582.69	51.215
583.02	50.701
583.36	51.160
583.70	51.102
584.03	50.492
584.37	50.753
584.70	50.122
585.04	50.221
585.37	49.867
585.71	49.773
586.04	50.484
586.38	51.021
586.72	50.689
587.05	50.857
587.39	51.085
587.72	51.603
588.06	51.185
588.39	50.834
588.73	51.111
589.06	51.637
589.40	52.274
589.73	52.057
590.07	51.691
590.40	51.589
590.73	51.785
591.07	52.457
591.40	51.711
591.74	52.663
592.07	52.375
592.41	51.104
592.74	50.586
593.08	52.643
593.41	52.202
593.75	52.529
594.08	52.530
594.41	52.147
594.75	51.876
595.08	51.817
595.42	52.208
595.75	51.986
596.09	52.355
596.42	52.239
596.75	52.258
597.09	53.091
597.42	51.927
597.75	51.705
598.09	52.024
598.42	52.553
598.76	50.554
599.09	51.727
599.42	50.587
599.76	50.974
600.09	52.052
600.42	51.652
600.76	52.180
601.09	52.207
601.42	50.429
601.76	52.000
602.09	51.608
602.42	51.109
602.76	51.550
603.09	52.900
603.42	52.962
603.76	52.960
604.09	51.810
604.42	52.110
604.76	51.484
605.09	52.892
605.42	52.113
605.75	51.808
606.09	51.661
606.42	51.003
606.75	51.124
607.09	51.267
607.42	51.137
607.75	50.840
608.08	51.894
608.42	51.511
608.75	51.575
609.08	51.995
609.41	52.713
609.75	53.170
610.08	52.990
610.41	51.912
610.74	51.975
611.07	52.087
611.41	52.870
611.74	52.748
612.07	53.156
612.40	52.519
612.73	52.421
613.07	52.518
613.40	53.224
613.73	52.865
614.06	52.699
614.39	52.284
614.72	52.547
615.06	51.540
615.39	52.537
615.72	52.559
616.05	52.695
616.38	53.280
616.71	53.553
617.05	52.396
617.38	51.525
617.71	52.808
618.04	52.294
618.37	52.951
618.70	53.394
619.03	54.241
619.36	53.884
619.69	53.235
620.03	54.300
620.36	53.926
620.69	53.300
621.02	54.396
621.35	57.257
621.68	54.953
622.01	54.733
622.34	53.417
622.67	54.089
623.00	52.901
623.33	55.541
623.66	54.215
623.99	53.785
624.32	54.711
624.65	52.896
624.99	55.202
625.32	54.997
625.65	55.765
625.98	55.525
626.31	53.863
626.64	54.945
626.97	54.689
627.30	53.986
627.63	53.188
627.96	56.156
628.29	54.864
628.62	54.324
628.95	56.179
629.28	55.480
629.61	55.135
629.94	55.314
630.26	56.271
630.59	56.390
630.92	53.593
631.25	56.708
631.58	58.945
631.91	57.076
632.24	56.772
632.57	57.495
632.90	56.570
633.23	58.776
633.56	58.061
633.89	55.372
634.22	56.549
634.55	55.846
634.88	57.035
635.20	57.804
635.53	57.514
635.86	56.663
636.19	57.264
636.52	56.329
636.85	57.201
637.18	55.405
637.51	55.484
637.83	57.143
638.16	58.641
638.49	57.277
638.82	56.483
639.15	56.701
639.48	55.774
639.81	56.928
640.13	56.419
640.46	56.485
640.79	57.843
641.12	57.764
641.45	57.340
641.77	59.820
642.10	56.562
642.43	56.649
642.76	54.878
643.09	55.753
643.41	57.843
643.74	55.586
644.07	59.862
644.40	57.001
644.73	57.620
645.05	58.003
645.38	56.259
645.71	57.771
646.04	57.245
646.36	57.372
646.69	59.356
647.02	57.645
647.35	58.626
647.67	60.064
648.00	55.892
648.33	60.210
648.66	58.773
648.98	56.599
649.31	56.969
649.64	58.699
649.96	56.897
650.29	54.798
650.62	55.446
650.94	57.357
651.27	56.737
651.60	54.825
651.92	55.471
652.25	56.006
652.58	54.608
652.90	55.087
653.23	56.338
653.56	56.633
653.88	57.444
654.21	55.493
654.54	56.936
654.86	56.941
655.19	54.329
655.52	60.176
655.84	55.159
656.17	60.048
656.49	81.852
656.82	87.910
657.15	69.012
657.47	53.677
657.80	39.873
658.13	30.812
658.45	40.472
658.78	47.548
659.10	46.019
659.43	44.644
659.75	41.386
660.08	40.560
660.41	42.514
660.73	46.294
661.06	50.220
661.38	54.864
661.71	55.862
662.03	56.614
662.36	54.204
662.68	57.411
663.01	53.982
663.33	57.467
663.66	57.326
663.98	58.077
664.31	55.535
664.63	55.877
664.96	57.350
665.28	52.813
665.61	57.692
665.93	53.214
666.26	54.839
666.58	53.506
666.91	54.766
667.23	57.524
667.56	56.213
667.88	55.400
668.21	55.664
668.53	54.247
668.86	55.796
669.18	57.637
669.50	53.082
669.83	55.200
670.15	55.118
670.48	54.365
670.80	55.449
671.13	54.253
671.45	51.969
671.77	57.815
672.10	53.333
672.42	56.634
672.75	52.688
673.07	51.940
673.39	52.851
673.72	57.047
674.04	56.207
674.37	57.961
674.69	53.616
675.01	55.048
675.34	51.145
675.66	54.307
675.98	55.224
676.31	53.711
676.63	57.414
676.95	52.299
677.28	53.831
677.60	52.756
677.92	55.086
678.25	56.124
678.57	54.270
678.89	53.584
679.22	51.916
679.54	53.504
679.86	50.847
680.18	54.063
680.51	51.258
680.83	52.209
681.15	52.414
681.48	51.641
681.80	53.713
682.12	53.846
682.44	49.416
682.77	51.418
683.09	54.924
683.41	56.008
683.73	52.941
684.06	53.137
684.38	50.089
684.70	53.501
685.02	52.668
685.34	53.245
685.67	50.473
685.99	50.767
686.31	49.128
686.63	51.027
686.96	50.789
687.28	50.163
687.60	53.367
687.92	50.965
688.24	51.419
688.56	50.517
688.89	51.906
689.21	51.859
689.53	50.588
689.85	49.901
690.17	49.444
690.49	51.394
690.82	52.673
691.14	49.190
691.46	55.067
691.78	55.433
692.10	51.560
692.42	47.321
692.74	51.361
693.06	50.370
693.39	51.044
693.71	49.248
694.03	49.442
694.35	49.333
694.67	51.335
694.99	51.915
695.31	49.227
695.63	51.515
695.95	49.275
696.27	50.769
696.59	51.106
696.91	49.550
697.23	51.868
697.56	52.138
697.88	47.727
698.20	49.529
698.52	50.568
698.84	51.351
699.16	51.633
699.48	48.536
699.80	51.489
700.12	46.070
700.44	48.618
700.76	50.356
701.08	48.910
701.40	49.741
701.72	50.498
702.04	50.000
702.36	49.738
702.68	48.900
703.00	48.655
703.32	48.276
703.64	48.166
703.96	47.494
704.28	45.209
704.60	50.380
704.91	44.643
705.23	47.123
705.55	48.747
705.87	51.212
706.19	53.681
706.51	52.108
706.83	46.974
707.15	45.503
707.47	46.729
707.79	47.162
708.11	45.551
708.43	44.946
708.74	47.545
709.06	46.636
709.38	46.948
709.70	46.402
710.02	47.028
710.34	47.340
710.66	45.531
710.98	48.087
711.29	47.527
711.61	46.045
711.93	53.846
712.25	45.405
712.57	51.032
712.89	43.529
713.20	47.041
713.52	44.798
713.84	44.568
714.16	46.579
714.48	44.330
714.80	46.753
715.11	49.081
715.43	44.032
715.75	44.211
716.07	46.961
716.39	44.536
716.70	42.771
717.02	44.590
717.34	41.812
717.66	43.960
717.97	41.438
718.29	45.704
718.61	45.395
718.93	47.573
719.24	43.789
719.56	41.718
719.88	46.246
720.20	45.806
720.51	43.168
720.83	45.000
721.15	40.789
721.46	45.890
721.78	39.667
722.10	45.955
722.42	41.946
722.73	38.710
723.05	44.561
723.37	43.750
723.68	44.444
724.00	44.765
724.32	41.901
724.63	45.804
724.95	39.362
725.27	43.554
725.58	41.696
725.90	49.310
726.22	41.066
726.53	42.857
726.85	42.767
727.16	41.088
727.48	44.343
727.80	39.404
728.11	40.283
728.43	39.394
728.74	37.458
729.06	43.046
729.38	46.429
729.69	44.631
730.01	37.798
730.32	39.394
730.64	45.283
730.96	40.994
731.27	45.531
731.59	41.209
731.90	40.519
732.22	39.844
732.53	40.331
732.85	38.000
733.16	40.762
733.48	39.634
733.80	40.669
734.11	41.595
734.43	41.892
734.74	44.810
735.06	38.693
735.37	43.243
735.69	37.838
736.00	40.113
736.32	39.353
736.63	41.944
736.95	41.092
737.26	43.636
737.58	38.485
737.89	41.765
738.21	34.557
738.52	41.967
738.83	39.249
739.15	36.879
739.46	40.476
739.78	40.184
740.09	38.682
740.41	38.484
740.72	41.333
741.04	39.159
741.35	43.509
741.66	34.510
741.98	40.984
742.29	37.657
742.61	43.421
742.92	40.000
743.23	37.906
743.55	39.147
743.86	40.400
744.18	31.818
744.49	38.819
744.80	41.975
745.12	37.975
745.43	42.683
745.74	38.793
746.06	35.169
746.37	39.241
746.68	43.089
747.00	32.917
747.31	38.627
747.62	41.923
747.94	38.057
748.25	42.169
748.56	37.143
748.88	37.607
749.19	39.224
749.50	34.199
749.82	42.570
750.13	43.060
750.44	37.667
750.75	38.154
751.07	37.231
751.38	37.855
751.69	38.978
752.01	37.217
752.32	39.542
752.63	39.796
752.94	40.138
753.26	36.059
753.57	34.074
753.88	39.700
754.19	39.550
754.51	38.907
754.82	39.871
755.13	40.984
755.44	36.519
755.75	41.118
756.07	37.910
756.38	37.107
756.69	38.253
757.00	37.119
757.31	37.705
757.63	36.829
757.94	37.559
758.25	40.181
758.56	36.601
758.87	36.818
759.18	36.800
759.50	37.394
759.81	38.936
760.12	40.431
760.43	39.583
760.74	37.685
761.05	37.250
761.36	34.940
761.67	35.533
761.99	34.054
762.30	37.195
762.61	30.693
762.92	39.925
763.23	39.326
763.54	33.094
763.85	33.333
764.16	39.057
764.47	38.028
764.78	38.978
765.10	36.950
765.41	37.949
765.72	36.243
766.03	33.333
766.34	33.542
766.65	29.268
766.96	33.466
767.27	34.562
767.58	32.836
767.89	36.538
768.20	29.577
768.51	34.259
768.82	34.538
769.13	32.576
769.44	28.462
769.75	37.545
770.06	35.385
770.37	38.976
770.68	31.064
770.99	29.150
771.30	38.889
771.61	34.601
771.92	30.741
772.23	30.769
772.54	25.926
772.85	34.101
773.16	30.952
773.47	33.333
773.78	28.108
774.09	32.955
774.39	30.500
774.70	28.415
775.01	18.902
775.32	22.353
775.63	18.405
775.94	12.739
776.25	29.677
776.56	25.000
776.87	27.891
777.18	20.690
777.48	22.378
777.79	20.946
778.10	14.706
778.41	18.750
778.72	26.897
779.03	23.457
779.34	27.273
779.65	31.088
779.95	32.222
780.26	26.136
780.57	30.968
780.88	26.812
781.19	25.806
781.50	23.529
781.80	23.656
782.11	25.397
782.42	18.182
782.73	18.563
783.04	21.788
783.34	14.545
783.65	22.222
783.96	23.602
784.27	24.405
784.57	19.868
784.88	17.857
785.19	10.236
785.50	16.535
785.81	21.805
786.11	21.538
786.42	12.230
786.73	13.669
787.04	16.541
787.34	13.934
787.65	16.000
787.96	17.910
788.26	32.867
788.57	29.371
788.88	16.447
789.19	26.144
789.49	10.959
789.80	15.603
790.11	17.323
790.41	17.188
790.72	5.085
791.03	11.650
791.33	13.913
791.64	15.789
791.95	12.500
792.25	8.571
792.56	9.821
792.87	5.208
793.17	12.500
793.48	5.208
793.79	10.843
794.09	8.257
794.40	11.927
794.70	12.245
795.01	12.338
795.32	19.863
795.62	14.789
795.93	14.394
796.23	14.754
796.54	6.250
796.85	6.383
797.15	-1.087
797.46	-8.219
797.76	-3.750
798.07	7.609
798.37	-10.309
798.68	3.896
798.99	8.046
799.29	6.742
799.60	8.511
799.90	0.000
800.21	-26.154
800.51	-13.433
800.82	0.000
801.12	-21.918
801.43	-13.235
801.73	-18.644
802.04	-1.515
802.34	-13.333
802.65	-27.119
802.95	1.493
803.26	-8.475
803.56	-8.219
803.87	-10.000
804.17	-2.740
804.48	-31.579
804.78	-19.444
805.09	-41.379
805.39	4.054
805.70	-19.718
806.00	1.220
806.30	-8.434
806.61	2.740
806.91	1.923
807.22	-6.667
807.52	-2.299
807.83	11.111
808.13	8.434
808.43	1.124
808.74	-3.750
809.04	-25.000
809.35	-1.333
809.65	-14.286
809.95	-9.589
810.26	-26.316
810.56	-22.414
810.86	-11.765
811.17	-29.825
811.47	-22.951
811.77	-46.667
812.08	-35.593
812.38	-28.333
812.69	-24.138
812.99	-33.962
813.29	-74.359
813.59	-18.000
813.90	-8.772
814.20	-36.364
814.50	-4.225
814.81	-17.949
815.11	-24.590
815.41	-16.418
815.72	-15.517
816.02	-14.286
816.32	-24.444
816.62	-52.273
816.93	-73.333
817.23	-25.926
817.53	-31.915
817.84	-33.333
818.14	-55.882
818.44	-32.653
818.74	-66.667
819.04	-61.538
819.35	-88.571
819.65	-111.538
819.95	-30.189
820.25	-68.889
820.56	-61.905
820.86	-65.625
821.16	-71.795
821.46	-69.767
821.76	-44.000
822.07	-21.429
822.37	-56.522
822.67	-57.447
822.97	-100.000
823.27	-67.500
823.57	-26.531
823.88	-40.000
824.18	-37.500
824.48	-46.667
824.78	-80.000
825.08	-57.576
825.38	-26.667
825.69	-29.787
825.99	-77.778
826.29	-111.429
826.59	-61.538
826.89	-65.116
827.19	-48.000
827.49	-58.824
827.79	-25.000
828.09	-83.784
828.39	-83.333
828.70	-78.049
829.00	-44.186
829.30	-103.571
829.60	-88.235
829.90	-50.000
830.20	-80.000
830.50	-117.241
830.80	-177.778
831.10	-107.692
831.40	-50.000
831.70	-128.571
832.00	-48.387
832.30	-247.059
832.60	-141.667
832.90	-246.154
833.20	-173.684
833.50	-150.000
833.80	-157.895
834.10	-190.476
834.40	-50.000
834.70	-65.625
835.00	-117.143
835.30	-79.412
835.60	-120.000
835.90	-124.000
836.20	-195.455
836.50	-92.000
836.80	-84.848
837.10	-96.296
837.40	-85.185
837.70	-225.000
838.00	-110.714
838.30	-134.783
838.60	-68.966
838.90	-250.000
839.19	-217.391
839.49	-333.333
839.79	-121.739
840.09	-293.750
840.39	-135.000
840.69	-83.871
840.99	-121.429
841.29	-220.000
841.59	-184.211
841.88	-56.410
842.18	-123.077
842.48	-420.000
842.78	-180.000
843.08	-93.333
843.38	-70.968
843.68	-200.000
843.97	-55.882
844.27	-175.000
844.57	-147.368
844.87	-320.000
845.17	-260.000
845.47	-123.810
845.76	-161.905
846.06	-477.778
846.36	-229.412
846.66	-123.077
846.96	-340.000
847.25	-211.765
847.55	-95.652
847.85	-150.000
848.15	-211.765
848.44	-345.455
848.74	-133.333
849.04	-137.500
849.34	-187.500
849.63	-121.739
849.93	2300.000
850.23	-213.333
850.53	-107.692
850.82	-272.727
851.12	-127.273
851.42	-336.364
851.71	-238.462
852.01	-200.000
852.31	-315.385
852.61	-189.474
852.90	-200.000
853.20	-122.222
853.50	-422.222
853.79	-161.905
854.09	-172.727
854.39	-383.333
854.68	-116.129
854.98	-138.462
855.28	-183.333
855.57	-114.286
855.87	-124.000
856.17	-154.545
856.46	-88.889
856.76	-205.556
857.05	-147.826
857.35	-195.833
857.65	-292.308
857.94	-171.429
858.24	-81.481
858.53	-160.870
858.83	-200.000
859.13	-241.176
859.42	-141.176
859.72	-200.000
860.01	-180.000
860.31	-433.333
860.60	-350.000
860.90	-240.000
861.20	-194.444
861.49	-253.846
861.79	-113.333
862.08	-300.000
862.38	-84.375
862.67	-235.294
862.97	-212.500
863.26	-522.222
863.56	-320.000
863.85	-318.182
864.15	-194.444
864.44	-1000.000
864.74	-235.714
865.03	-225.000
865.33	-470.000
865.62	-103.226
865.92	-104.545
866.21	-91.304
866.51	-264.286
866.80	-940.000
867.10	-300.000
867.39	-341.667
867.69	4500.000
867.98	-485.714
868.27	-205.882
868.57	-4900.000
868.86	-470.000
869.16	-176.190
869.45	-137.500
869.75	-290.909
870.04	-500.000
870.33	-283.333
870.63	-657.143
870.92	-1000.000
871.22	-575.000
871.51	-327.273
871.80	-1266.667
872.10	-1750.000
>>>>>End Processed Spectral Data<<<<<
