SpectraSuite Data File
++++++++++++++++++++++++++++++++++++
Date: Thu May 14 14:39:34 PDT 2015
User: schluterlab
Dark Spectrum Present: Yes
Reference Spectrum Present: Yes
Number of Sampled Component Spectra: 1
Spectrometers: USB2E3373
Integration Time (usec): 3000 (USB2E3373)
Spectra Averaged: 3 (USB2E3373)
Boxcar Smoothing: 0 (USB2E3373)
Correct for Electrical Dark: No (USB2E3373)
Strobe/Lamp Enabled: No (USB2E3373)
Correct for Detector Non-linearity: No (USB2E3373)
Correct for Stray Light: No (USB2E3373)
Number of Pixels in Processed Spectrum: 2048
>>>>>Begin Processed Spectral Data<<<<<
178.53	0.000
178.91	-142.857
179.29	0.000
179.67	300.000
180.04	71.429
180.42	-150.000
180.80	-240.000
181.18	-200.000
181.56	2000.000
181.94	-200.000
182.31	350.000
182.69	-366.667
183.07	700.000
183.45	-75.000
183.83	350.000
184.20	366.667
184.58	-2300.000
184.96	0.000
185.34	55.556
185.72	320.000
186.09	-0.000
186.47	-150.000
186.85	-300.000
187.23	55.556
187.61	400.000
187.98	-160.000
188.36	-100.000
188.74	325.000
189.12	500.000
189.49	181.250
189.87	187.500
190.25	222.222
190.63	440.000
191.00	88.889
191.38	0.000
191.76	325.000
192.14	100.000
192.51	-300.000
192.89	483.333
193.27	0.000
193.65	142.857
194.02	300.000
194.40	200.000
194.78	-14.286
195.15	0.000
195.53	181.818
195.91	0.000
196.29	350.000
196.66	30.769
197.04	1600.000
197.42	142.857
197.79	450.000
198.17	150.000
198.55	228.571
198.92	177.778
199.30	62.500
199.68	127.273
200.05	92.857
200.43	0.000
200.81	57.143
201.18	0.000
201.56	44.444
201.94	0.000
202.31	-300.000
202.69	44.444
203.07	-900.000
203.44	33.333
203.82	325.000
204.19	100.000
204.57	33.333
204.95	225.000
205.32	900.000
205.70	-400.000
206.08	333.333
206.45	200.000
206.83	40.000
207.20	200.000
207.58	120.000
207.96	100.000
208.33	183.333
208.71	-75.000
209.08	366.667
209.46	0.000
209.84	-216.667
210.21	-600.000
210.59	-650.000
210.96	-233.333
211.34	700.000
211.71	150.000
212.09	600.000
212.46	0.000
212.84	-50.000
213.22	60.000
213.59	125.000
213.97	80.000
214.34	533.333
214.72	-66.667
215.09	125.000
215.47	0.000
215.84	-71.429
216.22	-250.000
216.59	260.000
216.97	220.000
217.34	500.000
217.72	125.000
218.09	225.000
218.47	225.000
218.84	0.000
219.22	-280.000
219.59	52.941
219.97	85.000
220.34	-250.000
220.72	122.222
221.09	130.769
221.47	133.333
221.84	140.000
222.22	128.571
222.59	0.000
222.97	125.000
223.34	220.000
223.72	900.000
224.09	75.000
224.46	25.000
224.84	440.000
225.21	28.571
225.59	150.000
225.96	275.000
226.34	92.308
226.71	-83.333
227.08	500.000
227.46	126.667
227.83	450.000
228.21	68.421
228.58	-75.000
228.95	-200.000
229.33	150.000
229.70	180.000
230.08	115.789
230.45	-80.000
230.82	600.000
231.20	64.286
231.57	91.667
231.95	81.818
232.32	200.000
232.69	100.000
233.07	475.000
233.44	117.647
233.81	130.000
234.19	133.333
234.56	100.000
234.93	75.862
235.31	105.263
235.68	83.333
236.05	95.000
236.43	73.077
236.80	116.000
237.17	51.852
237.55	78.788
237.92	150.000
238.29	90.323
238.67	50.000
239.04	55.556
239.41	47.619
239.79	52.174
240.16	38.889
240.53	45.652
240.91	56.863
241.28	54.098
241.65	65.672
242.02	59.459
242.40	46.154
242.77	56.000
243.14	32.927
243.51	44.737
243.89	56.410
244.26	59.406
244.63	49.020
245.00	42.991
245.38	42.105
245.75	37.168
246.12	47.619
246.49	47.287
246.87	47.143
247.24	49.007
247.61	44.737
247.98	50.336
248.36	43.210
248.73	42.945
249.10	40.984
249.47	45.274
249.84	46.597
250.22	46.114
250.59	41.111
250.96	41.818
251.33	42.347
251.70	41.453
252.08	39.167
252.45	40.164
252.82	43.802
253.19	36.719
253.56	38.403
253.94	44.231
254.31	40.152
254.68	39.510
255.05	41.042
255.42	39.796
255.79	38.835
256.16	38.742
256.54	39.735
256.91	42.951
257.28	36.066
257.65	35.350
258.02	35.988
258.39	39.601
258.76	44.343
259.14	42.529
259.51	39.769
259.88	39.660
260.25	41.389
260.62	39.178
260.99	40.164
261.36	43.432
261.73	38.462
262.10	41.484
262.47	42.627
262.85	39.394
263.22	38.961
263.59	36.579
263.96	38.619
264.33	39.130
264.70	37.037
265.07	42.721
265.44	43.537
265.81	37.500
266.18	41.043
266.55	37.277
266.92	37.585
267.29	41.794
267.66	37.694
268.03	39.301
268.40	36.743
268.77	38.041
269.14	38.106
269.51	36.184
269.88	39.344
270.25	36.620
270.62	41.139
270.99	39.798
271.36	38.020
271.73	39.293
272.10	39.479
272.47	39.880
272.84	37.349
273.21	37.876
273.58	37.097
273.95	35.962
274.32	36.882
274.69	35.977
275.06	38.278
275.43	35.675
275.80	37.213
276.17	38.148
276.54	37.127
276.91	36.136
277.28	37.613
277.65	36.445
278.02	35.294
278.39	38.225
278.76	36.028
279.13	35.106
279.50	37.285
279.87	34.526
280.23	34.155
280.60	37.119
280.97	35.197
281.34	36.333
281.71	37.056
282.08	35.216
282.45	35.843
282.82	34.694
283.19	33.764
283.56	37.541
283.92	34.685
284.29	36.493
284.66	36.453
285.03	33.333
285.40	34.930
285.77	32.353
286.14	33.282
286.51	34.551
286.87	35.229
287.24	34.488
287.61	33.782
287.98	32.024
288.35	34.763
288.72	34.467
289.08	33.968
289.45	31.213
289.82	33.434
290.19	33.477
290.56	30.986
290.93	32.382
291.29	32.094
291.66	28.926
292.03	29.579
292.40	31.701
292.77	29.380
293.13	30.853
293.50	29.698
293.87	29.262
294.24	31.600
294.60	28.698
294.97	29.262
295.34	30.602
295.71	27.364
296.08	28.682
296.44	28.431
296.81	27.284
297.18	28.394
297.55	25.943
297.91	27.402
298.28	27.014
298.65	26.992
299.02	26.919
299.38	27.117
299.75	25.117
300.12	26.968
300.48	27.189
300.85	26.659
301.22	25.951
301.59	25.228
301.95	25.198
302.32	28.333
302.69	25.739
303.05	26.768
303.42	26.608
303.79	25.312
304.15	25.342
304.52	25.370
304.89	27.644
305.25	26.915
305.62	26.541
305.99	25.155
306.35	24.899
306.72	26.784
307.09	25.584
307.45	24.845
307.82	25.832
308.19	25.732
308.55	25.169
308.92	24.830
309.29	26.437
309.65	25.634
310.02	27.129
310.38	25.098
310.75	26.019
311.12	26.942
311.48	26.295
311.85	25.356
312.22	25.522
312.58	26.103
312.95	24.283
313.31	26.016
313.68	25.275
314.05	26.016
314.41	26.412
314.78	25.886
315.14	25.771
315.51	26.316
315.87	26.013
316.24	26.941
316.61	26.377
316.97	24.434
317.34	26.190
317.70	26.201
318.07	26.102
318.43	26.786
318.80	27.258
319.16	26.352
319.53	26.564
319.89	26.819
320.26	27.758
320.62	26.773
320.99	27.054
321.35	26.248
321.72	28.558
322.08	27.953
322.45	28.997
322.81	29.422
323.18	27.965
323.54	29.224
323.91	29.715
324.27	29.260
324.64	30.059
325.00	28.939
325.37	29.894
325.73	28.926
326.10	29.521
326.46	30.130
326.83	31.145
327.19	30.394
327.56	31.858
327.92	29.426
328.29	30.081
328.65	30.570
329.01	30.795
329.38	31.592
329.74	33.219
330.11	31.764
330.47	31.676
330.84	31.697
331.20	31.333
331.56	31.802
331.93	33.222
332.29	30.932
332.66	32.060
333.02	30.402
333.38	32.299
333.75	31.734
334.11	32.527
334.48	32.013
334.84	34.240
335.20	31.318
335.57	33.052
335.93	32.314
336.29	32.862
336.66	31.876
337.02	31.605
337.38	34.099
337.75	32.645
338.11	32.296
338.47	32.837
338.84	31.641
339.20	31.340
339.56	32.043
339.93	31.609
340.29	32.126
340.65	31.630
341.02	31.844
341.38	32.175
341.74	31.638
342.11	32.904
342.47	30.977
342.83	32.770
343.20	31.807
343.56	31.516
343.92	33.147
344.28	32.344
344.65	32.946
345.01	32.215
345.37	31.882
345.73	31.723
346.10	33.229
346.46	32.674
346.82	31.760
347.19	31.474
347.55	32.777
347.91	31.649
348.27	32.625
348.63	32.521
349.00	31.842
349.36	32.045
349.72	31.845
350.08	32.318
350.45	32.471
350.81	31.448
351.17	32.632
351.53	31.842
351.89	31.663
352.26	31.791
352.62	30.448
352.98	32.061
353.34	30.844
353.70	31.895
354.07	32.638
354.43	32.118
354.79	31.713
355.15	30.979
355.51	31.871
355.87	32.087
356.24	33.536
356.60	30.525
356.96	31.208
357.32	30.706
357.68	30.600
358.04	31.662
358.40	32.090
358.77	31.433
359.13	31.610
359.49	30.558
359.85	32.705
360.21	31.420
360.57	32.304
360.93	32.370
361.29	31.860
361.66	32.802
362.02	32.498
362.38	32.888
362.74	32.402
363.10	31.843
363.46	32.548
363.82	31.605
364.18	32.583
364.54	33.402
364.90	32.843
365.26	33.034
365.62	32.667
365.98	32.335
366.35	32.550
366.71	32.585
367.07	33.627
367.43	32.961
367.79	33.776
368.15	33.445
368.51	32.476
368.87	32.528
369.23	32.467
369.59	32.240
369.95	32.184
370.31	32.951
370.67	32.806
371.03	32.756
371.39	31.699
371.75	32.531
372.11	32.114
372.47	33.243
372.83	33.181
373.19	32.755
373.55	32.859
373.91	32.788
374.27	32.730
374.63	33.694
374.99	32.427
375.35	33.636
375.71	33.161
376.07	32.537
376.42	32.746
376.78	33.313
377.14	33.749
377.50	34.219
377.86	34.606
378.22	33.832
378.58	33.769
378.94	33.744
379.30	33.568
379.66	34.450
380.02	34.564
380.38	33.986
380.74	34.366
381.09	35.250
381.45	34.432
381.81	35.363
382.17	35.095
382.53	34.795
382.89	33.973
383.25	34.701
383.61	34.028
383.97	34.629
384.32	35.347
384.68	34.281
385.04	34.239
385.40	35.298
385.76	35.580
386.12	35.308
386.48	35.176
386.83	36.830
387.19	35.110
387.55	34.742
387.91	34.532
388.27	36.605
388.62	34.937
388.98	35.138
389.34	35.887
389.70	36.084
390.06	34.340
390.42	34.458
390.77	36.183
391.13	35.035
391.49	35.749
391.85	35.030
392.20	36.477
392.56	36.740
392.92	36.150
393.28	36.263
393.64	36.816
393.99	36.084
394.35	36.390
394.71	36.407
395.07	36.347
395.42	35.637
395.78	37.477
396.14	36.898
396.50	35.392
396.85	35.361
397.21	36.036
397.57	36.514
397.92	35.281
398.28	35.361
398.64	35.011
399.00	34.450
399.35	35.183
399.71	36.141
400.07	36.103
400.42	36.438
400.78	36.458
401.14	35.344
401.49	35.361
401.85	36.744
402.21	35.689
402.57	36.854
402.92	35.225
403.28	35.480
403.63	34.189
403.99	35.748
404.35	34.167
404.70	35.354
405.06	34.457
405.42	35.129
405.77	35.932
406.13	36.305
406.49	36.261
406.84	35.845
407.20	35.103
407.55	35.312
407.91	35.135
408.27	35.453
408.62	35.777
408.98	34.881
409.34	34.897
409.69	36.218
410.05	35.932
410.40	35.731
410.76	34.717
411.11	35.827
411.47	35.504
411.83	35.391
412.18	35.000
412.54	35.685
412.89	35.215
413.25	35.158
413.60	34.693
413.96	35.431
414.31	35.014
414.67	34.884
415.03	34.954
415.38	36.381
415.74	35.614
416.09	36.459
416.45	35.504
416.80	35.251
417.16	36.590
417.51	35.243
417.87	35.684
418.22	35.389
418.58	35.316
418.93	35.739
419.29	35.203
419.64	34.094
420.00	34.837
420.35	35.879
420.71	36.244
421.06	35.193
421.42	35.436
421.77	35.864
422.12	35.254
422.48	35.586
422.83	37.021
423.19	35.756
423.54	37.389
423.90	35.560
424.25	36.427
424.61	36.165
424.96	36.628
425.31	37.367
425.67	36.608
426.02	36.691
426.38	37.141
426.73	37.109
427.09	37.601
427.44	37.247
427.79	37.424
428.15	36.644
428.50	36.910
428.85	36.510
429.21	37.340
429.56	36.821
429.92	36.708
430.27	37.542
430.62	37.469
430.98	37.678
431.33	37.048
431.68	36.111
432.04	37.329
432.39	38.779
432.74	37.957
433.10	38.724
433.45	37.904
433.80	38.251
434.16	39.256
434.51	38.695
434.86	39.305
435.22	38.895
435.57	39.858
435.92	38.676
436.28	38.680
436.63	40.852
436.98	39.023
437.34	39.797
437.69	38.525
438.04	39.238
438.39	39.115
438.75	40.841
439.10	40.063
439.45	40.302
439.81	40.056
440.16	39.786
440.51	40.301
440.86	40.800
441.22	40.943
441.57	40.985
441.92	41.659
442.27	41.919
442.63	42.126
442.98	41.782
443.33	41.557
443.68	42.270
444.03	42.333
444.39	42.164
444.74	42.624
445.09	41.662
445.44	43.203
445.79	42.720
446.15	41.572
446.50	42.636
446.85	43.239
447.20	41.925
447.55	43.305
447.91	43.403
448.26	42.653
448.61	43.624
448.96	44.313
449.31	43.690
449.66	42.974
450.02	43.618
450.37	45.125
450.72	44.887
451.07	43.850
451.42	42.750
451.77	43.913
452.12	45.203
452.47	44.385
452.83	45.158
453.18	43.666
453.53	44.859
453.88	44.451
454.23	44.294
454.58	44.748
454.93	45.328
455.28	45.093
455.63	44.684
455.98	44.525
456.34	45.583
456.69	45.091
457.04	46.868
457.39	46.508
457.74	45.022
458.09	44.920
458.44	45.905
458.79	44.250
459.14	45.779
459.49	45.557
459.84	45.960
460.19	45.697
460.54	47.132
460.89	45.527
461.24	45.575
461.59	46.818
461.94	45.009
462.29	46.697
462.64	45.987
462.99	46.704
463.34	47.631
463.69	45.369
464.04	46.637
464.39	46.749
464.74	45.838
465.09	46.597
465.44	46.298
465.79	46.483
466.14	46.743
466.49	46.789
466.84	46.556
467.19	46.879
467.54	46.475
467.89	46.839
468.24	47.812
468.59	47.134
468.94	46.795
469.29	46.911
469.64	47.552
469.99	48.311
470.34	47.896
470.68	48.599
471.03	48.134
471.38	48.986
471.73	48.700
472.08	47.843
472.43	47.441
472.78	48.300
473.13	47.914
473.48	47.674
473.83	48.752
474.17	47.245
474.52	49.068
474.87	47.342
475.22	47.775
475.57	47.456
475.92	47.038
476.27	47.018
476.61	47.144
476.96	47.289
477.31	48.069
477.66	50.052
478.01	47.687
478.36	47.458
478.70	49.310
479.05	48.415
479.40	48.865
479.75	47.791
480.10	47.703
480.45	47.995
480.79	47.846
481.14	48.575
481.49	47.796
481.84	47.998
482.19	47.742
482.53	48.579
482.88	49.047
483.23	48.644
483.58	48.253
483.92	48.183
484.27	47.883
484.62	47.607
484.97	47.473
485.31	46.920
485.66	44.748
486.01	43.786
486.36	44.512
486.70	45.954
487.05	47.385
487.40	47.992
487.75	48.422
488.09	48.577
488.44	48.674
488.79	49.410
489.13	48.335
489.48	47.767
489.83	47.968
490.17	48.441
490.52	47.003
490.87	48.731
491.22	47.747
491.56	48.507
491.91	48.844
492.26	49.243
492.60	48.491
492.95	48.047
493.30	48.454
493.64	49.190
493.99	47.719
494.34	49.172
494.68	48.865
495.03	48.855
495.37	48.735
495.72	49.524
496.07	49.080
496.41	49.163
496.76	48.791
497.11	49.639
497.45	48.856
497.80	49.933
498.14	49.025
498.49	49.770
498.84	50.320
499.18	48.898
499.53	49.955
499.87	49.319
500.22	49.644
500.56	49.618
500.91	49.336
501.26	50.091
501.60	49.227
501.95	49.848
502.29	50.110
502.64	50.415
502.98	48.921
503.33	48.726
503.67	49.150
504.02	49.650
504.36	51.296
504.71	50.896
505.06	49.841
505.40	49.909
505.75	49.590
506.09	50.921
506.44	50.232
506.78	50.092
507.13	50.669
507.47	50.261
507.82	50.852
508.16	50.287
508.51	50.258
508.85	50.449
509.19	51.161
509.54	50.817
509.88	50.073
510.23	51.481
510.57	52.247
510.92	50.943
511.26	50.649
511.61	50.893
511.95	50.415
512.30	51.600
512.64	51.324
512.98	51.326
513.33	52.621
513.67	51.198
514.02	51.916
514.36	52.276
514.70	52.552
515.05	52.763
515.39	51.076
515.74	52.492
516.08	50.924
516.42	52.067
516.77	51.577
517.11	50.490
517.46	52.651
517.80	52.378
518.14	53.536
518.49	52.440
518.83	51.570
519.17	51.104
519.52	51.468
519.86	52.957
520.20	52.503
520.55	52.629
520.89	52.872
521.23	53.043
521.58	53.220
521.92	53.371
522.26	53.379
522.61	54.282
522.95	51.557
523.29	53.276
523.64	53.419
523.98	53.908
524.32	54.785
524.66	53.386
525.01	52.888
525.35	52.728
525.69	53.248
526.04	53.042
526.38	53.391
526.72	53.518
527.06	52.551
527.41	53.411
527.75	53.860
528.09	54.073
528.43	52.753
528.78	52.890
529.12	52.294
529.46	52.501
529.80	52.632
530.15	53.623
530.49	53.144
530.83	53.011
531.17	52.927
531.51	53.430
531.86	53.606
532.20	53.232
532.54	53.321
532.88	53.879
533.22	53.270
533.57	52.048
533.91	52.637
534.25	51.498
534.59	53.218
534.93	52.632
535.27	52.958
535.62	54.008
535.96	53.399
536.30	52.350
536.64	52.492
536.98	53.629
537.32	53.272
537.66	53.587
538.01	52.205
538.35	52.862
538.69	51.683
539.03	53.587
539.37	51.296
539.71	52.613
540.05	53.537
540.39	52.323
540.73	51.791
541.07	53.771
541.42	52.274
541.76	52.313
542.10	53.136
542.44	52.862
542.78	52.859
543.12	51.311
543.46	51.160
543.80	51.679
544.14	51.406
544.48	53.605
544.82	52.663
545.16	53.011
545.50	52.546
545.84	52.480
546.18	53.148
546.52	53.121
546.86	51.887
547.20	54.326
547.54	52.497
547.88	52.019
548.22	51.404
548.56	52.428
548.90	52.836
549.24	53.009
549.58	52.871
549.92	52.360
550.26	53.204
550.60	52.585
550.94	53.687
551.28	52.409
551.62	53.841
551.96	51.974
552.30	52.900
552.64	53.454
552.98	53.649
553.32	52.347
553.66	53.955
554.00	53.657
554.34	52.960
554.68	53.583
555.02	54.139
555.36	53.715
555.69	52.723
556.03	52.648
556.37	52.753
556.71	53.583
557.05	53.546
557.39	54.280
557.73	53.369
558.07	54.437
558.41	55.681
558.75	54.632
559.08	54.836
559.42	53.978
559.76	53.935
560.10	55.459
560.44	54.288
560.78	54.750
561.12	52.340
561.45	53.467
561.79	54.151
562.13	54.405
562.47	51.788
562.81	54.051
563.15	53.662
563.48	54.382
563.82	53.809
564.16	52.938
564.50	52.920
564.84	52.979
565.17	52.882
565.51	52.071
565.85	52.969
566.19	53.226
566.52	52.194
566.86	53.311
567.20	51.876
567.54	52.894
567.88	52.650
568.21	52.273
568.55	52.566
568.89	51.929
569.23	49.725
569.56	50.098
569.90	49.929
570.24	49.241
570.57	49.551
570.91	48.959
571.25	48.481
571.59	48.873
571.92	47.441
572.26	48.624
572.60	49.495
572.93	49.262
573.27	49.340
573.61	48.703
573.95	48.240
574.28	48.540
574.62	47.908
574.96	46.802
575.29	47.081
575.63	47.540
575.97	48.024
576.30	47.298
576.64	47.769
576.98	47.813
577.31	47.722
577.65	47.668
577.98	46.800
578.32	46.920
578.66	46.796
578.99	47.737
579.33	47.643
579.67	48.119
580.00	47.786
580.34	48.037
580.67	48.147
581.01	47.988
581.35	47.302
581.68	47.134
582.02	47.215
582.35	48.027
582.69	48.580
583.02	48.383
583.36	48.490
583.70	48.557
584.03	49.604
584.37	49.494
584.70	49.120
585.04	47.547
585.37	47.967
585.71	47.681
586.04	48.129
586.38	48.213
586.72	48.709
587.05	49.194
587.39	48.891
587.72	49.402
588.06	49.202
588.39	49.539
588.73	49.153
589.06	49.605
589.40	51.076
589.73	51.060
590.07	50.497
590.40	50.744
590.73	51.396
591.07	51.936
591.40	50.505
591.74	52.067
592.07	51.279
592.41	51.262
592.74	50.089
593.08	50.828
593.41	49.927
593.75	50.144
594.08	50.742
594.41	51.026
594.75	50.581
595.08	51.716
595.42	51.396
595.75	50.274
596.09	51.576
596.42	51.774
596.75	52.026
597.09	52.040
597.42	51.609
597.75	51.039
598.09	52.143
598.42	52.955
598.76	51.357
599.09	50.338
599.42	49.883
599.76	49.719
600.09	50.817
600.42	50.450
600.76	50.727
601.09	50.448
601.42	50.704
601.76	51.103
602.09	50.822
602.42	51.981
602.76	51.218
603.09	51.065
603.42	51.445
603.76	50.775
604.09	50.745
604.42	51.560
604.76	51.522
605.09	52.254
605.42	52.153
605.75	51.615
606.09	51.101
606.42	49.909
606.75	50.300
607.09	50.576
607.42	51.175
607.75	52.208
608.08	51.302
608.42	50.584
608.75	50.705
609.08	51.486
609.41	52.316
609.75	52.545
610.08	52.507
610.41	51.444
610.74	51.387
611.07	53.153
611.41	53.857
611.74	52.841
612.07	53.202
612.40	52.757
612.73	53.496
613.07	53.496
613.40	53.321
613.73	52.913
614.06	54.416
614.39	51.846
614.72	52.111
615.06	52.695
615.39	51.861
615.72	51.754
616.05	52.501
616.38	53.683
616.71	53.553
617.05	52.929
617.38	53.665
617.71	53.672
618.04	53.751
618.37	53.497
618.70	54.186
619.03	53.763
619.36	56.289
619.69	55.413
620.03	55.304
620.36	53.558
620.69	54.349
621.02	55.971
621.35	58.055
621.68	56.182
622.01	56.370
622.34	55.370
622.67	55.808
623.00	55.128
623.33	55.939
623.66	56.420
623.99	53.851
624.32	55.036
624.65	54.183
624.99	55.982
625.32	54.801
625.65	56.035
625.98	54.915
626.31	57.690
626.64	56.264
626.97	56.414
627.30	57.935
627.63	55.964
627.96	56.832
628.29	57.043
628.62	57.767
628.95	58.633
629.28	58.369
629.61	58.081
629.94	57.573
630.26	57.458
630.59	56.908
630.92	56.364
631.25	57.961
631.58	61.111
631.91	59.981
632.24	59.462
632.57	57.306
632.90	61.284
633.23	59.490
633.56	59.286
633.89	59.194
634.22	59.771
634.55	60.125
634.88	61.039
635.20	59.849
635.53	60.452
635.86	58.938
636.19	59.809
636.52	58.333
636.85	58.529
637.18	58.420
637.51	58.495
637.83	60.687
638.16	61.521
638.49	60.094
638.82	60.767
639.15	59.908
639.48	61.778
639.81	60.162
640.13	59.128
640.46	60.606
640.79	60.662
641.12	58.634
641.45	59.222
641.77	64.570
642.10	62.073
642.43	61.968
642.76	60.434
643.09	63.151
643.41	61.625
643.74	60.552
644.07	63.586
644.40	61.103
644.73	61.684
645.05	62.261
645.38	62.158
645.71	65.396
646.04	62.410
646.36	63.504
646.69	63.344
647.02	66.361
647.35	63.511
647.67	66.345
648.00	63.535
648.33	62.613
648.66	63.481
648.98	59.048
649.31	59.675
649.64	60.956
649.96	61.273
650.29	59.944
650.62	60.820
650.94	62.613
651.27	59.880
651.60	61.404
651.92	61.702
652.25	63.531
652.58	60.523
652.90	61.628
653.23	60.141
653.56	62.767
653.88	61.657
654.21	60.704
654.54	60.260
654.86	62.465
655.19	56.336
655.52	52.434
655.84	44.085
656.17	53.295
656.49	74.501
656.82	84.619
657.15	67.595
657.47	52.057
657.80	39.321
658.13	31.414
658.45	42.012
658.78	51.827
659.10	50.984
659.43	52.124
659.75	52.898
660.08	52.661
660.41	54.012
660.73	56.442
661.06	62.261
661.38	62.360
661.71	64.483
662.03	62.434
662.36	64.222
662.68	65.666
663.01	64.071
663.33	66.730
663.66	65.201
663.98	65.962
664.31	64.165
664.63	64.355
664.96	68.784
665.28	61.887
665.61	63.986
665.93	64.286
666.26	62.903
666.58	64.022
666.91	66.729
667.23	65.714
667.56	65.286
667.88	65.600
668.21	62.695
668.53	65.830
668.86	66.798
669.18	64.155
669.50	64.215
669.83	64.400
670.15	67.323
670.48	66.270
670.80	62.715
671.13	65.028
671.45	64.567
671.77	63.465
672.10	57.833
672.42	60.356
672.75	59.293
673.07	58.358
673.39	59.322
673.72	61.913
674.04	63.276
674.37	61.181
674.69	61.376
675.01	60.952
675.34	62.214
675.66	63.109
675.98	63.246
676.31	65.430
676.63	64.068
676.95	63.602
677.28	62.702
677.60	61.614
677.92	62.380
678.25	61.243
678.57	61.922
678.89	63.652
679.22	57.840
679.54	59.658
679.86	59.153
680.18	60.697
680.51	60.535
680.83	59.411
681.15	61.207
681.48	59.413
681.80	62.176
682.12	61.713
682.44	57.930
682.77	61.702
683.09	60.227
683.41	65.504
683.73	63.378
684.06	59.779
684.38	59.034
684.70	63.555
685.02	61.446
685.34	59.068
685.67	56.782
685.99	58.589
686.31	55.959
686.63	61.769
686.96	55.994
687.28	59.772
687.60	58.754
687.92	57.878
688.24	59.098
688.56	58.276
688.89	60.073
689.21	64.971
689.53	61.569
689.85	60.947
690.17	58.333
690.49	62.151
690.82	57.822
691.14	58.704
691.46	59.082
691.78	61.878
692.10	58.532
692.42	58.214
692.74	58.802
693.06	56.852
693.39	61.101
693.71	59.211
694.03	60.037
694.35	61.905
694.67	61.191
694.99	58.936
695.31	62.914
695.63	62.771
695.95	59.627
696.27	62.198
696.59	64.381
696.91	60.360
697.23	64.615
697.56	59.674
697.88	57.386
698.20	60.075
698.52	62.121
698.84	59.252
699.16	60.612
699.48	59.205
699.80	58.298
700.12	59.170
700.44	58.065
700.76	60.808
701.08	62.470
701.40	63.731
701.72	61.443
702.04	61.765
702.36	62.304
702.68	61.614
703.00	60.880
703.32	61.084
703.64	61.125
703.96	57.041
704.28	60.442
704.60	62.025
704.91	59.694
705.23	63.288
705.55	62.396
705.87	66.970
706.19	65.337
706.51	64.759
706.83	64.553
707.15	60.847
707.47	56.075
707.79	59.389
708.11	54.661
708.43	57.849
708.74	57.143
709.06	57.541
709.38	60.329
709.70	61.290
710.02	63.307
710.34	58.511
710.66	63.687
710.98	62.568
711.29	60.714
711.61	61.017
711.93	63.818
712.25	59.459
712.57	62.832
712.89	62.941
713.20	58.284
713.52	64.162
713.84	61.281
714.16	57.105
714.48	62.629
714.80	58.442
715.11	60.105
715.43	57.560
715.75	59.211
716.07	58.011
716.39	58.743
716.70	59.940
717.02	68.852
717.34	64.808
717.66	62.752
717.97	59.932
718.29	62.543
718.61	62.171
718.93	60.518
719.24	59.006
719.56	56.135
719.88	56.456
720.20	62.903
720.51	59.938
720.83	58.750
721.15	57.895
721.46	61.301
721.78	58.333
722.10	61.165
722.42	59.732
722.73	59.032
723.05	58.246
723.37	57.986
723.68	65.591
724.00	63.177
724.32	58.099
724.63	61.189
724.95	64.184
725.27	58.537
725.58	57.597
725.90	65.172
726.22	57.367
726.53	61.688
726.85	61.950
727.16	59.517
727.48	56.269
727.80	59.272
728.11	61.484
728.43	59.933
728.74	59.532
729.06	57.285
729.38	56.818
729.69	57.718
730.01	57.143
730.32	53.333
730.64	62.264
730.96	56.522
731.27	54.749
731.59	59.615
731.90	50.390
732.22	54.687
732.53	56.077
732.85	57.143
733.16	57.771
733.48	56.098
733.80	54.318
734.11	54.416
734.43	57.297
734.74	56.203
735.06	54.020
735.37	54.054
735.69	57.568
736.00	61.582
736.32	54.717
736.63	55.278
736.95	56.897
737.26	56.970
737.58	59.697
737.89	58.235
738.21	55.963
738.52	53.443
738.83	55.631
739.15	59.220
739.46	55.102
739.78	59.509
740.09	54.441
740.41	55.685
740.72	59.333
741.04	54.693
741.35	57.193
741.66	58.431
741.98	58.197
742.29	58.996
742.61	63.596
742.92	56.923
743.23	54.152
743.55	61.628
743.86	58.400
744.18	56.198
744.49	63.291
744.80	58.848
745.12	57.806
745.43	62.602
745.74	61.207
746.06	65.254
746.37	59.916
746.68	63.008
747.00	58.333
747.31	59.657
747.62	57.308
747.94	57.490
748.25	58.233
748.56	57.959
748.88	60.684
749.19	61.638
749.50	61.472
749.82	59.839
750.13	56.940
750.44	52.667
750.75	51.385
751.07	56.615
751.38	56.467
751.69	52.716
752.01	57.282
752.32	56.863
752.63	56.463
752.94	58.131
753.26	57.621
753.57	56.296
753.88	59.551
754.19	52.733
754.51	55.949
754.82	52.412
755.13	57.705
755.44	55.631
755.75	56.908
756.07	51.940
756.38	56.918
756.69	56.024
757.00	46.537
757.31	51.913
757.63	48.082
757.94	53.052
758.25	47.856
758.56	52.505
758.87	49.545
759.18	51.733
759.50	54.674
759.81	56.022
760.12	54.178
760.43	50.260
760.74	52.217
761.05	49.250
761.36	48.434
761.67	50.761
761.99	51.351
762.30	54.268
762.61	49.505
762.92	52.612
763.23	55.431
763.54	53.957
763.85	52.577
764.16	49.158
764.47	55.634
764.78	52.716
765.10	53.959
765.41	51.282
765.72	49.206
766.03	54.520
766.34	48.903
766.65	50.871
766.96	53.785
767.27	60.369
767.58	58.209
767.89	62.981
768.20	56.808
768.51	57.407
768.82	55.422
769.13	53.030
769.44	50.385
769.75	59.928
770.06	56.154
770.37	56.299
770.68	52.766
770.99	52.227
771.30	57.407
771.61	54.373
771.92	52.593
772.23	58.300
772.54	51.852
772.85	56.221
773.16	61.905
773.47	55.556
773.78	56.216
774.09	59.091
774.39	56.500
774.70	66.120
775.01	57.317
775.32	60.000
775.63	60.736
775.94	53.503
776.25	65.161
776.56	53.846
776.87	65.986
777.18	68.966
777.48	54.545
777.79	52.027
778.10	63.971
778.41	62.500
778.72	55.172
779.03	66.667
779.34	58.182
779.65	50.777
779.95	56.111
780.26	50.568
780.57	57.419
780.88	66.667
781.19	59.355
781.50	57.059
781.80	58.065
782.11	55.556
782.42	52.020
782.73	58.683
783.04	51.397
783.34	57.576
783.65	60.131
783.96	55.280
784.27	50.000
784.57	57.616
784.88	57.857
785.19	62.205
785.50	64.567
785.81	63.910
786.11	63.846
786.42	54.676
786.73	49.640
787.04	64.662
787.34	59.016
787.65	64.000
787.96	52.985
788.26	60.140
788.57	72.028
788.88	57.237
789.19	58.824
789.49	58.904
789.80	52.482
790.11	64.567
790.41	50.000
790.72	63.559
791.03	54.369
791.33	50.435
791.64	68.421
791.95	65.179
792.25	59.048
792.56	54.464
792.87	61.458
793.17	60.714
793.48	53.125
793.79	67.470
794.09	55.046
794.40	50.459
794.70	54.422
795.01	51.299
795.32	51.370
795.62	53.521
795.93	53.030
796.23	58.197
796.54	38.393
796.85	56.383
797.15	64.130
797.46	68.493
797.76	51.250
798.07	59.783
798.37	47.423
798.68	54.545
798.99	49.425
799.29	60.674
799.60	61.702
799.90	63.855
800.21	61.538
800.51	58.209
800.82	66.176
801.12	43.836
801.43	60.294
801.73	93.220
802.04	56.061
802.34	61.667
802.65	72.881
802.95	70.149
803.26	79.661
803.56	53.425
803.87	64.286
804.17	71.233
804.48	68.421
804.78	63.889
805.09	60.345
805.39	64.865
805.70	56.338
806.00	56.098
806.30	59.036
806.61	58.904
806.91	56.731
807.22	68.889
807.52	58.621
807.83	68.056
808.13	67.470
808.43	74.157
808.74	52.500
809.04	57.353
809.35	62.667
809.65	67.143
809.95	63.014
810.26	64.912
810.56	63.793
810.86	61.765
811.17	63.158
811.47	78.689
811.77	57.778
812.08	74.576
812.38	78.333
812.69	68.966
812.99	67.925
813.29	74.359
813.59	76.000
813.90	85.965
814.20	67.273
814.50	84.507
814.81	62.821
815.11	68.852
815.41	59.701
815.72	79.310
816.02	71.429
816.32	117.778
816.62	81.818
816.93	97.778
817.23	57.407
817.53	65.957
817.84	92.857
818.14	114.706
818.44	75.510
818.74	86.667
819.04	46.154
819.35	60.000
819.65	84.615
819.95	62.264
820.25	84.444
820.56	69.048
820.86	103.125
821.16	82.051
821.46	86.047
821.76	64.000
822.07	66.071
822.37	76.087
822.67	68.085
822.97	75.676
823.27	75.000
823.57	75.510
823.88	80.000
824.18	77.500
824.48	93.333
824.78	104.000
825.08	93.939
825.38	86.667
825.69	72.340
825.99	116.667
826.29	42.857
826.59	64.103
826.89	72.093
827.19	60.000
827.49	76.471
827.79	87.500
828.09	83.784
828.39	53.333
828.70	70.732
829.00	69.767
829.30	85.714
829.60	79.412
829.90	82.609
830.20	77.143
830.50	96.552
830.80	116.667
831.10	134.615
831.40	97.059
831.70	100.000
832.00	129.032
832.30	76.471
832.60	79.167
832.90	76.923
833.20	78.947
833.50	115.000
833.80	63.158
834.10	71.429
834.40	86.111
834.70	103.125
835.00	45.714
835.30	61.765
835.60	73.333
835.90	100.000
836.20	59.091
836.50	96.000
836.80	54.545
837.10	74.074
837.40	107.407
837.70	81.250
838.00	89.286
838.30	69.565
838.60	82.759
838.90	157.143
839.19	34.783
839.49	108.333
839.79	108.696
840.09	87.500
840.39	115.000
840.69	87.097
840.99	75.000
841.29	180.000
841.59	126.316
841.88	89.744
842.18	61.538
842.48	40.000
842.78	95.000
843.08	83.333
843.38	83.871
843.68	5.556
843.97	79.412
844.27	168.750
844.57	89.474
844.87	210.000
845.17	106.667
845.47	147.619
845.76	57.143
846.06	188.889
846.36	105.882
846.66	76.923
846.96	100.000
847.25	94.118
847.55	104.348
847.85	85.000
848.15	76.471
848.44	136.364
848.74	128.571
849.04	37.500
849.34	150.000
849.63	134.783
849.93	-400.000
850.23	166.667
850.53	96.154
850.82	236.364
851.12	100.000
851.42	118.182
851.71	223.077
852.01	85.000
852.31	146.154
852.61	110.526
852.90	183.333
853.20	133.333
853.50	100.000
853.79	85.714
854.09	72.727
854.39	108.333
854.68	100.000
854.98	84.615
855.28	122.222
855.57	67.857
855.87	68.000
856.17	100.000
856.46	70.370
856.76	127.778
857.05	73.913
857.35	75.000
857.65	130.769
857.94	80.952
858.24	77.778
858.53	108.696
858.83	170.588
859.13	94.118
859.42	129.412
859.72	135.714
860.01	100.000
860.31	188.889
860.60	100.000
860.90	53.333
861.20	116.667
861.49	192.308
861.79	86.667
862.08	123.077
862.38	84.375
862.67	88.235
862.97	37.500
863.26	155.556
863.56	130.000
863.85	172.727
864.15	138.889
864.44	566.667
864.74	85.714
865.03	156.250
865.33	90.000
865.62	61.290
865.92	100.000
866.21	91.304
866.51	128.571
866.80	200.000
867.10	133.333
867.39	191.667
867.69	-1200.000
867.98	114.286
868.27	105.882
868.57	0.000
868.86	210.000
869.16	95.238
869.45	95.833
869.75	181.818
870.04	285.714
870.33	141.667
870.63	171.429
870.92	275.000
871.22	137.500
871.51	118.182
871.80	433.333
872.10	450.000
>>>>>End Processed Spectral Data<<<<<
