SpectraSuite Data File
++++++++++++++++++++++++++++++++++++
Date: Thu May 14 14:51:43 PDT 2015
User: schluterlab
Dark Spectrum Present: Yes
Reference Spectrum Present: Yes
Number of Sampled Component Spectra: 1
Spectrometers: USB2E3373
Integration Time (usec): 3000 (USB2E3373)
Spectra Averaged: 3 (USB2E3373)
Boxcar Smoothing: 0 (USB2E3373)
Correct for Electrical Dark: No (USB2E3373)
Strobe/Lamp Enabled: No (USB2E3373)
Correct for Detector Non-linearity: No (USB2E3373)
Correct for Stray Light: No (USB2E3373)
Number of Pixels in Processed Spectrum: 2048
>>>>>Begin Processed Spectral Data<<<<<
178.53	0.000
178.91	185.714
179.29	-1100.000
179.67	-800.000
180.04	192.857
180.42	150.000
180.80	120.000
181.18	-200.000
181.56	-300.000
181.94	25.000
182.31	-325.000
182.69	600.000
183.07	-500.000
183.45	175.000
183.83	-116.667
184.20	0.000
184.58	600.000
184.96	-425.000
185.34	-88.889
185.72	-180.000
186.09	244.444
186.47	550.000
186.85	440.000
187.23	-144.444
187.61	-700.000
187.98	60.000
188.36	175.000
188.74	-175.000
189.12	-133.333
189.49	0.000
189.87	-100.000
190.25	-144.444
190.63	-60.000
191.00	-166.667
191.38	0.000
191.76	-100.000
192.14	-150.000
192.51	500.000
192.89	116.667
193.27	0.000
193.65	-157.143
194.02	-1000.000
194.40	-100.000
194.78	200.000
195.15	0.000
195.53	-54.545
195.91	0.000
196.29	-150.000
196.66	-46.154
197.04	-1300.000
197.42	-200.000
197.79	-600.000
198.17	-112.500
198.55	-228.571
198.92	-11.111
199.30	-62.500
199.68	-27.273
200.05	7.143
200.43	-650.000
200.81	257.143
201.18	0.000
201.56	177.778
201.94	0.000
202.31	333.333
202.69	-88.889
203.07	100.000
203.44	-88.889
203.82	-275.000
204.19	-58.333
204.57	-200.000
204.95	-87.500
205.32	-800.000
205.70	175.000
206.08	-150.000
206.45	-83.333
206.83	160.000
207.20	-183.333
207.58	-320.000
207.96	-233.333
208.33	16.667
208.71	75.000
209.08	66.667
209.46	0.000
209.84	200.000
210.21	650.000
210.59	100.000
210.96	266.667
211.34	-200.000
211.71	-62.500
212.09	-200.000
212.46	0.000
212.84	1050.000
213.22	-280.000
213.59	-350.000
213.97	-40.000
214.34	-400.000
214.72	133.333
215.09	-275.000
215.47	0.000
215.84	100.000
216.22	450.000
216.59	-140.000
216.97	-280.000
217.34	-275.000
217.72	-37.500
218.09	-275.000
218.47	-275.000
218.84	0.000
219.22	220.000
219.59	-11.765
219.97	25.000
220.34	300.000
220.72	-211.111
221.09	-69.231
221.47	-500.000
221.84	-80.000
222.22	-200.000
222.59	0.000
222.97	-125.000
223.34	-260.000
223.72	-700.000
224.09	-150.000
224.46	-475.000
224.84	-160.000
225.21	-142.857
225.59	-525.000
225.96	-200.000
226.34	-7.692
226.71	216.667
227.08	-450.000
227.46	0.000
227.83	-300.000
228.21	63.158
228.58	100.000
228.95	800.000
229.33	-33.333
229.70	-150.000
230.08	36.842
230.45	50.000
230.82	-266.667
231.20	-71.429
231.57	-25.000
231.95	36.364
232.32	-27.273
232.69	-20.000
233.07	0.000
233.44	11.765
233.81	-170.000
234.19	11.111
234.56	4.545
234.93	3.448
235.31	-36.842
235.68	61.111
236.05	-55.000
236.43	11.538
236.80	56.000
237.17	-11.111
237.55	6.061
237.92	-60.000
238.29	19.355
238.67	4.545
239.04	22.222
239.41	2.381
239.79	2.174
240.16	9.259
240.53	21.739
240.91	1.961
241.28	18.033
241.65	17.910
242.02	18.919
242.40	3.077
242.77	13.333
243.14	20.732
243.51	19.737
243.89	12.821
244.26	31.683
244.63	35.294
245.00	28.972
245.38	31.579
245.75	23.009
246.12	26.984
246.49	23.256
246.87	29.286
247.24	31.788
247.61	30.263
247.98	22.819
248.36	30.247
248.73	31.288
249.10	27.869
249.47	29.851
249.84	35.602
250.22	24.352
250.59	27.778
250.96	30.000
251.33	25.510
251.70	22.222
252.08	28.750
252.45	31.967
252.82	28.512
253.19	26.953
253.56	33.080
253.94	29.615
254.31	32.576
254.68	32.168
255.05	31.596
255.42	29.252
255.79	31.068
256.16	29.470
256.54	27.815
256.91	29.180
257.28	29.180
257.65	25.796
258.02	31.858
258.39	30.769
258.76	33.333
259.14	28.448
259.51	27.666
259.88	28.612
260.25	27.222
260.62	29.589
260.99	30.601
261.36	29.759
261.73	27.851
262.10	28.571
262.47	27.882
262.85	31.061
263.22	25.974
263.59	25.263
263.96	29.923
264.33	31.969
264.70	29.383
265.07	32.220
265.44	27.664
265.81	29.861
266.18	29.025
266.55	28.795
266.92	28.018
267.29	29.759
267.66	26.386
268.03	31.004
268.40	28.810
268.77	27.790
269.14	25.110
269.51	29.386
269.88	28.689
270.25	25.956
270.62	28.270
270.99	27.475
271.36	28.317
271.73	27.701
272.10	29.058
272.47	26.052
272.84	28.916
273.21	26.653
273.58	25.605
273.95	25.577
274.32	27.567
274.69	26.306
275.06	26.740
275.43	25.878
275.80	26.102
276.17	27.037
276.54	27.239
276.91	26.834
277.28	28.391
277.65	25.135
278.02	25.368
278.39	26.268
278.76	24.780
279.13	26.241
279.50	27.663
279.87	25.045
280.23	22.535
280.60	25.932
280.97	25.164
281.34	22.920
281.71	27.411
282.08	25.415
282.45	23.732
282.82	24.490
283.19	23.910
283.56	23.443
283.92	24.625
284.29	26.382
284.66	25.287
285.03	23.077
285.40	23.338
285.77	24.768
286.14	24.885
286.51	22.831
286.87	22.591
287.24	23.946
287.61	24.365
287.98	24.320
288.35	23.077
288.72	22.041
289.08	25.622
289.45	22.041
289.82	25.000
290.19	23.994
290.56	24.507
290.93	22.397
291.29	22.452
291.66	22.176
292.03	21.710
292.40	22.313
292.77	21.429
293.13	22.598
293.50	19.842
293.87	20.805
294.24	22.400
294.60	22.503
294.97	20.671
295.34	22.407
295.71	19.672
296.08	20.543
296.44	21.446
296.81	21.315
297.18	22.167
297.55	20.637
297.91	19.929
298.28	20.379
298.65	20.095
299.02	20.543
299.38	20.824
299.75	20.093
300.12	19.792
300.48	19.700
300.85	21.485
301.22	18.904
301.59	19.178
301.95	21.130
302.32	19.556
302.69	19.825
303.05	19.260
303.42	21.619
303.79	19.271
304.15	21.030
304.52	19.027
304.89	18.534
305.25	18.116
305.62	19.854
305.99	21.134
306.35	19.657
306.72	21.406
307.09	19.289
307.45	21.222
307.82	19.879
308.19	19.273
308.55	20.829
308.92	20.351
309.29	19.636
309.65	20.565
310.02	20.594
310.38	20.374
310.75	19.709
311.12	21.381
311.48	19.941
311.85	21.178
312.22	20.304
312.58	20.282
312.95	20.459
313.31	21.048
313.68	21.703
314.05	19.603
314.41	22.951
314.78	21.617
315.14	22.051
315.51	21.053
315.87	21.422
316.24	22.283
316.61	22.114
316.97	20.724
317.34	22.222
317.70	22.445
318.07	22.046
318.43	22.704
318.80	22.408
319.16	20.944
319.53	22.108
319.89	21.823
320.26	22.153
320.62	23.759
320.99	22.068
321.35	22.551
321.72	24.651
322.08	22.182
322.45	23.306
322.81	22.924
323.18	22.566
323.54	22.759
323.91	22.331
324.27	22.806
324.64	24.853
325.00	23.549
325.37	24.242
325.73	24.545
326.10	24.250
326.46	25.489
326.83	25.620
327.19	24.567
327.56	25.375
327.92	23.918
328.29	25.323
328.65	24.037
329.01	26.142
329.38	27.970
329.74	25.856
330.11	27.055
330.47	26.369
330.84	25.151
331.20	27.000
331.56	25.737
331.93	26.778
332.29	26.610
332.66	26.412
333.02	26.633
333.38	26.678
333.75	26.768
334.11	27.440
334.48	26.980
334.84	28.292
335.20	26.784
335.57	26.813
335.93	27.521
336.29	27.038
336.66	26.409
337.02	27.508
337.38	28.486
337.75	26.198
338.11	27.250
338.47	27.461
338.84	27.665
339.20	25.021
339.56	26.853
339.93	26.190
340.29	26.812
340.65	27.575
341.02	26.257
341.38	27.486
341.74	27.845
342.11	27.836
342.47	26.370
342.83	27.214
343.20	27.473
343.56	27.506
343.92	26.421
344.28	27.344
344.65	27.364
345.01	27.067
345.37	27.683
345.73	26.033
346.10	27.613
346.46	26.108
346.82	27.491
347.19	28.342
347.55	27.390
347.91	26.969
348.27	28.452
348.63	27.494
349.00	25.951
349.36	28.104
349.72	27.976
350.08	26.820
350.45	27.757
350.81	27.979
351.17	27.820
351.53	28.127
351.89	28.170
352.26	27.537
352.62	27.985
352.98	28.779
353.34	26.886
353.70	27.581
354.07	27.347
354.43	27.715
354.79	28.422
355.15	28.256
355.51	28.655
355.87	27.076
356.24	28.441
356.60	27.125
356.96	27.947
357.32	27.435
357.68	27.452
358.04	27.470
358.40	27.015
358.77	27.705
359.13	27.105
359.49	28.030
359.85	27.991
360.21	28.121
360.57	28.141
360.93	27.504
361.29	28.491
361.66	28.096
362.02	28.949
362.38	28.953
362.74	28.422
363.10	29.917
363.46	28.670
363.82	28.693
364.18	29.346
364.54	29.115
364.90	29.164
365.26	28.552
365.62	28.400
365.98	28.931
366.35	28.188
366.71	29.524
367.07	28.958
367.43	28.168
367.79	28.799
368.15	29.231
368.51	29.635
368.87	30.046
369.23	28.800
369.59	29.713
369.95	30.156
370.31	29.980
370.67	29.711
371.03	29.986
371.39	28.677
371.75	29.642
372.11	29.675
372.47	29.587
372.83	30.628
373.19	30.487
373.55	30.081
373.91	29.243
374.27	29.301
374.63	30.785
374.99	29.642
375.35	30.714
375.71	30.710
376.07	31.052
376.42	30.982
376.78	31.448
377.14	31.004
377.50	32.005
377.86	32.081
378.22	31.617
378.58	31.570
378.94	31.984
379.30	31.634
379.66	32.334
380.02	32.660
380.38	32.546
380.74	31.887
381.09	32.172
381.45	32.727
381.81	33.197
382.17	32.779
382.53	33.099
382.89	32.449
383.25	33.060
383.61	32.697
383.97	33.274
384.32	34.270
384.68	32.715
385.04	33.835
385.40	33.942
385.76	33.529
386.12	33.692
386.48	33.824
386.83	35.399
387.19	32.966
387.55	34.742
387.91	34.361
388.27	34.931
388.62	33.963
388.98	33.841
389.34	35.121
389.70	35.328
390.06	34.281
390.42	35.542
390.77	35.581
391.13	34.214
391.49	35.930
391.85	35.636
392.20	35.231
392.56	35.499
392.92	35.442
393.28	35.876
393.64	35.084
393.99	36.316
394.35	36.565
394.71	36.228
395.07	35.150
395.42	35.580
395.78	36.076
396.14	36.780
396.50	36.164
396.85	35.540
397.21	35.385
397.57	36.867
397.92	35.911
398.28	35.470
398.64	35.240
399.00	36.440
399.35	37.906
399.71	35.435
400.07	36.665
400.42	36.205
400.78	36.285
401.14	37.564
401.49	37.862
401.85	37.384
402.21	38.065
402.57	38.204
402.92	37.707
403.28	37.354
403.63	38.425
403.99	36.342
404.35	37.294
404.70	36.997
405.06	37.609
405.42	37.061
405.77	37.568
406.13	37.385
406.49	37.500
406.84	38.172
407.20	37.731
407.55	37.795
407.91	37.398
408.27	37.044
408.62	37.405
408.98	39.234
409.34	37.947
409.69	39.617
410.05	37.866
410.40	38.573
410.76	37.801
411.11	39.041
411.47	38.391
411.83	39.565
412.18	39.518
412.54	38.411
412.89	38.300
413.25	39.391
413.60	37.737
413.96	38.462
414.31	38.414
414.67	38.163
415.03	39.815
415.38	39.344
415.74	37.996
416.09	39.667
416.45	38.635
416.80	37.944
417.16	39.527
417.51	38.917
417.87	37.584
418.22	38.743
418.58	40.458
418.93	40.279
419.29	38.779
419.64	39.376
420.00	38.516
420.35	38.798
420.71	39.173
421.06	39.103
421.42	40.195
421.77	38.718
422.12	38.953
422.48	39.222
422.83	40.800
423.19	39.257
423.54	40.431
423.90	39.371
424.25	40.267
424.61	39.093
424.96	40.308
425.31	40.977
425.67	40.794
426.02	39.181
426.38	40.586
426.73	41.016
427.09	41.119
427.44	40.033
427.79	40.022
428.15	39.897
428.50	40.618
428.85	40.126
429.21	40.638
429.56	39.684
429.92	40.246
430.27	41.542
430.62	40.938
430.98	39.990
431.33	39.980
431.68	40.230
432.04	40.477
432.39	40.118
432.74	40.411
433.10	40.887
433.45	41.081
433.80	40.826
434.16	41.012
434.51	41.110
434.86	41.748
435.22	41.233
435.57	40.920
435.92	41.458
436.28	41.809
436.63	41.780
436.98	41.224
437.34	41.657
437.69	41.167
438.04	41.089
438.39	40.724
438.75	40.952
439.10	41.438
439.45	41.196
439.81	40.226
440.16	40.536
440.51	41.304
440.86	40.133
441.22	40.086
441.57	41.876
441.92	41.271
442.27	41.414
442.63	41.381
442.98	41.409
443.33	40.821
443.68	41.328
444.03	41.816
444.39	41.886
444.74	42.113
445.09	41.206
445.44	40.991
445.79	41.954
446.15	41.110
446.50	41.034
446.85	42.218
447.20	41.876
447.55	41.213
447.91	41.518
448.26	41.860
448.61	41.020
448.96	42.543
449.31	41.357
449.66	41.122
450.02	40.928
450.37	41.396
450.72	41.389
451.07	41.572
451.42	41.594
451.77	40.245
452.12	42.099
452.47	41.117
452.83	43.074
453.18	40.806
453.53	40.264
453.88	41.579
454.23	41.695
454.58	41.323
454.93	41.141
455.28	41.963
455.63	40.705
455.98	41.732
456.34	41.048
456.69	41.270
457.04	41.962
457.39	42.018
457.74	42.226
458.09	41.076
458.44	42.834
458.79	40.897
459.14	40.535
459.49	41.992
459.84	42.130
460.19	41.810
460.54	42.135
460.89	41.874
461.24	41.667
461.59	42.280
461.94	41.187
462.29	42.441
462.64	41.460
462.99	41.682
463.34	41.661
463.69	40.680
464.04	42.135
464.39	41.312
464.74	40.935
465.09	40.773
465.44	41.685
465.79	41.407
466.14	41.845
466.49	42.105
466.84	41.983
467.19	40.925
467.54	41.481
467.89	40.805
468.24	42.105
468.59	39.548
468.94	40.967
469.29	40.672
469.64	41.132
469.99	41.810
470.34	40.780
470.68	41.900
471.03	42.633
471.38	41.596
471.73	41.222
472.08	42.386
472.43	41.421
472.78	40.932
473.13	41.719
473.48	42.236
473.83	42.078
474.17	41.501
474.52	42.273
474.87	42.470
475.22	41.859
475.57	41.589
475.92	41.414
476.27	42.652
476.61	41.225
476.96	41.397
477.31	41.188
477.66	41.605
478.01	41.891
478.36	41.027
478.70	41.429
479.05	42.331
479.40	42.053
479.75	40.490
480.10	42.018
480.45	41.067
480.79	41.451
481.14	41.728
481.49	41.890
481.84	40.731
482.19	41.935
482.53	42.457
482.88	42.313
483.23	41.618
483.58	41.790
483.92	41.312
484.27	41.152
484.62	41.460
484.97	41.252
485.31	40.479
485.66	38.590
486.01	39.151
486.36	40.548
486.70	42.261
487.05	42.868
487.40	41.328
487.75	40.483
488.09	40.772
488.44	39.581
488.79	40.034
489.13	40.587
489.48	39.883
489.83	40.201
490.17	40.340
490.52	40.312
490.87	41.159
491.22	41.594
491.56	41.809
491.91	41.648
492.26	41.627
492.60	40.315
492.95	41.027
493.30	42.089
493.64	42.313
493.99	42.281
494.34	40.679
494.68	40.385
495.03	42.467
495.37	41.323
495.72	40.726
496.07	41.411
496.41	40.455
496.76	40.909
497.11	41.953
497.45	41.606
497.80	41.493
498.14	41.315
498.49	41.268
498.84	41.408
499.18	41.520
499.53	41.839
499.87	41.846
500.22	40.650
500.56	41.206
500.91	41.648
501.26	41.545
501.60	40.831
501.95	41.902
502.29	42.124
502.64	42.282
502.98	41.372
503.33	40.691
503.67	41.082
504.02	40.587
504.36	42.449
504.71	40.836
505.06	41.382
505.40	41.042
505.75	41.940
506.09	41.206
506.44	42.665
506.78	41.514
507.13	40.479
507.47	42.160
507.82	41.525
508.16	41.874
508.51	41.538
508.85	40.860
509.19	41.071
509.54	41.739
509.88	41.816
510.23	42.982
510.57	42.436
510.92	42.187
511.26	41.558
511.61	40.753
511.95	40.996
512.30	42.196
512.64	41.229
512.98	41.721
513.33	43.347
513.67	42.988
514.02	41.339
514.36	42.199
514.70	42.292
515.05	41.502
515.39	41.995
515.74	42.630
516.08	41.521
516.42	42.386
516.77	42.902
517.11	41.774
517.46	41.622
517.80	42.972
518.14	43.308
518.49	43.221
518.83	41.352
519.17	42.811
519.52	41.824
519.86	42.714
520.20	41.853
520.55	43.100
520.89	43.018
521.23	42.490
521.58	41.977
521.92	42.776
522.26	41.753
522.61	43.113
522.95	42.964
523.29	42.759
523.64	42.881
523.98	42.499
524.32	44.699
524.66	43.085
525.01	42.469
525.35	41.585
525.69	42.517
526.04	42.021
526.38	43.218
526.72	41.926
527.06	43.226
527.41	44.315
527.75	42.696
528.09	43.329
528.43	42.688
528.78	42.717
529.12	42.603
529.46	42.496
529.80	42.792
530.15	43.536
530.49	42.883
530.83	42.562
531.17	42.772
531.51	42.780
531.86	42.969
532.20	42.744
532.54	42.908
532.88	42.182
533.22	42.487
533.57	42.701
533.91	41.751
534.25	42.793
534.59	42.644
534.93	42.898
535.27	41.634
535.62	43.320
535.96	42.650
536.30	42.832
536.64	42.703
536.98	42.128
537.32	42.531
537.66	42.483
538.01	42.961
538.35	42.144
538.69	42.428
539.03	42.183
539.37	41.755
539.71	42.643
540.05	41.966
540.39	42.359
540.73	42.441
541.07	42.673
541.42	40.933
541.76	41.993
542.10	41.858
542.44	42.509
542.78	42.092
543.12	41.478
543.46	41.819
543.80	41.966
544.14	42.729
544.48	42.199
544.82	42.849
545.16	42.457
545.50	41.582
545.84	42.437
546.18	41.852
546.52	41.783
546.86	40.755
547.20	42.939
547.54	42.322
547.88	41.290
548.22	42.281
548.56	42.774
548.90	42.269
549.24	42.857
549.58	42.019
549.92	42.921
550.26	42.977
550.60	41.863
550.94	43.402
551.28	41.452
551.62	42.453
551.96	41.812
552.30	42.639
552.64	41.693
552.98	42.545
553.32	43.344
553.66	41.608
554.00	43.001
554.34	42.085
554.68	42.285
555.02	41.590
555.36	42.078
555.69	41.512
556.03	41.866
556.37	42.365
556.71	42.676
557.05	42.684
557.39	42.402
557.73	42.536
558.07	42.053
558.41	42.259
558.75	42.394
559.08	43.563
559.42	42.730
559.76	42.266
560.10	42.063
560.44	43.272
560.78	42.875
561.12	42.611
561.45	42.822
561.79	42.063
562.13	42.699
562.47	41.739
562.81	42.152
563.15	42.677
563.48	41.392
563.82	41.778
564.16	42.823
564.50	41.895
564.84	41.888
565.17	42.294
565.51	41.024
565.85	41.627
566.19	40.956
566.52	41.720
566.86	41.426
567.20	40.511
567.54	41.901
567.88	41.641
568.21	41.897
568.55	42.542
568.89	41.897
569.23	41.276
569.56	41.696
569.90	41.447
570.24	41.788
570.57	40.411
570.91	40.845
571.25	40.266
571.59	40.857
571.92	40.405
572.26	39.333
572.60	40.404
572.93	39.827
573.27	40.067
573.61	39.359
573.95	39.864
574.28	39.290
574.62	39.950
574.96	39.678
575.29	39.458
575.63	39.455
575.97	39.090
576.30	38.638
576.64	39.442
576.98	39.157
577.31	39.509
577.65	39.827
577.98	39.514
578.32	39.529
578.66	39.257
578.99	39.054
579.33	39.418
579.67	39.030
580.00	38.728
580.34	39.136
580.67	38.989
581.01	39.312
581.35	39.275
581.68	39.166
582.02	39.202
582.35	40.250
582.69	39.617
583.02	39.357
583.36	39.043
583.70	38.650
584.03	38.901
584.37	38.361
584.70	38.362
585.04	38.479
585.37	39.350
585.71	38.598
586.04	39.652
586.38	39.694
586.72	39.509
587.05	39.115
587.39	39.641
587.72	39.880
588.06	39.603
588.39	38.910
588.73	39.524
589.06	39.814
589.40	39.060
589.73	39.524
590.07	39.025
590.40	40.061
590.73	39.625
591.07	40.208
591.40	39.736
591.74	39.626
592.07	40.317
592.41	39.787
592.74	39.723
593.08	40.096
593.41	39.691
593.75	40.603
594.08	40.503
594.41	40.096
594.75	39.389
595.08	39.199
595.42	39.545
595.75	39.813
596.09	40.427
596.42	40.559
596.75	39.599
597.09	39.556
597.42	40.286
597.75	39.671
598.09	40.040
598.42	40.249
598.76	39.969
599.09	39.694
599.42	39.658
599.76	39.650
600.09	39.339
600.42	39.072
600.76	40.059
601.09	39.263
601.42	39.410
601.76	39.862
602.09	39.743
602.42	39.258
602.76	39.483
603.09	39.868
603.42	39.162
603.76	39.817
604.09	40.383
604.42	39.670
604.76	39.574
605.09	39.689
605.42	39.314
605.75	39.308
606.09	40.388
606.42	39.584
606.75	39.168
607.09	39.363
607.42	39.961
607.75	40.406
608.08	40.489
608.42	38.976
608.75	39.967
609.08	39.389
609.41	39.965
609.75	39.866
610.08	40.369
610.41	40.697
610.74	40.546
611.07	40.142
611.41	40.583
611.74	40.739
612.07	40.860
612.40	39.829
612.73	40.685
613.07	41.027
613.40	40.905
613.73	41.069
614.06	40.922
614.39	39.747
614.72	40.175
615.06	39.846
615.39	40.309
615.72	40.948
616.05	40.748
616.38	41.877
616.71	40.596
617.05	39.563
617.38	41.038
617.71	41.685
618.04	40.529
618.37	40.219
618.70	42.081
619.03	40.920
619.36	41.554
619.69	41.192
620.03	41.494
620.36	41.595
620.69	41.147
621.02	40.879
621.35	42.888
621.68	42.372
622.01	41.423
622.34	41.144
622.67	43.162
623.00	40.891
623.33	42.468
623.66	41.634
623.99	42.330
624.32	42.300
624.65	42.149
624.99	42.653
625.32	41.933
625.65	42.616
625.98	42.169
626.31	43.373
626.64	41.392
626.97	41.485
627.30	40.850
627.63	42.611
627.96	43.318
628.29	42.335
628.62	42.401
628.95	43.208
629.28	43.840
629.61	43.939
629.94	41.757
630.26	43.559
630.59	43.955
630.92	42.424
631.25	44.365
631.58	44.256
631.91	43.486
632.24	45.341
632.57	43.264
632.90	43.831
633.23	42.347
633.56	44.490
633.89	43.285
634.22	44.699
634.55	45.511
634.88	44.156
635.20	45.425
635.53	45.311
635.86	44.529
636.19	45.069
636.52	43.776
636.85	44.433
637.18	43.347
637.51	44.839
637.83	45.626
638.16	46.659
638.49	44.484
638.82	43.630
639.15	42.153
639.48	45.497
639.81	44.111
640.13	45.230
640.46	43.030
640.79	42.034
641.12	45.093
641.45	42.409
641.77	46.470
642.10	45.538
642.43	46.144
642.76	44.986
643.09	43.973
643.41	45.798
643.74	45.517
644.07	47.172
644.40	46.818
644.73	44.702
645.05	46.696
645.38	44.317
645.71	44.282
646.04	46.198
646.36	47.299
646.69	45.859
647.02	45.872
647.35	45.954
647.67	47.343
648.00	45.064
648.33	46.697
648.66	45.649
648.98	43.810
649.31	44.790
649.64	43.825
649.96	43.899
650.29	43.533
650.62	41.443
650.94	44.745
651.27	43.862
651.60	43.129
651.92	43.921
652.25	43.705
652.58	43.466
652.90	44.622
653.23	46.197
653.56	44.936
653.88	45.506
654.21	43.662
654.54	42.919
654.86	45.326
655.19	42.409
655.52	43.017
655.84	41.801
656.17	48.825
656.49	67.813
656.82	73.386
657.15	55.381
657.47	40.811
657.80	29.627
658.13	22.814
658.45	29.676
658.78	35.007
659.10	33.700
659.43	33.633
659.75	33.887
660.08	32.885
660.41	34.243
660.73	37.628
661.06	42.438
661.38	41.786
661.71	46.724
662.03	43.210
662.36	45.796
662.68	47.280
663.01	46.549
663.33	47.637
663.66	46.337
663.98	46.346
664.31	42.402
664.63	43.931
664.96	45.554
665.28	44.465
665.61	46.329
665.93	45.357
666.26	45.699
666.58	44.096
666.91	45.421
667.23	47.429
667.56	45.759
667.88	45.800
668.21	41.602
668.53	44.208
668.86	47.151
669.18	48.065
669.50	46.521
669.83	47.600
670.15	46.457
670.48	45.437
670.80	46.080
671.13	42.533
671.45	45.276
671.77	44.633
672.10	42.833
672.42	45.631
672.75	43.472
673.07	42.537
673.39	41.602
673.72	46.980
674.04	46.897
674.37	44.365
674.69	46.737
675.01	44.952
675.34	42.557
675.66	40.449
675.98	45.522
676.31	43.555
676.63	47.909
676.95	43.487
677.28	45.968
677.60	43.307
677.92	45.106
678.25	45.338
678.57	43.238
678.89	44.198
679.22	43.554
679.54	46.154
679.86	43.898
680.18	43.449
680.51	42.925
680.83	41.735
681.15	42.759
681.48	45.596
681.80	43.523
682.12	46.154
682.44	44.240
682.77	43.972
683.09	45.265
683.41	45.736
683.73	46.110
684.06	43.542
684.38	43.828
684.70	46.858
685.02	45.439
685.34	43.760
685.67	41.483
685.99	42.791
686.31	42.151
686.63	42.812
686.96	45.741
687.28	42.997
687.60	44.108
687.92	41.640
688.24	45.409
688.56	40.517
688.89	43.557
689.21	45.010
689.53	41.373
689.85	43.393
690.17	42.407
690.49	43.625
690.82	44.158
691.14	43.927
691.46	45.315
691.78	41.805
692.10	42.936
692.42	40.893
692.74	41.016
693.06	43.889
693.39	43.454
693.71	44.737
694.03	42.565
694.35	41.333
694.67	44.353
694.99	40.638
695.31	43.929
695.63	45.671
695.95	43.064
696.27	44.396
696.59	45.575
696.91	45.495
697.23	46.813
697.56	42.770
697.88	43.939
698.20	45.386
698.52	45.833
698.84	43.451
699.16	46.531
699.48	44.351
699.80	44.681
700.12	41.048
700.44	44.931
700.76	43.705
701.08	45.036
701.40	48.446
701.72	44.279
702.04	45.722
702.36	43.194
702.68	41.565
703.00	42.543
703.32	45.074
703.64	47.677
703.96	42.959
704.28	45.700
704.60	45.063
704.91	40.561
705.23	46.575
705.55	40.947
705.87	45.152
706.19	42.638
706.51	45.783
706.83	45.245
707.15	43.651
707.47	42.991
707.79	43.668
708.11	39.195
708.43	41.075
708.74	42.188
709.06	43.619
709.38	45.070
709.70	45.658
710.02	41.344
710.34	46.543
710.66	44.693
710.98	43.989
711.29	43.681
711.61	46.328
711.93	46.154
712.25	41.351
712.57	48.968
712.89	44.118
713.20	43.195
713.52	45.376
713.84	43.175
714.16	42.895
714.48	45.361
714.80	44.675
715.11	41.207
715.43	44.828
715.75	43.421
716.07	42.265
716.39	43.443
716.70	42.169
717.02	46.885
717.34	43.206
717.66	45.973
717.97	44.863
718.29	41.581
718.61	43.092
718.93	46.602
719.24	44.099
719.56	40.798
719.88	42.042
720.20	42.258
720.51	40.373
720.83	42.188
721.15	41.118
721.46	41.096
721.78	44.333
722.10	41.100
722.42	44.631
722.73	43.871
723.05	45.263
723.37	41.667
723.68	46.595
724.00	45.848
724.32	45.775
724.63	39.161
724.95	44.681
725.27	37.979
725.58	47.703
725.90	49.655
726.22	42.006
726.53	46.429
726.85	44.025
727.16	41.994
727.48	44.954
727.80	43.377
728.11	44.523
728.43	46.128
728.74	44.816
729.06	41.722
729.38	38.312
729.69	42.282
730.01	41.071
730.32	35.152
730.64	42.767
730.96	41.304
731.27	42.179
731.59	41.484
731.90	41.039
732.22	40.365
732.53	41.160
732.85	44.286
733.16	41.056
733.48	43.902
733.80	38.997
734.11	37.037
734.43	42.432
734.74	46.076
735.06	40.452
735.37	43.243
735.69	40.811
736.00	41.808
736.32	40.970
736.63	42.222
736.95	40.230
737.26	40.000
737.58	42.121
737.89	39.706
738.21	35.474
738.52	40.328
738.83	42.662
739.15	42.908
739.46	41.497
739.78	41.104
740.09	40.115
740.41	41.691
740.72	40.000
741.04	39.482
741.35	42.807
741.66	42.353
741.98	40.984
742.29	43.933
742.61	42.982
742.92	44.231
743.23	43.682
743.55	43.023
743.86	44.000
744.18	41.322
744.49	35.021
744.80	46.091
745.12	43.460
745.43	40.244
745.74	40.948
746.06	44.915
746.37	48.523
746.68	43.089
747.00	44.167
747.31	37.768
747.62	42.308
747.94	39.271
748.25	42.972
748.56	41.224
748.88	41.453
749.19	43.534
749.50	42.857
749.82	48.193
750.13	42.705
750.44	42.333
750.75	41.538
751.07	39.692
751.38	41.956
751.69	38.978
752.01	37.540
752.32	44.118
752.63	40.816
752.94	40.138
753.26	41.636
753.57	40.000
753.88	39.700
754.19	42.122
754.51	38.585
754.82	43.408
755.13	44.262
755.44	46.758
755.75	39.474
756.07	41.493
756.38	39.308
756.69	40.964
757.00	34.903
757.31	42.077
757.63	39.130
757.94	39.671
758.25	39.503
758.56	40.305
758.87	37.500
759.18	38.933
759.50	37.677
759.81	37.535
760.12	41.509
760.43	37.500
760.74	40.148
761.05	40.000
761.36	37.349
761.67	38.832
761.99	35.946
762.30	39.024
762.61	38.284
762.92	39.552
763.23	42.322
763.54	41.007
763.85	38.488
764.16	41.751
764.47	41.197
764.78	41.853
765.10	43.109
765.41	39.487
765.72	39.683
766.03	35.593
766.34	38.558
766.65	38.676
766.96	42.231
767.27	40.553
767.58	34.826
767.89	43.750
768.20	37.559
768.51	38.426
768.82	40.161
769.13	39.015
769.44	33.462
769.75	38.989
770.06	36.923
770.37	39.764
770.68	40.851
770.99	31.579
771.30	39.630
771.61	39.163
771.92	39.630
772.23	38.462
772.54	37.963
772.85	44.240
773.16	42.857
773.47	44.444
773.78	37.838
774.09	47.727
774.39	42.500
774.70	43.169
775.01	40.854
775.32	37.059
775.63	34.969
775.94	29.936
776.25	39.355
776.56	44.872
776.87	43.537
777.18	41.379
777.48	38.462
777.79	35.135
778.10	38.971
778.41	37.500
778.72	44.138
779.03	42.593
779.34	38.788
779.65	36.788
779.95	41.111
780.26	33.523
780.57	41.935
780.88	44.203
781.19	46.452
781.50	45.294
781.80	43.548
782.11	39.153
782.42	34.343
782.73	35.329
783.04	41.899
783.34	35.758
783.65	33.987
783.96	32.298
784.27	37.500
784.57	39.735
784.88	30.000
785.19	37.008
785.50	39.370
785.81	35.338
786.11	42.308
786.42	28.058
786.73	25.180
787.04	34.586
787.34	40.984
787.65	37.600
787.96	40.299
788.26	37.762
788.57	45.455
788.88	40.132
789.19	38.562
789.49	38.356
789.80	31.206
790.11	36.220
790.41	32.812
790.72	34.746
791.03	33.981
791.33	40.000
791.64	34.211
791.95	42.857
792.25	31.429
792.56	34.821
792.87	20.833
793.17	39.286
793.48	33.333
793.79	24.096
794.09	31.193
794.40	30.275
794.70	42.177
795.01	34.416
795.32	34.932
795.62	34.507
795.93	38.636
796.23	34.426
796.54	25.893
796.85	34.043
797.15	18.478
797.46	35.616
797.76	36.250
798.07	33.696
798.37	26.804
798.68	32.468
798.99	28.736
799.29	29.213
799.60	22.340
799.90	33.735
800.21	43.077
800.51	26.866
800.82	30.882
801.12	20.548
801.43	16.176
801.73	20.339
802.04	31.818
802.34	20.000
802.65	25.424
802.95	26.866
803.26	27.119
803.56	28.767
803.87	37.143
804.17	38.356
804.48	43.860
804.78	38.889
805.09	12.069
805.39	28.378
805.70	21.127
806.00	28.049
806.30	22.892
806.61	24.658
806.91	35.577
807.22	35.556
807.52	14.943
807.83	43.056
808.13	44.578
808.43	32.584
808.74	21.250
809.04	27.941
809.35	25.333
809.65	25.714
809.95	26.027
810.26	22.807
810.56	29.310
810.86	26.471
811.17	19.298
811.47	22.951
811.77	-4.444
812.08	28.814
812.38	13.333
812.69	15.517
812.99	9.434
813.29	12.821
813.59	44.000
813.90	12.281
814.20	32.727
814.50	33.803
814.81	24.359
815.11	14.754
815.41	25.373
815.72	46.552
816.02	16.071
816.32	40.000
816.62	25.000
816.93	26.667
817.23	48.148
817.53	10.638
817.84	57.143
818.14	50.000
818.44	26.531
818.74	20.000
819.04	30.769
819.35	11.429
819.65	11.538
819.95	30.189
820.25	28.889
820.56	-4.762
820.86	3.125
821.16	30.769
821.46	18.605
821.76	22.000
822.07	12.500
822.37	-4.348
822.67	27.660
822.97	-8.108
823.27	20.000
823.57	26.531
823.88	42.222
824.18	30.000
824.48	43.333
824.78	-12.000
825.08	36.364
825.38	26.667
825.69	31.915
825.99	13.889
826.29	-8.571
826.59	17.949
826.89	2.326
827.19	12.000
827.49	23.529
827.79	27.083
828.09	-10.811
828.39	26.667
828.70	4.878
829.00	34.884
829.30	-17.857
829.60	26.471
829.90	17.391
830.20	14.286
830.50	-6.897
830.80	33.333
831.10	7.692
831.40	2.941
831.70	23.810
832.00	54.839
832.30	-123.529
832.60	-29.167
832.90	-100.000
833.20	15.789
833.50	-5.000
833.80	10.526
834.10	-9.524
834.40	30.556
834.70	18.750
835.00	-25.714
835.30	8.824
835.60	-33.333
835.90	-20.000
836.20	-68.182
836.50	-4.000
836.80	-15.152
837.10	7.407
837.40	11.111
837.70	-12.500
838.00	14.286
838.30	17.391
838.60	31.034
838.90	-21.429
839.19	-47.826
839.49	-58.333
839.79	-17.391
840.09	37.500
840.39	-45.000
840.69	-12.903
840.99	0.000
841.29	6.667
841.59	15.789
841.88	43.590
842.18	-15.385
842.48	-70.000
842.78	-10.000
843.08	3.333
843.38	19.355
843.68	-50.000
843.97	-2.941
844.27	56.250
844.57	0.000
844.87	-120.000
845.17	-93.333
845.47	42.857
845.76	-9.524
846.06	22.222
846.36	-41.176
846.66	19.231
846.96	-20.000
847.25	-23.529
847.55	26.087
847.85	-10.000
848.15	-11.765
848.44	-36.364
848.74	19.048
849.04	-37.500
849.34	0.000
849.63	0.000
849.93	500.000
850.23	6.667
850.53	38.462
850.82	18.182
851.12	0.000
851.42	-9.091
851.71	-7.692
852.01	-85.000
852.31	-23.077
852.61	47.368
852.90	-16.667
853.20	38.889
853.50	-111.111
853.79	-47.619
854.09	-36.364
854.39	-66.667
854.68	9.677
854.98	19.231
855.28	0.000
855.57	3.571
855.87	12.000
856.17	0.000
856.46	18.519
856.76	-22.222
857.05	-34.783
857.35	-8.333
857.65	-92.308
857.94	0.000
858.24	29.630
858.53	-26.087
858.83	-11.765
859.13	0.000
859.42	5.882
859.72	42.857
860.01	-25.000
860.31	-11.111
860.60	-30.000
860.90	-53.333
861.20	-16.667
861.49	7.692
861.79	-13.333
862.08	-15.385
862.38	21.875
862.67	-11.765
862.97	-18.750
863.26	-33.333
863.56	-30.000
863.85	-63.636
864.15	-16.667
864.44	0.000
864.74	-14.286
865.03	-68.750
865.33	-40.000
865.62	-38.710
865.92	-18.182
866.21	-26.087
866.51	-35.714
866.80	-280.000
867.10	-125.000
867.39	-75.000
867.69	1800.000
867.98	-71.429
868.27	-23.529
868.57	-1200.000
868.86	-230.000
869.16	-33.333
869.45	12.500
869.75	100.000
870.04	-28.571
870.33	-50.000
870.63	-142.857
870.92	0.000
871.22	-137.500
871.51	-100.000
871.80	-566.667
872.10	-650.000
>>>>>End Processed Spectral Data<<<<<
