SpectraSuite Data File
++++++++++++++++++++++++++++++++++++
Date: Wed May 13 20:48:17 PDT 2015
User: schluterlab
Dark Spectrum Present: Yes
Reference Spectrum Present: Yes
Number of Sampled Component Spectra: 1
Spectrometers: USB2E3373
Integration Time (usec): 3000 (USB2E3373)
Spectra Averaged: 3 (USB2E3373)
Boxcar Smoothing: 0 (USB2E3373)
Correct for Electrical Dark: No (USB2E3373)
Strobe/Lamp Enabled: No (USB2E3373)
Correct for Detector Non-linearity: No (USB2E3373)
Correct for Stray Light: No (USB2E3373)
Number of Pixels in Processed Spectrum: 2048
>>>>>Begin Processed Spectral Data<<<<<
178.53	0.000
178.91	-725.000
179.29	-600.000
179.67	-111.111
180.04	-900.000
180.42	1200.000
180.80	520.000
181.18	-625.000
181.56	342.857
181.94	0.000
182.31	-414.286
182.69	933.333
183.07	-337.500
183.45	-166.667
183.83	336.364
184.20	-250.000
184.58	1550.000
184.96	3300.000
185.34	-420.000
185.72	-325.000
186.09	-1800.000
186.47	1750.000
186.85	1400.000
187.23	2300.000
187.61	-1133.333
187.98	1000.000
188.36	300.000
188.74	318.182
189.12	-580.000
189.49	320.000
189.87	-2700.000
190.25	-750.000
190.63	300.000
191.00	253.846
191.38	533.333
191.76	-450.000
192.14	925.000
192.51	312.500
192.89	600.000
193.27	287.500
193.65	-425.000
194.02	220.000
194.40	440.000
194.78	350.000
195.15	341.667
195.53	390.000
195.91	-850.000
196.29	212.500
196.66	200.000
197.04	-180.000
197.42	0.000
197.79	410.000
198.17	-1500.000
198.55	314.286
198.92	275.000
199.30	340.000
199.68	0.000
200.05	233.333
200.43	385.714
200.81	1900.000
201.18	800.000
201.56	-733.333
201.94	277.778
202.31	322.222
202.69	258.333
203.07	280.000
203.44	0.000
203.82	825.000
204.19	457.143
204.57	250.000
204.95	287.500
205.32	733.333
205.70	336.364
206.08	207.143
206.45	1350.000
206.83	156.250
207.20	450.000
207.58	400.000
207.96	194.444
208.33	400.000
208.71	-416.667
209.08	471.429
209.46	333.333
209.84	200.000
210.21	-600.000
210.59	925.000
210.96	-225.000
211.34	1350.000
211.71	460.000
212.09	333.333
212.46	0.000
212.84	1200.000
213.22	625.000
213.59	-2900.000
213.97	533.333
214.34	542.857
214.72	363.636
215.09	700.000
215.47	-1100.000
215.84	-1200.000
216.22	1000.000
216.59	250.000
216.97	575.000
217.34	272.727
217.72	-283.333
218.09	0.000
218.47	-2200.000
218.84	377.778
219.22	385.714
219.59	866.667
219.97	-371.429
220.34	480.000
220.72	-933.333
221.09	257.143
221.47	1025.000
221.84	-433.333
222.22	0.000
222.59	775.000
222.97	-1200.000
223.34	720.000
223.72	261.538
224.09	540.000
224.46	950.000
224.84	-2600.000
225.21	-620.000
225.59	-3100.000
225.96	360.000
226.34	205.000
226.71	1450.000
227.08	400.000
227.46	400.000
227.83	-375.000
228.21	-1050.000
228.58	366.667
228.95	-1250.000
229.33	-1350.000
229.70	966.667
230.08	442.857
230.45	-440.000
230.82	225.000
231.20	383.333
231.57	200.000
231.95	241.667
232.32	145.455
232.69	263.636
233.07	371.429
233.44	130.769
233.81	-1100.000
234.19	157.895
234.56	208.333
234.93	150.000
235.31	200.000
235.68	238.462
236.05	242.857
236.43	100.000
236.80	152.632
237.17	2600.000
237.55	100.000
237.92	53.571
238.29	80.952
238.67	61.290
239.04	131.034
239.41	91.667
239.79	56.522
240.16	90.476
240.53	72.727
240.91	58.824
241.28	48.000
241.65	50.000
242.02	28.986
242.40	40.323
242.77	46.667
243.14	46.237
243.51	46.067
243.89	41.176
244.26	45.556
244.63	38.710
245.00	32.979
245.38	19.802
245.75	31.776
246.12	31.193
246.49	36.496
246.87	35.200
247.24	34.615
247.61	27.857
247.98	31.373
248.36	18.243
248.73	22.293
249.10	34.395
249.47	28.249
249.84	29.412
250.22	25.134
250.59	20.118
250.96	27.778
251.33	20.853
251.70	22.772
252.08	19.048
252.45	21.973
252.82	20.000
253.19	22.553
253.56	23.922
253.94	22.822
254.31	23.437
254.68	23.462
255.05	25.830
255.42	16.260
255.79	22.059
256.16	21.661
256.54	21.908
256.91	21.352
257.28	16.547
257.65	18.152
258.02	20.186
258.39	16.088
258.76	15.385
259.14	18.750
259.51	17.021
259.88	16.149
260.25	19.637
260.62	14.451
260.99	17.391
261.36	20.721
261.73	17.765
262.10	18.314
262.47	16.901
262.85	18.384
263.22	14.815
263.59	19.088
263.96	15.934
264.33	18.016
264.70	18.421
265.07	16.624
265.44	20.960
265.81	15.572
266.18	18.090
266.55	15.122
266.92	17.199
267.29	17.593
267.66	13.761
268.03	17.500
268.40	14.252
268.77	13.604
269.14	13.739
269.51	16.704
269.88	13.986
270.25	14.673
270.62	13.258
270.99	17.204
271.36	15.665
271.73	13.084
272.10	15.435
272.47	15.699
272.84	18.615
273.21	17.191
273.58	12.664
273.95	14.675
274.32	15.083
274.69	15.203
275.06	13.780
275.43	13.617
275.80	14.830
276.17	14.053
276.54	15.800
276.91	12.451
277.28	16.406
277.65	14.507
278.02	14.907
278.39	18.359
278.76	14.909
279.13	11.698
279.50	14.898
279.87	16.335
280.23	14.371
280.60	13.346
280.97	15.896
281.34	16.637
281.71	14.727
282.08	15.355
282.45	11.273
282.82	14.387
283.19	12.656
283.56	15.263
283.92	15.398
284.29	13.757
284.66	14.519
285.03	12.658
285.40	13.556
285.77	15.488
286.14	12.781
286.51	13.000
286.87	14.188
287.24	15.472
287.61	13.483
287.98	13.961
288.35	13.312
288.72	14.486
289.08	13.615
289.45	12.521
289.82	13.821
290.19	11.460
290.56	13.323
290.93	11.934
291.29	12.883
291.66	11.062
292.03	13.953
292.40	14.097
292.77	11.391
293.13	11.791
293.50	13.120
293.87	12.148
294.24	11.852
294.60	11.936
294.97	12.064
295.34	12.694
295.71	10.795
296.08	11.396
296.44	10.179
296.81	10.568
297.18	12.873
297.55	9.499
297.91	10.026
298.28	12.584
298.65	12.402
299.02	11.331
299.38	11.155
299.75	9.299
300.12	9.579
300.48	12.625
300.85	11.591
301.22	11.083
301.59	10.732
301.95	9.950
302.32	9.756
302.69	10.514
303.05	9.091
303.42	9.753
303.79	10.306
304.15	9.441
304.52	8.343
304.89	10.337
305.25	9.165
305.62	10.532
305.99	10.153
306.35	9.955
306.72	10.538
307.09	8.990
307.45	10.473
307.82	8.594
308.19	11.038
308.55	9.493
308.92	9.023
309.29	8.870
309.65	9.650
310.02	10.359
310.38	10.108
310.75	8.448
311.12	9.724
311.48	9.300
311.85	10.482
312.22	9.990
312.58	8.732
312.95	9.293
313.31	9.903
313.68	8.836
314.05	10.552
314.41	10.151
314.78	9.366
315.14	9.434
315.51	9.166
315.87	9.901
316.24	8.838
316.61	9.162
316.97	8.611
317.34	9.491
317.70	10.421
318.07	8.951
318.43	9.295
318.80	9.747
319.16	9.040
319.53	8.724
319.89	9.810
320.26	9.100
320.62	9.425
320.99	9.697
321.35	9.293
321.72	10.678
322.08	10.661
322.45	11.343
322.81	11.240
323.18	10.501
323.54	10.111
323.91	10.849
324.27	10.229
324.64	9.599
325.00	8.476
325.37	10.373
325.73	10.862
326.10	9.444
326.46	9.588
326.83	10.699
327.19	9.735
327.56	9.843
327.92	10.061
328.29	10.559
328.65	9.853
329.01	9.567
329.38	9.621
329.74	8.957
330.11	8.483
330.47	10.193
330.84	11.121
331.20	9.836
331.56	10.000
331.93	9.907
332.29	11.003
332.66	10.354
333.02	10.878
333.38	10.840
333.75	10.517
334.11	11.210
334.48	9.849
334.84	10.570
335.20	9.455
335.57	9.157
335.93	9.821
336.29	9.249
336.66	9.468
337.02	8.597
337.38	10.463
337.75	9.269
338.11	8.863
338.47	9.761
338.84	10.082
339.20	8.624
339.56	10.401
339.93	10.182
340.29	9.420
340.65	9.091
341.02	10.384
341.38	10.854
341.74	10.789
342.11	9.694
342.47	10.132
342.83	10.274
343.20	10.130
343.56	8.593
343.92	8.860
344.28	8.503
344.65	10.576
345.01	9.512
345.37	8.748
345.73	9.645
346.10	9.122
346.46	9.237
346.82	9.226
347.19	8.772
347.55	9.360
347.91	9.790
348.27	10.353
348.63	9.950
349.00	9.385
349.36	8.949
349.72	9.222
350.08	8.590
350.45	9.520
350.81	8.692
351.17	9.238
351.53	9.419
351.89	8.993
352.26	9.787
352.62	9.864
352.98	8.833
353.34	9.532
353.70	8.183
354.07	9.194
354.43	7.698
354.79	9.413
355.15	9.178
355.51	9.992
355.87	9.143
356.24	8.713
356.60	8.581
356.96	9.493
357.32	8.667
357.68	9.685
358.04	8.789
358.40	9.580
358.77	9.233
359.13	8.366
359.49	8.549
359.85	7.857
360.21	7.974
360.57	9.105
360.93	8.846
361.29	9.373
361.66	8.437
362.02	9.104
362.38	8.897
362.74	8.333
363.10	8.734
363.46	8.364
363.82	8.617
364.18	8.297
364.54	8.395
364.90	8.569
365.26	8.309
365.62	8.766
365.98	7.889
366.35	7.951
366.71	8.966
367.07	8.303
367.43	8.563
367.79	8.351
368.15	9.842
368.51	7.849
368.87	8.066
369.23	8.193
369.59	8.255
369.95	8.162
370.31	8.761
370.67	8.333
371.03	8.689
371.39	9.111
371.75	8.015
372.11	8.535
372.47	9.091
372.83	8.213
373.19	8.020
373.55	7.982
373.91	8.910
374.27	7.698
374.63	7.782
374.99	9.110
375.35	7.816
375.71	8.293
376.07	8.230
376.42	8.735
376.78	8.217
377.14	7.938
377.50	8.411
377.86	7.713
378.22	8.786
378.58	7.393
378.94	7.857
379.30	7.252
379.66	8.058
380.02	7.801
380.38	7.954
380.74	8.103
381.09	8.252
381.45	8.359
381.81	7.985
382.17	7.962
382.53	7.296
382.89	8.704
383.25	7.317
383.61	7.869
383.97	8.505
384.32	7.548
384.68	7.063
385.04	8.236
385.40	7.430
385.76	7.494
386.12	7.448
386.48	8.307
386.83	8.018
387.19	8.782
387.55	7.792
387.91	7.316
388.27	8.032
388.62	8.359
388.98	7.432
389.34	8.636
389.70	7.909
390.06	8.935
390.42	7.523
390.77	7.697
391.13	8.168
391.49	8.249
391.85	7.511
392.20	7.129
392.56	7.386
392.92	7.475
393.28	6.805
393.64	7.614
393.99	8.369
394.35	7.816
394.71	7.465
395.07	7.227
395.42	7.293
395.78	7.761
396.14	8.194
396.50	7.895
396.85	7.629
397.21	7.522
397.57	7.564
397.92	7.752
398.28	7.399
398.64	7.945
399.00	8.058
399.35	7.445
399.71	7.986
400.07	7.983
400.42	7.975
400.78	8.926
401.14	7.317
401.49	7.642
401.85	8.046
402.21	7.665
402.57	7.156
402.92	7.755
403.28	7.308
403.63	8.230
403.99	7.325
404.35	7.636
404.70	7.254
405.06	7.280
405.42	7.174
405.77	7.829
406.13	7.506
406.49	7.510
406.84	7.265
407.20	7.210
407.55	7.275
407.91	7.267
408.27	6.892
408.62	7.887
408.98	7.475
409.34	7.503
409.69	8.000
410.05	7.373
410.40	7.034
410.76	7.467
411.11	8.203
411.47	8.179
411.83	7.575
412.18	7.297
412.54	7.534
412.89	8.072
413.25	7.674
413.60	8.153
413.96	7.225
414.31	7.898
414.67	7.541
415.03	7.086
415.38	8.376
415.74	7.974
416.09	7.250
416.45	7.764
416.80	8.394
417.16	8.177
417.51	8.228
417.87	6.230
418.22	7.571
418.58	8.328
418.93	8.108
419.29	7.511
419.64	8.438
420.00	7.866
420.35	7.826
420.71	8.010
421.06	7.697
421.42	7.602
421.77	7.175
422.12	7.692
422.48	7.070
422.83	7.921
423.19	7.790
423.54	7.661
423.90	6.957
424.25	7.705
424.61	7.619
424.96	8.105
425.31	7.752
425.67	7.079
426.02	7.257
426.38	7.937
426.73	7.607
427.09	7.538
427.44	7.303
427.79	7.591
428.15	8.393
428.50	8.309
428.85	8.284
429.21	7.344
429.56	6.843
429.92	7.801
430.27	6.902
430.62	7.117
430.98	8.251
431.33	7.680
431.68	7.487
432.04	8.466
432.39	7.767
432.74	7.481
433.10	7.018
433.45	7.522
433.80	7.095
434.16	7.746
434.51	7.158
434.86	7.640
435.22	7.838
435.57	6.991
435.92	6.963
436.28	7.948
436.63	8.333
436.98	7.155
437.34	7.990
437.69	7.760
438.04	7.870
438.39	7.164
438.75	8.019
439.10	7.207
439.45	7.320
439.81	7.976
440.16	7.905
440.51	7.440
440.86	7.991
441.22	7.731
441.57	7.378
441.92	8.240
442.27	7.320
442.63	7.109
442.98	7.775
443.33	8.478
443.68	7.641
444.03	7.857
444.39	7.108
444.74	7.630
445.09	7.278
445.44	7.764
445.79	7.669
446.15	8.047
446.50	7.916
446.85	7.400
447.20	7.241
447.55	7.649
447.91	7.557
448.26	7.346
448.61	7.518
448.96	7.530
449.31	7.874
449.66	7.316
450.02	7.409
450.37	6.973
450.72	7.501
451.07	7.800
451.42	7.781
451.77	8.925
452.12	7.621
452.47	6.841
452.83	7.168
453.18	8.007
453.53	7.730
453.88	7.561
454.23	8.189
454.58	9.025
454.93	8.264
455.28	6.546
455.63	8.131
455.98	8.631
456.34	7.601
456.69	7.827
457.04	7.926
457.39	7.773
457.74	7.893
458.09	8.108
458.44	7.868
458.79	7.430
459.14	7.731
459.49	8.290
459.84	7.479
460.19	7.366
460.54	8.044
460.89	7.899
461.24	7.893
461.59	8.832
461.94	7.398
462.29	8.190
462.64	7.658
462.99	7.742
463.34	8.733
463.69	7.692
464.04	8.000
464.39	8.000
464.74	8.437
465.09	7.298
465.44	7.091
465.79	7.271
466.14	7.937
466.49	7.119
466.84	8.465
467.19	8.449
467.54	8.062
467.89	8.343
468.24	8.086
468.59	7.998
468.94	8.552
469.29	8.162
469.64	8.434
469.99	8.322
470.34	7.530
470.68	8.477
471.03	7.755
471.38	8.200
471.73	7.928
472.08	8.355
472.43	8.354
472.78	7.702
473.13	8.793
473.48	7.865
473.83	8.354
474.17	7.654
474.52	8.499
474.87	7.998
475.22	8.416
475.57	7.792
475.92	8.285
476.27	7.666
476.61	7.832
476.96	7.037
477.31	7.588
477.66	8.042
478.01	7.998
478.36	7.615
478.70	7.736
479.05	8.040
479.40	7.318
479.75	7.728
480.10	6.759
480.45	7.901
480.79	6.928
481.14	7.339
481.49	8.021
481.84	7.407
482.19	7.224
482.53	7.890
482.88	8.190
483.23	7.897
483.58	7.962
483.92	7.310
484.27	6.754
484.62	7.155
484.97	7.371
485.31	7.397
485.66	6.465
486.01	6.098
486.36	6.155
486.70	6.460
487.05	6.788
487.40	6.767
487.75	7.010
488.09	7.067
488.44	7.138
488.79	7.559
489.13	7.028
489.48	7.382
489.83	7.035
490.17	7.847
490.52	7.617
490.87	7.372
491.22	7.367
491.56	7.244
491.91	7.445
492.26	7.717
492.60	7.788
492.95	7.343
493.30	7.944
493.64	7.373
493.99	7.846
494.34	7.863
494.68	8.104
495.03	8.036
495.37	7.911
495.72	7.359
496.07	7.981
496.41	7.212
496.76	8.135
497.11	7.699
497.45	7.592
497.80	8.157
498.14	7.246
498.49	8.098
498.84	8.198
499.18	7.810
499.53	7.123
499.87	7.316
500.22	7.678
500.56	8.350
500.91	7.740
501.26	7.681
501.60	8.353
501.95	7.929
502.29	7.685
502.64	7.682
502.98	7.527
503.33	7.587
503.67	8.121
504.02	8.232
504.36	8.236
504.71	8.158
505.06	7.807
505.40	7.730
505.75	7.859
506.09	7.629
506.44	8.140
506.78	7.891
507.13	7.673
507.47	8.131
507.82	8.865
508.16	8.308
508.51	8.524
508.85	7.944
509.19	8.112
509.54	8.061
509.88	8.089
510.23	7.918
510.57	8.617
510.92	8.234
511.26	8.016
511.61	8.506
511.95	7.359
512.30	8.006
512.64	8.383
512.98	8.146
513.33	8.030
513.67	7.257
514.02	7.684
514.36	8.301
514.70	8.080
515.05	8.199
515.39	8.469
515.74	8.502
516.08	8.273
516.42	9.101
516.77	8.919
517.11	8.213
517.46	8.409
517.80	8.827
518.14	7.296
518.49	8.693
518.83	8.466
519.17	8.661
519.52	8.432
519.86	8.785
520.20	9.191
520.55	8.797
520.89	8.637
521.23	9.168
521.58	8.824
521.92	8.696
522.26	8.237
522.61	9.221
522.95	9.085
523.29	8.764
523.64	8.841
523.98	9.057
524.32	8.504
524.66	8.839
525.01	8.762
525.35	8.736
525.69	8.621
526.04	8.785
526.38	8.237
526.72	8.589
527.06	8.977
527.41	8.354
527.75	7.910
528.09	9.184
528.43	8.987
528.78	8.728
529.12	8.788
529.46	9.675
529.80	8.663
530.15	8.910
530.49	8.431
530.83	9.241
531.17	8.812
531.51	9.663
531.86	8.387
532.20	9.126
532.54	9.673
532.88	8.858
533.22	8.120
533.57	9.321
533.91	8.970
534.25	9.356
534.59	9.213
534.93	8.685
535.27	9.053
535.62	9.219
535.96	8.977
536.30	8.074
536.64	8.950
536.98	9.091
537.32	8.690
537.66	8.600
538.01	9.282
538.35	9.179
538.69	9.445
539.03	9.292
539.37	8.882
539.71	7.453
540.05	8.954
540.39	8.837
540.73	9.961
541.07	8.825
541.42	9.328
541.76	9.097
542.10	9.314
542.44	9.139
542.78	9.750
543.12	8.765
543.46	9.049
543.80	8.718
544.14	7.959
544.48	8.952
544.82	8.467
545.16	8.718
545.50	8.612
545.84	9.005
546.18	8.822
546.52	9.566
546.86	9.485
547.20	9.575
547.54	9.419
547.88	9.184
548.22	9.029
548.56	9.119
548.90	8.835
549.24	8.485
549.58	9.482
549.92	10.234
550.26	8.381
550.60	8.230
550.94	9.085
551.28	8.047
551.62	9.418
551.96	8.632
552.30	9.898
552.64	9.398
552.98	9.288
553.32	9.777
553.66	9.680
554.00	10.021
554.34	9.110
554.68	10.086
555.02	9.097
555.36	9.255
555.69	8.593
556.03	9.354
556.37	9.004
556.71	8.799
557.05	9.104
557.39	8.537
557.73	9.527
558.07	8.267
558.41	9.841
558.75	9.552
559.08	9.694
559.42	8.995
559.76	9.632
560.10	8.994
560.44	8.875
560.78	8.250
561.12	8.641
561.45	8.540
561.79	8.899
562.13	9.390
562.47	9.358
562.81	8.717
563.15	8.696
563.48	9.682
563.82	9.263
564.16	8.829
564.50	8.138
564.84	9.039
565.17	8.945
565.51	8.371
565.85	9.327
566.19	9.205
566.52	9.183
566.86	8.800
567.20	9.139
567.54	8.333
567.88	7.550
568.21	9.101
568.55	8.544
568.89	8.609
569.23	8.155
569.56	7.976
569.90	7.811
570.24	7.463
570.57	7.514
570.91	7.078
571.25	7.597
571.59	7.305
571.92	7.229
572.26	7.655
572.60	7.868
572.93	7.256
573.27	7.335
573.61	7.286
573.95	7.364
574.28	6.884
574.62	6.706
574.96	7.073
575.29	7.153
575.63	7.368
575.97	7.160
576.30	7.594
576.64	7.177
576.98	6.733
577.31	6.955
577.65	6.992
577.98	6.534
578.32	6.652
578.66	6.771
578.99	7.396
579.33	6.705
579.67	7.103
580.00	6.689
580.34	6.834
580.67	6.901
581.01	7.218
581.35	6.934
581.68	6.825
582.02	6.612
582.35	6.655
582.69	6.955
583.02	6.759
583.36	7.448
583.70	7.243
584.03	7.262
584.37	7.194
584.70	7.079
585.04	7.363
585.37	7.153
585.71	7.237
586.04	7.151
586.38	7.341
586.72	7.429
587.05	7.090
587.39	6.781
587.72	7.189
588.06	7.150
588.39	7.298
588.73	7.128
589.06	7.354
589.40	7.710
589.73	7.709
590.07	7.260
590.40	7.380
590.73	8.470
591.07	7.733
591.40	7.339
591.74	8.398
592.07	8.115
592.41	7.772
592.74	7.566
593.08	7.462
593.41	7.529
593.75	7.245
594.08	7.610
594.41	7.918
594.75	7.800
595.08	7.588
595.42	7.811
595.75	7.336
596.09	7.811
596.42	8.330
596.75	8.274
597.09	8.139
597.42	6.830
597.75	7.719
598.09	7.565
598.42	8.204
598.76	7.256
599.09	7.184
599.42	7.496
599.76	7.284
600.09	7.213
600.42	7.524
600.76	7.643
601.09	7.322
601.42	7.534
601.76	7.438
602.09	7.273
602.42	7.842
602.76	7.981
603.09	7.435
603.42	7.770
603.76	7.355
604.09	7.561
604.42	7.338
604.76	8.351
605.09	8.082
605.42	7.824
605.75	8.154
606.09	7.401
606.42	7.642
606.75	7.922
607.09	7.576
607.42	7.788
607.75	6.582
608.08	7.642
608.42	8.203
608.75	7.484
609.08	7.863
609.41	7.949
609.75	8.480
610.08	8.435
610.41	7.263
610.74	7.758
611.07	7.658
611.41	7.605
611.74	8.095
612.07	8.282
612.40	8.342
612.73	8.579
613.07	8.944
613.40	8.583
613.73	7.866
614.06	8.118
614.39	8.443
614.72	8.632
615.06	8.981
615.39	8.599
615.72	8.282
616.05	8.187
616.38	8.060
616.71	8.670
617.05	8.539
617.38	8.599
617.71	7.688
618.04	8.594
618.37	8.870
618.70	8.525
619.03	8.947
619.36	9.437
619.69	8.944
620.03	9.135
620.36	9.693
620.69	10.000
621.02	9.071
621.35	8.927
621.68	8.333
622.01	8.978
622.34	9.607
622.67	8.745
623.00	7.924
623.33	8.649
623.66	8.792
623.99	8.689
624.32	8.203
624.65	8.686
624.99	8.144
625.32	8.617
625.65	9.091
625.98	9.685
626.31	10.187
626.64	9.143
626.97	9.809
627.30	8.728
627.63	10.008
627.96	10.261
628.29	9.886
628.62	9.881
628.95	11.038
629.28	10.128
629.61	9.899
629.94	10.286
630.26	8.770
630.59	9.342
630.92	8.333
631.25	9.378
631.58	9.910
631.91	9.128
632.24	8.966
632.57	11.228
632.90	11.075
633.23	10.515
633.56	9.492
633.89	10.419
634.22	11.578
634.55	11.361
634.88	9.341
635.20	12.425
635.53	11.205
635.86	10.025
636.19	10.706
636.52	11.188
636.85	10.195
637.18	10.138
637.51	11.820
637.83	9.248
638.16	11.381
638.49	11.713
638.82	12.389
639.15	11.750
639.48	12.718
639.81	11.528
640.13	11.068
640.46	11.678
640.79	10.568
641.12	9.766
641.45	12.570
641.77	10.604
642.10	10.380
642.43	9.910
642.76	10.526
643.09	11.656
643.41	11.229
643.74	11.265
644.07	12.652
644.40	13.957
644.73	12.598
645.05	13.154
645.38	10.742
645.71	12.077
646.04	11.628
646.36	14.691
646.69	12.709
647.02	11.735
647.35	12.715
647.67	11.858
648.00	12.195
648.33	10.891
648.66	12.576
648.98	12.444
649.31	11.061
649.64	11.510
649.96	11.326
650.29	11.058
650.62	11.650
650.94	13.290
651.27	13.682
651.60	12.479
651.92	12.300
652.25	10.586
652.58	11.526
652.90	13.428
653.23	10.786
653.56	10.551
653.88	10.301
654.21	12.796
654.54	9.901
654.86	12.773
655.19	9.730
655.52	7.472
655.84	5.622
656.17	7.031
656.49	9.444
656.82	9.769
657.15	7.675
657.47	5.932
657.80	4.572
658.13	4.602
658.45	6.934
658.78	7.028
659.10	7.320
659.43	7.114
659.75	7.414
660.08	8.228
660.41	8.845
660.73	10.038
661.06	11.783
661.38	12.364
661.71	13.077
662.03	14.201
662.36	10.934
662.68	12.048
663.01	13.333
663.33	12.951
663.66	13.025
663.98	11.879
664.31	12.395
664.63	12.955
664.96	11.469
665.28	14.139
665.61	12.476
665.93	10.865
666.26	10.751
666.58	13.180
666.91	15.856
667.23	13.258
667.56	11.231
667.88	14.316
668.21	15.139
668.53	15.401
668.86	12.987
669.18	14.286
669.50	14.565
669.83	16.340
670.15	14.667
670.48	13.290
670.80	13.147
671.13	13.588
671.45	13.617
671.77	10.998
672.10	12.939
672.42	12.544
672.75	11.774
673.07	11.620
673.39	11.935
673.72	12.305
674.04	13.922
674.37	12.233
674.69	11.452
675.01	12.343
675.34	16.427
675.66	14.947
675.98	14.868
676.31	13.025
676.63	15.499
676.95	15.514
677.28	13.084
677.60	12.527
677.92	15.612
678.25	13.552
678.57	11.753
678.89	11.222
679.22	13.163
679.54	12.595
679.86	15.046
680.18	10.912
680.51	12.057
680.83	11.922
681.15	12.075
681.48	15.879
681.80	12.959
682.12	12.069
682.44	10.058
682.77	12.831
683.09	15.665
683.41	14.856
683.73	13.687
684.06	13.430
684.38	13.112
684.70	13.178
685.02	14.447
685.34	13.736
685.67	11.364
685.99	10.481
686.31	10.922
686.63	10.777
686.96	10.536
687.28	11.372
687.60	11.957
687.92	11.883
688.24	13.118
688.56	12.450
688.89	14.315
689.21	13.755
689.53	12.526
689.85	13.525
690.17	12.422
690.49	14.862
690.82	13.785
691.14	14.955
691.46	12.236
691.78	13.052
692.10	12.397
692.42	13.373
692.74	13.071
693.06	12.340
693.39	12.731
693.71	11.572
694.03	15.579
694.35	13.420
694.67	14.874
694.99	15.366
695.31	12.745
695.63	15.072
695.95	13.203
696.27	12.944
696.59	15.544
696.91	16.321
697.23	9.624
697.56	14.072
697.88	9.816
698.20	11.250
698.52	12.688
698.84	11.804
699.16	12.442
699.48	13.539
699.80	12.802
700.12	16.364
700.44	16.180
700.76	16.575
701.08	12.931
701.40	14.525
701.72	16.327
702.04	17.614
702.36	11.048
702.68	17.280
703.00	15.512
703.32	14.894
703.64	14.477
703.96	10.864
704.28	13.953
704.60	17.302
704.91	15.134
705.23	13.783
705.55	15.615
705.87	21.595
706.19	14.841
706.51	16.199
706.83	14.242
707.15	16.527
707.47	14.394
707.79	14.988
708.11	14.155
708.43	12.381
708.74	11.735
709.06	17.403
709.38	14.173
709.70	13.372
710.02	17.211
710.34	12.424
710.66	20.299
710.98	17.330
711.29	17.442
711.61	17.699
711.93	9.615
712.25	16.399
712.57	16.912
712.89	13.495
713.20	16.413
713.52	16.776
713.84	16.139
714.16	14.329
714.48	15.805
714.80	15.502
715.11	16.138
715.43	13.353
715.75	15.362
716.07	12.141
716.39	15.047
716.70	17.276
717.02	15.827
717.34	14.134
717.66	17.910
717.97	17.530
718.29	18.519
718.61	14.599
718.93	19.118
719.24	13.841
719.56	19.322
719.88	18.644
720.20	18.581
720.51	18.467
720.83	17.472
721.15	12.687
721.46	17.376
721.78	17.921
722.10	13.585
722.42	16.541
722.73	14.981
723.05	14.344
723.37	18.623
723.68	19.691
724.00	16.667
724.32	18.548
724.63	18.293
724.95	17.155
725.27	17.004
725.58	19.531
725.90	16.423
726.22	16.226
726.53	15.972
726.85	19.113
727.16	14.947
727.48	13.830
727.80	19.697
728.11	18.116
728.43	19.231
728.74	15.771
729.06	17.518
729.38	18.015
729.69	19.217
730.01	15.017
730.32	15.625
730.64	16.054
730.96	12.211
731.27	16.556
731.59	16.208
731.90	15.452
732.22	13.665
732.53	16.409
732.85	14.103
733.16	13.826
733.48	12.957
733.80	16.234
734.11	16.242
734.43	15.385
734.74	14.286
735.06	10.602
735.37	17.919
735.69	11.465
736.00	18.954
736.32	16.511
736.63	15.655
736.95	15.974
737.26	10.544
737.58	14.194
737.89	16.054
738.21	16.382
738.52	15.714
738.83	17.358
739.15	16.923
739.46	16.423
739.78	17.014
740.09	16.923
740.41	20.000
740.72	15.679
741.04	17.778
741.35	17.500
741.66	26.222
741.98	14.151
742.29	24.402
742.61	19.828
742.92	19.457
743.23	15.812
743.55	22.000
743.86	17.105
744.18	18.584
744.49	22.010
744.80	24.413
745.12	23.636
745.43	18.943
745.74	22.523
746.06	21.560
746.37	23.318
746.68	15.837
747.00	22.685
747.31	18.095
747.62	13.717
747.94	16.740
748.25	16.596
748.56	22.467
748.88	16.337
749.19	24.000
749.50	20.000
749.82	15.854
750.13	13.469
750.44	16.058
750.75	16.842
751.07	20.900
751.38	15.331
751.69	15.162
752.01	14.286
752.32	15.523
752.63	19.504
752.94	16.393
753.26	17.600
753.57	15.854
753.88	19.531
754.19	16.786
754.51	18.750
754.82	13.718
755.13	15.472
755.44	18.421
755.75	15.693
756.07	13.121
756.38	12.044
756.69	17.114
757.00	14.072
757.31	15.727
757.63	13.743
757.94	11.260
758.25	14.216
758.56	12.840
758.87	10.215
759.18	12.424
759.50	13.480
759.81	12.773
760.12	11.563
760.43	13.467
760.74	13.043
761.05	11.864
761.36	13.904
761.67	13.636
761.99	11.801
762.30	13.889
762.61	15.267
762.92	16.406
763.23	15.126
763.54	18.000
763.85	13.281
764.16	18.462
764.47	21.673
764.78	13.781
765.10	11.392
765.41	15.929
765.72	14.371
766.03	15.987
766.34	16.667
766.65	14.468
766.96	17.094
767.27	18.782
767.58	19.271
767.89	24.737
768.20	28.161
768.51	19.797
768.82	16.514
769.13	11.789
769.44	15.789
769.75	17.597
770.06	10.550
770.37	21.719
770.68	19.444
770.99	16.444
771.30	15.164
771.61	17.040
771.92	13.934
772.23	23.950
772.54	17.436
772.85	23.560
773.16	18.085
773.47	24.457
773.78	22.335
774.09	18.452
774.39	23.392
774.70	19.753
775.01	18.841
775.32	30.065
775.63	30.921
775.94	26.619
776.25	33.858
776.56	32.090
776.87	31.967
777.18	27.344
777.48	35.115
777.79	38.636
778.10	31.852
778.41	28.571
778.72	24.818
779.03	26.846
779.34	24.832
779.65	16.216
779.95	19.632
780.26	28.105
780.57	24.138
780.88	31.250
781.19	23.308
781.50	39.865
781.80	22.642
782.11	22.599
782.42	18.354
782.73	23.313
783.04	23.649
783.34	24.648
783.65	25.342
783.96	26.866
784.27	24.476
784.57	25.899
784.88	12.963
785.19	31.746
785.50	33.962
785.81	29.851
786.11	28.689
786.42	33.333
786.73	25.664
787.04	24.528
787.34	34.821
787.65	37.000
787.96	26.126
788.26	36.364
788.57	39.831
788.88	28.099
789.19	35.417
789.49	29.545
789.80	29.771
790.11	38.095
790.41	31.683
790.72	34.940
791.03	32.609
791.33	39.535
791.64	43.299
791.95	30.693
792.25	32.222
792.56	53.247
792.87	46.154
793.17	55.696
793.48	43.678
793.79	35.632
794.09	35.227
794.40	33.613
794.70	32.353
795.01	27.407
795.32	28.058
795.62	24.409
795.93	32.759
796.23	38.938
796.54	36.471
796.85	31.081
797.15	49.296
797.46	42.424
797.76	36.145
798.07	46.835
798.37	38.462
798.68	48.485
798.99	19.718
799.29	44.156
799.60	37.500
799.90	38.356
800.21	50.746
800.51	36.207
800.82	43.860
801.12	54.098
801.43	60.606
801.73	35.135
802.04	44.444
802.34	48.148
802.65	64.063
802.95	66.102
803.26	62.500
803.56	31.429
803.87	50.769
804.17	60.294
804.48	57.407
804.78	46.552
805.09	45.588
805.39	50.000
805.70	58.929
806.00	55.738
806.30	34.848
806.61	41.463
806.91	32.911
807.22	34.211
807.52	31.343
807.83	43.662
808.13	54.688
808.43	43.333
808.74	40.789
809.04	56.522
809.35	65.672
809.65	42.105
809.95	77.419
810.26	59.322
810.56	47.619
810.86	59.091
811.17	88.095
811.47	70.000
811.77	48.148
812.08	41.818
812.38	74.000
812.69	91.667
812.99	79.545
813.29	65.306
813.59	28.571
813.90	73.469
814.20	52.727
814.50	40.000
814.81	61.765
815.11	48.980
815.41	57.377
815.72	59.524
816.02	63.636
816.32	71.429
816.62	57.500
816.93	70.732
817.23	71.429
817.53	47.727
817.84	84.848
818.14	86.957
818.44	60.000
818.74	82.353
819.04	67.500
819.35	68.571
819.65	102.941
819.95	100.000
820.25	70.000
820.56	76.923
820.86	47.727
821.16	88.372
821.46	56.410
821.76	68.000
822.07	77.143
822.37	70.000
822.67	78.788
822.97	43.137
823.27	107.143
823.57	78.378
823.88	67.500
824.18	106.667
824.48	73.810
824.78	100.000
825.08	108.333
825.38	89.189
825.69	65.854
825.99	112.500
826.29	86.207
826.59	84.211
826.89	78.947
827.19	97.059
827.49	116.129
827.79	65.909
828.09	56.818
828.39	51.064
828.70	75.510
829.00	74.074
829.30	83.871
829.60	75.000
829.90	126.667
830.20	114.286
830.50	95.652
830.80	69.565
831.10	103.333
831.40	83.333
831.70	47.826
832.00	138.462
832.30	88.889
832.60	181.250
832.90	100.000
833.20	214.286
833.50	87.097
833.80	103.448
834.10	115.625
834.40	111.538
834.70	172.222
835.00	195.238
835.30	105.714
835.60	153.846
835.90	103.448
836.20	78.571
836.50	110.345
836.80	88.000
837.10	105.556
837.40	133.333
837.70	135.294
838.00	107.407
838.30	128.571
838.60	119.048
838.90	134.615
839.19	150.000
839.49	214.286
839.79	190.000
840.09	155.000
840.39	128.571
840.69	139.130
840.99	183.333
841.29	200.000
841.59	116.667
841.88	168.750
842.18	72.414
842.48	152.381
842.78	160.000
843.08	78.261
843.38	115.625
843.68	466.667
843.97	146.154
844.27	110.345
844.57	214.286
844.87	193.750
845.17	107.407
845.47	700.000
845.76	155.556
846.06	129.412
846.36	87.500
846.66	214.286
846.96	93.750
847.25	172.727
847.55	100.000
847.85	126.087
848.15	350.000
848.44	185.714
848.74	72.222
849.04	205.882
849.34	240.000
849.63	73.684
849.93	200.000
850.23	520.000
850.53	250.000
850.82	850.000
851.12	-1000.000
851.42	1800.000
851.71	150.000
852.01	-733.333
852.31	108.333
852.61	966.667
852.90	142.857
853.20	112.000
853.50	188.235
853.79	166.667
854.09	87.500
854.39	200.000
854.68	102.703
854.98	103.226
855.28	110.000
855.57	155.172
855.87	103.704
856.17	115.789
856.46	186.667
856.76	152.941
857.05	103.448
857.35	162.500
857.65	160.000
857.94	152.174
858.24	111.538
858.53	190.000
858.83	145.455
859.13	173.333
859.42	0.000
859.72	211.111
860.01	181.818
860.31	131.818
860.60	173.684
860.90	100.000
861.20	222.222
861.49	241.667
861.79	-2200.000
862.08	450.000
862.38	190.476
862.67	200.000
862.97	176.471
863.26	200.000
863.56	155.556
863.85	241.667
864.15	212.500
864.44	193.333
864.74	483.333
865.03	350.000
865.33	189.474
865.62	227.273
865.92	230.769
866.21	191.667
866.51	0.000
866.80	181.818
867.10	520.000
867.39	246.154
867.69	245.455
867.98	163.158
868.27	227.273
868.57	168.421
868.86	-2100.000
869.16	181.250
869.45	1150.000
869.75	-2300.000
870.04	200.000
870.33	271.429
870.63	500.000
870.92	1050.000
871.22	371.429
871.51	247.059
871.80	100.000
872.10	214.286
>>>>>End Processed Spectral Data<<<<<
