SpectraSuite Data File
++++++++++++++++++++++++++++++++++++
Date: Wed May 13 20:58:49 PDT 2015
User: schluterlab
Dark Spectrum Present: Yes
Reference Spectrum Present: Yes
Number of Sampled Component Spectra: 1
Spectrometers: USB2E3373
Integration Time (usec): 3000 (USB2E3373)
Spectra Averaged: 3 (USB2E3373)
Boxcar Smoothing: 0 (USB2E3373)
Correct for Electrical Dark: No (USB2E3373)
Strobe/Lamp Enabled: No (USB2E3373)
Correct for Detector Non-linearity: No (USB2E3373)
Correct for Stray Light: No (USB2E3373)
Number of Pixels in Processed Spectrum: 2048
>>>>>Begin Processed Spectral Data<<<<<
178.53	0.000
178.91	-300.000
179.29	116.667
179.67	-400.000
180.04	300.000
180.42	-40.000
180.80	1900.000
181.18	116.667
181.56	-125.000
181.94	50.000
182.31	109.091
182.69	15.385
183.07	220.000
183.45	100.000
183.83	-44.444
184.20	-42.857
184.58	533.333
184.96	333.333
185.34	57.143
185.72	0.000
186.09	500.000
186.47	-140.000
186.85	-0.000
187.23	600.000
187.61	-300.000
187.98	900.000
188.36	112.500
188.74	0.000
189.12	63.636
189.49	200.000
189.87	108.333
190.25	300.000
190.63	200.000
191.00	160.000
191.38	140.000
191.76	275.000
192.14	75.000
192.51	57.895
192.89	133.333
193.27	75.000
193.65	-20.000
194.02	36.364
194.40	130.000
194.78	300.000
195.15	100.000
195.53	-20.000
195.91	87.500
196.29	333.333
196.66	0.000
197.04	450.000
197.42	-40.000
197.79	70.000
198.17	50.000
198.55	200.000
198.92	-125.000
199.30	-433.333
199.68	80.000
200.05	-500.000
200.43	166.667
200.81	-500.000
201.18	-60.000
201.56	-16.667
201.94	525.000
202.31	73.913
202.69	57.143
203.07	0.000
203.44	40.000
203.82	-200.000
204.19	20.000
204.57	0.000
204.95	-16.667
205.32	0.000
205.70	300.000
206.08	-100.000
206.45	-133.333
206.83	225.000
207.20	100.000
207.58	100.000
207.96	-1100.000
208.33	-14.286
208.71	-400.000
209.08	137.500
209.46	75.000
209.84	0.000
210.21	20.000
210.59	1000.000
210.96	180.000
211.34	-100.000
211.71	-200.000
212.09	-100.000
212.46	10.000
212.84	166.667
213.22	375.000
213.59	300.000
213.97	400.000
214.34	-100.000
214.72	0.000
215.09	112.500
215.47	188.889
215.84	-0.000
216.22	37.500
216.59	-250.000
216.97	400.000
217.34	66.667
217.72	0.000
218.09	-133.333
218.47	1000.000
218.84	100.000
219.22	-125.000
219.59	166.667
219.97	100.000
220.34	-112.500
220.72	40.000
221.09	0.000
221.47	66.667
221.84	900.000
222.22	0.000
222.59	600.000
222.97	0.000
223.34	25.000
223.72	-400.000
224.09	100.000
224.46	18.182
224.84	-50.000
225.21	0.000
225.59	150.000
225.96	83.333
226.34	100.000
226.71	-57.143
227.08	-300.000
227.46	75.000
227.83	800.000
228.21	68.750
228.58	-75.000
228.95	35.294
229.33	6.250
229.70	37.500
230.08	76.923
230.45	-87.500
230.82	25.000
231.20	28.571
231.57	-75.000
231.95	500.000
232.32	66.667
232.69	5.882
233.07	300.000
233.44	13.043
233.81	100.000
234.19	37.500
234.56	53.333
234.93	100.000
235.31	94.737
235.68	15.385
236.05	46.154
236.43	83.333
236.80	33.333
237.17	53.333
237.55	58.824
237.92	13.793
238.29	33.333
238.67	19.444
239.04	-12.903
239.41	19.149
239.79	36.170
240.16	41.860
240.53	44.643
240.91	37.500
241.28	37.500
241.65	45.161
242.02	31.579
242.40	33.333
242.77	27.536
243.14	11.538
243.51	30.851
243.89	25.962
244.26	45.283
244.63	26.923
245.00	36.458
245.38	34.454
245.75	33.607
246.12	27.820
246.49	31.707
246.87	28.571
247.24	30.405
247.61	22.517
247.98	31.410
248.36	30.769
248.73	25.843
249.10	34.848
249.47	32.258
249.84	36.842
250.22	31.343
250.59	28.505
250.96	32.273
251.33	20.096
251.70	28.870
252.08	28.033
252.45	29.218
252.82	31.939
253.19	29.572
253.56	29.856
253.94	33.452
254.31	29.225
254.68	32.215
255.05	33.993
255.42	28.322
255.79	31.595
256.16	30.284
256.54	31.429
256.91	31.013
257.28	33.333
257.65	31.210
258.02	29.912
258.39	33.918
258.76	28.779
259.14	32.955
259.51	28.090
259.88	32.249
260.25	27.778
260.62	32.022
260.99	32.891
261.36	32.383
261.73	32.593
262.10	31.807
262.47	26.914
262.85	30.348
263.22	31.538
263.59	30.909
263.96	29.927
264.33	28.365
264.70	33.256
265.07	31.019
265.44	31.954
265.81	30.435
266.18	29.841
266.55	29.694
266.92	31.356
267.29	31.893
267.66	30.573
268.03	31.276
268.40	29.237
268.77	29.752
269.14	30.000
269.51	31.828
269.88	29.124
270.25	30.932
270.62	29.303
270.99	28.740
271.36	28.571
271.73	31.325
272.10	29.524
272.47	30.326
272.84	29.331
273.21	29.746
273.58	30.328
273.95	29.057
274.32	30.970
274.69	29.690
275.06	31.095
275.43	28.249
275.80	29.078
276.17	29.650
276.54	30.551
276.91	28.571
277.28	29.603
277.65	29.895
278.02	29.643
278.39	29.663
278.76	29.097
279.13	31.389
279.50	30.000
279.87	28.442
280.23	29.189
280.60	28.547
280.97	29.708
281.34	28.391
281.71	28.618
282.08	28.205
282.45	28.852
282.82	28.115
283.19	31.707
283.56	28.750
283.92	27.829
284.29	29.641
284.66	28.501
285.03	27.687
285.40	27.795
285.77	28.829
286.14	29.027
286.51	31.184
286.87	28.154
287.24	26.254
287.61	28.464
287.98	27.206
288.35	27.720
288.72	25.108
289.08	28.063
289.45	26.872
289.82	27.837
290.19	25.105
290.56	26.989
290.93	25.414
291.29	24.213
291.66	26.776
292.03	24.114
292.40	25.303
292.77	24.900
293.13	26.499
293.50	25.229
293.87	25.733
294.24	23.942
294.60	24.187
294.97	25.265
295.34	21.768
295.71	22.996
296.08	22.644
296.44	23.597
296.81	22.655
297.18	23.250
297.55	23.231
297.91	24.472
298.28	21.671
298.65	22.660
299.02	23.565
299.38	22.822
299.75	21.514
300.12	21.395
300.48	23.158
300.85	22.171
301.22	22.416
301.59	22.066
301.95	19.628
302.32	21.004
302.69	21.582
303.05	21.373
303.42	21.250
303.79	23.028
304.15	22.234
304.52	22.043
304.89	20.377
305.25	20.966
305.62	21.367
305.99	20.131
306.35	22.466
306.72	20.448
307.09	21.794
307.45	21.619
307.82	20.316
308.19	20.899
308.55	20.573
308.92	20.432
309.29	21.522
309.65	18.981
310.02	20.676
310.38	19.207
310.75	19.921
311.12	20.214
311.48	20.178
311.85	21.161
312.22	21.567
312.58	20.483
312.95	20.995
313.31	21.488
313.68	20.706
314.05	20.321
314.41	19.789
314.78	20.493
315.14	19.722
315.51	19.696
315.87	21.038
316.24	20.294
316.61	22.100
316.97	19.630
317.34	19.519
317.70	20.874
318.07	21.118
318.43	19.964
318.80	20.593
319.16	18.126
319.53	19.534
319.89	19.783
320.26	21.165
320.62	20.389
320.99	19.574
321.35	19.832
321.72	20.597
322.08	19.004
322.45	20.444
322.81	20.333
323.18	18.605
323.54	19.314
323.91	19.151
324.27	19.802
324.64	19.599
325.00	19.335
325.37	20.734
325.73	19.360
326.10	20.269
326.46	19.064
326.83	19.579
327.19	19.593
327.56	21.112
327.92	19.147
328.29	18.948
328.65	21.735
329.01	19.877
329.38	20.348
329.74	19.828
330.11	19.297
330.47	19.271
330.84	19.856
331.20	20.154
331.56	19.746
331.93	19.638
332.29	20.504
332.66	18.983
333.02	19.548
333.38	20.088
333.75	18.515
334.11	20.312
334.48	19.268
334.84	19.523
335.20	19.383
335.57	18.886
335.93	18.729
336.29	19.527
336.66	19.145
337.02	18.348
337.38	19.147
337.75	19.466
338.11	18.958
338.47	18.151
338.84	19.588
339.20	18.607
339.56	19.795
339.93	19.447
340.29	19.129
340.65	21.215
341.02	20.216
341.38	19.341
341.74	18.571
342.11	18.332
342.47	17.406
342.83	19.118
343.20	19.120
343.56	19.460
343.92	18.522
344.28	18.750
344.65	19.347
345.01	19.370
345.37	18.503
345.73	19.608
346.10	18.700
346.46	19.756
346.82	19.663
347.19	19.146
347.55	18.578
347.91	18.239
348.27	19.243
348.63	19.872
349.00	18.947
349.36	18.524
349.72	19.876
350.08	18.487
350.45	18.872
350.81	18.545
351.17	19.861
351.53	18.146
351.89	18.824
352.26	17.915
352.62	19.147
352.98	18.690
353.34	18.760
353.70	19.081
354.07	18.510
354.43	17.885
354.79	19.471
355.15	18.789
355.51	18.907
355.87	18.843
356.24	18.379
356.60	17.748
356.96	17.882
357.32	19.505
357.68	19.404
358.04	19.007
358.40	18.140
358.77	18.349
359.13	18.988
359.49	18.622
359.85	18.347
360.21	18.350
360.57	19.392
360.93	18.513
361.29	18.727
361.66	18.299
362.02	18.162
362.38	18.168
362.74	17.404
363.10	18.655
363.46	17.435
363.82	19.290
364.18	18.057
364.54	19.402
364.90	17.352
365.26	17.764
365.62	18.253
365.98	17.936
366.35	18.298
366.71	18.260
367.07	17.789
367.43	18.815
367.79	18.555
368.15	19.128
368.51	18.495
368.87	18.004
369.23	18.292
369.59	18.111
369.95	16.836
370.31	17.992
370.67	17.886
371.03	19.079
371.39	18.169
371.75	18.286
372.11	17.308
372.47	17.520
372.83	18.100
373.19	18.345
373.55	18.714
373.91	16.690
374.27	18.188
374.63	17.852
374.99	18.245
375.35	17.603
375.71	17.120
376.07	17.409
376.42	18.516
376.78	17.768
377.14	18.712
377.50	18.318
377.86	17.862
378.22	17.509
378.58	17.654
378.94	18.562
379.30	17.739
379.66	17.818
380.02	17.770
380.38	17.530
380.74	18.111
381.09	17.612
381.45	16.929
381.81	16.389
382.17	17.580
382.53	18.400
382.89	17.431
383.25	16.852
383.61	18.402
383.97	18.750
384.32	16.761
384.68	17.027
385.04	17.349
385.40	17.808
385.76	16.727
386.12	17.560
386.48	17.994
386.83	16.771
387.19	17.273
387.55	18.332
387.91	17.958
388.27	17.756
388.62	17.353
388.98	17.522
389.34	17.920
389.70	17.705
390.06	17.750
390.42	17.268
390.77	17.361
391.13	17.803
391.49	17.774
391.85	17.572
392.20	17.356
392.56	17.397
392.92	17.788
393.28	16.967
393.64	17.492
393.99	17.013
394.35	17.654
394.71	16.987
395.07	17.547
395.42	17.672
395.78	18.211
396.14	17.248
396.50	17.058
396.85	18.674
397.21	17.416
397.57	17.826
397.92	17.964
398.28	16.751
398.64	16.940
399.00	18.527
399.35	17.594
399.71	17.822
400.07	17.169
400.42	17.429
400.78	17.281
401.14	16.677
401.49	17.076
401.85	17.445
402.21	17.214
402.57	17.351
402.92	17.397
403.28	17.761
403.63	17.607
403.99	16.891
404.35	17.269
404.70	17.221
405.06	18.086
405.42	17.085
405.77	16.993
406.13	16.571
406.49	17.016
406.84	17.643
407.20	17.407
407.55	17.403
407.91	17.141
408.27	16.469
408.62	18.416
408.98	16.893
409.34	16.770
409.69	19.168
410.05	17.475
410.40	17.468
410.76	17.208
411.11	18.159
411.47	17.651
411.83	17.842
412.18	17.128
412.54	18.672
412.89	17.367
413.25	17.817
413.60	17.367
413.96	16.916
414.31	17.756
414.67	17.587
415.03	18.133
415.38	17.173
415.74	17.349
416.09	17.449
416.45	17.362
416.80	17.852
417.16	17.679
417.51	17.482
417.87	16.997
418.22	18.100
418.58	17.674
418.93	17.891
419.29	18.152
419.64	16.539
420.00	18.286
420.35	17.215
420.71	17.855
421.06	17.466
421.42	18.309
421.77	17.919
422.12	17.421
422.48	16.794
422.83	17.425
423.19	17.251
423.54	17.727
423.90	17.280
424.25	17.562
424.61	17.437
424.96	17.327
425.31	17.555
425.67	17.578
426.02	17.786
426.38	18.221
426.73	17.654
427.09	16.323
427.44	17.910
427.79	16.568
428.15	18.043
428.50	17.160
428.85	17.528
429.21	16.770
429.56	16.897
429.92	17.959
430.27	16.922
430.62	17.996
430.98	17.715
431.33	16.980
431.68	17.572
432.04	17.521
432.39	17.436
432.74	17.106
433.10	18.652
433.45	17.692
433.80	17.816
434.16	18.569
434.51	17.826
434.86	17.727
435.22	17.714
435.57	17.690
435.92	18.034
436.28	16.997
436.63	17.956
436.98	18.214
437.34	18.315
437.69	17.414
438.04	17.204
438.39	17.933
438.75	16.508
439.10	17.525
439.45	17.554
439.81	18.042
440.16	17.391
440.51	17.479
440.86	17.783
441.22	17.843
441.57	17.896
441.92	18.092
442.27	17.532
442.63	17.277
442.98	17.535
443.33	17.494
443.68	17.027
444.03	17.238
444.39	17.303
444.74	17.118
445.09	17.346
445.44	17.915
445.79	18.018
446.15	18.026
446.50	17.346
446.85	17.638
447.20	17.930
447.55	18.635
447.91	17.360
448.26	17.210
448.61	16.628
448.96	17.938
449.31	16.962
449.66	17.872
450.02	18.192
450.37	16.980
450.72	17.336
451.07	17.116
451.42	17.155
451.77	17.407
452.12	17.647
452.47	18.012
452.83	16.333
453.18	17.950
453.53	17.528
453.88	17.892
454.23	17.058
454.58	17.402
454.93	17.447
455.28	17.469
455.63	16.843
455.98	18.138
456.34	16.720
456.69	17.252
457.04	18.080
457.39	17.859
457.74	17.355
458.09	16.706
458.44	17.391
458.79	17.298
459.14	16.854
459.49	17.439
459.84	17.475
460.19	16.627
460.54	17.518
460.89	18.243
461.24	17.078
461.59	18.599
461.94	18.394
462.29	17.034
462.64	17.414
462.99	17.036
463.34	17.818
463.69	17.010
464.04	17.407
464.39	18.243
464.74	17.322
465.09	18.041
465.44	17.003
465.79	17.884
466.14	16.762
466.49	17.361
466.84	17.693
467.19	17.962
467.54	17.822
467.89	17.536
468.24	17.087
468.59	17.591
468.94	17.305
469.29	17.317
469.64	18.271
469.99	17.793
470.34	18.409
470.68	18.587
471.03	17.772
471.38	17.663
471.73	18.038
472.08	18.763
472.43	18.536
472.78	18.999
473.13	16.491
473.48	17.352
473.83	17.200
474.17	17.253
474.52	16.570
474.87	17.793
475.22	17.331
475.57	17.122
475.92	17.775
476.27	17.366
476.61	17.327
476.96	17.933
477.31	17.314
477.66	17.910
478.01	17.033
478.36	16.948
478.70	17.723
479.05	18.590
479.40	17.577
479.75	17.641
480.10	18.460
480.45	17.803
480.79	17.123
481.14	17.882
481.49	17.760
481.84	17.342
482.19	16.906
482.53	18.000
482.88	18.313
483.23	17.180
483.58	17.533
483.92	17.510
484.27	17.292
484.62	17.266
484.97	16.839
485.31	17.196
485.66	18.271
486.01	18.008
486.36	18.213
486.70	17.451
487.05	17.203
487.40	17.078
487.75	17.140
488.09	16.641
488.44	16.894
488.79	17.600
489.13	17.416
489.48	17.315
489.83	17.329
490.17	17.340
490.52	17.578
490.87	17.988
491.22	17.146
491.56	17.633
491.91	17.907
492.26	17.602
492.60	17.364
492.95	17.396
493.30	17.006
493.64	17.026
493.99	17.536
494.34	17.919
494.68	17.566
495.03	17.292
495.37	17.567
495.72	17.343
496.07	17.535
496.41	17.548
496.76	17.687
497.11	17.653
497.45	16.634
497.80	18.072
498.14	17.683
498.49	17.146
498.84	17.156
499.18	17.720
499.53	17.528
499.87	17.322
500.22	17.471
500.56	17.352
500.91	18.109
501.26	17.635
501.60	17.647
501.95	16.770
502.29	17.961
502.64	18.322
502.98	18.064
503.33	17.616
503.67	17.722
504.02	17.745
504.36	17.781
504.71	17.835
505.06	18.034
505.40	17.371
505.75	18.362
506.09	17.578
506.44	17.389
506.78	17.420
507.13	17.775
507.47	17.338
507.82	17.949
508.16	17.889
508.51	17.769
508.85	17.470
509.19	17.037
509.54	18.660
509.88	18.280
510.23	17.263
510.57	17.797
510.92	17.511
511.26	18.207
511.61	17.508
511.95	17.255
512.30	17.657
512.64	17.934
512.98	17.839
513.33	18.254
513.67	17.944
514.02	17.218
514.36	17.921
514.70	17.494
515.05	17.788
515.39	17.335
515.74	17.111
516.08	17.640
516.42	17.742
516.77	17.106
517.11	17.049
517.46	18.067
517.80	18.402
518.14	17.636
518.49	17.541
518.83	17.303
519.17	17.229
519.52	18.154
519.86	18.215
520.20	17.586
520.55	17.786
520.89	17.078
521.23	18.974
521.58	18.521
521.92	17.662
522.26	17.632
522.61	17.841
522.95	17.876
523.29	18.540
523.64	17.546
523.98	17.090
524.32	17.769
524.66	17.208
525.01	18.349
525.35	17.775
525.69	17.694
526.04	18.046
526.38	17.973
526.72	18.080
527.06	17.602
527.41	17.869
527.75	17.557
528.09	18.720
528.43	18.860
528.78	18.669
529.12	17.853
529.46	18.106
529.80	18.641
530.15	17.825
530.49	18.396
530.83	19.160
531.17	17.945
531.51	17.330
531.86	17.615
532.20	17.643
532.54	17.586
532.88	18.584
533.22	18.047
533.57	17.815
533.91	18.516
534.25	18.229
534.59	18.340
534.93	18.750
535.27	18.280
535.62	17.895
535.96	18.022
536.30	18.949
536.64	17.977
536.98	17.659
537.32	17.794
537.66	18.336
538.01	17.545
538.35	17.887
538.69	17.926
539.03	17.987
539.37	17.036
539.71	18.145
540.05	17.746
540.39	18.100
540.73	18.366
541.07	18.503
541.42	17.980
541.76	18.065
542.10	18.077
542.44	16.979
542.78	18.112
543.12	17.992
543.46	18.176
543.80	17.583
544.14	17.756
544.48	17.319
544.82	18.628
545.16	18.932
545.50	17.826
545.84	17.672
546.18	17.391
546.52	17.925
546.86	17.527
547.20	17.012
547.54	17.227
547.88	18.893
548.22	17.980
548.56	17.945
548.90	17.997
549.24	18.958
549.58	17.865
549.92	17.755
550.26	18.745
550.60	17.042
550.94	17.836
551.28	18.168
551.62	17.744
551.96	18.375
552.30	17.758
552.64	17.302
552.98	18.963
553.32	18.025
553.66	18.342
554.00	17.639
554.34	16.850
554.68	18.270
555.02	17.290
555.36	18.759
555.69	17.480
556.03	18.513
556.37	17.425
556.71	18.430
557.05	18.081
557.39	17.408
557.73	17.549
558.07	17.483
558.41	17.562
558.75	17.783
559.08	16.680
559.42	18.253
559.76	16.820
560.10	18.063
560.44	18.939
560.78	17.554
561.12	17.659
561.45	18.231
561.79	18.019
562.13	18.706
562.47	18.286
562.81	17.532
563.15	18.555
563.48	17.343
563.82	18.468
564.16	18.280
564.50	17.368
564.84	17.432
565.17	18.609
565.51	17.714
565.85	16.922
566.19	17.947
566.52	17.300
566.86	18.584
567.20	17.838
567.54	18.365
567.88	16.965
568.21	18.251
568.55	17.684
568.89	17.498
569.23	17.369
569.56	17.814
569.90	17.945
570.24	17.437
570.57	17.639
570.91	17.543
571.25	17.102
571.59	17.468
571.92	17.190
572.26	17.434
572.60	16.970
572.93	17.151
573.27	17.006
573.61	17.708
573.95	17.715
574.28	17.298
574.62	17.428
574.96	17.397
575.29	17.227
575.63	16.728
575.97	17.582
576.30	17.428
576.64	17.579
576.98	17.432
577.31	17.764
577.65	17.605
577.98	17.691
578.32	17.470
578.66	17.374
578.99	17.136
579.33	17.066
579.67	17.108
580.00	16.696
580.34	17.135
580.67	17.418
581.01	17.491
581.35	17.679
581.68	17.944
582.02	17.766
582.35	17.328
582.69	17.643
583.02	16.937
583.36	17.032
583.70	17.141
584.03	16.959
584.37	16.885
584.70	17.257
585.04	17.623
585.37	17.327
585.71	17.728
586.04	17.393
586.38	17.522
586.72	17.083
587.05	18.020
587.39	17.567
587.72	17.500
588.06	17.209
588.39	16.765
588.73	17.118
589.06	16.974
589.40	17.062
589.73	17.104
590.07	17.572
590.40	17.190
590.73	16.937
591.07	17.092
591.40	16.826
591.74	17.830
592.07	17.070
592.41	17.804
592.74	17.631
593.08	17.504
593.41	18.208
593.75	17.506
594.08	17.478
594.41	17.331
594.75	17.541
595.08	17.364
595.42	17.037
595.75	17.426
596.09	16.859
596.42	16.748
596.75	17.508
597.09	17.561
597.42	17.541
597.75	17.333
598.09	17.168
598.42	17.315
598.76	17.800
599.09	17.927
599.42	17.032
599.76	17.724
600.09	17.357
600.42	17.100
600.76	17.738
601.09	17.552
601.42	17.170
601.76	16.834
602.09	16.944
602.42	17.705
602.76	17.576
603.09	17.536
603.42	17.113
603.76	17.732
604.09	17.470
604.42	16.576
604.76	17.110
605.09	17.762
605.42	17.904
605.75	16.874
606.09	17.384
606.42	17.747
606.75	17.186
607.09	17.376
607.42	17.075
607.75	16.674
608.08	17.944
608.42	17.432
608.75	17.391
609.08	17.393
609.41	16.990
609.75	16.742
610.08	17.505
610.41	17.298
610.74	17.276
611.07	18.036
611.41	17.605
611.74	17.598
612.07	16.832
612.40	17.135
612.73	17.838
613.07	16.851
613.40	18.227
613.73	17.876
614.06	17.523
614.39	16.732
614.72	17.601
615.06	17.389
615.39	17.163
615.72	17.441
616.05	16.498
616.38	17.698
616.71	16.437
617.05	17.936
617.38	16.944
617.71	16.544
618.04	17.185
618.37	17.350
618.70	17.529
619.03	17.801
619.36	17.082
619.69	17.982
620.03	16.042
620.36	16.980
620.69	16.274
621.02	16.385
621.35	16.599
621.68	17.441
622.01	17.718
622.34	16.336
622.67	18.716
623.00	17.629
623.33	17.203
623.66	17.100
623.99	15.979
624.32	17.828
624.65	17.359
624.99	16.018
625.32	17.924
625.65	17.054
625.98	17.773
626.31	18.122
626.64	18.057
626.97	18.166
627.30	16.510
627.63	16.782
627.96	17.403
628.29	17.860
628.62	17.118
628.95	18.036
629.28	16.453
629.61	17.512
629.94	17.698
630.26	17.833
630.59	17.982
630.92	16.365
631.25	18.435
631.58	18.522
631.91	15.907
632.24	17.124
632.57	16.889
632.90	17.970
633.23	15.228
633.56	17.146
633.89	18.541
634.22	19.906
634.55	18.636
634.88	16.667
635.20	17.500
635.53	17.313
635.86	15.513
636.19	18.983
636.52	16.341
636.85	17.370
637.18	16.809
637.51	18.976
637.83	17.493
638.16	17.067
638.49	17.490
638.82	18.170
639.15	18.218
639.48	18.048
639.81	15.694
640.13	18.732
640.46	19.633
640.79	15.396
641.12	17.308
641.45	18.777
641.77	16.937
642.10	18.759
642.43	18.082
642.76	17.823
643.09	16.454
643.41	19.777
643.74	17.286
644.07	17.476
644.40	17.081
644.73	17.966
645.05	15.183
645.38	16.445
645.71	17.177
646.04	15.657
646.36	16.493
646.69	18.007
647.02	16.393
647.35	18.099
647.67	15.712
648.00	15.580
648.33	17.458
648.66	16.694
648.98	18.478
649.31	17.638
649.64	19.562
649.96	16.746
650.29	15.850
650.62	16.145
650.94	15.517
651.27	15.371
651.60	18.531
651.92	17.025
652.25	17.253
652.58	19.307
652.90	16.667
653.23	17.487
653.56	16.694
653.88	14.846
654.21	16.553
654.54	14.784
654.86	19.187
655.19	17.227
655.52	19.407
655.84	18.470
656.17	22.830
656.49	29.771
656.82	27.838
657.15	19.983
657.47	14.416
657.80	10.233
658.13	10.510
658.45	15.000
658.78	15.112
659.10	14.436
659.43	14.797
659.75	15.550
660.08	14.897
660.41	14.706
660.73	16.253
661.06	16.497
661.38	15.891
661.71	18.443
662.03	17.759
662.36	19.469
662.68	18.925
663.01	16.102
663.33	17.711
663.66	14.191
663.98	18.202
664.31	17.363
664.63	14.189
664.96	19.694
665.28	17.811
665.61	17.927
665.93	16.060
666.26	19.198
666.58	17.345
666.91	17.937
667.23	17.281
667.56	16.092
667.88	16.822
668.21	16.964
668.53	16.782
668.86	16.307
669.18	17.967
669.50	19.816
669.83	17.661
670.15	17.857
670.48	16.092
670.80	20.788
671.13	15.332
671.45	16.895
671.77	17.457
672.10	16.569
672.42	16.794
672.75	17.857
673.07	18.182
673.39	16.045
673.72	16.966
674.04	17.008
674.37	18.699
674.69	16.049
675.01	16.239
675.34	17.943
675.66	16.122
675.98	17.257
676.31	16.290
676.63	19.501
676.95	13.882
677.28	17.202
677.60	18.627
677.92	17.738
678.25	17.570
678.57	19.552
678.89	17.697
679.22	15.321
679.54	17.755
679.86	17.578
680.18	15.769
680.51	14.231
680.83	15.400
681.15	15.914
681.48	17.034
681.80	19.018
682.12	16.042
682.44	18.310
682.77	14.316
683.09	13.839
683.41	16.744
683.73	19.196
684.06	14.381
684.38	15.812
684.70	16.497
685.02	17.769
685.34	18.200
685.67	17.824
685.99	16.192
686.31	17.241
686.63	16.176
686.96	18.182
687.28	12.774
687.60	19.282
687.92	17.704
688.24	14.800
688.56	16.667
688.89	14.922
689.21	18.161
689.53	13.964
689.85	16.854
690.17	17.143
690.49	13.285
690.82	15.990
691.14	14.251
691.46	15.081
691.78	14.505
692.10	18.047
692.42	16.484
692.74	17.174
693.06	15.506
693.39	15.925
693.71	16.222
694.03	17.955
694.35	20.045
694.67	18.000
694.99	19.072
695.31	13.695
695.63	18.780
695.95	18.321
696.27	18.904
696.59	14.785
696.91	15.084
697.23	18.020
697.56	16.787
697.88	18.087
698.20	19.438
698.52	17.056
698.84	19.856
699.16	17.730
699.48	18.272
699.80	18.088
700.12	18.231
700.44	16.901
700.76	15.169
701.08	19.335
701.40	22.455
701.72	15.385
702.04	13.836
702.36	18.293
702.68	10.061
703.00	19.883
703.32	15.877
703.64	15.060
703.96	16.716
704.28	18.976
704.60	15.549
704.91	12.853
705.23	16.456
705.55	16.552
705.87	15.141
706.19	14.652
706.51	12.324
706.83	15.287
707.15	16.768
707.47	17.355
707.79	16.244
708.11	16.195
708.43	19.797
708.74	16.755
709.06	15.241
709.38	18.156
709.70	15.916
710.02	17.757
710.34	19.333
710.66	16.938
710.98	16.718
711.29	21.753
711.61	21.290
711.93	18.065
712.25	17.832
712.57	11.930
712.89	18.681
713.20	15.248
713.52	17.153
713.84	14.839
714.16	18.123
714.48	17.722
714.80	19.169
715.11	21.512
715.43	14.286
715.75	15.839
716.07	18.373
716.39	16.835
716.70	19.784
717.02	22.353
717.34	18.939
717.66	12.069
717.97	9.921
718.29	14.961
718.61	15.021
718.93	18.605
719.24	18.450
719.56	16.105
719.88	13.806
720.20	16.996
720.51	22.266
720.83	19.066
721.15	12.195
721.46	18.702
721.78	16.335
722.10	14.343
722.42	14.113
722.73	18.533
723.05	17.959
723.37	20.168
723.68	17.600
724.00	11.915
724.32	20.084
724.63	23.868
724.95	16.239
725.27	21.097
725.58	20.576
725.90	18.828
726.22	17.754
726.53	13.333
726.85	20.803
727.16	14.815
727.48	19.157
727.80	21.875
728.11	19.672
728.43	19.531
728.74	14.683
729.06	17.600
729.38	15.415
729.69	18.149
730.01	15.613
730.32	17.343
730.64	16.288
730.96	21.329
731.27	15.050
731.59	19.683
731.90	12.945
732.22	15.705
732.53	17.905
732.85	15.772
733.16	16.502
733.48	18.243
733.80	12.162
734.11	21.959
734.43	19.814
734.74	21.321
735.06	14.697
735.37	16.109
735.69	18.447
736.00	14.191
736.32	15.957
736.63	14.828
736.95	19.178
737.26	21.724
737.58	16.667
737.89	11.684
738.21	13.879
738.52	17.110
738.83	21.633
739.15	17.300
739.46	16.342
739.78	16.549
740.09	21.918
740.41	11.786
740.72	15.603
741.04	14.400
741.35	16.667
741.66	17.778
741.98	21.635
742.29	21.782
742.61	16.098
742.92	19.298
743.23	14.623
743.55	17.117
743.86	15.247
744.18	23.039
744.49	15.736
744.80	17.347
745.12	18.692
745.43	17.536
745.74	18.919
746.06	14.953
746.37	14.679
746.68	18.750
747.00	14.833
747.31	19.231
747.62	14.679
747.94	22.707
748.25	18.807
748.56	24.000
748.88	24.883
749.19	20.952
749.50	14.078
749.82	12.207
750.13	14.167
750.44	16.538
750.75	17.343
751.07	18.149
751.38	19.504
751.69	14.672
752.01	13.281
752.32	18.077
752.63	19.403
752.94	19.200
753.26	16.736
753.57	15.000
753.88	17.004
754.19	13.147
754.51	15.789
754.82	13.919
755.13	16.522
755.44	24.797
755.75	18.800
756.07	16.605
756.38	15.827
756.69	19.113
757.00	16.199
757.31	16.828
757.63	12.346
757.94	15.819
758.25	15.079
758.56	17.935
758.87	21.726
759.18	17.981
759.50	19.529
759.81	18.060
760.12	17.846
760.43	15.179
760.74	19.492
761.05	15.746
761.36	17.479
761.67	18.429
761.99	13.058
762.30	17.518
762.61	14.815
762.92	20.940
763.23	20.492
763.54	22.078
763.85	16.327
764.16	14.634
764.47	19.200
764.78	18.571
765.10	18.033
765.41	16.413
765.72	20.497
766.03	19.802
766.34	16.538
766.65	15.063
766.96	14.085
767.27	21.287
767.58	14.045
767.89	19.136
768.20	14.917
768.51	24.623
768.82	21.635
769.13	21.239
769.44	19.665
769.75	14.103
770.06	16.592
770.37	10.784
770.68	15.049
770.99	16.990
771.30	19.748
771.61	13.469
771.92	20.332
772.23	18.018
772.54	11.602
772.85	13.953
773.16	22.222
773.47	14.793
773.78	24.138
774.09	17.500
774.39	18.634
774.70	19.048
775.01	15.172
775.32	16.429
775.63	17.293
775.94	15.789
776.25	14.400
776.56	21.488
776.87	19.841
777.18	16.216
777.48	18.919
777.79	13.386
778.10	11.927
778.41	15.789
778.72	15.126
779.03	12.676
779.34	18.243
779.65	14.085
779.95	17.881
780.26	5.755
780.57	25.180
780.88	16.197
781.19	16.807
781.50	20.805
781.80	18.129
782.11	16.860
782.42	20.126
782.73	23.529
783.04	17.931
783.34	19.847
783.65	22.819
783.96	21.538
784.27	20.714
784.57	17.021
784.88	16.346
785.19	30.909
785.50	8.182
785.81	9.524
786.11	16.807
786.42	19.469
786.73	17.925
787.04	12.844
787.34	13.861
787.65	22.500
787.96	19.835
788.26	15.217
788.57	14.286
788.88	15.447
789.19	17.600
789.49	19.084
789.80	24.242
790.11	1.887
790.41	18.812
790.72	18.085
791.03	20.652
791.33	2.353
791.64	28.395
791.95	26.087
792.25	12.500
792.56	24.359
792.87	8.974
793.17	6.410
793.48	21.429
793.79	7.500
794.09	35.577
794.40	25.000
794.70	23.423
795.01	17.188
795.32	28.696
795.62	5.435
795.93	17.925
796.23	18.182
796.54	31.707
796.85	26.190
797.15	19.697
797.46	0.000
797.76	13.158
798.07	22.727
798.37	28.049
798.68	12.903
798.99	16.216
799.29	33.735
799.60	23.077
799.90	23.077
800.21	6.061
800.51	17.333
800.82	25.333
801.12	-6.250
801.43	3.333
801.73	9.459
802.04	34.286
802.34	16.393
802.65	35.821
802.95	21.818
803.26	18.966
803.56	29.231
803.87	22.642
804.17	9.677
804.48	26.471
804.78	-4.878
805.09	27.536
805.39	7.353
805.70	-4.255
806.00	26.316
806.30	33.333
806.61	19.737
806.91	22.973
807.22	23.684
807.52	32.955
807.83	-5.085
808.13	-7.576
808.43	18.333
808.74	3.448
809.04	22.222
809.35	12.245
809.65	8.333
809.95	16.327
810.26	26.761
810.56	16.667
810.86	-6.122
811.17	19.231
811.47	6.383
811.77	16.667
812.08	-3.774
812.38	6.250
812.69	25.455
812.99	39.024
813.29	32.432
813.59	-8.108
813.90	20.000
814.20	29.091
814.50	15.000
814.81	34.545
815.11	40.351
815.41	18.605
815.72	32.500
816.02	31.429
816.32	16.216
816.62	27.083
816.93	31.111
817.23	8.889
817.53	5.556
817.84	21.622
818.14	4.878
818.44	20.000
818.74	20.408
819.04	21.951
819.35	41.667
819.65	13.636
819.95	-33.333
820.25	15.152
820.56	7.143
820.86	11.111
821.16	22.727
821.46	6.522
821.76	8.621
822.07	28.261
822.37	36.364
822.67	46.341
822.97	24.324
823.27	0.000
823.57	27.586
823.88	5.882
824.18	16.667
824.48	11.429
824.78	42.857
825.08	32.143
825.38	3.704
825.69	16.129
825.99	2.439
826.29	29.630
826.59	12.500
826.89	-12.903
827.19	-8.696
827.49	-13.889
827.79	4.348
828.09	32.258
828.39	18.750
828.70	0.000
829.00	-6.897
829.30	27.027
829.60	-4.167
829.90	0.000
830.20	9.375
830.50	59.091
830.80	29.412
831.10	0.000
831.40	23.529
831.70	61.538
832.00	39.394
832.30	29.412
832.60	40.541
832.90	800.000
833.20	17.857
833.50	15.000
833.80	15.789
834.10	-8.333
834.40	-40.909
834.70	13.333
835.00	-60.000
835.30	-54.167
835.60	14.286
835.90	42.857
836.20	12.000
836.50	20.833
836.80	-31.579
837.10	27.027
837.40	66.667
837.70	13.043
838.00	66.667
838.30	10.526
838.60	-10.000
838.90	-120.000
839.19	16.667
839.49	-7.692
839.79	68.421
840.09	50.000
840.39	-40.000
840.69	-4.545
840.99	33.333
841.29	0.000
841.59	-38.462
841.88	-33.333
842.18	-21.429
842.48	46.667
842.78	-71.429
843.08	-7.143
843.38	37.500
843.68	-43.750
843.97	57.143
844.27	-133.333
844.57	18.182
844.87	26.667
845.17	40.909
845.47	333.333
845.76	13.333
846.06	0.000
846.36	0.000
846.66	5.263
846.96	13.636
847.25	-11.111
847.55	-66.667
847.85	-38.095
848.15	46.154
848.44	-83.333
848.74	-83.333
849.04	46.154
849.34	75.000
849.63	18.182
849.93	-42.857
850.23	15.000
850.53	-12.500
850.82	11.111
851.12	-6.667
851.42	17.647
851.71	137.500
852.01	70.588
852.31	38.462
852.61	50.000
852.90	35.294
853.20	73.333
853.50	-25.000
853.79	-78.571
854.09	-75.000
854.39	-5.000
854.68	27.500
854.98	-4.762
855.28	12.000
855.57	45.833
855.87	-33.333
856.17	-4.000
856.46	43.750
856.76	35.000
857.05	40.000
857.35	50.000
857.65	17.647
857.94	-91.667
858.24	41.667
858.53	35.000
858.83	0.000
859.13	44.000
859.42	28.571
859.72	37.500
860.01	29.167
860.31	-75.000
860.60	-25.000
860.90	0.000
861.20	66.667
861.49	46.667
861.79	0.000
862.08	25.000
862.38	-58.333
862.67	200.000
862.97	225.000
863.26	18.182
863.56	81.818
863.85	31.579
864.15	0.000
864.44	80.000
864.74	50.000
865.03	22.222
865.33	14.286
865.62	121.429
865.92	52.632
866.21	5.556
866.51	9.091
866.80	77.778
867.10	-62.500
867.39	62.500
867.69	-26.667
867.98	10.000
868.27	-11.765
868.57	0.000
868.86	450.000
869.16	50.000
869.45	-42.857
869.75	100.000
870.04	70.000
870.33	-300.000
870.63	42.105
870.92	-25.000
871.22	200.000
871.51	71.429
871.80	22.222
872.10	-50.000
>>>>>End Processed Spectral Data<<<<<
