SpectraSuite Data File
++++++++++++++++++++++++++++++++++++
Date: Wed May 13 20:40:30 PDT 2015
User: schluterlab
Dark Spectrum Present: Yes
Reference Spectrum Present: Yes
Number of Sampled Component Spectra: 1
Spectrometers: USB2E3373
Integration Time (usec): 3000 (USB2E3373)
Spectra Averaged: 3 (USB2E3373)
Boxcar Smoothing: 0 (USB2E3373)
Correct for Electrical Dark: No (USB2E3373)
Strobe/Lamp Enabled: No (USB2E3373)
Correct for Detector Non-linearity: No (USB2E3373)
Correct for Stray Light: No (USB2E3373)
Number of Pixels in Processed Spectrum: 2048
>>>>>Begin Processed Spectral Data<<<<<
178.53	0.000
178.91	-1150.000
179.29	-950.000
179.67	-177.778
180.04	-950.000
180.42	2050.000
180.80	460.000
181.18	-575.000
181.56	471.429
181.94	0.000
182.31	-528.571
182.69	933.333
183.07	-387.500
183.45	-300.000
183.83	436.364
184.20	-270.000
184.58	2100.000
184.96	3900.000
185.34	-620.000
185.72	-437.500
186.09	-1150.000
186.47	2150.000
186.85	1550.000
187.23	4000.000
187.61	-933.333
187.98	800.000
188.36	400.000
188.74	354.545
189.12	-780.000
189.49	400.000
189.87	-3400.000
190.25	-700.000
190.63	314.286
191.00	300.000
191.38	716.667
191.76	-700.000
192.14	1075.000
192.51	512.500
192.89	733.333
193.27	537.500
193.65	-900.000
194.02	420.000
194.40	700.000
194.78	390.000
195.15	341.667
195.53	430.000
195.91	-1300.000
196.29	256.250
196.66	200.000
197.04	-170.000
197.42	0.000
197.79	480.000
198.17	-3200.000
198.55	442.857
198.92	362.500
199.30	740.000
199.68	0.000
200.05	305.556
200.43	528.571
200.81	3400.000
201.18	1000.000
201.56	-1166.667
201.94	422.222
202.31	477.778
202.69	325.000
203.07	450.000
203.44	0.000
203.82	775.000
204.19	571.429
204.57	350.000
204.95	575.000
205.32	1033.333
205.70	381.818
206.08	242.857
206.45	2000.000
206.83	281.250
207.20	500.000
207.58	500.000
207.96	205.556
208.33	550.000
208.71	-700.000
209.08	585.714
209.46	400.000
209.84	336.364
210.21	-766.667
210.59	950.000
210.96	-350.000
211.34	2400.000
211.71	470.000
212.09	633.333
212.46	0.000
212.84	1133.333
213.22	875.000
213.59	-3200.000
213.97	483.333
214.34	500.000
214.72	527.273
215.09	620.000
215.47	-1100.000
215.84	-2150.000
216.22	1166.667
216.59	307.143
216.97	675.000
217.34	336.364
217.72	-416.667
218.09	0.000
218.47	-3100.000
218.84	433.333
219.22	500.000
219.59	1200.000
219.97	-371.429
220.34	680.000
220.72	-1300.000
221.09	271.429
221.47	1150.000
221.84	-716.667
222.22	0.000
222.59	1125.000
222.97	-2150.000
223.34	920.000
223.72	300.000
224.09	840.000
224.46	1450.000
224.84	-2900.000
225.21	-740.000
225.59	-3600.000
225.96	500.000
226.34	190.000
226.71	2150.000
227.08	412.500
227.46	420.000
227.83	-775.000
228.21	-2000.000
228.58	411.111
228.95	-1650.000
229.33	-1600.000
229.70	966.667
230.08	628.571
230.45	-440.000
230.82	416.667
231.20	800.000
231.57	457.143
231.95	366.667
232.32	131.818
232.69	263.636
233.07	471.429
233.44	261.538
233.81	-1266.667
234.19	257.895
234.56	308.333
234.93	275.000
235.31	309.091
235.68	192.308
236.05	242.857
236.43	121.212
236.80	147.368
237.17	2300.000
237.55	147.619
237.92	142.857
238.29	209.524
238.67	138.710
239.04	141.379
239.41	100.000
239.79	63.043
240.16	92.857
240.53	90.909
240.91	74.510
241.28	80.000
241.65	92.000
242.02	68.116
242.40	62.903
242.77	46.667
243.14	58.065
243.51	60.674
243.89	61.176
244.26	40.000
244.63	39.785
245.00	38.298
245.38	33.663
245.75	35.514
246.12	29.358
246.49	38.686
246.87	41.600
247.24	44.615
247.61	33.571
247.98	33.333
248.36	24.324
248.73	24.841
249.10	33.121
249.47	31.638
249.84	34.225
250.22	32.086
250.59	31.361
250.96	27.273
251.33	26.540
251.70	32.178
252.08	27.143
252.45	27.803
252.82	22.609
253.19	25.532
253.56	28.235
253.94	29.876
254.31	28.125
254.68	30.385
255.05	23.247
255.42	22.764
255.79	22.059
256.16	20.939
256.54	21.201
256.91	21.352
257.28	18.345
257.65	18.812
258.02	22.671
258.39	19.874
258.76	19.064
259.14	22.321
259.51	19.149
259.88	18.323
260.25	20.242
260.62	21.098
260.99	16.149
261.36	19.520
261.73	20.057
262.10	18.023
262.47	21.127
262.85	20.613
263.22	14.245
263.59	20.798
263.96	19.780
264.33	19.321
264.70	17.632
265.07	19.949
265.44	16.919
265.81	15.815
266.18	18.844
266.55	20.000
266.92	17.445
267.29	18.750
267.66	17.890
268.03	18.636
268.40	20.093
268.77	16.945
269.14	18.243
269.51	20.090
269.88	18.415
270.25	16.253
270.62	14.607
270.99	22.796
271.36	15.880
271.73	18.458
272.10	16.957
272.47	18.280
272.84	20.130
273.21	19.706
273.58	16.157
273.95	15.933
274.32	15.083
274.69	17.345
275.06	16.732
275.43	16.383
275.80	17.635
276.17	15.682
276.54	17.256
276.91	16.403
277.28	16.602
277.65	17.795
278.02	16.563
278.39	17.773
278.76	15.636
279.13	15.660
279.50	16.760
279.87	16.932
280.23	17.365
280.60	13.346
280.97	15.527
281.34	16.991
281.71	15.818
282.08	16.315
282.45	14.727
282.82	16.874
283.19	14.260
283.56	15.263
283.92	16.074
284.29	15.344
284.66	15.064
285.03	13.924
285.40	17.077
285.77	14.310
286.14	13.990
286.51	17.000
286.87	16.068
287.24	14.007
287.61	13.162
287.98	14.123
288.35	13.471
288.72	13.863
289.08	16.745
289.45	14.168
289.82	14.146
290.19	13.972
290.56	14.242
290.93	12.689
291.29	14.571
291.66	13.569
292.03	14.244
292.40	14.097
292.77	12.278
293.13	13.881
293.50	12.974
293.87	12.741
294.24	12.296
294.60	10.771
294.97	10.756
295.34	12.976
295.71	12.784
296.08	12.678
296.44	13.480
296.81	10.436
297.18	13.821
297.55	9.631
297.91	10.158
298.28	13.655
298.65	11.749
299.02	11.726
299.38	11.155
299.75	9.030
300.12	11.111
300.48	11.750
300.85	11.097
301.22	10.318
301.59	10.354
301.95	11.839
302.32	10.270
302.69	11.231
303.05	10.545
303.42	10.247
303.79	11.438
304.15	10.023
304.52	8.806
304.89	10.685
305.25	10.325
305.62	10.985
305.99	10.744
306.35	11.186
306.72	10.090
307.09	10.211
307.45	12.387
307.82	9.152
308.19	11.038
308.55	11.327
308.92	11.278
309.29	9.715
309.65	9.650
310.02	10.888
310.38	10.215
310.75	10.243
311.12	10.747
311.48	11.285
311.85	10.063
312.22	10.718
312.58	9.667
312.95	9.820
313.31	9.515
313.68	9.356
314.05	11.045
314.41	10.553
314.78	10.574
315.14	10.030
315.51	10.711
315.87	10.792
316.24	9.335
316.61	9.552
316.97	9.687
317.34	10.372
317.70	10.038
318.07	11.550
318.43	10.372
318.80	10.965
319.16	11.017
319.53	9.475
319.89	11.333
320.26	10.900
320.62	10.516
320.99	11.010
321.35	11.212
321.72	11.396
322.08	11.846
322.45	11.841
322.81	11.919
323.18	12.909
323.54	11.781
323.91	13.302
324.27	12.715
324.64	12.861
325.00	13.616
325.37	13.649
325.73	13.645
326.10	13.945
326.46	14.068
326.83	15.962
327.19	15.542
327.56	16.463
327.92	16.885
328.29	18.190
328.65	19.153
329.01	18.321
329.38	17.299
329.74	19.298
330.11	19.887
330.47	19.927
330.84	21.875
331.20	21.494
331.56	22.018
331.93	22.222
332.29	22.538
332.66	22.301
333.02	23.949
333.38	23.758
333.75	24.510
334.11	24.110
334.48	23.514
334.84	26.103
335.20	25.091
335.57	24.479
335.93	24.018
336.29	25.641
336.66	25.428
337.02	26.154
337.38	28.241
337.75	27.094
338.11	27.484
338.47	26.980
338.84	28.506
339.20	28.349
339.56	29.927
339.93	28.818
340.29	28.714
340.65	28.164
341.02	29.756
341.38	28.826
341.74	29.211
342.11	29.432
342.47	29.339
342.83	30.651
343.20	30.909
343.56	29.402
343.92	29.561
344.28	31.293
344.65	30.095
345.01	30.135
345.37	29.674
345.73	30.541
346.10	30.605
346.46	30.508
346.82	30.972
347.19	30.911
347.55	31.691
347.91	32.039
348.27	31.717
348.63	31.522
349.00	32.362
349.36	31.363
349.72	32.558
350.08	31.524
350.45	33.442
350.81	32.819
351.17	32.415
351.53	32.432
351.89	31.683
352.26	32.360
352.62	34.242
352.98	34.846
353.34	33.854
353.70	33.633
354.07	32.823
354.43	33.333
354.79	34.191
355.15	33.041
355.51	34.532
355.87	34.694
356.24	34.202
356.60	34.242
356.96	34.755
357.32	35.568
357.68	35.512
358.04	34.996
358.40	35.471
358.77	35.915
359.13	35.517
359.49	35.765
359.85	34.841
360.21	35.726
360.57	35.953
360.93	36.077
361.29	36.130
361.66	36.920
362.02	36.045
362.38	37.262
362.74	36.533
363.10	36.862
363.46	36.317
363.82	36.886
364.18	36.270
364.54	37.444
364.90	37.819
365.26	38.382
365.62	38.422
365.98	37.253
366.35	37.894
366.71	38.106
367.07	38.529
367.43	39.768
367.79	39.543
368.15	40.014
368.51	36.919
368.87	38.330
369.23	39.795
369.59	40.188
369.95	39.485
370.31	39.601
370.67	38.478
371.03	40.674
371.39	40.087
371.75	38.971
372.11	39.403
372.47	40.689
372.83	40.850
373.19	39.668
373.55	41.316
373.91	40.133
374.27	39.450
374.63	39.855
374.99	42.161
375.35	40.963
375.71	39.890
376.07	40.672
376.42	41.747
376.78	41.617
377.14	41.045
377.50	42.384
377.86	40.226
378.22	41.593
378.58	41.729
378.94	42.175
379.30	42.048
379.66	43.020
380.02	42.998
380.38	41.773
380.74	42.377
381.09	41.809
381.45	43.393
381.81	42.998
382.17	42.166
382.53	41.698
382.89	43.951
383.25	42.964
383.61	43.494
383.97	43.277
384.32	42.233
384.68	42.193
385.04	42.717
385.40	42.848
385.76	42.813
386.12	43.394
386.48	44.053
386.83	43.874
387.19	45.022
387.55	44.218
387.91	43.954
388.27	43.899
388.62	43.454
388.98	43.366
389.34	44.118
389.70	43.532
390.06	43.473
390.42	43.904
390.77	44.211
391.13	43.778
391.49	44.099
391.85	44.176
392.20	43.470
392.56	44.381
392.92	44.085
393.28	42.012
393.64	43.405
393.99	43.494
394.35	43.486
394.71	44.542
395.07	42.804
395.42	44.747
395.78	43.830
396.14	43.886
396.50	45.113
396.85	43.675
397.21	42.848
397.57	43.769
397.92	43.810
398.28	42.601
398.64	43.250
399.00	43.369
399.35	42.132
399.71	43.461
400.07	44.412
400.42	44.356
400.78	43.667
401.14	44.085
401.49	44.478
401.85	43.013
402.21	43.293
402.57	42.690
402.92	44.767
403.28	44.410
403.63	43.193
403.99	43.567
404.35	44.303
404.70	43.525
405.06	42.691
405.42	44.105
405.77	42.971
406.13	42.607
406.49	43.643
406.84	43.001
407.20	42.553
407.55	43.459
407.91	43.133
408.27	43.714
408.62	42.986
408.98	42.647
409.34	43.296
409.69	43.032
410.05	43.185
410.40	43.180
410.76	43.011
411.11	42.461
411.47	41.150
411.83	43.128
412.18	42.177
412.54	42.466
412.89	43.494
413.25	43.920
413.60	43.545
413.96	42.744
414.31	42.831
414.67	43.663
415.03	43.113
415.38	42.204
415.74	43.151
416.09	44.415
416.45	42.905
416.80	43.027
417.16	44.303
417.51	43.132
417.87	42.582
418.22	43.344
418.58	44.093
418.93	43.980
419.29	42.903
419.64	43.766
420.00	43.049
420.35	43.652
420.71	43.694
421.06	42.243
421.42	42.281
421.77	43.722
422.12	43.066
422.48	43.443
422.83	43.856
423.19	43.315
423.54	43.122
423.90	43.072
424.25	43.495
424.61	43.631
424.96	44.548
425.31	43.134
425.67	42.584
426.02	43.371
426.38	45.177
426.73	43.534
427.09	43.283
427.44	44.163
427.79	43.646
428.15	43.988
428.50	44.236
428.85	43.921
429.21	43.457
429.56	42.716
429.92	43.332
430.27	43.098
430.62	44.086
430.98	44.318
431.33	43.402
431.68	45.079
432.04	42.545
432.39	44.318
432.74	45.242
433.10	44.709
433.45	44.023
433.80	43.681
434.16	43.910
434.51	44.632
434.86	45.667
435.22	45.303
435.57	44.255
435.92	44.763
436.28	44.899
436.63	45.419
436.98	45.220
437.34	46.094
437.69	45.216
438.04	45.419
438.39	45.433
438.75	46.426
439.10	46.480
439.45	45.100
439.81	46.405
440.16	46.245
440.51	46.221
440.86	45.628
441.22	45.273
441.57	45.382
441.92	46.264
442.27	46.286
442.63	46.130
442.98	47.944
443.33	46.250
443.68	46.360
444.03	46.657
444.39	46.349
444.74	46.374
445.09	45.553
445.44	46.255
445.79	46.710
446.15	46.003
446.50	46.473
446.85	46.557
447.20	46.864
447.55	48.353
447.91	47.656
448.26	46.299
448.61	47.371
448.96	47.785
449.31	47.244
449.66	47.383
450.02	46.852
450.37	47.732
450.72	47.321
451.07	46.130
451.42	47.112
451.77	47.622
452.12	46.882
452.47	48.259
452.83	47.611
453.18	47.188
453.53	48.485
453.88	46.486
454.23	47.938
454.58	47.184
454.93	48.061
455.28	46.384
455.63	48.786
455.98	48.036
456.34	47.990
456.69	48.215
457.04	47.988
457.39	46.932
457.74	47.475
458.09	47.211
458.44	47.377
458.79	46.909
459.14	47.573
459.49	47.694
459.84	47.147
460.19	46.671
460.54	45.544
460.89	46.901
461.24	49.302
461.59	48.576
461.94	47.287
462.29	48.427
462.64	47.607
462.99	46.324
463.34	46.867
463.69	47.217
464.04	46.899
464.39	46.551
464.74	47.178
465.09	46.924
465.44	46.094
465.79	46.253
466.14	46.196
466.49	46.607
466.84	46.293
467.19	47.435
467.54	47.625
467.89	46.218
468.24	47.004
468.59	47.375
468.94	46.487
469.29	46.658
469.64	47.590
469.99	46.955
470.34	47.556
470.68	48.348
471.03	46.599
471.38	47.672
471.73	46.636
472.08	47.697
472.43	48.744
472.78	46.478
473.13	47.433
473.48	46.504
473.83	47.195
474.17	46.982
474.52	47.333
474.87	47.461
475.22	46.489
475.57	46.212
475.92	46.415
476.27	45.941
476.61	46.442
476.96	45.739
477.31	46.102
477.66	46.827
478.01	45.112
478.36	46.642
478.70	45.535
479.05	46.273
479.40	46.571
479.75	45.704
480.10	45.527
480.45	46.168
480.79	45.819
481.14	45.401
481.49	46.464
481.84	45.085
482.19	47.024
482.53	46.422
482.88	45.742
483.23	44.953
483.58	46.315
483.92	45.736
484.27	43.529
484.62	45.216
484.97	43.674
485.31	43.767
485.66	42.699
486.01	42.354
486.36	42.233
486.70	42.313
487.05	42.535
487.40	42.543
487.75	42.881
488.09	43.433
488.44	43.763
488.79	43.978
489.13	44.691
489.48	43.597
489.83	44.886
490.17	44.235
490.52	44.686
490.87	44.279
491.22	44.702
491.56	43.690
491.91	44.114
492.26	43.684
492.60	44.885
492.95	44.013
493.30	44.299
493.64	44.097
493.99	43.686
494.34	44.635
494.68	45.559
495.03	44.972
495.37	44.346
495.72	44.786
496.07	45.012
496.41	44.071
496.76	44.547
497.11	43.809
497.45	44.341
497.80	44.194
498.14	44.638
498.49	44.195
498.84	44.247
499.18	44.524
499.53	44.065
499.87	44.828
500.22	44.795
500.56	44.612
500.91	43.846
501.26	44.571
501.60	45.183
501.95	43.171
502.29	44.330
502.64	45.345
502.98	43.525
503.33	43.327
503.67	43.898
504.02	43.966
504.36	44.034
504.71	44.944
505.06	44.867
505.40	45.211
505.75	43.394
506.09	43.878
506.44	45.634
506.78	45.007
507.13	46.239
507.47	45.808
507.82	45.542
508.16	45.390
508.51	44.850
508.85	45.035
509.19	45.357
509.54	44.541
509.88	44.822
510.23	45.347
510.57	46.543
510.92	45.417
511.26	44.656
511.61	44.191
511.95	44.520
512.30	44.698
512.64	45.782
512.98	45.338
513.33	46.360
513.67	44.984
514.02	45.292
514.36	45.986
514.70	45.877
515.05	45.678
515.39	45.878
515.74	46.509
516.08	45.892
516.42	46.004
516.77	46.711
517.11	45.782
517.46	46.332
517.80	46.516
518.14	44.470
518.49	47.550
518.83	45.739
519.17	46.709
519.52	46.746
519.86	46.492
520.20	46.705
520.55	47.098
520.89	48.236
521.23	48.010
521.58	47.179
521.92	47.152
522.26	45.699
522.61	47.975
522.95	46.225
523.29	46.683
523.64	47.378
523.98	47.197
524.32	46.743
524.66	46.542
525.01	47.243
525.35	45.353
525.69	46.367
526.04	46.417
526.38	46.248
526.72	46.626
527.06	47.144
527.41	45.297
527.75	48.167
528.09	47.013
528.43	47.801
528.78	47.142
529.12	46.727
529.46	46.418
529.80	48.329
530.15	46.355
530.49	46.154
530.83	47.215
531.17	49.869
531.51	47.665
531.86	46.710
532.20	47.588
532.54	46.381
532.88	47.304
533.22	47.158
533.57	46.173
533.91	45.154
534.25	45.930
534.59	46.248
534.93	46.996
535.27	44.900
535.62	46.886
535.96	46.202
536.30	46.345
536.64	46.684
536.98	48.109
537.32	46.741
537.66	46.467
538.01	47.070
538.35	45.378
538.69	46.713
539.03	46.524
539.37	45.367
539.71	46.273
540.05	47.190
540.39	46.645
540.73	45.860
541.07	47.567
541.42	47.619
541.76	46.839
542.10	47.413
542.44	45.497
542.78	46.772
543.12	44.786
543.46	47.213
543.80	46.064
544.14	44.994
544.48	46.286
544.82	45.221
545.16	47.105
545.50	46.080
545.84	45.363
546.18	47.071
546.52	46.180
546.86	47.216
547.20	46.123
547.54	46.426
547.88	45.855
548.22	44.832
548.56	45.597
548.90	45.903
549.24	46.061
549.58	46.317
549.92	47.115
550.26	48.509
550.60	46.473
550.94	46.549
551.28	45.574
551.62	47.160
551.96	45.825
552.30	45.529
552.64	46.788
552.98	46.441
553.32	45.988
553.66	46.967
554.00	46.191
554.34	45.825
554.68	45.994
555.02	45.698
555.36	46.068
555.69	45.196
556.03	45.828
556.37	45.566
556.71	46.180
557.05	46.008
557.39	45.976
557.73	47.283
558.07	46.338
558.41	46.382
558.75	46.363
559.08	47.054
559.42	46.863
559.76	46.691
560.10	44.754
560.44	45.143
560.78	45.243
561.12	45.053
561.45	45.828
561.79	45.419
562.13	45.808
562.47	46.790
562.81	46.304
563.15	45.151
563.48	45.955
563.82	45.532
564.16	45.389
564.50	45.378
564.84	44.564
565.17	45.882
565.51	46.262
565.85	45.305
566.19	44.271
566.52	45.725
566.86	43.520
567.20	47.170
567.54	44.749
567.88	43.672
568.21	44.656
568.55	44.641
568.89	42.996
569.23	43.449
569.56	42.834
569.90	43.170
570.24	42.088
570.57	41.482
570.91	41.564
571.25	40.334
571.59	41.355
571.92	41.071
572.26	40.555
572.60	40.991
572.93	40.870
573.27	40.875
573.61	41.011
573.95	40.749
574.28	39.824
574.62	39.917
574.96	40.382
575.29	39.840
575.63	40.295
575.97	39.938
576.30	40.175
576.64	40.030
576.98	39.961
577.31	39.995
577.65	39.696
577.98	40.068
578.32	39.674
578.66	39.748
578.99	40.173
579.33	39.966
579.67	39.942
580.00	40.206
580.34	40.484
580.67	39.778
581.01	40.027
581.35	40.049
581.68	39.074
582.02	39.461
582.35	40.235
582.69	39.663
583.02	39.611
583.36	39.636
583.70	40.485
584.03	40.569
584.37	40.711
584.70	40.204
585.04	40.020
585.37	39.748
585.71	39.944
586.04	40.445
586.38	41.667
586.72	41.508
587.05	40.342
587.39	40.211
587.72	40.660
588.06	41.142
588.39	40.686
588.73	40.950
589.06	41.851
589.40	41.852
589.73	42.098
590.07	41.210
590.40	41.176
590.73	42.428
591.07	42.694
591.40	41.712
591.74	43.117
592.07	42.932
592.41	41.835
592.74	41.760
593.08	41.006
593.41	41.126
593.75	40.537
594.08	41.804
594.41	41.676
594.75	42.107
595.08	41.553
595.42	41.366
595.75	41.952
596.09	42.771
596.42	41.611
596.75	41.832
597.09	42.338
597.42	40.683
597.75	41.958
598.09	42.391
598.42	41.409
598.76	41.711
599.09	41.087
599.42	40.902
599.76	41.435
600.09	40.947
600.42	41.161
600.76	40.893
601.09	41.311
601.42	41.933
601.76	41.860
602.09	41.186
602.42	41.441
602.76	41.919
603.09	41.817
603.42	41.820
603.76	41.578
604.09	41.915
604.42	42.397
604.76	43.273
605.09	42.377
605.42	40.829
605.75	41.225
606.09	41.928
606.42	42.705
606.75	41.974
607.09	41.984
607.42	41.849
607.75	41.814
608.08	41.511
608.42	42.178
608.75	42.200
609.08	41.582
609.41	41.694
609.75	42.687
610.08	42.601
610.41	41.853
610.74	43.945
611.07	43.429
611.41	43.032
611.74	42.936
612.07	42.495
612.40	43.757
612.73	42.421
613.07	43.427
613.40	42.233
613.73	42.370
614.06	43.710
614.39	42.213
614.72	42.737
615.06	43.172
615.39	43.524
615.72	41.922
616.05	42.424
616.38	43.357
616.71	44.181
617.05	43.581
617.38	42.874
617.71	42.763
618.04	45.312
618.37	43.170
618.70	43.684
619.03	44.211
619.36	44.060
619.69	43.521
620.03	44.712
620.36	44.519
620.69	45.411
621.02	46.755
621.35	45.106
621.68	43.769
622.01	45.743
622.34	44.856
622.67	45.019
623.00	44.828
623.33	44.031
623.66	44.603
623.99	44.035
624.32	43.795
624.65	45.056
624.99	43.555
625.32	44.171
625.65	43.727
625.98	45.042
626.31	46.112
626.64	45.061
626.97	45.553
627.30	46.717
627.63	45.611
627.96	44.912
628.29	45.057
628.62	46.661
628.95	49.340
629.28	45.803
629.61	46.746
629.94	48.762
630.26	46.044
630.59	46.520
630.92	46.264
631.25	46.199
631.58	46.747
631.91	46.349
632.24	47.574
632.57	47.744
632.90	47.588
633.23	49.217
633.56	48.023
633.89	47.112
634.22	49.149
634.55	50.888
634.88	47.904
635.20	49.701
635.53	50.120
635.86	50.000
636.19	48.235
636.52	49.020
636.85	46.621
637.18	46.659
637.51	48.582
637.83	46.239
638.16	50.512
638.49	47.481
638.82	49.558
639.15	48.250
639.48	48.753
639.81	49.464
640.13	48.177
640.46	48.993
640.79	48.349
641.12	46.492
641.45	49.022
641.77	51.988
642.10	49.415
642.43	48.498
642.76	49.690
643.09	51.840
643.41	49.924
643.74	50.926
644.07	49.543
644.40	49.847
644.73	49.764
645.05	50.713
645.38	48.815
645.71	48.309
646.04	51.163
646.36	50.918
646.69	52.508
647.02	50.340
647.35	52.405
647.67	49.912
648.00	50.894
648.33	50.825
648.66	49.848
648.98	48.126
649.31	48.281
649.64	49.327
649.96	50.224
650.29	50.711
650.62	50.000
650.94	48.136
651.27	51.351
651.60	49.917
651.92	50.000
652.25	47.068
652.58	49.065
652.90	50.869
653.23	46.379
653.56	46.929
653.88	48.970
654.21	48.973
654.54	51.980
654.86	46.885
655.19	45.000
655.52	37.179
655.84	35.216
656.17	44.366
656.49	59.406
656.82	59.285
657.15	44.878
657.47	33.503
657.80	25.473
658.13	25.803
658.45	38.450
658.78	38.370
659.10	38.557
659.43	39.517
659.75	40.464
660.08	41.582
660.41	45.345
660.73	46.760
661.06	47.611
661.38	52.545
661.71	51.731
662.03	49.901
662.36	49.304
662.68	49.598
663.01	51.111
663.33	53.928
663.66	51.261
663.98	53.132
664.31	50.630
664.63	48.785
664.96	47.887
665.28	53.279
665.61	50.877
665.93	49.698
666.26	52.130
666.58	47.908
666.91	52.220
667.23	55.506
667.56	50.540
667.88	53.419
668.21	51.386
668.53	51.410
668.86	51.732
669.18	52.026
669.50	50.000
669.83	55.773
670.15	51.778
670.48	53.159
670.80	52.155
671.13	52.442
671.45	50.213
671.77	54.786
672.10	48.983
672.42	48.057
672.75	48.590
673.07	50.176
673.39	48.644
673.72	49.219
674.04	49.804
674.37	47.961
674.69	50.511
675.01	48.954
675.34	52.361
675.66	53.263
675.98	50.305
676.31	52.941
676.63	52.017
676.95	51.363
677.28	55.140
677.60	50.769
677.92	53.586
678.25	51.951
678.57	52.191
678.89	51.102
679.22	51.277
679.54	48.282
679.86	47.156
680.18	48.122
680.51	47.340
680.83	48.221
681.15	49.434
681.48	50.851
681.80	47.582
682.12	47.318
682.44	49.323
682.77	48.269
683.09	51.073
683.41	52.550
683.73	54.305
684.06	51.446
684.38	47.750
684.70	51.744
685.02	50.469
685.34	45.971
685.67	46.503
685.99	47.423
686.31	47.611
686.63	46.113
686.96	47.321
687.28	48.556
687.60	48.551
687.92	47.898
688.24	47.148
688.56	47.590
688.89	47.718
689.21	50.873
689.53	49.687
689.85	53.659
690.17	48.033
690.49	51.805
690.82	51.636
691.14	49.330
691.46	50.000
691.78	51.004
692.10	48.347
692.42	49.701
692.74	45.643
693.06	48.511
693.39	49.281
693.71	53.275
694.03	49.263
694.35	49.567
694.67	48.284
694.99	51.463
695.31	50.735
695.63	48.325
695.95	51.345
696.27	47.208
696.59	52.850
696.91	53.109
697.23	46.714
697.56	49.893
697.88	46.012
698.20	46.875
698.52	51.613
698.84	48.330
699.16	50.230
699.48	51.069
699.80	49.758
700.12	57.143
700.44	54.907
700.76	51.381
701.08	54.598
701.40	49.721
701.72	56.560
702.04	53.977
702.36	50.425
702.68	52.691
703.00	53.740
703.32	49.468
703.64	49.062
703.96	55.153
704.28	52.907
704.60	55.425
704.91	53.412
705.23	55.718
705.55	56.478
705.87	55.482
706.19	53.357
706.51	56.075
706.83	57.273
707.15	50.700
707.47	50.505
707.79	46.683
708.11	49.543
708.43	47.143
708.74	46.173
709.06	52.727
709.38	49.869
709.70	53.488
710.02	53.116
710.34	53.030
710.66	52.836
710.98	50.284
711.29	54.070
711.61	54.867
711.93	52.564
712.25	52.733
712.57	58.088
712.89	51.557
713.20	48.328
713.52	55.921
713.84	48.101
714.16	52.134
714.48	54.598
714.80	56.839
715.11	50.144
715.43	52.226
715.75	48.696
716.07	52.716
716.39	52.978
716.70	53.488
717.02	54.676
717.34	55.124
717.66	59.328
717.97	61.355
718.29	53.333
718.61	57.664
718.93	55.882
719.24	53.633
719.56	50.169
719.88	53.898
720.20	51.689
720.51	58.885
720.83	55.762
721.15	52.612
721.46	50.000
721.78	50.179
722.10	53.962
722.42	58.647
722.73	53.558
723.05	56.148
723.37	59.109
723.68	54.054
724.00	53.659
724.32	54.032
724.63	59.756
724.95	54.393
725.27	57.085
725.58	54.297
725.90	60.219
726.22	55.094
726.53	50.694
726.85	52.218
727.16	52.669
727.48	53.191
727.80	50.379
728.11	50.725
728.43	55.385
728.74	51.971
729.06	59.854
729.38	55.515
729.69	57.295
730.01	48.805
730.32	50.694
730.64	47.157
730.96	48.845
731.27	54.305
731.59	51.376
731.90	48.980
732.22	49.379
732.53	46.130
732.85	54.167
733.16	46.945
733.48	54.817
733.80	51.299
734.11	51.274
734.43	50.888
734.74	47.429
735.06	45.845
735.37	50.867
735.69	49.682
736.00	53.268
736.32	51.090
736.63	49.840
736.95	48.243
737.26	47.959
737.58	49.355
737.89	53.512
738.21	56.314
738.52	51.786
738.83	48.679
739.15	51.923
739.46	52.920
739.78	55.556
740.09	43.692
740.41	53.548
740.72	46.341
741.04	51.481
741.35	56.250
741.66	57.333
741.98	58.019
742.29	55.024
742.61	54.310
742.92	54.299
743.23	58.547
743.55	53.200
743.86	55.702
744.18	60.619
744.49	63.636
744.80	61.033
745.12	62.273
745.43	55.947
745.74	61.712
746.06	55.046
746.37	56.951
746.68	53.846
747.00	61.111
747.31	64.286
747.62	53.982
747.94	52.423
748.25	51.915
748.56	59.912
748.88	57.921
749.19	64.500
749.50	53.953
749.82	51.626
750.13	55.510
750.44	54.380
750.75	53.333
751.07	51.447
751.38	51.916
751.69	53.791
752.01	54.135
752.32	49.097
752.63	52.482
752.94	56.148
753.26	56.400
753.57	49.593
753.88	54.297
754.19	46.429
754.51	51.389
754.82	46.931
755.13	52.830
755.44	53.383
755.75	48.540
756.07	52.128
756.38	52.190
756.69	48.993
757.00	46.108
757.31	48.368
757.63	47.076
757.94	45.576
758.25	46.078
758.56	43.951
758.87	45.161
759.18	45.758
759.50	48.903
759.81	44.548
760.12	49.375
760.43	48.997
760.74	46.196
761.05	47.458
761.36	45.989
761.67	50.284
761.99	46.584
762.30	52.083
762.61	48.473
762.92	49.219
763.23	52.101
763.54	57.200
763.85	50.391
764.16	50.769
764.47	56.274
764.78	51.237
765.10	48.101
765.41	47.198
765.72	48.204
766.03	47.962
766.34	46.667
766.65	58.298
766.96	54.274
767.27	58.376
767.58	61.979
767.89	60.526
768.20	60.345
768.51	57.868
768.82	50.917
769.13	52.033
769.44	48.583
769.75	51.073
770.06	52.752
770.37	56.561
770.68	50.000
770.99	56.000
771.30	47.131
771.61	55.605
771.92	49.590
772.23	55.462
772.54	59.487
772.85	57.592
773.16	55.851
773.47	53.804
773.78	55.838
774.09	59.524
774.39	59.649
774.70	48.148
775.01	57.246
775.32	63.399
775.63	55.921
775.94	61.871
776.25	73.228
776.56	52.985
776.87	68.033
777.18	71.094
777.48	70.229
777.79	65.909
778.10	62.963
778.41	66.964
778.72	68.613
779.03	65.101
779.34	60.403
779.65	59.459
779.95	49.693
780.26	64.706
780.57	63.448
780.88	67.188
781.19	66.917
781.50	63.514
781.80	62.893
782.11	60.452
782.42	56.962
782.73	53.988
783.04	68.243
783.34	63.380
783.65	69.178
783.96	69.403
784.27	61.538
784.57	53.237
784.88	57.407
785.19	57.937
785.50	70.755
785.81	64.925
786.11	69.672
786.42	62.791
786.73	64.602
787.04	81.132
787.34	75.000
787.65	69.000
787.96	72.072
788.26	57.851
788.57	70.339
788.88	78.512
789.19	66.667
789.49	75.000
789.80	69.466
790.11	77.143
790.41	83.168
790.72	78.313
791.03	76.087
791.33	87.209
791.64	68.041
791.95	82.178
792.25	73.333
792.56	84.416
792.87	92.308
793.17	87.342
793.48	81.609
793.79	78.161
794.09	75.000
794.40	72.269
794.70	69.853
795.01	63.704
795.32	58.993
795.62	62.992
795.93	56.897
796.23	68.142
796.54	81.176
796.85	83.784
797.15	98.592
797.46	69.697
797.76	91.566
798.07	81.013
798.37	96.923
798.68	84.848
798.99	63.380
799.29	85.714
799.60	80.682
799.90	82.192
800.21	101.493
800.51	103.448
800.82	108.772
801.12	106.557
801.43	98.485
801.73	75.676
802.04	96.825
802.34	90.123
802.65	106.250
802.95	106.780
803.26	96.875
803.56	68.571
803.87	89.231
804.17	86.765
804.48	122.222
804.78	87.931
805.09	95.588
805.39	105.769
805.70	75.000
806.00	96.721
806.30	103.030
806.61	84.146
806.91	93.671
807.22	72.368
807.52	88.060
807.83	83.099
808.13	103.125
808.43	103.333
808.74	92.105
809.04	85.507
809.35	92.537
809.65	76.316
809.95	109.677
810.26	93.220
810.56	80.952
810.86	125.000
811.17	133.333
811.47	106.667
811.77	96.296
812.08	110.909
812.38	110.000
812.69	130.556
812.99	115.909
813.29	95.918
813.59	92.857
813.90	124.490
814.20	94.545
814.50	81.538
814.81	80.882
815.11	116.327
815.41	103.279
815.72	133.333
816.02	114.545
816.32	133.333
816.62	130.000
816.93	119.512
817.23	123.810
817.53	120.455
817.84	160.606
818.14	128.261
818.44	106.667
818.74	152.941
819.04	120.000
819.35	88.571
819.65	179.412
819.95	153.571
820.25	210.000
820.56	156.410
820.86	118.182
821.16	134.884
821.46	117.949
821.76	128.000
822.07	162.857
822.37	155.000
822.67	145.455
822.97	100.000
823.27	178.571
823.57	164.865
823.88	135.000
824.18	160.000
824.48	133.333
824.78	156.000
825.08	175.000
825.38	135.135
825.69	114.634
825.99	179.167
826.29	124.138
826.59	136.842
826.89	131.579
827.19	176.471
827.49	167.742
827.79	129.545
828.09	115.909
828.39	114.894
828.70	104.082
829.00	155.556
829.30	154.839
829.60	117.500
829.90	266.667
830.20	157.143
830.50	160.870
830.80	134.783
831.10	160.000
831.40	176.667
831.70	191.304
832.00	234.615
832.30	170.370
832.60	275.000
832.90	196.667
833.20	300.000
833.50	174.194
833.80	137.931
834.10	162.500
834.40	176.923
834.70	222.222
835.00	295.238
835.30	134.286
835.60	261.538
835.90	165.517
836.20	278.571
836.50	168.966
836.80	176.000
837.10	150.000
837.40	228.571
837.70	264.706
838.00	188.889
838.30	185.714
838.60	219.048
838.90	196.154
839.19	210.000
839.49	350.000
839.79	280.000
840.09	250.000
840.39	195.238
840.69	173.913
840.99	194.444
841.29	380.000
841.59	275.000
841.88	287.500
842.18	158.621
842.48	204.762
842.78	183.333
843.08	195.652
843.38	128.125
843.68	666.667
843.97	196.154
844.27	162.069
844.57	204.762
844.87	225.000
845.17	185.185
845.47	1233.333
845.76	422.222
846.06	235.294
846.36	387.500
846.66	307.143
846.96	212.500
847.25	354.545
847.55	309.091
847.85	226.087
848.15	420.000
848.44	364.286
848.74	238.889
849.04	252.941
849.34	320.000
849.63	194.737
849.93	327.273
850.23	880.000
850.53	378.571
850.82	1600.000
851.12	-3200.000
851.42	3800.000
851.71	225.000
852.01	-900.000
852.31	220.833
852.61	1433.333
852.90	228.571
853.20	184.000
853.50	282.353
853.79	195.238
854.09	183.333
854.39	256.250
854.68	156.757
854.98	154.839
855.28	163.333
855.57	151.724
855.87	177.778
856.17	136.842
856.46	220.000
856.76	182.353
857.05	172.414
857.35	220.833
857.65	273.333
857.94	165.217
858.24	196.154
858.53	240.000
858.83	177.273
859.13	260.000
859.42	0.000
859.72	388.889
860.01	409.091
860.31	204.545
860.60	163.158
860.90	191.304
861.20	455.556
861.49	383.333
861.79	-3600.000
862.08	475.000
862.38	257.143
862.67	292.308
862.97	252.941
863.26	333.333
863.56	194.444
863.85	333.333
864.15	487.500
864.44	300.000
864.74	616.667
865.03	525.000
865.33	226.316
865.62	354.545
865.92	376.923
866.21	225.000
866.51	0.000
866.80	327.273
867.10	800.000
867.39	300.000
867.69	445.455
867.98	215.789
868.27	363.636
868.57	236.842
868.86	-5000.000
869.16	268.750
869.45	1850.000
869.75	-2800.000
870.04	391.667
870.33	457.143
870.63	625.000
870.92	1900.000
871.22	557.143
871.51	247.059
871.80	123.810
872.10	321.429
>>>>>End Processed Spectral Data<<<<<
