SpectraSuite Data File
++++++++++++++++++++++++++++++++++++
Date: Wed May 13 20:23:24 PDT 2015
User: schluterlab
Dark Spectrum Present: Yes
Reference Spectrum Present: Yes
Number of Sampled Component Spectra: 1
Spectrometers: USB2E3373
Integration Time (usec): 3000 (USB2E3373)
Spectra Averaged: 3 (USB2E3373)
Boxcar Smoothing: 0 (USB2E3373)
Correct for Electrical Dark: No (USB2E3373)
Strobe/Lamp Enabled: No (USB2E3373)
Correct for Detector Non-linearity: No (USB2E3373)
Correct for Stray Light: No (USB2E3373)
Number of Pixels in Processed Spectrum: 2048
>>>>>Begin Processed Spectral Data<<<<<
178.53	0.000
178.91	-1125.000
179.29	-1250.000
179.67	-244.444
180.04	-1175.000
180.42	2950.000
180.80	1040.000
181.18	-1125.000
181.56	585.714
181.94	0.000
182.31	-600.000
182.69	1900.000
183.07	-650.000
183.45	-500.000
183.83	563.636
184.20	-320.000
184.58	2300.000
184.96	5500.000
185.34	-920.000
185.72	-737.500
186.09	-2150.000
186.47	2650.000
186.85	2450.000
187.23	5200.000
187.61	-1600.000
187.98	1275.000
188.36	563.636
188.74	472.727
189.12	-1080.000
189.49	550.000
189.87	-5500.000
190.25	-1100.000
190.63	471.429
191.00	453.846
191.38	816.667
191.76	-1100.000
192.14	1300.000
192.51	637.500
192.89	950.000
193.27	612.500
193.65	-1175.000
194.02	560.000
194.40	980.000
194.78	470.000
195.15	575.000
195.53	640.000
195.91	-2200.000
196.29	343.750
196.66	305.263
197.04	-320.000
197.42	0.000
197.79	630.000
198.17	-4500.000
198.55	685.714
198.92	737.500
199.30	840.000
199.68	0.000
200.05	344.444
200.43	700.000
200.81	5300.000
201.18	1466.667
201.56	-1366.667
201.94	588.889
202.31	511.111
202.69	350.000
203.07	550.000
203.44	0.000
203.82	1100.000
204.19	771.429
204.57	478.571
204.95	637.500
205.32	1900.000
205.70	527.273
206.08	385.714
206.45	2450.000
206.83	318.750
207.20	1016.667
207.58	880.000
207.96	350.000
208.33	637.500
208.71	-766.667
209.08	642.857
209.46	522.222
209.84	390.909
210.21	-1266.667
210.59	1350.000
210.96	-425.000
211.34	2450.000
211.71	570.000
212.09	850.000
212.46	0.000
212.84	2133.333
213.22	1325.000
213.59	-5000.000
213.97	800.000
214.34	842.857
214.72	581.818
215.09	1020.000
215.47	-1850.000
215.84	-2700.000
216.22	1733.333
216.59	385.714
216.97	1500.000
217.34	372.727
217.72	-666.667
218.09	0.000
218.47	-4700.000
218.84	611.111
219.22	785.714
219.59	2100.000
219.97	-600.000
220.34	960.000
220.72	-2033.333
221.09	428.571
221.47	1500.000
221.84	-1016.667
222.22	0.000
222.59	1550.000
222.97	-2950.000
223.34	1240.000
223.72	469.231
224.09	1040.000
224.46	2300.000
224.84	-4700.000
225.21	-1180.000
225.59	-4800.000
225.96	630.000
226.34	280.000
226.71	2700.000
227.08	700.000
227.46	580.000
227.83	-800.000
228.21	-2150.000
228.58	622.222
228.95	-2750.000
229.33	-2100.000
229.70	1666.667
230.08	642.857
230.45	-1040.000
230.82	483.333
231.20	983.333
231.57	614.286
231.95	483.333
232.32	240.909
232.69	372.727
233.07	614.286
233.44	338.462
233.81	-1966.667
234.19	347.368
234.56	483.333
234.93	508.333
235.31	472.727
235.68	384.615
236.05	385.714
236.43	190.909
236.80	257.895
237.17	5700.000
237.55	261.905
237.92	246.429
238.29	285.714
238.67	206.452
239.04	234.483
239.41	211.111
239.79	152.174
240.16	166.667
240.53	147.727
240.91	141.176
241.28	130.000
241.65	112.000
242.02	142.029
242.40	111.290
242.77	125.000
243.14	97.849
243.51	107.865
243.89	90.588
244.26	87.778
244.63	96.774
245.00	94.681
245.38	106.931
245.75	97.196
246.12	75.229
246.49	84.672
246.87	83.200
247.24	85.385
247.61	77.143
247.98	75.163
248.36	70.946
248.73	77.707
249.10	82.166
249.47	76.271
249.84	65.241
250.22	59.893
250.59	69.822
250.96	68.687
251.33	67.299
251.70	69.307
252.08	66.190
252.45	62.780
252.82	63.043
253.19	67.660
253.56	60.000
253.94	63.485
254.31	63.672
254.68	60.385
255.05	60.886
255.42	65.041
255.79	62.132
256.16	61.372
256.54	56.890
256.91	58.719
257.28	56.835
257.65	59.076
258.02	56.832
258.39	56.151
258.76	54.849
259.14	58.036
259.51	54.407
259.88	53.106
260.25	59.517
260.62	52.601
260.99	58.696
261.36	58.258
261.73	58.739
262.10	54.070
262.47	55.775
262.85	55.153
263.22	51.852
263.59	54.701
263.96	53.846
264.33	53.003
264.70	56.316
265.07	54.220
265.44	53.283
265.81	50.122
266.18	54.020
266.55	53.659
266.92	52.334
267.29	52.315
267.66	52.294
268.03	52.273
268.40	52.336
268.77	48.210
269.14	53.153
269.51	50.790
269.88	53.846
270.25	53.499
270.62	51.461
270.99	52.688
271.36	50.858
271.73	53.972
272.10	51.304
272.47	52.903
272.84	50.649
273.21	49.057
273.58	51.528
273.95	50.105
274.32	49.380
274.69	50.964
275.06	46.850
275.43	51.277
275.80	47.695
276.17	49.695
276.54	49.480
276.91	49.209
277.28	48.633
277.65	50.290
278.02	49.689
278.39	51.562
278.76	45.818
279.13	47.547
279.50	47.300
279.87	45.418
280.23	47.106
280.60	47.969
280.97	45.102
281.34	46.903
281.71	46.909
282.08	47.025
282.45	46.364
282.82	44.583
283.19	45.989
283.56	44.211
283.92	46.193
284.29	43.210
284.66	45.191
285.03	47.559
285.40	45.775
285.77	47.306
286.14	46.459
286.51	46.000
286.87	45.641
287.24	45.603
287.61	45.104
287.98	45.455
288.35	40.412
288.72	42.835
289.08	41.471
289.45	42.834
289.82	43.252
290.19	41.130
290.56	39.816
290.93	37.462
291.29	43.405
291.66	41.003
292.03	41.860
292.40	41.997
292.77	39.941
293.13	40.149
293.50	39.650
293.87	39.556
294.24	37.481
294.60	38.719
294.97	36.483
295.34	38.787
295.71	38.636
296.08	38.319
296.44	37.552
296.81	36.460
297.18	36.179
297.55	33.245
297.91	36.148
298.28	36.948
298.65	36.554
299.02	36.495
299.38	36.388
299.75	34.771
300.12	34.227
300.48	33.750
300.85	33.539
301.22	34.650
301.59	33.965
301.95	35.013
302.32	34.275
302.69	33.094
303.05	33.697
303.42	32.469
303.79	33.069
304.15	33.566
304.52	32.561
304.89	31.823
305.25	32.251
305.62	32.956
305.99	33.884
306.35	32.886
306.72	33.969
307.09	33.518
307.45	32.320
307.82	32.478
308.19	32.119
308.55	32.794
308.92	32.760
309.29	30.306
309.65	31.601
310.02	33.404
310.38	32.796
310.75	32.418
311.12	33.265
311.48	31.766
311.85	34.067
312.22	32.154
312.58	30.977
312.95	33.263
313.31	32.524
313.68	34.719
314.05	33.235
314.41	34.372
314.78	33.837
315.14	33.962
315.51	35.942
315.87	35.446
316.24	34.657
316.61	34.211
316.97	35.029
317.34	34.638
317.70	35.373
318.07	37.344
318.43	37.867
318.80	37.207
319.16	39.454
319.53	37.711
319.89	39.429
320.26	40.200
320.62	40.972
320.99	40.000
321.35	41.717
321.72	42.608
322.08	43.929
322.45	45.373
322.81	46.996
323.18	47.495
323.54	46.289
323.91	46.792
324.27	47.897
324.64	48.462
325.00	47.160
325.37	51.228
325.73	52.873
326.10	52.692
326.46	54.122
326.83	54.616
327.19	55.508
327.56	56.707
327.92	59.143
328.29	59.716
328.65	60.958
329.01	61.733
329.38	61.517
329.74	62.604
330.11	65.316
330.47	64.279
330.84	63.879
331.20	65.027
331.56	65.688
331.93	66.759
332.29	64.419
332.66	67.788
333.02	67.002
333.38	66.847
333.75	67.201
334.11	68.238
334.48	68.678
334.84	68.750
335.20	70.727
335.57	68.994
335.93	69.643
336.29	70.879
336.66	71.145
337.02	70.317
337.38	72.130
337.75	70.053
338.11	71.441
338.47	73.481
338.84	72.227
339.20	73.394
339.56	77.828
339.93	72.455
340.29	72.011
340.65	72.549
341.02	74.171
341.38	75.890
341.74	73.158
342.11	73.624
342.47	75.507
342.83	73.373
343.20	75.238
343.56	74.052
343.92	73.246
344.28	74.490
344.65	75.924
345.01	73.822
345.37	74.271
345.73	75.296
346.10	75.448
346.46	76.695
346.82	74.712
347.19	75.689
347.55	75.123
347.91	77.184
348.27	77.896
348.63	76.923
349.00	75.243
349.36	75.041
349.72	74.900
350.08	75.770
350.45	77.217
350.81	75.142
351.17	77.472
351.53	77.314
351.89	76.568
352.26	76.401
352.62	76.985
352.98	77.958
353.34	77.896
353.70	78.232
354.07	77.016
354.43	75.873
354.79	75.865
355.15	76.856
355.51	78.098
355.87	78.776
356.24	78.827
356.60	77.145
356.96	78.117
357.32	80.376
357.68	78.661
358.04	77.910
358.40	78.306
358.77	78.404
359.13	76.401
359.49	77.647
359.85	78.413
360.21	78.788
360.57	79.922
360.93	79.000
361.29	77.929
361.66	77.012
362.02	77.164
362.38	78.783
362.74	80.432
363.10	78.682
363.46	77.843
363.82	77.173
364.18	77.606
364.54	80.758
364.90	77.975
365.26	79.632
365.62	80.278
365.98	79.401
366.35	77.149
366.71	78.886
367.07	80.044
367.43	80.987
367.79	81.299
368.15	79.382
368.51	80.087
368.87	79.015
369.23	80.395
369.59	80.232
369.95	78.971
370.31	78.490
370.67	77.029
371.03	80.000
371.39	79.300
371.75	80.074
372.11	78.023
372.47	81.012
372.83	79.323
373.19	78.974
373.55	80.488
373.91	81.001
374.27	77.388
374.63	80.145
374.99	80.297
375.35	80.809
375.71	78.753
376.07	80.384
376.42	79.092
376.78	79.324
377.14	80.122
377.50	79.934
377.86	78.657
378.22	79.204
378.58	78.070
378.94	79.698
379.30	80.280
379.66	79.315
380.02	79.730
380.38	78.689
380.74	79.472
381.09	78.423
381.45	80.025
381.81	79.177
382.17	78.790
382.53	79.182
382.89	78.642
383.25	78.111
383.61	80.235
383.97	78.987
384.32	77.355
384.68	78.748
385.04	78.980
385.40	77.585
385.76	78.071
386.12	78.821
386.48	78.414
386.83	79.666
387.19	80.148
387.55	78.169
387.91	78.356
388.27	78.296
388.62	77.935
388.98	77.457
389.34	79.036
389.70	78.541
390.06	78.264
390.42	78.923
390.77	77.163
391.13	79.834
391.49	78.617
391.85	77.912
392.20	79.117
392.56	78.346
392.92	78.693
393.28	77.811
393.64	78.237
393.99	75.870
394.35	76.489
394.71	77.227
395.07	76.262
395.42	79.172
395.78	75.954
396.14	76.536
396.50	77.694
396.85	77.241
397.21	75.277
397.57	76.813
397.92	76.142
398.28	74.608
398.64	75.448
399.00	76.105
399.35	75.071
399.71	77.662
400.07	75.931
400.42	77.301
400.78	75.090
401.14	76.159
401.49	75.582
401.85	74.592
402.21	73.593
402.57	74.707
402.92	76.356
403.28	75.453
403.63	74.134
403.99	75.350
404.35	73.636
404.70	72.902
405.06	73.151
405.42	73.986
405.77	74.057
406.13	73.420
406.49	74.039
406.84	73.715
407.20	72.695
407.55	73.325
407.91	74.400
408.27	74.537
408.62	71.824
408.98	72.243
409.34	72.386
409.69	74.452
410.05	72.986
410.40	71.927
410.76	72.820
411.11	71.592
411.47	70.607
411.83	72.083
412.18	72.727
412.54	71.980
412.89	71.687
413.25	71.724
413.60	71.896
413.96	70.795
414.31	71.385
414.67	72.624
415.03	71.656
415.38	71.843
415.74	71.383
416.09	73.089
416.45	71.419
416.80	69.927
417.16	71.984
417.51	72.130
417.87	69.878
418.22	70.032
418.58	70.884
418.93	70.025
419.29	70.401
419.64	70.907
420.00	69.634
420.35	68.696
420.71	70.353
421.06	69.272
421.42	68.187
421.77	69.843
422.12	68.052
422.48	69.887
422.83	69.482
423.19	69.558
423.54	69.356
423.90	68.986
424.25	68.230
424.61	68.631
424.96	69.679
425.31	67.885
425.67	66.629
426.02	67.543
426.38	68.742
426.73	69.397
427.09	67.599
427.44	66.763
427.79	67.855
428.15	67.679
428.50	67.466
428.85	67.998
429.21	67.090
429.56	66.615
429.92	66.029
430.27	65.889
430.62	66.820
430.98	67.878
431.33	66.134
431.68	67.225
432.04	66.454
432.39	67.333
432.74	67.624
433.10	67.572
433.45	67.172
433.80	66.519
434.16	64.904
434.51	64.789
434.86	66.306
435.22	66.148
435.57	66.505
435.92	65.360
436.28	65.718
436.63	65.066
436.98	65.369
437.34	65.951
437.69	66.161
438.04	64.250
438.39	65.134
438.75	66.822
439.10	65.307
439.45	64.581
439.81	64.894
440.16	64.540
440.51	64.675
440.86	65.142
441.22	64.405
441.57	64.915
441.92	64.278
442.27	65.931
442.63	63.244
442.98	65.183
443.33	62.935
443.68	64.481
444.03	63.202
444.39	63.291
444.74	65.639
445.09	64.367
445.44	63.040
445.79	63.384
446.15	61.885
446.50	64.136
446.85	64.388
447.20	63.029
447.55	63.987
447.91	64.589
448.26	63.606
448.61	63.652
448.96	64.064
449.31	63.611
449.66	63.253
450.02	62.507
450.37	61.621
450.72	63.283
451.07	61.913
451.42	61.459
451.77	62.654
452.12	61.374
452.47	61.816
452.83	63.112
453.18	61.553
453.53	62.523
453.88	62.138
454.23	61.387
454.58	62.023
454.93	63.764
455.28	61.284
455.63	61.954
455.98	62.262
456.34	62.249
456.69	61.866
457.04	62.353
457.39	61.660
457.74	61.405
458.09	60.092
458.44	61.288
458.79	59.707
459.14	61.343
459.49	59.837
459.84	58.892
460.19	61.402
460.54	58.796
460.89	60.724
461.24	60.777
461.59	60.895
461.94	60.419
462.29	60.475
462.64	60.051
462.99	58.751
463.34	61.333
463.69	59.725
464.04	58.551
464.39	59.536
464.74	58.764
465.09	58.745
465.44	57.507
465.79	58.949
466.14	57.854
466.49	57.341
466.84	58.377
467.19	58.781
467.54	59.375
467.89	58.283
468.24	57.592
468.59	57.692
468.94	57.544
469.29	58.805
469.64	59.170
469.99	58.254
470.34	59.511
470.68	57.974
471.03	57.551
471.38	58.860
471.73	57.362
472.08	58.289
472.43	56.847
472.78	57.340
473.13	56.611
473.48	57.553
473.83	57.866
474.17	57.747
474.52	56.824
474.87	56.801
475.22	56.703
475.57	56.206
475.92	56.187
476.27	56.032
476.61	55.598
476.96	55.910
477.31	54.840
477.66	56.783
478.01	54.522
478.36	55.473
478.70	54.621
479.05	54.420
479.40	54.197
479.75	55.872
480.10	55.268
480.45	53.403
480.79	54.515
481.14	54.697
481.49	54.817
481.84	53.818
482.19	55.020
482.53	53.440
482.88	54.816
483.23	55.374
483.58	54.550
483.92	55.530
484.27	52.462
484.62	53.190
484.97	52.661
485.31	54.178
485.66	51.745
486.01	50.700
486.36	50.161
486.70	51.171
487.05	51.556
487.40	51.685
487.75	53.532
488.09	53.806
488.44	53.169
488.79	54.828
489.13	54.163
489.48	54.038
489.83	53.259
490.17	52.915
490.52	52.436
490.87	51.877
491.22	52.433
491.56	51.207
491.91	52.443
492.26	51.677
492.60	51.935
492.95	50.795
493.30	52.196
493.64	51.330
493.99	51.207
494.34	52.451
494.68	51.374
495.03	51.128
495.37	51.419
495.72	51.852
496.07	51.183
496.41	51.726
496.76	51.099
497.11	51.824
497.45	51.141
497.80	50.912
498.14	50.483
498.49	50.585
498.84	51.103
499.18	50.238
499.53	50.237
499.87	49.907
500.22	50.259
500.56	51.893
500.91	50.192
501.26	49.502
501.60	50.166
501.95	49.083
502.29	52.109
502.64	50.093
502.98	50.444
503.33	49.177
503.67	49.745
504.02	50.234
504.36	49.883
504.71	50.318
505.06	49.157
505.40	49.490
505.75	48.361
506.09	49.174
506.44	50.715
506.78	49.878
507.13	50.480
507.47	49.343
507.82	50.051
508.16	49.645
508.51	50.431
508.85	48.709
509.19	49.133
509.54	48.316
509.88	48.377
510.23	48.432
510.57	49.794
510.92	49.197
511.26	48.510
511.61	49.741
511.95	48.069
512.30	48.462
512.64	49.167
512.98	48.017
513.33	48.126
513.67	47.919
514.02	48.160
514.36	50.027
514.70	49.253
515.05	49.470
515.39	48.345
515.74	48.930
516.08	48.575
516.42	49.223
516.77	47.882
517.11	48.724
517.46	47.178
517.80	48.142
518.14	47.829
518.49	48.891
518.83	47.443
519.17	47.633
519.52	46.916
519.86	46.948
520.20	48.439
520.55	48.713
520.89	49.331
521.23	47.226
521.58	46.879
521.92	48.561
522.26	46.858
522.61	47.726
522.95	46.716
523.29	46.622
523.64	47.744
523.98	48.244
524.32	47.587
524.66	46.723
525.01	47.426
525.35	46.964
525.69	46.367
526.04	46.542
526.38	46.248
526.72	45.951
527.06	48.274
527.41	44.926
527.75	47.524
528.09	47.848
528.43	46.973
528.78	46.343
529.12	46.545
529.46	47.397
529.80	46.163
530.15	46.542
530.49	45.231
530.83	45.949
531.17	46.606
531.51	48.379
531.86	46.581
532.20	47.197
532.54	46.060
532.88	45.122
533.22	44.909
533.57	45.432
533.91	44.431
534.25	45.079
534.59	46.004
534.93	44.854
535.27	45.383
535.62	45.788
535.96	45.700
536.30	46.217
536.64	44.881
536.98	45.654
537.32	45.227
537.66	45.733
538.01	46.083
538.35	45.701
538.69	45.182
539.03	44.444
539.37	44.281
539.71	44.070
540.05	44.837
540.39	44.651
540.73	44.567
541.07	45.036
541.42	45.988
541.76	44.968
542.10	44.890
542.44	45.828
542.78	44.071
543.12	43.314
543.46	45.115
543.80	45.283
544.14	44.159
544.48	44.000
544.82	44.772
545.16	45.543
545.50	43.252
545.84	44.758
546.18	44.512
546.52	45.492
546.86	45.842
547.20	44.842
547.54	44.623
547.88	43.686
548.22	43.773
548.56	44.403
548.90	43.854
549.24	44.444
549.58	43.997
549.92	43.338
550.26	46.023
550.60	43.499
550.94	44.155
551.28	42.794
551.62	45.075
551.96	43.228
552.30	43.959
552.64	43.070
552.98	44.542
553.32	43.763
553.66	44.035
554.00	43.995
554.34	42.926
554.68	44.063
555.02	42.525
555.36	42.937
555.69	42.625
556.03	43.540
556.37	42.906
556.71	43.520
557.05	42.717
557.39	44.297
557.73	42.131
558.07	43.655
558.41	43.994
558.75	43.130
559.08	43.699
559.42	43.008
559.76	43.162
560.10	43.183
560.44	42.278
560.78	41.583
561.12	41.887
561.45	42.243
561.79	42.123
562.13	41.851
562.47	43.306
562.81	43.096
563.15	41.940
563.48	41.844
563.82	42.466
564.16	42.446
564.50	42.122
564.84	41.846
565.17	41.506
565.51	41.597
565.85	41.053
566.19	40.263
566.52	41.735
566.86	40.145
567.20	40.920
567.54	41.324
567.88	41.173
568.21	41.164
568.55	40.040
568.89	41.196
569.23	40.152
569.56	38.866
569.90	39.283
570.24	38.608
570.57	39.408
570.91	37.654
571.25	38.450
571.59	39.087
571.92	39.286
572.26	40.035
572.60	39.790
572.93	39.310
573.27	39.988
573.61	39.280
573.95	38.889
574.28	38.367
574.62	38.946
574.96	38.686
575.29	38.749
575.63	39.126
575.97	39.677
576.30	39.060
576.64	39.399
576.98	39.256
577.31	38.678
577.65	38.393
577.98	37.656
578.32	38.443
578.66	38.637
578.99	38.964
579.33	38.949
579.67	38.093
580.00	39.031
580.34	39.393
580.67	38.691
581.01	38.251
581.35	38.515
581.68	38.702
582.02	37.555
582.35	37.848
582.69	37.787
583.02	38.104
583.36	38.852
583.70	39.710
584.03	39.289
584.37	39.341
584.70	39.133
585.04	38.845
585.37	37.512
585.71	38.228
586.04	37.763
586.38	38.662
586.72	38.194
587.05	38.060
587.39	37.704
587.72	37.980
588.06	38.074
588.39	38.656
588.73	38.076
589.06	38.797
589.40	38.620
589.73	38.930
590.07	38.078
590.40	38.254
590.73	38.954
591.07	39.601
591.40	39.182
591.74	39.221
592.07	38.045
592.41	38.776
592.74	37.341
593.08	37.575
593.41	37.457
593.75	36.415
594.08	37.546
594.41	38.035
594.75	37.893
595.08	37.759
595.42	37.548
595.75	38.390
596.09	38.415
596.42	38.271
596.75	38.624
597.09	38.918
597.42	37.015
597.75	38.292
598.09	38.000
598.42	37.844
598.76	37.576
599.09	36.830
599.42	36.754
599.76	38.507
600.09	37.341
600.42	36.523
600.76	36.571
601.09	37.013
601.42	37.367
601.76	37.761
602.09	38.024
602.42	38.137
602.76	37.727
603.09	36.271
603.42	37.759
603.76	37.005
604.09	37.107
604.42	37.383
604.76	37.790
605.09	36.566
605.42	37.110
605.75	36.631
606.09	36.966
606.42	36.984
606.75	37.370
607.09	37.045
607.42	36.970
607.75	36.878
608.08	37.386
608.42	37.517
608.75	36.429
609.08	36.586
609.41	37.887
609.75	37.065
610.08	37.088
610.41	36.592
610.74	37.323
611.07	37.204
611.41	37.291
611.74	36.903
612.07	37.164
612.40	36.674
612.73	37.053
613.07	37.716
613.40	37.019
613.73	36.602
614.06	36.828
614.39	36.654
614.72	35.737
615.06	37.237
615.39	35.934
615.72	35.992
616.05	36.257
616.38	36.298
616.71	38.420
617.05	36.572
617.38	36.921
617.71	35.375
618.04	37.200
618.37	36.132
618.70	36.714
619.03	37.303
619.36	36.796
619.69	37.817
620.03	37.363
620.36	37.032
620.69	36.438
621.02	37.021
621.35	36.883
621.68	36.215
622.01	37.074
622.34	37.595
622.67	38.175
623.00	35.583
623.33	36.240
623.66	36.097
623.99	36.230
624.32	36.805
624.65	35.311
624.99	35.836
625.32	35.409
625.65	36.739
625.98	36.818
626.31	37.092
626.64	37.061
626.97	37.905
627.30	36.658
627.63	36.833
627.96	38.099
628.29	36.658
628.62	36.688
628.95	36.698
629.28	35.766
629.61	37.672
629.94	38.095
630.26	37.083
630.59	36.797
630.92	35.536
631.25	35.637
631.58	36.937
631.91	35.497
632.24	35.865
632.57	36.831
632.90	37.500
633.23	36.689
633.56	37.401
633.89	35.674
634.22	36.663
634.55	37.396
634.88	36.287
635.20	39.188
635.53	36.747
635.86	37.871
636.19	35.647
636.52	36.678
636.85	37.686
637.18	36.636
637.51	37.589
637.83	34.155
638.16	35.934
638.49	37.280
638.82	37.674
639.15	36.375
639.48	37.032
639.81	37.936
640.13	37.370
640.46	37.450
640.79	37.781
641.12	36.176
641.45	37.709
641.77	37.408
642.10	37.281
642.43	34.685
642.76	37.771
643.09	41.258
643.41	36.722
643.74	36.883
644.07	38.262
644.40	37.423
644.73	38.268
645.05	38.510
645.38	35.387
645.71	38.647
646.04	39.203
646.36	39.733
646.69	38.796
647.02	37.415
647.35	37.457
647.67	37.699
648.00	37.886
648.33	37.624
648.66	35.606
648.98	38.831
649.31	36.173
649.64	37.818
649.96	37.258
650.29	37.915
650.62	36.731
650.94	39.060
651.27	40.541
651.60	39.601
651.92	38.179
652.25	37.134
652.58	37.383
652.90	38.547
653.23	34.515
653.56	37.008
653.88	37.559
654.21	39.336
654.54	36.634
654.86	36.916
655.19	34.324
655.52	26.958
655.84	25.351
656.17	34.202
656.49	46.873
656.82	49.737
657.15	38.594
657.47	29.362
657.80	22.699
658.13	24.294
658.45	36.227
658.78	37.074
659.10	38.901
659.43	39.346
659.75	40.688
660.08	40.633
660.41	42.831
660.73	42.186
661.06	36.783
661.38	41.636
661.71	39.423
662.03	37.475
662.36	34.394
662.68	40.964
663.01	38.182
663.33	36.730
663.66	37.185
663.98	37.365
664.31	36.555
664.63	37.652
664.96	38.632
665.28	40.369
665.61	37.427
665.93	35.412
666.26	37.931
666.58	37.657
666.91	41.015
667.23	40.225
667.56	37.365
667.88	36.538
668.21	37.100
668.53	37.093
668.86	35.714
669.18	42.431
669.50	40.000
669.83	38.344
670.15	39.333
670.48	39.216
670.80	37.069
671.13	39.915
671.45	36.383
671.77	38.086
672.10	38.078
672.42	37.809
672.75	34.826
673.07	37.148
673.39	37.251
673.72	36.719
674.04	36.471
674.37	37.087
674.69	37.832
675.01	38.285
675.34	37.577
675.66	41.263
675.98	36.660
676.31	37.815
676.63	38.641
676.95	40.881
677.28	37.150
677.60	37.802
677.92	41.350
678.25	36.550
678.57	37.052
678.89	38.277
679.22	36.149
679.54	37.405
679.86	37.064
680.18	35.242
680.51	36.348
680.83	36.833
681.15	37.736
681.48	38.185
681.80	33.075
682.12	35.632
682.44	33.656
682.77	39.919
683.09	38.627
683.41	37.472
683.73	37.969
684.06	39.669
684.38	33.464
684.70	37.016
685.02	37.148
685.34	34.249
685.67	35.664
685.99	32.474
686.31	35.836
686.63	32.862
686.96	36.250
687.28	37.906
687.60	34.420
687.92	36.197
688.24	38.213
688.56	38.554
688.89	36.100
689.21	38.865
689.53	36.326
689.85	38.359
690.17	35.611
690.49	36.943
690.82	37.617
691.14	35.268
691.46	35.021
691.78	35.944
692.10	37.603
692.42	38.723
692.74	35.062
693.06	37.234
693.39	37.988
693.71	37.336
694.03	36.211
694.35	37.662
694.67	35.240
694.99	39.512
695.31	37.010
695.63	38.278
695.95	37.164
696.27	36.802
696.59	38.342
696.91	38.342
697.23	32.394
697.56	36.461
697.88	34.151
698.20	36.250
698.52	37.419
698.84	37.416
699.16	38.249
699.48	38.480
699.80	40.338
700.12	43.636
700.44	39.788
700.76	38.398
701.08	41.954
701.40	39.106
701.72	40.525
702.04	43.466
702.36	36.827
702.68	39.660
703.00	37.673
703.32	34.574
703.64	38.338
703.96	35.376
704.28	41.860
704.60	41.935
704.91	39.763
705.23	42.229
705.55	40.199
705.87	39.867
706.19	39.223
706.51	40.810
706.83	45.152
707.15	41.737
707.47	35.101
707.79	37.101
708.11	36.073
708.43	36.429
708.74	36.735
709.06	38.961
709.38	37.270
709.70	41.860
710.02	40.653
710.34	37.879
710.66	41.194
710.98	42.898
711.29	38.953
711.61	40.708
711.93	36.218
712.25	44.051
712.57	45.956
712.89	45.329
713.20	37.690
713.52	39.145
713.84	39.873
714.16	37.500
714.48	41.092
714.80	41.033
715.11	39.193
715.43	42.136
715.75	39.710
716.07	41.534
716.39	41.379
716.70	44.518
717.02	41.007
717.34	40.283
717.66	46.269
717.97	45.817
718.29	42.222
718.61	42.336
718.93	47.794
719.24	43.599
719.56	41.695
719.88	40.000
720.20	41.216
720.51	45.993
720.83	47.955
721.15	41.418
721.46	44.326
721.78	42.652
722.10	46.415
722.42	46.617
722.73	47.566
723.05	43.443
723.37	42.915
723.68	42.857
724.00	38.618
724.32	47.177
724.63	43.089
724.95	42.678
725.27	42.915
725.58	44.531
725.90	39.051
726.22	42.642
726.53	43.056
726.85	43.345
727.16	41.637
727.48	42.199
727.80	40.909
728.11	43.116
728.43	43.846
728.74	37.993
729.06	45.620
729.38	44.118
729.69	40.569
730.01	40.614
730.32	34.722
730.64	41.806
730.96	35.974
731.27	43.046
731.59	39.450
731.90	39.359
732.22	44.410
732.53	40.248
732.85	43.910
733.16	39.871
733.48	41.528
733.80	42.208
734.11	40.764
734.43	39.349
734.74	38.286
735.06	34.957
735.37	40.462
735.69	36.943
736.00	43.791
736.32	41.121
736.63	38.339
736.95	41.214
737.26	37.415
737.58	37.419
737.89	41.137
738.21	44.027
738.52	42.500
738.83	42.264
739.15	40.000
739.46	44.526
739.78	43.056
740.09	40.000
740.41	43.548
740.72	42.160
741.04	46.296
741.35	39.167
741.66	52.000
741.98	38.679
742.29	50.239
742.61	48.276
742.92	44.344
743.23	43.162
743.55	43.200
743.86	42.544
744.18	45.133
744.49	45.455
744.80	46.948
745.12	45.909
745.43	42.731
745.74	52.703
746.06	46.330
746.37	42.152
746.68	45.701
747.00	46.296
747.31	50.952
747.62	39.823
747.94	41.850
748.25	44.681
748.56	45.815
748.88	41.584
749.19	46.500
749.50	43.721
749.82	38.211
750.13	38.367
750.44	36.496
750.75	40.351
751.07	42.444
751.38	37.631
751.69	45.487
752.01	40.977
752.32	43.321
752.63	42.199
752.94	44.672
753.26	43.200
753.57	39.431
753.88	42.969
754.19	40.000
754.51	46.181
754.82	39.350
755.13	41.132
755.44	43.609
755.75	37.591
756.07	43.617
756.38	39.051
756.69	43.960
757.00	34.731
757.31	37.982
757.63	34.795
757.94	37.534
758.25	37.500
758.56	37.284
758.87	36.022
759.18	36.667
759.50	36.991
759.81	38.006
760.12	36.875
760.43	35.817
760.74	35.598
761.05	38.701
761.36	33.690
761.67	39.773
761.99	38.199
762.30	35.417
762.61	42.748
762.92	46.875
763.23	44.118
763.54	48.800
763.85	37.500
764.16	46.923
764.47	40.684
764.78	40.989
765.10	33.861
765.41	38.348
765.72	38.323
766.03	39.812
766.34	39.000
766.65	47.234
766.96	39.744
767.27	47.716
767.58	48.958
767.89	50.000
768.20	54.023
768.51	42.132
768.82	45.413
769.13	42.276
769.44	42.105
769.75	47.639
770.06	42.202
770.37	46.154
770.68	43.056
770.99	40.444
771.30	37.705
771.61	47.534
771.92	45.492
772.23	50.840
772.54	47.179
772.85	51.309
773.16	52.660
773.47	52.717
773.78	51.269
774.09	52.976
774.39	56.140
774.70	44.444
775.01	61.594
775.32	55.556
775.63	54.605
775.94	48.921
776.25	63.780
776.56	61.940
776.87	51.639
777.18	56.250
777.48	61.069
777.79	57.576
778.10	68.889
778.41	54.464
778.72	54.745
779.03	58.389
779.34	51.678
779.65	50.676
779.95	50.920
780.26	62.092
780.57	52.414
780.88	71.094
781.19	57.143
781.50	60.135
781.80	50.314
782.11	50.847
782.42	49.367
782.73	48.466
783.04	54.730
783.34	52.817
783.65	69.863
783.96	60.448
784.27	62.937
784.57	52.518
784.88	59.259
785.19	65.873
785.50	57.547
785.81	64.179
786.11	64.754
786.42	63.566
786.73	54.867
787.04	78.302
787.34	65.179
787.65	76.000
787.96	68.468
788.26	56.198
788.57	60.169
788.88	68.595
789.19	57.639
789.49	66.667
789.80	58.015
790.11	69.524
790.41	77.228
790.72	83.133
791.03	70.652
791.33	74.419
791.64	74.227
791.95	74.257
792.25	75.556
792.56	83.117
792.87	91.026
793.17	88.608
793.48	79.310
793.79	75.862
794.09	71.591
794.40	66.387
794.70	68.382
795.01	61.481
795.32	58.993
795.62	57.480
795.93	65.517
796.23	58.407
796.54	78.824
796.85	81.081
797.15	83.099
797.46	86.364
797.76	75.904
798.07	79.747
798.37	92.308
798.68	78.788
798.99	85.915
799.29	83.117
799.60	72.727
799.90	98.630
800.21	101.493
800.51	108.621
800.82	110.526
801.12	95.082
801.43	98.485
801.73	93.243
802.04	101.587
802.34	92.593
802.65	96.875
802.95	101.695
803.26	98.438
803.56	81.429
803.87	81.538
804.17	100.000
804.48	125.926
804.78	91.379
805.09	91.176
805.39	123.077
805.70	103.571
806.00	121.311
806.30	90.909
806.61	91.463
806.91	74.684
807.22	90.789
807.52	79.104
807.83	100.000
808.13	117.187
808.43	91.667
808.74	80.263
809.04	101.449
809.35	98.507
809.65	86.842
809.95	116.129
810.26	94.915
810.56	96.825
810.86	134.091
811.17	154.762
811.47	116.667
811.77	103.704
812.08	109.091
812.38	120.000
812.69	155.556
812.99	172.727
813.29	100.000
813.59	107.143
813.90	126.531
814.20	105.455
814.50	75.385
814.81	113.235
815.11	108.163
815.41	103.279
815.72	140.476
816.02	121.818
816.32	150.000
816.62	135.000
816.93	107.317
817.23	159.524
817.53	136.364
817.84	169.697
818.14	128.261
818.44	120.000
818.74	179.412
819.04	122.500
819.35	142.857
819.65	158.824
819.95	171.429
820.25	270.000
820.56	133.333
820.86	140.909
821.16	125.581
821.46	133.333
821.76	128.000
822.07	177.143
822.37	155.000
822.67	151.515
822.97	127.451
823.27	196.429
823.57	143.243
823.88	167.500
824.18	166.667
824.48	166.667
824.78	240.000
825.08	175.000
825.38	181.081
825.69	160.976
825.99	216.667
826.29	189.655
826.59	150.000
826.89	173.684
827.19	167.647
827.49	167.742
827.79	156.818
828.09	140.909
828.39	123.404
828.70	124.490
829.00	166.667
829.30	161.290
829.60	140.000
829.90	353.333
830.20	192.857
830.50	204.348
830.80	226.087
831.10	213.333
831.40	190.000
831.70	182.609
832.00	238.462
832.30	200.000
832.60	331.250
832.90	203.333
833.20	350.000
833.50	158.065
833.80	196.552
834.10	184.375
834.40	219.231
834.70	316.667
835.00	323.810
835.30	162.857
835.60	315.385
835.90	200.000
836.20	392.857
836.50	206.897
836.80	200.000
837.10	183.333
837.40	209.524
837.70	270.588
838.00	203.704
838.30	266.667
838.60	300.000
838.90	250.000
839.19	250.000
839.49	392.857
839.79	330.000
840.09	295.000
840.39	280.952
840.69	273.913
840.99	288.889
841.29	530.000
841.59	358.333
841.88	368.750
842.18	175.862
842.48	319.048
842.78	180.000
843.08	273.913
843.38	187.500
843.68	933.333
843.97	226.923
844.27	210.345
844.57	304.762
844.87	356.250
845.17	233.333
845.47	1466.667
845.76	555.556
846.06	252.941
846.36	512.500
846.66	314.286
846.96	275.000
847.25	409.091
847.55	490.909
847.85	265.217
848.15	600.000
848.44	328.571
848.74	272.222
849.04	294.118
849.34	480.000
849.63	257.895
849.93	445.455
850.23	1080.000
850.53	342.857
850.82	2300.000
851.12	-4000.000
851.42	5100.000
851.71	300.000
852.01	-1333.333
852.31	250.000
852.61	1366.667
852.90	252.381
853.20	236.000
853.50	347.059
853.79	266.667
854.09	245.833
854.39	312.500
854.68	137.838
854.98	183.871
855.28	173.333
855.57	200.000
855.87	233.333
856.17	294.737
856.46	266.667
856.76	317.647
857.05	196.552
857.35	225.000
857.65	300.000
857.94	217.391
858.24	234.615
858.53	265.000
858.83	245.455
859.13	380.000
859.42	0.000
859.72	500.000
860.01	481.818
860.31	286.364
860.60	242.105
860.90	213.043
861.20	611.111
861.49	516.667
861.79	-5200.000
862.08	650.000
862.38	247.619
862.67	338.462
862.97	329.412
863.26	544.444
863.56	266.667
863.85	383.333
864.15	562.500
864.44	380.000
864.74	866.667
865.03	687.500
865.33	273.684
865.62	445.455
865.92	476.923
866.21	350.000
866.51	0.000
866.80	500.000
867.10	1100.000
867.39	453.846
867.69	481.818
867.98	273.684
868.27	472.727
868.57	305.263
868.86	-4400.000
869.16	337.500
869.45	2150.000
869.75	-4000.000
870.04	400.000
870.33	628.571
870.63	1150.000
870.92	2600.000
871.22	785.714
871.51	347.059
871.80	238.095
872.10	335.714
>>>>>End Processed Spectral Data<<<<<
