SpectraSuite Data File
++++++++++++++++++++++++++++++++++++
Date: Wed May 13 21:03:56 PDT 2015
User: schluterlab
Dark Spectrum Present: Yes
Reference Spectrum Present: Yes
Number of Sampled Component Spectra: 1
Spectrometers: USB2E3373
Integration Time (usec): 3000 (USB2E3373)
Spectra Averaged: 3 (USB2E3373)
Boxcar Smoothing: 0 (USB2E3373)
Correct for Electrical Dark: No (USB2E3373)
Strobe/Lamp Enabled: No (USB2E3373)
Correct for Detector Non-linearity: No (USB2E3373)
Correct for Stray Light: No (USB2E3373)
Number of Pixels in Processed Spectrum: 2048
>>>>>Begin Processed Spectral Data<<<<<
178.53	0.000
178.91	300.000
179.29	100.000
179.67	-100.000
180.04	-66.667
180.42	60.000
180.80	900.000
181.18	216.667
181.56	-325.000
181.94	150.000
182.31	27.273
182.69	169.231
183.07	20.000
183.45	216.667
183.83	77.778
184.20	-28.571
184.58	233.333
184.96	-0.000
185.34	71.429
185.72	0.000
186.09	-400.000
186.47	-160.000
186.85	-60.000
187.23	550.000
187.61	350.000
187.98	1200.000
188.36	175.000
188.74	0.000
189.12	9.091
189.49	10.000
189.87	100.000
190.25	420.000
190.63	100.000
191.00	80.000
191.38	80.000
191.76	275.000
192.14	133.333
192.51	5.263
192.89	266.667
193.27	275.000
193.65	-200.000
194.02	109.091
194.40	120.000
194.78	-500.000
195.15	160.000
195.53	-60.000
195.91	-12.500
196.29	266.667
196.66	0.000
197.04	500.000
197.42	40.000
197.79	-20.000
198.17	-100.000
198.55	0.000
198.92	350.000
199.30	-233.333
199.68	-50.000
200.05	-450.000
200.43	100.000
200.81	-500.000
201.18	-240.000
201.56	-33.333
201.94	300.000
202.31	26.087
202.69	28.571
203.07	-300.000
203.44	-240.000
203.82	-66.667
204.19	-30.000
204.57	0.000
204.95	-33.333
205.32	0.000
205.70	-300.000
206.08	-175.000
206.45	-16.667
206.83	275.000
207.20	-133.333
207.58	-40.000
207.96	-1700.000
208.33	-328.571
208.71	-800.000
209.08	162.500
209.46	375.000
209.84	0.000
210.21	40.000
210.59	1500.000
210.96	40.000
211.34	100.000
211.71	0.000
212.09	-33.333
212.46	-100.000
212.84	-133.333
213.22	-150.000
213.59	700.000
213.97	-450.000
214.34	-650.000
214.72	69.231
215.09	87.500
215.47	-33.333
215.84	400.000
216.22	-75.000
216.59	-100.000
216.97	500.000
217.34	-11.111
217.72	0.000
218.09	-66.667
218.47	0.000
218.84	-57.143
219.22	-25.000
219.59	-166.667
219.97	-125.000
220.34	25.000
220.72	-160.000
221.09	0.000
221.47	-133.333
221.84	-200.000
222.22	0.000
222.59	500.000
222.97	33.333
223.34	-25.000
223.72	-600.000
224.09	50.000
224.46	0.000
224.84	-37.500
225.21	-71.429
225.59	-50.000
225.96	-33.333
226.34	40.000
226.71	-114.286
227.08	800.000
227.46	-25.000
227.83	100.000
228.21	25.000
228.58	-275.000
228.95	-23.529
229.33	50.000
229.70	-50.000
230.08	61.538
230.45	-162.500
230.82	33.333
231.20	214.286
231.57	0.000
231.95	800.000
232.32	-16.667
232.69	23.529
233.07	-1400.000
233.44	0.000
233.81	-800.000
234.19	4.167
234.56	-73.333
234.93	0.000
235.31	-15.789
235.68	-115.385
236.05	46.154
236.43	0.000
236.80	-21.212
237.17	-46.667
237.55	17.647
237.92	-10.345
238.29	-37.037
238.67	-5.556
239.04	-41.935
239.41	-34.043
239.79	12.766
240.16	-13.953
240.53	-10.714
240.91	5.357
241.28	1.786
241.65	3.226
242.02	-1.316
242.40	-1.449
242.77	-26.087
243.14	-20.513
243.51	-7.447
243.89	1.923
244.26	1.887
244.63	-12.500
245.00	4.167
245.38	5.042
245.75	-5.738
246.12	3.759
246.49	-11.382
246.87	-11.765
247.24	2.027
247.61	-4.636
247.98	1.282
248.36	-4.142
248.73	-5.056
249.10	2.525
249.47	-3.226
249.84	-1.053
250.22	-0.498
250.59	-0.935
250.96	0.000
251.33	-7.177
251.70	3.347
252.08	-1.255
252.45	0.412
252.82	1.901
253.19	-0.389
253.56	0.719
253.94	-0.356
254.31	-2.465
254.68	0.336
255.05	0.990
255.42	-2.098
255.79	-1.227
256.16	-1.262
256.54	-0.635
256.91	-5.696
257.28	-0.629
257.65	-3.822
258.02	0.587
258.39	-0.292
258.76	1.163
259.14	-1.705
259.51	-1.404
259.88	0.271
260.25	-0.556
260.62	-0.843
260.99	1.061
261.36	0.518
261.73	-1.728
262.10	0.000
262.47	-2.222
262.85	-1.990
263.22	-1.282
263.59	-0.260
263.96	-1.460
264.33	-3.365
264.70	-2.326
265.07	-0.926
265.44	-1.149
265.81	-1.144
266.18	-2.733
266.55	-1.747
266.92	-0.636
267.29	-1.440
267.66	1.274
268.03	-0.412
268.40	-1.059
268.77	0.826
269.14	0.204
269.51	4.312
269.88	-2.648
270.25	-1.271
270.62	-2.664
270.99	1.181
271.36	0.000
271.73	-0.602
272.10	0.381
272.47	-1.344
272.84	0.591
273.21	-0.783
273.58	-1.844
273.95	0.189
274.32	-0.746
274.69	1.275
275.06	3.534
275.43	-0.942
275.80	-0.355
276.17	-0.184
276.54	-1.421
276.91	1.220
277.28	-0.542
277.65	0.000
278.02	2.321
278.39	-0.178
278.76	0.669
279.13	-0.515
279.50	-1.379
279.87	-0.362
280.23	-0.541
280.60	-1.557
280.97	-0.487
281.34	1.577
281.71	0.163
282.08	-1.368
282.45	-0.328
282.82	-0.160
283.19	0.457
283.56	0.469
283.92	-0.306
284.29	-0.468
284.66	-3.130
285.03	-0.489
285.40	-0.302
285.77	0.450
286.14	-0.608
286.51	1.049
286.87	-0.154
287.24	-0.590
287.61	-0.753
287.98	-0.147
288.35	-1.639
288.72	0.143
289.08	0.712
289.45	-0.294
289.82	-1.513
290.19	0.000
290.56	0.284
290.93	-1.105
291.29	-0.958
291.66	-0.137
292.03	0.817
292.40	-1.346
292.77	0.000
293.13	-0.697
293.50	1.699
293.87	0.133
294.24	-0.794
294.60	0.780
294.97	1.984
295.34	-0.792
295.71	-1.708
296.08	-0.131
296.44	-0.893
296.81	-0.244
297.18	0.375
297.55	0.708
297.91	-0.373
298.28	0.605
298.65	-0.246
299.02	0.366
299.38	-0.859
299.75	0.361
300.12	-1.279
300.48	0.819
300.85	-0.808
301.22	0.813
301.59	-0.704
301.95	-1.394
302.32	-0.467
302.69	-1.808
303.05	-0.664
303.42	0.000
303.79	1.262
304.15	0.329
304.52	0.860
304.89	-0.664
305.25	-0.878
305.62	-0.108
305.99	0.109
306.35	-0.104
306.72	0.712
307.09	0.417
307.45	-0.319
307.82	0.211
308.19	-0.731
308.55	-0.819
308.92	1.081
309.29	-0.200
309.65	0.699
310.02	0.596
310.38	0.915
310.75	0.099
311.12	0.292
311.48	0.000
311.85	0.492
312.22	0.193
312.58	1.063
312.95	0.796
313.31	2.112
313.68	1.527
314.05	0.945
314.41	1.441
314.78	1.803
315.14	2.130
315.51	2.093
315.87	2.502
316.24	2.296
316.61	3.105
316.97	2.870
317.34	3.565
317.70	3.122
318.07	4.437
318.43	4.336
318.80	3.578
319.16	4.332
319.53	4.928
319.89	4.788
320.26	5.915
320.62	4.634
320.99	6.395
321.35	5.051
321.72	6.064
322.08	6.827
322.45	7.216
322.81	7.209
323.18	7.692
323.54	8.303
323.91	8.130
324.27	8.461
324.64	8.449
325.00	9.099
325.37	9.898
325.73	9.596
326.10	10.513
326.46	10.033
326.83	10.680
327.19	10.894
327.56	11.684
327.92	10.861
328.29	12.104
328.65	12.708
329.01	11.170
329.38	13.304
329.74	13.734
330.11	12.263
330.47	12.934
330.84	13.538
331.20	13.151
331.56	13.768
331.93	12.575
332.29	14.248
332.66	13.475
333.02	13.553
333.38	14.123
333.75	15.017
334.11	14.149
334.48	14.037
334.84	14.399
335.20	14.151
335.57	14.708
335.93	12.973
336.29	13.135
336.66	14.359
337.02	14.870
337.38	16.101
337.75	15.159
338.11	14.518
338.47	14.897
338.84	15.206
339.20	14.462
339.56	15.017
339.93	15.730
340.29	14.603
340.65	16.253
341.02	15.391
341.38	14.949
341.74	14.034
342.11	15.277
342.47	15.983
342.83	14.134
343.20	15.905
343.56	16.190
343.92	15.110
344.28	16.883
344.65	15.184
345.01	15.577
345.37	16.118
345.73	16.830
346.10	16.934
346.46	17.480
346.82	16.372
347.19	15.981
347.55	16.559
347.91	16.524
348.27	16.798
348.63	17.468
349.00	16.274
349.36	17.347
349.72	17.633
350.08	17.629
350.45	16.523
350.81	17.527
351.17	18.168
351.53	16.418
351.89	17.236
352.26	16.834
352.62	16.744
352.98	16.933
353.34	17.874
353.70	18.380
354.07	18.980
354.43	17.807
354.79	18.590
355.15	18.866
355.51	18.375
355.87	18.296
356.24	18.860
356.60	19.156
356.96	19.033
357.32	18.189
357.68	19.022
358.04	19.550
358.40	18.295
358.77	19.343
359.13	18.833
359.49	19.152
359.85	20.697
360.21	19.661
360.57	19.696
360.93	19.272
361.29	20.429
361.66	19.666
362.02	18.977
362.38	19.202
362.74	18.637
363.10	19.378
363.46	19.524
363.82	20.030
364.18	19.144
364.54	20.496
364.90	19.443
365.26	19.462
365.62	20.241
365.98	20.000
366.35	20.355
366.71	19.044
367.07	20.340
367.43	20.279
367.79	20.083
368.15	21.097
368.51	19.972
368.87	21.144
369.23	20.569
369.59	19.803
369.95	20.319
370.31	20.921
370.67	20.058
371.03	20.416
371.39	20.937
371.75	21.214
372.11	21.011
372.47	20.764
372.83	21.706
373.19	21.007
373.55	22.616
373.91	21.499
374.27	21.231
374.63	20.555
374.99	21.309
375.35	21.301
375.71	21.196
376.07	22.687
376.42	22.527
376.78	22.919
377.14	22.441
377.50	22.034
377.86	22.576
378.22	22.503
378.58	22.005
378.94	22.438
379.30	22.611
379.66	22.811
380.02	22.733
380.38	22.711
380.74	24.088
381.09	22.919
381.45	22.672
381.81	23.413
382.17	22.495
382.53	23.200
382.89	23.221
383.25	22.593
383.61	23.305
383.97	23.875
384.32	23.062
384.68	23.504
385.04	23.763
385.40	23.786
385.76	24.148
386.12	24.145
386.48	23.950
386.83	24.218
387.19	24.121
387.55	24.647
387.91	24.600
388.27	24.168
388.62	25.031
388.98	25.156
389.34	25.376
389.70	24.542
390.06	24.625
390.42	25.387
390.77	25.496
391.13	25.253
391.49	25.427
391.85	24.728
392.20	25.439
392.56	25.714
392.92	24.634
393.28	24.869
393.64	25.015
393.99	23.990
394.35	24.877
394.71	25.256
395.07	25.157
395.42	26.082
395.78	24.646
396.14	25.555
396.50	24.984
396.85	25.175
397.21	25.218
397.57	25.528
397.92	24.551
398.28	24.365
398.64	25.744
399.00	25.502
399.35	25.539
399.71	25.859
400.07	24.398
400.42	25.455
400.78	25.317
401.14	24.893
401.49	25.165
401.85	26.351
402.21	25.820
402.57	25.506
402.92	25.344
403.28	26.141
403.63	25.480
403.99	25.656
404.35	25.873
404.70	25.257
405.06	25.543
405.42	24.874
405.77	25.461
406.13	24.800
406.49	25.225
406.84	24.969
407.20	25.755
407.55	26.104
407.91	25.281
408.27	24.641
408.62	25.599
408.98	25.894
409.34	25.433
409.69	26.186
410.05	25.498
410.40	24.589
410.76	24.910
411.11	25.498
411.47	25.149
411.83	24.953
412.18	26.196
412.54	26.692
412.89	25.705
413.25	23.953
413.60	25.266
413.96	25.094
414.31	25.586
414.67	25.270
415.03	25.169
415.38	24.505
415.74	25.991
416.09	25.777
416.45	25.290
416.80	25.101
417.16	26.451
417.51	24.648
417.87	24.868
418.22	25.663
418.58	25.164
418.93	24.733
419.29	25.413
419.64	24.109
420.00	24.952
420.35	25.164
420.71	24.314
421.06	24.600
421.42	24.574
421.77	25.434
422.12	25.272
422.48	24.537
422.83	25.458
423.19	24.784
423.54	25.029
423.90	24.347
424.25	25.072
424.61	25.077
424.96	24.423
425.31	23.892
425.67	24.339
426.02	24.912
426.38	24.440
426.73	24.679
427.09	24.453
427.44	24.310
427.79	24.347
428.15	24.465
428.50	24.109
428.85	24.293
429.21	23.635
429.56	24.336
429.92	24.883
430.27	24.387
430.62	22.823
430.98	24.432
431.33	23.804
431.68	24.068
432.04	23.324
432.39	23.268
432.74	24.157
433.10	24.346
433.45	23.787
433.80	24.253
434.16	22.829
434.51	23.587
434.86	24.146
435.22	23.599
435.57	24.201
435.92	23.764
436.28	23.303
436.63	24.134
436.98	23.149
437.34	23.871
437.69	23.022
438.04	22.864
438.39	22.790
438.75	24.017
439.10	23.540
439.45	23.123
439.81	23.768
440.16	22.435
440.51	22.057
440.86	23.711
441.22	23.293
441.57	23.482
441.92	22.758
442.27	22.511
442.63	21.851
442.98	22.512
443.33	22.630
443.68	22.088
444.03	22.255
444.39	22.707
444.74	22.198
445.09	22.687
445.44	22.761
445.79	22.406
446.15	22.463
446.50	23.458
446.85	23.356
447.20	23.001
447.55	22.272
447.91	22.416
448.26	21.498
448.61	21.922
448.96	22.380
449.31	22.273
449.66	22.383
450.02	22.115
450.37	22.033
450.72	21.584
451.07	21.944
451.42	21.834
451.77	21.729
452.12	21.628
452.47	22.531
452.83	21.344
453.18	22.215
453.53	21.753
453.88	21.446
454.23	22.311
454.58	21.998
454.93	21.809
455.28	22.222
455.63	20.212
455.98	20.755
456.34	21.043
456.69	21.022
457.04	20.991
457.39	20.926
457.74	21.005
458.09	20.972
458.44	20.858
458.79	20.373
459.14	20.506
459.49	20.671
459.84	20.124
460.19	20.228
460.54	20.803
460.89	20.664
461.24	20.345
461.59	19.988
461.94	20.670
462.29	20.527
462.64	19.789
462.99	21.060
463.34	20.787
463.69	20.747
464.04	18.908
464.39	20.073
464.74	20.577
465.09	20.149
465.44	20.539
465.79	20.989
466.14	19.897
466.49	19.824
466.84	20.681
467.19	19.363
467.54	20.480
467.89	19.673
468.24	19.115
468.59	18.802
468.94	19.476
469.29	19.233
469.64	20.014
469.99	20.414
470.34	19.690
470.68	20.074
471.03	20.028
471.38	18.846
471.73	18.793
472.08	19.038
472.43	19.195
472.78	18.864
473.13	17.876
473.48	18.004
473.83	18.016
474.17	18.099
474.52	19.094
474.87	18.577
475.22	18.357
475.57	18.516
475.92	17.884
476.27	18.124
476.61	18.120
476.96	17.933
477.31	17.799
477.66	17.627
478.01	17.363
478.36	18.147
478.70	17.884
479.05	17.647
479.40	17.681
479.75	17.163
480.10	17.695
480.45	17.803
480.79	17.322
481.14	17.832
481.49	17.020
481.84	16.965
482.19	17.091
482.53	17.571
482.88	17.306
483.23	16.362
483.58	17.250
483.92	16.780
484.27	16.560
484.62	16.733
484.97	17.503
485.31	16.447
485.66	16.537
486.01	16.466
486.36	16.519
486.70	16.307
487.05	16.559
487.40	16.527
487.75	16.595
488.09	16.891
488.44	16.334
488.79	16.540
489.13	16.700
489.48	16.631
489.83	16.391
490.17	15.842
490.52	17.017
490.87	15.484
491.22	15.780
491.56	15.764
491.91	15.266
492.26	15.474
492.60	14.815
492.95	16.181
493.30	15.843
493.64	14.868
493.99	15.217
494.34	15.607
494.68	15.370
495.03	14.427
495.37	14.307
495.72	14.436
496.07	15.782
496.41	14.647
496.76	15.722
497.11	15.728
497.45	14.737
497.80	15.295
498.14	15.264
498.49	14.624
498.84	14.980
499.18	14.435
499.53	14.229
499.87	14.022
500.22	14.435
500.56	15.496
500.91	14.688
501.26	14.581
501.60	14.657
501.95	14.327
502.29	14.563
502.64	14.417
502.98	14.836
503.33	14.355
503.67	14.216
504.02	14.069
504.36	13.918
504.71	14.278
505.06	14.570
505.40	14.175
505.75	14.344
506.09	14.001
506.44	13.911
506.78	13.357
507.13	13.565
507.47	13.256
507.82	13.710
508.16	13.562
508.51	13.585
508.85	13.686
509.19	13.704
509.54	13.727
509.88	13.602
510.23	13.789
510.57	13.400
510.92	13.254
511.26	13.916
511.61	13.557
511.95	12.459
512.30	13.159
512.64	13.734
512.98	13.241
513.33	13.352
513.67	13.004
514.02	13.341
514.36	12.921
514.70	12.471
515.05	13.283
515.39	12.500
515.74	12.374
516.08	12.920
516.42	12.327
516.77	12.478
517.11	11.993
517.46	12.845
517.80	12.954
518.14	11.819
518.49	12.116
518.83	12.530
519.17	12.349
519.52	12.002
519.86	12.629
520.20	11.461
520.55	11.816
520.89	12.650
521.23	12.051
521.58	12.579
521.92	11.942
522.26	11.906
522.61	13.187
522.95	12.565
523.29	12.000
523.64	12.079
523.98	12.198
524.32	12.602
524.66	10.909
525.01	11.206
525.35	11.982
525.69	11.199
526.04	11.726
526.38	12.428
526.72	11.308
527.06	11.412
527.41	11.780
527.75	10.881
528.09	12.526
528.43	11.805
528.78	11.047
529.12	12.807
529.46	11.324
529.80	10.874
530.15	11.197
530.49	11.388
530.83	10.968
531.17	12.123
531.51	10.654
531.86	10.637
532.20	11.234
532.54	10.069
532.88	11.504
533.22	10.976
533.57	10.199
533.91	11.871
534.25	11.719
534.59	11.133
534.93	11.671
535.27	10.955
535.62	10.395
535.96	11.516
536.30	11.569
536.64	10.116
536.98	11.002
537.32	10.249
537.66	10.578
538.01	10.541
538.35	10.566
538.69	9.833
539.03	10.671
539.37	9.926
539.71	10.505
540.05	10.864
540.39	9.979
540.73	10.615
541.07	10.680
541.42	10.909
541.76	10.352
542.10	10.088
542.44	9.979
542.78	10.409
543.12	10.647
543.46	10.574
543.80	9.844
544.14	10.461
544.48	9.555
544.82	9.684
545.16	10.345
545.50	10.939
545.84	9.677
546.18	10.098
546.52	10.656
546.86	9.117
547.20	10.365
547.54	9.221
547.88	10.661
548.22	10.489
548.56	9.740
548.90	10.419
549.24	9.722
549.58	9.324
549.92	10.345
550.26	10.037
550.60	9.459
550.94	9.925
551.28	9.765
551.62	9.624
551.96	10.249
552.30	9.098
552.64	8.969
552.98	10.511
553.32	10.022
553.66	9.905
554.00	9.215
554.34	9.158
554.68	9.843
555.02	9.431
555.36	8.775
555.69	8.740
556.03	9.364
556.37	8.962
556.71	9.671
557.05	8.856
557.39	8.817
557.73	9.380
558.07	9.194
558.41	8.781
558.75	10.239
559.08	8.019
559.42	9.520
559.76	8.486
560.10	8.455
560.44	10.317
560.78	8.705
561.12	9.040
561.45	8.707
561.79	9.216
562.13	8.861
562.47	8.571
562.81	7.720
563.15	8.428
563.48	7.983
563.82	8.413
564.16	8.802
564.50	8.955
564.84	8.649
565.17	9.934
565.51	9.492
565.85	8.328
566.19	8.344
566.52	8.585
566.86	8.660
567.20	8.735
567.54	8.751
567.88	8.679
568.21	9.017
568.55	9.233
568.89	8.325
569.23	8.616
569.56	8.594
569.90	9.164
570.24	8.303
570.57	8.734
570.91	8.988
571.25	8.535
571.59	8.178
571.92	8.419
572.26	8.346
572.60	8.131
572.93	8.779
573.27	8.442
573.61	8.955
573.95	8.355
574.28	8.533
574.62	8.813
574.96	8.686
575.29	8.300
575.63	7.982
575.97	8.750
576.30	8.618
576.64	8.226
576.98	8.426
577.31	8.681
577.65	8.085
577.98	8.049
578.32	8.153
578.66	8.429
578.99	8.380
579.33	8.421
579.67	8.198
580.00	8.025
580.34	8.289
580.67	8.550
581.01	7.906
581.35	7.890
581.68	8.423
582.02	8.108
582.35	8.122
582.69	8.232
583.02	7.910
583.36	8.245
583.70	8.057
584.03	8.358
584.37	7.814
584.70	8.016
585.04	8.130
585.37	7.995
585.71	7.935
586.04	7.794
586.38	8.208
586.72	7.867
587.05	8.347
587.39	8.390
587.72	7.553
588.06	7.934
588.39	7.809
588.73	7.762
589.06	7.565
589.40	7.843
589.73	7.654
590.07	7.729
590.40	8.141
590.73	7.901
591.07	7.564
591.40	7.435
591.74	7.381
592.07	8.079
592.41	8.194
592.74	8.025
593.08	7.385
593.41	8.285
593.75	7.397
594.08	7.634
594.41	7.495
594.75	7.759
595.08	7.954
595.42	7.409
595.75	7.990
596.09	7.198
596.42	7.394
596.75	7.898
597.09	8.235
597.42	7.627
597.75	7.556
598.09	7.377
598.42	8.143
598.76	7.431
599.09	7.603
599.42	7.591
599.76	8.186
600.09	7.605
600.42	7.495
600.76	7.945
601.09	7.533
601.42	7.330
601.76	7.838
602.09	7.377
602.42	7.346
602.76	7.005
603.09	7.926
603.42	7.757
603.76	7.638
604.09	7.115
604.42	7.325
604.76	7.202
605.09	7.250
605.42	7.602
605.75	6.595
606.09	7.326
606.42	7.357
606.75	6.926
607.09	6.959
607.42	7.443
607.75	7.002
608.08	7.214
608.42	7.498
608.75	6.976
609.08	7.398
609.41	7.799
609.75	6.909
610.08	7.446
610.41	7.726
610.74	7.459
611.07	7.365
611.41	7.574
611.74	7.091
612.07	6.722
612.40	7.730
612.73	7.135
613.07	6.874
613.40	6.443
613.73	7.205
614.06	6.633
614.39	7.671
614.72	7.496
615.06	6.389
615.39	6.898
615.72	6.965
616.05	7.207
616.38	7.102
616.71	6.899
617.05	6.757
617.38	7.209
617.71	6.127
618.04	7.008
618.37	7.192
618.70	6.727
619.03	6.460
619.36	7.331
619.69	6.360
620.03	7.138
620.36	5.776
620.69	6.638
621.02	6.462
621.35	6.051
621.68	7.172
622.01	6.553
622.34	6.741
622.67	7.126
623.00	7.523
623.33	7.031
623.66	7.286
623.99	6.752
624.32	6.823
624.65	7.196
624.99	6.613
625.32	6.423
625.65	7.054
625.98	6.398
626.31	6.449
626.64	6.621
626.97	6.574
627.30	6.587
627.63	6.488
627.96	5.974
628.29	5.860
628.62	7.157
628.95	6.513
629.28	6.601
629.61	7.368
629.94	7.253
630.26	7.488
630.59	5.594
630.92	6.325
631.25	6.694
631.58	7.816
631.91	5.408
632.24	6.147
632.57	5.889
632.90	6.418
633.23	4.916
633.56	6.954
633.89	7.057
634.22	8.716
634.55	6.699
634.88	5.637
635.20	7.000
635.53	5.168
635.86	5.897
636.19	6.079
636.52	5.122
636.85	6.152
637.18	4.994
637.51	6.991
637.83	7.441
638.16	5.733
638.49	4.539
638.82	5.229
639.15	4.920
639.48	6.283
639.81	5.694
640.13	6.620
640.46	6.638
640.79	6.043
641.12	5.769
641.45	6.550
641.77	6.038
642.10	6.657
642.43	5.346
642.76	4.259
643.09	7.348
643.41	4.944
643.74	4.847
644.07	5.016
644.40	6.302
644.73	5.932
645.05	2.443
645.38	5.482
645.71	6.122
646.04	4.209
646.36	5.382
646.69	7.343
647.02	6.375
647.35	5.484
647.67	5.360
648.00	5.072
648.33	6.780
648.66	5.175
648.98	5.901
649.31	5.061
649.64	3.443
649.96	5.845
650.29	5.719
650.62	5.107
650.94	5.000
651.27	6.007
651.60	4.720
651.92	5.018
652.25	6.533
652.58	6.601
652.90	3.199
653.23	4.075
653.56	6.777
653.88	4.266
654.21	3.754
654.54	5.316
654.86	3.740
655.19	5.042
655.52	6.834
655.84	5.876
656.17	7.276
656.49	9.436
656.82	9.498
657.15	7.078
657.47	5.338
657.80	3.938
658.13	4.184
658.45	6.215
658.78	6.087
659.10	6.126
659.43	5.424
659.75	6.015
660.08	6.069
660.41	5.274
660.73	4.545
661.06	4.082
661.38	2.519
661.71	5.943
662.03	7.400
662.36	4.646
662.68	5.161
663.01	7.627
663.33	2.376
663.66	1.774
663.98	5.843
664.31	3.956
664.63	2.252
664.96	5.470
665.28	6.438
665.61	1.944
665.93	4.069
666.26	7.806
666.58	6.638
666.91	6.278
667.23	3.226
667.56	6.207
667.88	3.037
668.21	4.688
668.53	2.529
668.86	5.276
669.18	4.728
669.50	6.682
669.83	6.683
670.15	3.571
670.48	6.667
670.80	6.783
671.13	3.890
671.45	4.338
671.77	4.957
672.10	4.288
672.42	5.916
672.75	5.179
673.07	5.455
673.39	5.037
673.72	6.986
674.04	7.787
674.37	7.114
674.69	5.350
675.01	4.701
675.34	4.158
675.66	5.664
675.98	6.416
676.31	4.072
676.63	8.617
676.95	3.059
677.28	2.523
677.60	6.127
677.92	4.878
678.25	3.037
678.57	5.906
678.89	2.985
679.22	5.176
679.54	6.327
679.86	7.227
680.18	4.808
680.51	2.885
680.83	3.314
681.15	4.322
681.48	4.208
681.80	4.499
682.12	2.917
682.44	3.622
682.77	2.105
683.09	2.009
683.41	2.558
683.73	4.688
684.06	6.195
684.38	4.274
684.70	3.055
685.02	5.165
685.34	4.892
685.67	4.315
685.99	5.160
686.31	5.345
686.63	4.412
686.96	6.494
687.28	3.593
687.60	4.726
687.92	6.615
688.24	4.000
688.56	7.237
688.89	2.227
689.21	3.812
689.53	3.153
689.85	5.843
690.17	7.473
690.49	3.623
690.82	2.387
691.14	3.865
691.46	1.392
691.78	5.055
692.10	4.034
692.42	2.418
692.74	5.217
693.06	1.573
693.39	6.557
693.71	5.333
694.03	5.455
694.35	6.532
694.67	6.000
694.99	4.639
695.31	4.910
695.63	7.317
695.95	4.580
696.27	1.370
696.59	2.419
696.91	5.866
697.23	2.538
697.56	3.597
697.88	10.395
698.20	4.968
698.52	5.140
698.84	3.589
699.16	5.201
699.48	5.679
699.80	7.494
700.12	5.898
700.44	5.915
700.76	2.528
701.08	3.323
701.40	2.994
701.72	2.154
702.04	1.887
702.36	3.659
702.68	-1.524
703.00	5.556
703.32	0.000
703.64	6.024
703.96	3.812
704.28	4.518
704.60	2.744
704.91	4.389
705.23	5.063
705.55	10.000
705.87	4.930
706.19	2.198
706.51	2.817
706.83	1.592
707.15	6.098
707.47	2.479
707.79	6.599
708.11	3.856
708.43	3.553
708.74	6.383
709.06	3.743
709.38	5.187
709.70	4.505
710.02	6.231
710.34	0.667
710.66	3.257
710.98	3.715
711.29	4.545
711.61	3.548
711.93	3.226
712.25	-1.049
712.57	-0.351
712.89	3.663
713.20	6.738
713.52	2.920
713.84	5.484
714.16	3.883
714.48	4.114
714.80	1.597
715.11	8.721
715.43	1.863
715.75	6.832
716.07	6.325
716.39	5.724
716.70	3.597
717.02	-1.569
717.34	4.545
717.66	-0.862
717.97	4.762
718.29	5.512
718.61	0.858
718.93	-0.775
719.24	5.166
719.56	2.247
719.88	1.119
720.20	3.953
720.51	3.906
720.83	6.226
721.15	-1.626
721.46	4.962
721.78	1.992
722.10	-0.398
722.42	1.613
722.73	3.861
723.05	2.857
723.37	4.622
723.68	3.600
724.00	0.000
724.32	1.255
724.63	9.053
724.95	1.709
725.27	7.595
725.58	9.877
725.90	5.858
726.22	6.159
726.53	-0.392
726.85	5.109
727.16	3.704
727.48	5.747
727.80	4.297
728.11	0.820
728.43	4.297
728.74	5.952
729.06	0.800
729.38	3.557
729.69	9.609
730.01	2.974
730.32	7.380
730.64	4.545
730.96	8.042
731.27	0.334
731.59	7.937
731.90	5.502
732.22	2.244
732.53	1.689
732.85	3.691
733.16	7.261
733.48	4.392
733.80	2.027
734.11	6.419
734.43	2.786
734.74	6.006
735.06	5.187
735.37	6.079
735.69	3.236
736.00	0.330
736.32	0.709
736.63	1.724
736.95	3.082
737.26	4.483
737.58	4.167
737.89	6.529
738.21	6.406
738.52	2.662
738.83	4.898
739.15	3.376
739.46	0.778
739.78	1.761
740.09	6.507
740.41	3.571
740.72	3.546
741.04	-1.200
741.35	4.825
741.66	2.667
741.98	1.923
742.29	9.901
742.61	1.463
742.92	10.526
743.23	1.887
743.55	4.955
743.86	3.139
744.18	0.490
744.49	0.508
744.80	-3.061
745.12	6.075
745.43	3.318
745.74	4.955
746.06	3.271
746.37	3.670
746.68	0.481
747.00	5.742
747.31	4.327
747.62	9.633
747.94	5.677
748.25	0.459
748.56	8.000
748.88	9.859
749.19	7.143
749.50	1.942
749.82	-4.695
750.13	-5.833
750.44	0.385
750.75	2.583
751.07	6.762
751.38	5.674
751.69	8.108
752.01	6.641
752.32	2.692
752.63	5.970
752.94	4.000
753.26	3.347
753.57	3.750
753.88	4.858
754.19	2.789
754.51	1.128
754.82	2.564
755.13	-3.913
755.44	6.098
755.75	1.200
756.07	0.738
756.38	5.036
756.69	5.119
757.00	4.361
757.31	3.560
757.63	1.543
757.94	4.802
758.25	3.439
758.56	0.272
758.87	4.762
759.18	4.416
759.50	3.704
759.81	5.351
760.12	6.462
760.43	0.893
760.74	4.520
761.05	5.525
761.36	2.865
761.67	3.323
761.99	-0.344
762.30	2.555
762.61	1.646
762.92	2.991
763.23	8.607
763.54	6.061
763.85	4.082
764.16	0.000
764.47	4.800
764.78	2.500
765.10	1.311
765.41	2.432
765.72	5.901
766.03	6.931
766.34	4.231
766.65	0.418
766.96	3.756
767.27	5.941
767.58	-7.865
767.89	5.556
768.20	0.000
768.51	5.025
768.82	4.808
769.13	3.982
769.44	10.042
769.75	0.855
770.06	3.587
770.37	0.000
770.68	0.971
770.99	2.913
771.30	5.042
771.61	-0.408
771.92	6.639
772.23	1.351
772.54	-3.867
772.85	1.744
773.16	7.937
773.47	-7.692
773.78	5.172
774.09	6.250
774.39	4.348
774.70	4.762
775.01	-0.690
775.32	6.429
775.63	0.000
775.94	-6.015
776.25	4.000
776.56	4.132
776.87	7.143
777.18	-5.405
777.48	-4.505
777.79	0.787
778.10	6.422
778.41	-5.263
778.72	-2.521
779.03	4.930
779.34	3.378
779.65	-1.408
779.95	-0.662
780.26	-2.158
780.57	0.000
780.88	1.408
781.19	2.521
781.50	10.738
781.80	5.263
782.11	-4.651
782.42	3.774
782.73	5.229
783.04	6.207
783.34	1.527
783.65	-2.013
783.96	-3.077
784.27	7.857
784.57	2.128
784.88	-11.538
785.19	14.545
785.50	0.909
785.81	-2.857
786.11	0.000
786.42	-1.770
786.73	-5.660
787.04	0.917
787.34	-10.891
787.65	6.667
787.96	-1.653
788.26	13.043
788.57	3.175
788.88	1.626
789.19	0.800
789.49	3.053
789.80	5.303
790.11	-2.830
790.41	5.941
790.72	-11.702
791.03	0.000
791.33	2.353
791.64	9.877
791.95	6.522
792.25	1.136
792.56	8.974
792.87	-14.103
793.17	-10.256
793.48	-1.190
793.79	-2.500
794.09	12.500
794.40	7.292
794.70	-2.703
795.01	3.125
795.32	5.217
795.62	-19.565
795.93	-5.660
796.23	8.081
796.54	2.439
796.85	2.381
797.15	0.000
797.46	-8.696
797.76	-13.158
798.07	2.273
798.37	-4.878
798.68	-11.290
798.99	-5.405
799.29	1.205
799.60	-1.282
799.90	10.769
800.21	3.030
800.51	8.000
800.82	10.667
801.12	-27.083
801.43	-26.667
801.73	2.703
802.04	15.714
802.34	-6.557
802.65	10.448
802.95	-1.818
803.26	-10.345
803.56	6.154
803.87	20.755
804.17	-3.226
804.48	13.235
804.78	-14.634
805.09	1.449
805.39	5.882
805.70	-12.766
806.00	-5.263
806.30	10.256
806.61	1.316
806.91	-2.703
807.22	-5.263
807.52	0.000
807.83	-28.814
808.13	-25.758
808.43	-21.667
808.74	-34.483
809.04	-4.762
809.35	10.204
809.65	3.333
809.95	-26.531
810.26	9.859
810.56	-6.250
810.86	-24.490
811.17	7.692
811.47	4.255
811.77	6.250
812.08	-11.321
812.38	-15.625
812.69	-5.455
812.99	2.439
813.29	-32.432
813.59	-21.622
813.90	-1.818
814.20	3.636
814.50	-6.667
814.81	0.000
815.11	3.509
815.41	20.930
815.72	-22.500
816.02	2.857
816.32	5.405
816.62	-4.167
816.93	-2.222
817.23	-15.556
817.53	-38.889
817.84	2.703
818.14	-19.512
818.44	18.000
818.74	4.082
819.04	4.878
819.35	13.889
819.65	-6.818
819.95	-61.111
820.25	15.152
820.56	-23.810
820.86	-11.111
821.16	-13.636
821.46	-23.913
821.76	-1.724
822.07	-15.217
822.37	-15.152
822.67	19.512
822.97	-2.703
823.27	-20.000
823.57	-6.897
823.88	-23.529
824.18	-2.778
824.48	5.714
824.78	-33.333
825.08	14.286
825.38	18.519
825.69	-9.677
825.99	0.000
826.29	3.704
826.59	-34.375
826.89	-9.677
827.19	-17.391
827.49	-27.778
827.79	-43.478
828.09	3.226
828.39	8.333
828.70	-15.625
829.00	-13.793
829.30	-2.703
829.60	-70.833
829.90	-3.704
830.20	-34.375
830.50	-13.636
830.80	-76.471
831.10	-40.909
831.40	-17.647
831.70	-34.615
832.00	-3.030
832.30	35.294
832.60	18.919
832.90	-200.000
833.20	10.714
833.50	-20.000
833.80	2.632
834.10	-25.000
834.40	-27.273
834.70	-100.000
835.00	-90.000
835.30	-16.667
835.60	-14.286
835.90	9.524
836.20	-48.000
836.50	-4.167
836.80	-36.842
837.10	5.405
837.40	0.000
837.70	-4.348
838.00	41.667
838.30	-15.789
838.60	-150.000
838.90	-100.000
839.19	-50.000
839.49	15.385
839.79	26.316
840.09	-183.333
840.39	-40.000
840.69	-36.364
840.99	-9.524
841.29	-29.167
841.59	-23.077
841.88	-53.333
842.18	-21.429
842.48	-6.667
842.78	-371.429
843.08	-50.000
843.38	-112.500
843.68	-75.000
843.97	-14.286
844.27	-144.444
844.57	-81.818
844.87	-6.667
845.17	40.909
845.47	666.667
845.76	-40.000
846.06	-58.333
846.36	-1150.000
846.66	-47.368
846.96	4.545
847.25	-22.222
847.55	-100.000
847.85	-19.048
848.15	23.077
848.44	-333.333
848.74	-33.333
849.04	-69.231
849.34	-100.000
849.63	-18.182
849.93	-57.143
850.23	25.000
850.53	-100.000
850.82	22.222
851.12	0.000
851.42	-29.412
851.71	0.000
852.01	0.000
852.31	-38.462
852.61	550.000
852.90	23.529
853.20	-33.333
853.50	43.750
853.79	-135.714
854.09	-100.000
854.39	-25.000
854.68	-10.000
854.98	-14.286
855.28	-12.000
855.57	0.000
855.87	0.000
856.17	-20.000
856.46	21.875
856.76	0.000
857.05	4.000
857.35	-83.333
857.65	-17.647
857.94	-208.333
858.24	8.333
858.53	-35.000
858.83	-63.636
859.13	20.000
859.42	-78.571
859.72	-212.500
860.01	4.167
860.31	-112.500
860.60	-18.750
860.90	-116.667
861.20	116.667
861.49	60.000
861.79	-50.000
862.08	75.000
862.38	-125.000
862.67	385.714
862.97	250.000
863.26	90.909
863.56	-109.091
863.85	5.263
864.15	-11.765
864.44	-40.000
864.74	-110.000
865.03	-133.333
865.33	-28.571
865.62	92.857
865.92	21.053
866.21	-66.667
866.51	0.000
866.80	-55.556
867.10	-50.000
867.39	37.500
867.69	20.000
867.98	-120.000
868.27	-47.059
868.57	0.000
868.86	800.000
869.16	-275.000
869.45	-85.714
869.75	350.000
870.04	-10.000
870.33	-700.000
870.63	0.000
870.92	-133.333
871.22	-700.000
871.51	-142.857
871.80	-33.333
872.10	-325.000
>>>>>End Processed Spectral Data<<<<<
