SpectraSuite Data File
++++++++++++++++++++++++++++++++++++
Date: Wed May 13 20:38:35 PDT 2015
User: schluterlab
Dark Spectrum Present: Yes
Reference Spectrum Present: Yes
Number of Sampled Component Spectra: 1
Spectrometers: USB2E3373
Integration Time (usec): 3000 (USB2E3373)
Spectra Averaged: 3 (USB2E3373)
Boxcar Smoothing: 0 (USB2E3373)
Correct for Electrical Dark: No (USB2E3373)
Strobe/Lamp Enabled: No (USB2E3373)
Correct for Detector Non-linearity: No (USB2E3373)
Correct for Stray Light: No (USB2E3373)
Number of Pixels in Processed Spectrum: 2048
>>>>>Begin Processed Spectral Data<<<<<
178.53	0.000
178.91	-950.000
179.29	-975.000
179.67	-138.889
180.04	-1025.000
180.42	1850.000
180.80	880.000
181.18	-775.000
181.56	500.000
181.94	0.000
182.31	-400.000
182.69	1200.000
183.07	-400.000
183.45	-422.222
183.83	427.273
184.20	-320.000
184.58	1400.000
184.96	4000.000
185.34	-560.000
185.72	-475.000
186.09	-1900.000
186.47	2200.000
186.85	1800.000
187.23	3600.000
187.61	-1233.333
187.98	925.000
188.36	518.182
188.74	381.818
189.12	-460.000
189.49	450.000
189.87	-3700.000
190.25	-975.000
190.63	350.000
191.00	300.000
191.38	633.333
191.76	-1075.000
192.14	1125.000
192.51	537.500
192.89	683.333
193.27	425.000
193.65	-750.000
194.02	430.000
194.40	720.000
194.78	410.000
195.15	400.000
195.53	490.000
195.91	-1550.000
196.29	287.500
196.66	273.684
197.04	-210.000
197.42	0.000
197.79	430.000
198.17	-4100.000
198.55	528.571
198.92	512.500
199.30	660.000
199.68	0.000
200.05	272.222
200.43	585.714
200.81	3800.000
201.18	1200.000
201.56	-1300.000
201.94	411.111
202.31	422.222
202.69	341.667
203.07	470.000
203.44	0.000
203.82	775.000
204.19	485.714
204.57	350.000
204.95	475.000
205.32	1033.333
205.70	409.091
206.08	328.571
206.45	2350.000
206.83	268.750
207.20	683.333
207.58	600.000
207.96	277.778
208.33	550.000
208.71	-583.333
209.08	571.429
209.46	588.889
209.84	345.455
210.21	-766.667
210.59	950.000
210.96	-362.500
211.34	2150.000
211.71	470.000
212.09	550.000
212.46	0.000
212.84	1500.000
213.22	1175.000
213.59	-3400.000
213.97	816.667
214.34	557.143
214.72	490.909
215.09	720.000
215.47	-1750.000
215.84	-1800.000
216.22	1300.000
216.59	378.571
216.97	1025.000
217.34	400.000
217.72	-700.000
218.09	0.000
218.47	-3000.000
218.84	566.667
219.22	542.857
219.59	1133.333
219.97	-428.571
220.34	720.000
220.72	-900.000
221.09	285.714
221.47	1125.000
221.84	-900.000
222.22	0.000
222.59	875.000
222.97	-1500.000
223.34	1120.000
223.72	346.154
224.09	1020.000
224.46	1950.000
224.84	-3200.000
225.21	-680.000
225.59	-2600.000
225.96	440.000
226.34	265.000
226.71	2050.000
227.08	475.000
227.46	400.000
227.83	-900.000
228.21	-1600.000
228.58	466.667
228.95	-1300.000
229.33	-1600.000
229.70	1233.333
230.08	571.429
230.45	-620.000
230.82	350.000
231.20	816.667
231.57	557.143
231.95	391.667
232.32	195.455
232.69	381.818
233.07	471.429
233.44	238.462
233.81	-1200.000
234.19	273.684
234.56	333.333
234.93	275.000
235.31	372.727
235.68	238.462
236.05	278.571
236.43	166.667
236.80	247.368
237.17	3900.000
237.55	176.190
237.92	178.571
238.29	233.333
238.67	167.742
239.04	203.448
239.41	138.889
239.79	121.739
240.16	150.000
240.53	134.091
240.91	101.961
241.28	122.000
241.65	120.000
242.02	110.145
242.40	88.710
242.77	116.667
243.14	81.720
243.51	102.247
243.89	88.235
244.26	82.222
244.63	90.323
245.00	81.915
245.38	87.129
245.75	81.308
246.12	60.550
246.49	82.482
246.87	79.200
247.24	83.077
247.61	62.143
247.98	67.974
248.36	75.676
248.73	72.611
249.10	77.070
249.47	68.927
249.84	69.519
250.22	64.171
250.59	68.047
250.96	70.707
251.33	65.403
251.70	66.832
252.08	66.667
252.45	64.574
252.82	60.435
253.19	63.830
253.56	58.039
253.94	65.975
254.31	60.547
254.68	66.154
255.05	65.683
255.42	60.976
255.79	66.544
256.16	66.065
256.54	59.011
256.91	62.633
257.28	55.755
257.65	59.076
258.02	58.696
258.39	63.091
258.76	53.846
259.14	56.250
259.51	58.055
259.88	58.075
260.25	60.725
260.62	56.069
260.99	60.559
261.36	61.562
261.73	57.307
262.10	55.233
262.47	60.563
262.85	55.710
263.22	59.544
263.59	61.823
263.96	57.692
264.33	57.180
264.70	55.789
265.07	58.312
265.44	57.323
265.81	53.285
266.18	58.040
266.55	56.098
266.92	56.757
267.29	56.250
267.66	56.422
268.03	54.773
268.40	56.542
268.77	57.518
269.14	53.604
269.51	55.079
269.88	56.410
270.25	54.853
270.62	55.056
270.99	55.914
271.36	54.721
271.73	57.243
272.10	54.130
272.47	56.774
272.84	56.277
273.21	55.346
273.58	51.310
273.95	53.669
274.32	50.413
274.69	53.747
275.06	52.953
275.43	54.894
275.80	52.906
276.17	53.360
276.54	56.133
276.91	51.976
277.28	55.469
277.65	53.578
278.02	53.830
278.39	56.055
278.76	52.727
279.13	52.264
279.50	50.279
279.87	49.602
280.23	52.295
280.60	51.644
280.97	50.832
281.34	52.743
281.71	50.909
282.08	52.783
282.45	48.727
282.82	50.266
283.19	50.089
283.56	50.351
283.92	51.777
284.29	53.086
284.66	50.817
285.03	52.080
285.40	54.049
285.77	49.158
286.14	49.568
286.51	49.333
286.87	50.427
287.24	49.674
287.61	46.709
287.98	49.675
288.35	47.385
288.72	45.171
289.08	47.887
289.45	46.293
289.82	48.130
290.19	46.154
290.56	47.320
290.93	44.260
291.29	47.699
291.66	44.100
292.03	46.221
292.40	44.347
292.77	44.970
293.13	43.134
293.50	44.606
293.87	43.111
294.24	43.852
294.60	41.921
294.97	42.297
295.34	44.711
295.71	42.898
296.08	41.453
296.44	41.265
296.81	40.291
297.18	41.734
297.55	37.863
297.91	39.446
298.28	41.767
298.65	39.556
299.02	40.184
299.38	42.497
299.75	38.544
300.12	38.953
300.48	39.375
300.85	37.731
301.22	39.490
301.59	36.995
301.95	38.413
302.32	39.795
302.69	37.395
303.05	38.061
303.42	37.654
303.79	37.599
304.15	36.131
304.52	36.732
304.89	37.282
305.25	35.963
305.62	37.373
305.99	37.072
306.35	37.248
306.72	36.996
307.09	37.292
307.45	37.950
307.82	36.384
308.19	36.534
308.55	37.109
308.92	35.338
309.29	36.008
309.65	36.479
310.02	36.152
310.38	37.849
310.75	36.642
311.12	36.029
311.48	37.618
311.85	37.212
312.22	36.733
312.58	35.967
312.95	36.748
313.31	33.981
313.68	38.046
314.05	38.067
314.41	36.884
314.78	36.959
315.14	38.630
315.51	39.238
315.87	39.109
316.24	39.424
316.61	39.376
316.97	38.552
317.34	38.258
317.70	40.535
318.07	41.578
318.43	42.074
318.80	41.143
319.16	41.055
319.53	41.276
319.89	42.476
320.26	43.200
320.62	44.940
320.99	45.455
321.35	44.141
321.72	45.791
322.08	45.805
322.45	49.254
322.81	47.965
323.18	49.615
323.54	49.351
323.91	50.189
324.27	50.478
324.64	50.606
325.00	49.865
325.37	53.412
325.73	52.244
326.10	51.809
326.46	53.495
326.83	54.530
327.19	54.313
327.56	55.139
327.92	55.381
328.29	56.699
328.65	56.814
329.01	56.227
329.38	55.134
329.74	55.771
330.11	58.624
330.47	58.402
330.84	57.629
331.20	57.559
331.56	57.523
331.93	59.167
332.29	58.474
332.66	59.469
333.02	57.952
333.38	60.976
333.75	59.358
334.11	58.719
334.48	58.829
334.84	60.754
335.20	61.091
335.57	61.741
335.93	58.482
336.29	58.974
336.66	62.038
337.02	59.186
337.38	60.185
337.75	59.180
338.11	60.161
338.47	61.234
338.84	61.045
339.20	61.009
339.56	61.770
339.93	60.909
340.29	58.514
340.65	59.269
341.02	60.122
341.38	60.587
341.74	59.211
342.11	60.437
342.47	59.736
342.83	59.418
343.20	61.558
343.56	59.646
343.92	61.228
344.28	59.779
344.65	60.791
345.01	58.333
345.37	60.549
345.73	60.321
346.10	60.614
346.46	59.746
346.82	59.061
347.19	59.649
347.55	59.360
347.91	60.275
348.27	59.655
348.63	59.783
349.00	57.848
349.36	59.852
349.72	58.059
350.08	58.833
350.45	59.561
350.81	59.139
351.17	58.266
351.53	59.296
351.89	58.581
352.26	58.248
352.62	58.941
352.98	57.861
353.34	59.080
353.70	57.692
354.07	57.903
354.43	59.048
354.79	57.603
355.15	57.382
355.51	59.712
355.87	59.265
356.24	59.283
356.60	57.418
356.96	59.292
357.32	58.463
357.68	59.055
358.04	58.670
358.40	58.907
358.77	57.433
359.13	58.564
359.49	58.353
359.85	57.857
360.21	58.533
360.57	58.132
360.93	58.846
361.29	57.899
361.66	56.811
362.02	59.030
362.38	58.555
362.74	58.929
363.10	56.181
363.46	56.053
363.82	57.521
364.18	56.241
364.54	57.875
364.90	59.490
365.26	56.838
365.62	57.779
365.98	57.999
366.35	55.874
366.71	56.978
367.07	57.247
367.43	56.894
367.79	57.887
368.15	58.764
368.51	56.904
368.87	56.817
369.23	56.108
369.59	57.133
369.95	55.882
370.31	55.271
370.67	55.580
371.03	58.352
371.39	57.799
371.75	56.618
372.11	54.054
372.47	57.918
372.83	57.853
373.19	55.058
373.55	56.319
373.91	57.437
374.27	54.708
374.63	56.509
374.99	55.438
375.35	55.478
375.71	55.655
376.07	55.624
376.42	55.571
376.78	55.003
377.14	55.834
377.50	56.225
377.86	54.255
378.22	54.614
378.58	54.386
378.94	54.494
379.30	55.725
379.66	55.711
380.02	54.730
380.38	54.098
380.74	55.942
381.09	55.807
381.45	55.562
381.81	55.651
382.17	54.204
382.53	53.774
382.89	55.000
383.25	54.909
383.61	55.452
383.97	54.847
384.32	54.086
384.68	54.337
385.04	54.333
385.40	54.489
385.76	53.256
386.12	54.793
386.48	53.996
386.83	54.330
387.19	54.545
387.55	54.669
387.91	53.930
388.27	53.464
388.62	54.333
388.98	52.396
389.34	53.942
389.70	55.426
390.06	54.563
390.42	53.307
390.77	53.562
391.13	54.371
391.49	54.124
391.85	53.342
392.20	52.555
392.56	53.030
392.92	54.620
393.28	53.018
393.64	52.518
393.99	51.558
394.35	52.543
394.71	52.384
395.07	52.336
395.42	52.781
395.78	52.163
396.14	52.948
396.50	53.383
396.85	53.020
397.21	51.418
397.57	51.457
397.92	52.644
398.28	51.457
398.64	52.270
399.00	52.210
399.35	51.043
399.71	51.910
400.07	52.395
400.42	51.043
400.78	52.473
401.14	52.622
401.49	51.821
401.85	51.906
402.21	50.898
402.57	51.573
402.92	51.955
403.28	52.405
403.63	51.733
403.99	51.720
404.35	50.364
404.70	50.899
405.06	49.971
405.42	51.466
405.77	50.343
406.13	50.564
406.49	50.030
406.84	50.975
407.20	50.059
407.55	50.989
407.91	51.533
408.27	50.989
408.62	50.090
408.98	49.939
409.34	50.738
409.69	49.613
410.05	49.814
410.40	50.948
410.76	50.179
411.11	50.302
411.47	48.371
411.83	49.847
412.18	48.670
412.54	50.623
412.89	50.120
413.25	49.174
413.60	50.896
413.96	49.909
414.31	50.061
414.67	49.430
415.03	49.735
415.38	50.129
415.74	49.196
416.09	50.229
416.45	48.996
416.80	50.760
417.16	50.134
417.51	50.299
417.87	49.390
418.22	49.527
418.58	48.418
418.93	49.079
419.29	47.868
419.64	48.489
420.00	49.146
420.35	49.391
420.71	49.193
421.06	48.449
421.42	48.538
421.77	48.879
422.12	47.782
422.48	48.030
422.83	48.282
423.19	47.624
423.54	48.230
423.90	47.652
424.25	48.130
424.61	47.560
424.96	48.455
425.31	48.782
425.67	47.753
426.02	47.657
426.38	49.084
426.73	48.040
427.09	46.809
427.44	48.189
427.79	47.844
428.15	47.619
428.50	48.040
428.85	48.272
429.21	46.715
429.56	47.382
429.92	47.106
430.27	47.567
430.62	46.749
430.98	48.417
431.33	46.134
431.68	48.639
432.04	47.125
432.39	47.573
432.74	47.397
433.10	46.802
433.45	46.764
433.80	47.062
434.16	47.703
434.51	45.895
434.86	46.522
435.22	47.415
435.57	48.085
435.92	47.630
436.28	47.746
436.63	47.185
436.98	46.995
437.34	47.764
437.69	47.258
438.04	46.206
438.39	45.612
438.75	47.356
439.10	46.369
439.45	47.285
439.81	47.251
440.16	46.866
440.51	46.749
440.86	47.076
441.22	45.717
441.57	46.497
441.92	47.134
442.27	46.932
442.63	46.077
442.98	46.704
443.33	46.467
443.68	45.844
444.03	46.901
444.39	44.839
444.74	46.591
445.09	46.523
445.44	46.802
445.79	45.819
446.15	44.839
446.50	45.504
446.85	46.300
447.20	45.640
447.55	46.454
447.91	44.953
448.26	45.910
448.61	47.089
448.96	46.622
449.31	46.625
449.66	45.920
450.02	46.017
450.37	45.522
450.72	46.193
451.07	45.887
451.42	45.167
451.77	44.921
452.12	44.630
452.47	44.963
452.83	45.338
453.18	45.171
453.53	44.589
453.88	45.304
454.23	46.683
454.58	46.336
454.93	46.281
455.28	44.202
455.63	45.085
455.98	46.726
456.34	45.854
456.69	44.959
457.04	45.635
457.39	44.769
457.74	45.328
458.09	44.451
458.44	45.838
458.79	44.848
459.14	44.977
459.49	44.075
459.84	44.321
460.19	44.137
460.54	43.287
460.89	43.884
461.24	44.444
461.59	46.020
461.94	43.773
462.29	45.282
462.64	44.033
462.99	44.177
463.34	44.733
463.69	44.966
464.04	45.043
464.39	43.420
464.74	44.266
465.09	43.305
465.44	44.432
465.79	43.680
466.14	43.295
466.49	44.438
466.84	44.075
467.19	43.090
467.54	44.875
467.89	43.397
468.24	43.688
468.59	43.834
468.94	42.700
469.29	44.730
469.64	45.114
469.99	45.061
470.34	43.395
470.68	43.247
471.03	43.401
471.38	43.502
471.73	44.637
472.08	43.355
472.43	43.719
472.78	42.594
473.13	44.801
473.48	44.132
473.83	44.939
474.17	43.124
474.52	42.618
474.87	43.491
475.22	43.645
475.57	43.041
475.92	43.601
476.27	42.446
476.61	43.298
476.96	42.551
477.31	42.229
477.66	42.943
478.01	42.446
478.36	42.464
478.70	41.225
479.05	43.557
479.40	42.119
479.75	42.450
480.10	41.948
480.45	42.218
480.79	41.949
481.14	42.466
481.49	42.762
481.84	41.472
482.19	41.799
482.53	42.431
482.88	41.973
483.23	42.009
483.58	41.583
483.92	41.846
484.27	40.784
484.62	41.207
484.97	40.126
485.31	41.199
485.66	40.118
486.01	39.609
486.36	39.558
486.70	39.898
487.05	39.513
487.40	39.811
487.75	39.595
488.09	39.854
488.44	39.960
488.79	40.362
489.13	40.756
489.48	40.334
489.83	40.742
490.17	40.991
490.52	40.213
490.87	40.977
491.22	40.655
491.56	40.456
491.91	40.437
492.26	40.239
492.60	40.000
492.95	40.552
493.30	40.467
493.64	40.271
493.99	40.622
494.34	41.397
494.68	41.346
495.03	41.024
495.37	40.298
495.72	41.326
496.07	41.717
496.41	40.044
496.76	40.413
497.11	40.387
497.45	41.081
497.80	40.451
498.14	40.145
498.49	40.390
498.84	40.364
499.18	39.810
499.53	40.171
499.87	39.143
500.22	39.661
500.56	39.854
500.91	40.096
501.26	40.066
501.60	40.294
501.95	39.643
502.29	40.394
502.64	40.084
502.98	40.159
503.33	38.803
503.67	39.304
504.02	40.084
504.36	38.746
504.71	40.205
505.06	39.952
505.40	39.669
505.75	39.634
506.09	39.456
506.44	39.911
506.78	39.844
507.13	40.232
507.47	39.495
507.82	39.868
508.16	40.476
508.51	40.589
508.85	38.878
509.19	39.949
509.54	39.796
509.88	38.640
510.23	40.566
510.57	40.351
510.92	39.772
511.26	39.260
511.61	39.990
511.95	39.718
512.30	39.555
512.64	39.925
512.98	40.836
513.33	39.882
513.67	38.954
514.02	39.123
514.36	40.142
514.70	39.513
515.05	39.041
515.39	38.811
515.74	39.752
516.08	39.966
516.42	40.233
516.77	41.026
517.11	39.290
517.46	40.406
517.80	40.360
518.14	39.433
518.49	41.482
518.83	39.716
519.17	39.203
519.52	39.276
519.86	39.646
520.20	39.711
520.55	39.617
520.89	40.085
521.23	39.144
521.58	40.456
521.92	39.743
522.26	40.024
522.61	40.623
522.95	39.472
523.29	39.501
523.64	40.549
523.98	40.419
524.32	40.350
524.66	40.168
525.01	39.277
525.35	38.600
525.69	39.224
526.04	39.252
526.38	38.621
526.72	38.405
527.06	38.920
527.41	38.181
527.75	40.450
528.09	40.077
528.43	38.942
528.78	39.582
529.12	38.727
529.46	40.478
529.80	40.099
530.15	40.187
530.49	38.092
530.83	38.291
531.17	40.013
531.51	40.143
531.86	39.290
532.20	40.091
532.54	40.102
532.88	40.180
533.22	38.976
533.57	39.630
533.91	38.471
534.25	38.943
534.59	38.804
534.93	38.667
535.27	38.503
535.62	39.377
535.96	38.795
536.30	38.843
536.64	39.021
536.98	39.482
537.32	38.644
537.66	39.067
538.01	39.171
538.35	38.914
538.69	39.502
539.03	38.596
539.37	37.508
539.71	37.071
540.05	39.020
540.39	39.336
540.73	38.486
541.07	38.546
541.42	38.748
541.76	38.968
542.10	39.263
542.44	39.139
542.78	40.119
543.12	37.748
543.46	37.836
543.80	38.907
544.14	39.281
544.48	39.048
544.82	38.550
545.16	39.232
545.50	38.689
545.84	39.180
546.18	39.461
546.52	39.298
546.86	39.931
547.20	38.975
547.54	39.613
547.88	39.668
548.22	38.605
548.56	37.862
548.90	37.324
549.24	38.990
549.58	37.244
549.92	39.011
550.26	37.855
550.60	38.451
550.94	38.662
551.28	38.040
551.62	39.324
551.96	37.123
552.30	38.498
552.64	38.675
552.98	38.847
553.32	39.042
553.66	38.105
554.00	37.955
554.34	38.233
554.68	39.199
555.02	39.845
555.36	37.509
555.69	38.092
556.03	37.079
556.37	37.858
556.71	36.698
557.05	37.465
557.39	36.249
557.73	37.897
558.07	38.216
558.41	37.627
558.75	38.428
559.08	38.031
559.42	37.415
559.76	38.015
560.10	36.117
560.44	37.456
560.78	37.858
561.12	36.873
561.45	38.136
561.79	37.508
562.13	36.217
562.47	37.842
562.81	37.308
563.15	37.592
563.48	36.605
563.82	37.052
564.16	37.999
564.50	36.263
564.84	36.157
565.17	37.259
565.51	38.403
565.85	37.754
566.19	36.443
566.52	38.062
566.86	36.287
567.20	37.618
567.54	37.100
567.88	36.665
568.21	37.143
568.55	36.805
568.89	36.673
569.23	36.052
569.56	35.709
569.90	36.113
570.24	36.024
570.57	35.566
570.91	34.745
571.25	34.280
571.59	35.081
571.92	35.023
572.26	34.864
572.60	35.946
572.93	34.213
573.27	34.546
573.61	34.283
573.95	34.677
574.28	34.497
574.62	34.159
574.96	34.098
575.29	34.263
575.63	34.248
575.97	33.533
576.30	34.466
576.64	34.218
576.98	34.322
577.31	33.919
577.65	34.680
577.98	34.379
578.32	33.737
578.66	33.711
578.99	34.056
579.33	33.866
579.67	33.520
580.00	34.140
580.34	34.124
580.67	33.869
581.01	34.698
581.35	34.506
581.68	34.090
582.02	34.004
582.35	34.231
582.69	33.561
583.02	34.275
583.36	34.148
583.70	33.317
584.03	33.882
584.37	33.887
584.70	33.856
585.04	33.366
585.37	34.133
585.71	34.398
586.04	34.090
586.38	34.274
586.72	34.797
587.05	33.659
587.39	33.456
587.72	34.012
588.06	33.458
588.39	34.266
588.73	34.174
589.06	34.185
589.40	34.579
589.73	34.424
590.07	34.413
590.40	33.760
590.73	34.660
591.07	35.450
591.40	35.091
591.74	35.411
592.07	34.424
592.41	34.353
592.74	33.708
593.08	34.410
593.41	33.977
593.75	33.604
594.08	34.093
594.41	34.005
594.75	34.529
595.08	33.393
595.42	33.975
595.75	33.689
596.09	35.036
596.42	34.892
596.75	33.854
597.09	34.459
597.42	33.263
597.75	35.015
598.09	34.174
598.42	34.107
598.76	34.171
599.09	33.523
599.42	34.098
599.76	34.261
600.09	33.370
600.42	33.565
600.76	33.250
601.09	33.406
601.42	33.752
601.76	33.321
602.09	33.360
602.42	33.201
602.76	34.220
603.09	33.871
603.42	34.010
603.76	33.270
604.09	33.734
604.42	33.673
604.76	34.163
605.09	34.382
605.42	34.630
605.75	33.692
606.09	33.794
606.42	34.777
606.75	33.969
607.09	34.073
607.42	33.376
607.75	33.502
608.08	33.304
608.42	33.976
608.75	33.408
609.08	33.673
609.41	33.460
609.75	33.492
610.08	34.637
610.41	33.566
610.74	33.964
611.07	33.844
611.41	33.808
611.74	33.987
612.07	34.834
612.40	34.575
612.73	34.632
613.07	34.321
613.40	34.808
613.73	32.984
614.06	33.925
614.39	33.456
614.72	34.000
615.06	34.664
615.39	33.174
615.72	32.464
616.05	33.971
616.38	33.574
616.71	35.392
617.05	34.217
617.38	34.155
617.71	34.234
618.04	34.916
618.37	33.412
618.70	33.354
619.03	34.079
619.36	33.876
619.69	34.085
620.03	34.890
620.36	33.757
620.69	34.315
621.02	34.882
621.35	34.299
621.68	33.956
622.01	33.901
622.34	34.947
622.67	34.981
623.00	33.822
623.33	33.238
623.66	34.954
623.99	34.389
624.32	34.308
624.65	33.333
624.99	33.428
625.32	34.251
625.65	34.786
625.98	34.743
626.31	34.370
626.64	34.531
626.97	34.414
627.30	33.666
627.63	34.783
627.96	34.146
628.29	34.908
628.62	34.950
628.95	35.943
629.28	34.854
629.61	35.747
629.94	34.952
630.26	34.795
630.59	34.795
630.92	34.674
631.25	35.538
631.58	35.435
631.91	34.077
632.24	34.599
632.57	34.523
632.90	36.513
633.23	36.577
633.56	35.367
633.89	36.467
634.22	36.209
634.55	38.225
634.88	34.731
635.20	34.409
635.53	36.627
635.86	38.614
636.19	34.353
636.52	35.294
636.85	34.937
637.18	35.023
637.51	36.170
637.83	34.649
638.16	35.294
638.49	36.650
638.82	36.915
639.15	35.500
639.48	35.786
639.81	38.070
640.13	36.068
640.46	36.913
640.79	36.856
641.12	35.763
641.45	34.637
641.77	36.082
642.10	33.480
642.43	37.387
642.76	35.913
643.09	37.117
643.41	35.964
643.74	38.272
644.07	35.366
644.40	34.816
644.73	37.795
645.05	36.292
645.38	36.493
645.71	36.393
646.04	37.542
646.36	37.730
646.69	38.963
647.02	36.905
647.35	37.973
647.67	38.407
648.00	36.098
648.33	36.964
648.66	35.909
648.98	37.781
649.31	36.323
649.64	36.323
649.96	35.469
650.29	37.125
650.62	35.275
650.94	37.601
651.27	37.838
651.60	35.607
651.92	35.304
652.25	36.808
652.58	35.514
652.90	36.335
653.23	35.285
653.56	35.276
653.88	38.035
654.21	38.231
654.54	35.974
654.86	35.358
655.19	34.865
655.52	28.930
655.84	28.794
656.17	37.123
656.49	48.935
656.82	49.253
657.15	36.593
657.47	26.994
657.80	20.383
658.13	20.780
658.45	30.680
658.78	30.332
659.10	31.184
659.43	31.654
659.75	31.666
660.08	32.785
660.41	35.382
660.73	35.451
661.06	35.669
661.38	39.455
661.71	39.423
662.03	38.659
662.36	33.996
662.68	38.956
663.01	40.202
663.33	38.429
663.66	37.605
663.98	38.661
664.31	35.924
664.63	34.818
664.96	36.821
665.28	38.934
665.61	37.037
665.93	38.632
666.26	37.323
666.58	36.192
666.91	37.209
667.23	38.652
667.56	35.853
667.88	37.393
668.21	36.887
668.53	36.876
668.86	36.147
669.18	39.872
669.50	37.826
669.83	37.255
670.15	36.222
670.48	37.255
670.80	37.716
671.13	37.580
671.45	35.957
671.77	38.086
672.10	38.447
672.42	35.512
672.75	36.816
673.07	36.972
673.39	35.624
673.72	37.305
674.04	36.471
674.37	37.476
674.69	37.219
675.01	36.402
675.34	38.604
675.66	37.474
675.98	36.660
676.31	38.445
676.63	35.881
676.95	36.688
677.28	36.215
677.60	37.363
677.92	40.084
678.25	36.961
678.57	36.653
678.89	35.671
679.22	34.774
679.54	37.977
679.86	35.596
680.18	36.315
680.51	36.170
680.83	36.477
681.15	36.604
681.48	37.051
681.80	35.977
682.12	34.866
682.44	32.495
682.77	37.271
683.09	39.485
683.41	37.694
683.73	36.203
684.06	40.496
684.38	35.616
684.70	34.884
685.02	38.274
685.34	37.363
685.67	35.140
685.99	36.426
686.31	34.812
686.63	34.806
686.96	36.429
687.28	34.296
687.60	34.058
687.92	35.283
688.24	35.361
688.56	36.345
688.89	39.627
689.21	37.555
689.53	35.908
689.85	36.142
690.17	36.646
690.49	38.429
690.82	36.916
691.14	34.821
691.46	33.755
691.78	36.948
692.10	36.157
692.42	37.325
692.74	34.025
693.06	35.957
693.39	39.220
693.71	36.026
694.03	34.947
694.35	35.714
694.67	37.071
694.99	38.293
695.31	37.010
695.63	37.081
695.95	39.364
696.27	34.518
696.59	39.637
696.91	40.674
697.23	34.038
697.56	39.019
697.88	34.151
698.20	35.208
698.52	35.269
698.84	35.857
699.16	37.097
699.48	35.867
699.80	37.681
700.12	42.338
700.44	40.318
700.76	42.818
701.08	36.494
701.40	37.709
701.72	39.650
702.04	43.466
702.36	36.261
702.68	38.810
703.00	37.950
703.32	36.968
703.64	39.410
703.96	40.947
704.28	38.372
704.60	42.229
704.91	38.279
705.23	39.589
705.55	39.203
705.87	41.528
706.19	44.523
706.51	40.187
706.83	42.424
707.15	38.095
707.47	38.384
707.79	38.575
708.11	38.813
708.43	34.762
708.74	35.714
709.06	37.403
709.38	36.483
709.70	42.151
710.02	42.433
710.34	40.606
710.66	41.194
710.98	37.216
711.29	35.465
711.61	42.183
711.93	37.500
712.25	42.122
712.57	40.074
712.89	41.176
713.20	41.033
713.52	40.789
713.84	37.025
714.16	38.720
714.48	36.782
714.80	43.769
715.11	40.058
715.43	37.685
715.75	37.971
716.07	38.658
716.39	38.245
716.70	40.864
717.02	42.086
717.34	34.276
717.66	44.030
717.97	44.622
718.29	42.593
718.61	43.431
718.93	44.485
719.24	42.561
719.56	40.678
719.88	41.695
720.20	40.203
720.51	41.115
720.83	47.212
721.15	36.940
721.46	37.234
721.78	41.577
722.10	41.509
722.42	44.737
722.73	44.569
723.05	43.852
723.37	42.510
723.68	41.313
724.00	40.244
724.32	44.355
724.63	43.902
724.95	38.912
725.27	43.725
725.58	41.016
725.90	44.891
726.22	40.377
726.53	44.792
726.85	41.297
727.16	41.281
727.48	38.652
727.80	41.667
728.11	42.754
728.43	40.000
728.74	38.710
729.06	42.701
729.38	43.015
729.69	41.993
730.01	37.201
730.32	42.014
730.64	38.462
730.96	38.284
731.27	42.715
731.59	40.673
731.90	40.233
732.22	40.683
732.53	37.771
732.85	40.064
733.16	40.193
733.48	43.522
733.80	38.961
734.11	39.809
734.43	37.574
734.74	38.000
735.06	35.817
735.37	41.618
735.69	37.261
736.00	41.830
736.32	39.875
736.63	39.617
736.95	39.936
737.26	37.415
737.58	36.774
737.89	40.803
738.21	44.369
738.52	40.000
738.83	38.113
739.15	43.462
739.46	45.255
739.78	37.500
740.09	41.538
740.41	39.677
740.72	35.889
741.04	44.444
741.35	42.917
741.66	50.667
741.98	37.264
742.29	46.890
742.61	43.534
742.92	45.249
743.23	41.453
743.55	42.000
743.86	42.544
744.18	45.575
744.49	52.153
744.80	46.009
745.12	41.364
745.43	44.493
745.74	47.297
746.06	44.495
746.37	44.395
746.68	44.344
747.00	46.296
747.31	46.667
747.62	38.053
747.94	40.969
748.25	38.298
748.56	44.493
748.88	42.574
749.19	46.500
749.50	45.116
749.82	39.837
750.13	44.082
750.44	40.511
750.75	43.860
751.07	42.444
751.38	44.948
751.69	40.794
752.01	44.361
752.32	38.628
752.63	40.780
752.94	45.082
753.26	44.000
753.57	35.772
753.88	44.922
754.19	39.643
754.51	40.972
754.82	36.462
755.13	39.623
755.44	41.353
755.75	42.701
756.07	36.525
756.38	40.146
756.69	41.946
757.00	37.425
757.31	35.905
757.63	37.427
757.94	40.751
758.25	36.029
758.56	35.556
758.87	34.677
759.18	38.182
759.50	38.558
759.81	38.941
760.12	35.312
760.43	41.834
760.74	33.152
761.05	40.113
761.36	36.096
761.67	35.795
761.99	34.783
762.30	41.667
762.61	40.458
762.92	40.625
763.23	43.277
763.54	43.600
763.85	42.578
764.16	46.923
764.47	41.445
764.78	39.929
765.10	36.392
765.41	41.888
765.72	35.329
766.03	38.558
766.34	38.333
766.65	42.553
766.96	38.462
767.27	53.299
767.58	50.000
767.89	47.368
768.20	45.402
768.51	41.117
768.82	44.954
769.13	40.244
769.44	42.105
769.75	45.064
770.06	40.367
770.37	46.154
770.68	45.370
770.99	43.111
771.30	38.115
771.61	46.637
771.92	41.393
772.23	47.059
772.54	44.615
772.85	46.597
773.16	48.936
773.47	49.457
773.78	49.746
774.09	42.857
774.39	48.538
774.70	45.062
775.01	55.797
775.32	52.941
775.63	47.368
775.94	55.396
776.25	55.906
776.56	47.015
776.87	54.918
777.18	57.031
777.48	51.908
777.79	54.545
778.10	51.111
778.41	58.929
778.72	41.606
779.03	47.651
779.34	48.322
779.65	58.108
779.95	56.442
780.26	49.020
780.57	50.345
780.88	64.844
781.19	56.391
781.50	56.081
781.80	49.686
782.11	45.198
782.42	43.038
782.73	52.147
783.04	50.000
783.34	51.408
783.65	62.329
783.96	61.940
784.27	46.154
784.57	48.201
784.88	47.222
785.19	55.556
785.50	59.434
785.81	55.970
786.11	59.016
786.42	58.140
786.73	58.407
787.04	66.981
787.34	58.929
787.65	65.000
787.96	59.459
788.26	52.893
788.57	61.017
788.88	61.157
789.19	57.639
789.49	61.364
789.80	52.672
790.11	69.524
790.41	63.366
790.72	55.422
791.03	59.783
791.33	74.419
791.64	48.454
791.95	68.317
792.25	71.111
792.56	87.013
792.87	75.641
793.17	74.684
793.48	82.759
793.79	64.368
794.09	67.045
794.40	56.303
794.70	58.824
795.01	57.037
795.32	49.640
795.62	66.929
795.93	60.345
796.23	52.212
796.54	67.059
796.85	64.865
797.15	80.282
797.46	66.667
797.76	85.542
798.07	63.291
798.37	80.000
798.68	78.788
798.99	57.746
799.29	84.416
799.60	73.864
799.90	79.452
800.21	92.537
800.51	84.483
800.82	96.491
801.12	75.410
801.43	80.303
801.73	75.676
802.04	85.714
802.34	79.012
802.65	82.813
802.95	91.525
803.26	98.438
803.56	71.429
803.87	56.923
804.17	82.353
804.48	92.593
804.78	70.690
805.09	77.941
805.39	90.385
805.70	82.143
806.00	86.885
806.30	89.394
806.61	71.951
806.91	69.620
807.22	67.105
807.52	70.149
807.83	77.465
808.13	78.125
808.43	96.667
808.74	60.526
809.04	98.551
809.35	92.537
809.65	78.947
809.95	100.000
810.26	89.831
810.56	74.603
810.86	113.636
811.17	107.143
811.47	103.333
811.77	75.926
812.08	70.909
812.38	108.000
812.69	97.222
812.99	140.909
813.29	97.959
813.59	90.476
813.90	102.041
814.20	76.364
814.50	67.692
814.81	82.353
815.11	85.714
815.41	95.082
815.72	119.048
816.02	100.000
816.32	104.762
816.62	97.500
816.93	114.634
817.23	128.571
817.53	106.818
817.84	157.576
818.14	108.696
818.44	106.667
818.74	144.118
819.04	112.500
819.35	128.571
819.65	123.529
819.95	178.571
820.25	170.000
820.56	133.333
820.86	129.545
821.16	118.605
821.46	125.641
821.76	124.000
822.07	125.714
822.37	122.500
822.67	127.273
822.97	98.039
823.27	150.000
823.57	121.622
823.88	135.000
824.18	153.333
824.48	121.429
824.78	176.000
825.08	166.667
825.38	124.324
825.69	121.951
825.99	183.333
826.29	141.379
826.59	150.000
826.89	123.684
827.19	167.647
827.49	187.097
827.79	109.091
828.09	127.273
828.39	91.489
828.70	106.122
829.00	88.889
829.30	129.032
829.60	100.000
829.90	286.667
830.20	150.000
830.50	217.391
830.80	191.304
831.10	130.000
831.40	153.333
831.70	147.826
832.00	161.538
832.30	151.852
832.60	300.000
832.90	166.667
833.20	400.000
833.50	132.258
833.80	165.517
834.10	165.625
834.40	169.231
834.70	238.889
835.00	242.857
835.30	122.857
835.60	223.077
835.90	144.828
836.20	271.429
836.50	151.724
836.80	144.000
837.10	141.667
837.40	180.952
837.70	229.412
838.00	159.259
838.30	185.714
838.60	223.810
838.90	169.231
839.19	215.000
839.49	328.571
839.79	275.000
840.09	195.000
840.39	257.143
840.69	200.000
840.99	244.444
841.29	320.000
841.59	225.000
841.88	243.750
842.18	144.828
842.48	219.048
842.78	173.333
843.08	204.348
843.38	156.250
843.68	650.000
843.97	192.308
844.27	155.172
844.57	247.619
844.87	218.750
845.17	174.074
845.47	900.000
845.76	333.333
846.06	258.824
846.36	325.000
846.66	250.000
846.96	250.000
847.25	281.818
847.55	354.545
847.85	156.522
848.15	370.000
848.44	328.571
848.74	188.889
849.04	282.353
849.34	390.000
849.63	252.632
849.93	327.273
850.23	860.000
850.53	271.429
850.82	1450.000
851.12	-3000.000
851.42	3500.000
851.71	255.000
852.01	-633.333
852.31	191.667
852.61	1266.667
852.90	223.810
853.20	180.000
853.50	258.824
853.79	152.381
854.09	145.833
854.39	262.500
854.68	140.541
854.98	170.968
855.28	153.333
855.57	203.448
855.87	200.000
856.17	184.211
856.46	193.333
856.76	205.882
857.05	141.379
857.35	179.167
857.65	226.667
857.94	173.913
858.24	165.385
858.53	220.000
858.83	195.455
859.13	300.000
859.42	0.000
859.72	377.778
860.01	281.818
860.31	159.091
860.60	189.474
860.90	160.870
861.20	488.889
861.49	383.333
861.79	-3000.000
862.08	337.500
862.38	166.667
862.67	307.692
862.97	235.294
863.26	422.222
863.56	144.444
863.85	291.667
864.15	487.500
864.44	313.333
864.74	650.000
865.03	475.000
865.33	231.579
865.62	309.091
865.92	307.692
866.21	283.333
866.51	0.000
866.80	281.818
867.10	800.000
867.39	353.846
867.69	300.000
867.98	200.000
868.27	372.727
868.57	236.842
868.86	-3500.000
869.16	275.000
869.45	1700.000
869.75	-3100.000
870.04	391.667
870.33	385.714
870.63	825.000
870.92	1900.000
871.22	685.714
871.51	247.059
871.80	123.810
872.10	350.000
>>>>>End Processed Spectral Data<<<<<
