SpectraSuite Data File
++++++++++++++++++++++++++++++++++++
Date: Wed May 13 20:59:21 PDT 2015
User: schluterlab
Dark Spectrum Present: Yes
Reference Spectrum Present: Yes
Number of Sampled Component Spectra: 1
Spectrometers: USB2E3373
Integration Time (usec): 3000 (USB2E3373)
Spectra Averaged: 3 (USB2E3373)
Boxcar Smoothing: 0 (USB2E3373)
Correct for Electrical Dark: No (USB2E3373)
Strobe/Lamp Enabled: No (USB2E3373)
Correct for Detector Non-linearity: No (USB2E3373)
Correct for Stray Light: No (USB2E3373)
Number of Pixels in Processed Spectrum: 2048
>>>>>Begin Processed Spectral Data<<<<<
178.53	0.000
178.91	300.000
179.29	66.667
179.67	-50.000
180.04	-300.000
180.42	80.000
180.80	200.000
181.18	183.333
181.56	-275.000
181.94	-50.000
182.31	-18.182
182.69	30.769
183.07	120.000
183.45	-16.667
183.83	22.222
184.20	-142.857
184.58	166.667
184.96	100.000
185.34	71.429
185.72	0.000
186.09	1200.000
186.47	20.000
186.85	-140.000
187.23	0.000
187.61	-250.000
187.98	-0.000
188.36	162.500
188.74	0.000
189.12	18.182
189.49	70.000
189.87	75.000
190.25	280.000
190.63	300.000
191.00	0.000
191.38	280.000
191.76	50.000
192.14	41.667
192.51	73.684
192.89	233.333
193.27	150.000
193.65	20.000
194.02	109.091
194.40	120.000
194.78	500.000
195.15	300.000
195.53	80.000
195.91	87.500
196.29	-133.333
196.66	0.000
197.04	-0.000
197.42	220.000
197.79	100.000
198.17	-12.500
198.55	-33.333
198.92	25.000
199.30	33.333
199.68	80.000
200.05	100.000
200.43	-133.333
200.81	-700.000
201.18	-20.000
201.56	33.333
201.94	200.000
202.31	52.174
202.69	128.571
203.07	-333.333
203.44	-100.000
203.82	-266.667
204.19	0.000
204.57	0.000
204.95	100.000
205.32	0.000
205.70	300.000
206.08	75.000
206.45	0.000
206.83	225.000
207.20	-133.333
207.58	0.000
207.96	-500.000
208.33	-42.857
208.71	-1000.000
209.08	-12.500
209.46	250.000
209.84	0.000
210.21	20.000
210.59	1000.000
210.96	160.000
211.34	400.000
211.71	-150.000
212.09	-83.333
212.46	80.000
212.84	66.667
213.22	450.000
213.59	300.000
213.97	200.000
214.34	-250.000
214.72	7.692
215.09	212.500
215.47	88.889
215.84	-0.000
216.22	87.500
216.59	-100.000
216.97	-0.000
217.34	-11.111
217.72	0.000
218.09	300.000
218.47	1300.000
218.84	57.143
219.22	12.500
219.59	33.333
219.97	75.000
220.34	100.000
220.72	-20.000
221.09	0.000
221.47	0.000
221.84	500.000
222.22	0.000
222.59	200.000
222.97	0.000
223.34	-58.333
223.72	100.000
224.09	-350.000
224.46	-9.091
224.84	175.000
225.21	142.857
225.59	-50.000
225.96	83.333
226.34	50.000
226.71	14.286
227.08	200.000
227.46	0.000
227.83	600.000
228.21	18.750
228.58	-100.000
228.95	5.882
229.33	37.500
229.70	12.500
230.08	46.154
230.45	-87.500
230.82	25.000
231.20	100.000
231.57	-250.000
231.95	-200.000
232.32	75.000
232.69	17.647
233.07	-1400.000
233.44	30.435
233.81	-50.000
234.19	0.000
234.56	-26.667
234.93	13.333
235.31	31.579
235.68	-7.692
236.05	23.077
236.43	27.778
236.80	24.242
237.17	0.000
237.55	-11.765
237.92	13.793
238.29	22.222
238.67	11.111
239.04	16.129
239.41	14.894
239.79	0.000
240.16	13.953
240.53	35.714
240.91	23.214
241.28	12.500
241.65	33.871
242.02	10.526
242.40	20.290
242.77	21.739
243.14	28.205
243.51	14.894
243.89	18.269
244.26	31.132
244.63	19.231
245.00	21.875
245.38	13.445
245.75	22.131
246.12	23.308
246.49	13.008
246.87	19.328
247.24	17.568
247.61	19.205
247.98	22.436
248.36	15.976
248.73	17.416
249.10	13.131
249.47	18.280
249.84	18.421
250.22	23.881
250.59	22.430
250.96	21.364
251.33	10.526
251.70	20.502
252.08	11.715
252.45	18.519
252.82	20.913
253.19	22.179
253.56	17.626
253.94	22.420
254.31	16.549
254.68	20.134
255.05	16.832
255.42	18.881
255.79	16.564
256.16	16.719
256.54	17.778
256.91	14.557
257.28	20.755
257.65	14.331
258.02	21.408
258.39	18.421
258.76	17.733
259.14	16.761
259.51	15.449
259.88	19.512
260.25	20.833
260.62	18.820
260.99	19.894
261.36	21.762
261.73	15.062
262.10	16.031
262.47	18.272
262.85	17.413
263.22	18.462
263.59	17.662
263.96	15.815
264.33	15.385
264.70	19.535
265.07	15.972
265.44	18.161
265.81	16.934
266.18	17.312
266.55	18.122
266.92	16.525
267.29	18.107
267.66	16.773
268.03	17.490
268.40	15.042
268.77	15.702
269.14	18.163
269.51	21.355
269.88	15.275
270.25	16.737
270.62	17.213
270.99	18.504
271.36	16.667
271.73	18.072
272.10	18.476
272.47	15.355
272.84	17.323
273.21	14.677
273.58	18.033
273.95	17.547
274.32	15.858
274.69	18.033
275.06	16.784
275.43	17.891
275.80	17.021
276.17	16.390
276.54	15.275
276.91	17.422
277.28	16.426
277.65	15.385
278.02	18.393
278.39	15.808
278.76	15.385
279.13	15.609
279.50	16.552
279.87	15.580
280.23	19.099
280.60	15.571
280.97	17.045
281.34	18.612
281.71	15.772
282.08	18.291
282.45	17.213
282.82	16.454
283.19	17.226
283.56	16.875
283.92	16.972
284.29	15.757
284.66	16.804
285.03	15.309
285.40	17.825
285.77	16.967
286.14	14.286
286.51	17.691
286.87	17.077
287.24	15.929
287.61	15.663
287.98	15.882
288.35	15.052
288.72	14.921
289.08	16.524
289.45	15.125
289.82	16.188
290.19	17.672
290.56	13.636
290.93	16.022
291.29	14.090
291.66	16.530
292.03	15.123
292.40	14.939
292.77	14.859
293.13	17.015
293.50	15.163
293.87	13.600
294.24	15.741
294.60	14.434
294.97	16.534
295.34	16.095
295.71	13.141
296.08	14.398
296.44	14.158
296.81	13.520
297.18	15.500
297.55	15.684
297.91	15.404
298.28	15.617
298.65	15.271
299.02	15.995
299.38	16.810
299.75	14.543
300.12	14.767
300.48	14.620
300.85	15.127
301.22	15.912
301.59	15.376
301.95	14.866
302.32	15.403
302.69	13.446
303.05	15.725
303.42	15.455
303.79	16.404
304.15	14.677
304.52	17.742
304.89	14.950
305.25	16.136
305.62	16.486
305.99	17.193
306.35	16.823
306.72	16.480
307.09	17.518
307.45	17.146
307.82	16.632
308.19	15.152
308.55	17.912
308.92	18.861
309.29	17.618
309.65	17.283
310.02	19.185
310.38	17.378
310.75	17.751
311.12	18.950
311.48	18.793
311.85	19.882
312.22	20.116
312.58	19.903
312.95	19.900
313.31	21.304
313.68	21.565
314.05	21.456
314.41	22.286
314.78	22.581
315.14	21.944
315.51	23.216
315.87	24.096
316.24	23.600
316.61	23.836
316.97	23.889
317.34	25.223
317.70	25.602
318.07	26.442
318.43	26.107
318.80	25.742
319.16	27.409
319.53	26.971
319.89	28.726
320.26	27.634
320.62	29.194
320.99	29.554
321.35	29.654
321.72	29.933
322.08	30.166
322.45	31.822
322.81	31.146
323.18	30.680
323.54	32.130
323.91	32.882
324.27	31.593
324.64	32.056
325.00	32.896
325.37	33.532
325.73	33.249
326.10	33.221
326.46	34.532
326.83	34.466
327.19	34.390
327.56	36.261
327.92	34.835
328.29	36.895
328.65	37.686
329.01	36.588
329.38	37.739
329.74	35.880
330.11	35.888
330.47	38.368
330.84	37.816
331.20	36.208
331.56	39.402
331.93	37.812
332.29	38.662
332.66	38.305
333.02	37.967
333.38	38.947
333.75	37.799
334.11	38.628
334.48	39.494
334.84	37.898
335.20	38.336
335.57	38.120
335.93	38.660
336.29	38.266
336.66	38.205
337.02	38.696
337.38	37.859
337.75	37.726
338.11	38.343
338.47	38.185
338.84	38.144
339.20	39.153
339.56	37.628
339.93	40.795
340.29	38.770
340.65	39.778
341.02	40.183
341.38	40.372
341.74	40.168
342.11	39.389
342.47	38.075
342.83	39.216
343.20	41.117
343.56	40.065
343.92	38.749
344.28	40.016
344.65	40.082
345.01	39.387
345.37	41.776
345.73	41.013
346.10	39.727
346.46	40.732
346.82	40.128
347.19	39.003
347.55	40.468
347.91	39.595
348.27	40.142
348.63	39.984
349.00	41.352
349.36	40.738
349.72	41.454
350.08	41.810
350.45	40.955
350.81	40.923
351.17	41.186
351.53	41.477
351.89	40.905
352.26	39.537
352.62	41.240
352.98	41.134
353.34	43.398
353.70	40.654
354.07	42.275
354.43	43.002
354.79	42.788
355.15	41.227
355.51	41.686
355.87	41.908
356.24	43.098
356.60	41.673
356.96	42.441
357.32	43.034
357.68	42.552
358.04	42.746
358.40	42.558
358.77	42.890
359.13	42.879
359.49	41.484
359.85	42.608
360.21	44.641
360.57	44.030
360.93	44.461
361.29	44.189
361.66	44.115
362.02	42.921
362.38	43.353
362.74	42.930
363.10	43.890
363.46	42.867
363.82	44.568
364.18	44.162
364.54	43.982
364.90	43.763
365.26	44.161
365.62	42.827
365.98	45.694
366.35	44.184
366.71	44.437
367.07	44.578
367.43	44.321
367.79	44.614
368.15	44.655
368.51	44.304
368.87	45.220
369.23	44.911
369.59	45.102
369.95	44.993
370.31	44.351
370.67	43.954
371.03	47.216
371.39	44.996
371.75	45.286
372.11	44.373
372.47	44.484
372.83	45.007
373.19	45.036
373.55	44.653
373.91	44.554
374.27	44.398
374.63	45.235
374.99	45.195
375.35	45.411
375.71	44.361
376.07	44.620
376.42	44.719
376.78	45.178
377.14	45.966
377.50	45.372
377.86	45.618
378.22	45.702
378.58	45.082
378.94	46.312
379.30	45.409
379.66	46.239
380.02	45.404
380.38	44.880
380.74	45.547
381.09	43.848
381.45	44.800
381.81	44.917
382.17	45.369
382.53	44.800
382.89	45.537
383.25	45.123
383.61	45.097
383.97	45.250
384.32	43.982
384.68	45.527
385.04	45.021
385.40	45.019
385.76	44.830
386.12	45.707
386.48	44.201
386.83	45.119
387.19	44.232
387.55	44.758
387.91	45.756
388.27	44.020
388.62	44.632
388.98	44.556
389.34	43.484
389.70	43.651
390.06	43.938
390.42	44.588
390.77	44.266
391.13	43.497
391.49	43.454
391.85	44.153
392.20	43.797
392.56	43.937
392.92	43.476
393.28	43.114
393.64	44.098
393.99	42.228
394.35	43.025
394.71	43.846
395.07	42.138
395.42	42.840
395.78	42.664
396.14	43.437
396.50	42.549
396.85	43.021
397.21	41.823
397.57	42.671
397.92	41.856
398.28	42.696
398.64	41.834
399.00	41.239
399.35	42.281
399.71	41.584
400.07	42.169
400.42	41.818
400.78	40.604
401.14	41.202
401.49	41.941
401.85	40.971
402.21	41.115
402.57	41.202
402.92	40.113
403.28	40.650
403.63	40.360
403.99	39.795
404.35	40.399
404.70	39.758
405.06	40.458
405.42	39.322
405.77	39.286
406.13	39.771
406.49	38.167
406.84	39.621
407.20	39.905
407.55	39.675
407.91	38.716
408.27	38.366
408.62	38.981
408.98	39.519
409.34	38.552
409.69	40.026
410.05	38.184
410.40	38.040
410.76	38.809
411.11	38.557
411.47	39.350
411.83	36.681
412.18	37.406
412.54	38.659
412.89	37.868
413.25	36.991
413.60	37.680
413.96	37.266
414.31	37.670
414.67	36.190
415.03	37.483
415.38	37.318
415.74	36.582
416.09	37.343
416.45	37.799
416.80	37.651
417.16	37.179
417.51	36.839
417.87	36.905
418.22	36.846
418.58	36.991
418.93	36.786
419.29	36.634
419.64	37.341
420.00	37.143
420.35	36.760
420.71	37.112
421.06	36.962
421.42	37.835
421.77	36.879
422.12	37.020
422.48	37.023
422.83	36.621
423.19	37.435
423.54	37.220
423.90	36.223
424.25	38.244
424.61	36.969
424.96	37.197
425.31	37.072
425.67	37.507
426.02	37.868
426.38	36.754
426.73	37.202
427.09	36.710
427.44	37.405
427.79	36.758
428.15	36.881
428.50	37.221
428.85	37.454
429.21	36.635
429.56	37.194
429.92	36.960
430.27	37.270
430.62	37.723
430.98	37.388
431.33	37.399
431.68	36.901
432.04	37.521
432.39	37.587
432.74	36.665
433.10	37.420
433.45	37.219
433.80	37.644
434.16	36.701
434.51	37.337
434.86	37.456
435.22	36.616
435.57	37.899
435.92	37.998
436.28	37.297
436.63	37.413
436.98	37.544
437.34	37.241
437.69	36.364
438.04	36.899
438.39	38.543
438.75	36.472
439.10	37.131
439.45	37.046
439.81	37.869
440.16	36.928
440.51	37.218
440.86	36.515
441.22	37.464
441.57	36.659
441.92	37.014
442.27	37.662
442.63	36.545
442.98	36.863
443.33	37.641
443.68	36.268
444.03	37.109
444.39	37.085
444.74	36.996
445.09	36.344
445.44	37.859
445.79	36.809
446.15	37.715
446.50	36.839
446.85	37.520
447.20	37.219
447.55	36.598
447.91	35.899
448.26	36.707
448.61	37.112
448.96	37.187
449.31	37.065
449.66	37.189
450.02	37.010
450.37	37.074
450.72	36.682
451.07	37.492
451.42	35.496
451.77	36.762
452.12	36.185
452.47	37.056
452.83	36.321
453.18	35.773
453.53	36.759
453.88	37.108
454.23	36.094
454.58	36.029
454.93	35.664
455.28	35.389
455.63	35.434
455.98	37.005
456.34	34.774
456.69	35.783
457.04	35.913
457.39	35.899
457.74	36.086
458.09	35.071
458.44	34.900
458.79	35.310
459.14	33.708
459.49	35.061
459.84	34.780
460.19	34.154
460.54	35.341
460.89	35.135
461.24	33.046
461.59	35.326
461.94	35.209
462.29	34.620
462.64	34.235
462.99	35.211
463.34	35.221
463.69	35.631
464.04	32.833
464.39	34.899
464.74	34.275
465.09	33.850
465.44	34.007
465.79	34.560
466.14	33.808
466.49	34.252
466.84	33.712
467.19	33.567
467.54	34.089
467.89	33.438
468.24	34.481
468.59	33.716
468.94	34.738
469.29	33.377
469.64	33.264
469.99	34.276
470.34	34.457
470.68	33.309
471.03	33.286
471.38	33.241
471.73	32.922
472.08	33.402
472.43	33.113
472.78	33.739
473.13	32.124
473.48	32.290
473.83	32.392
474.17	31.641
474.52	33.786
474.87	32.087
475.22	32.246
475.57	31.735
475.92	31.734
476.27	32.110
476.61	31.484
476.96	31.639
477.31	32.686
477.66	32.147
478.01	31.429
478.36	32.098
478.70	31.740
479.05	32.186
479.40	30.369
479.75	32.094
480.10	31.209
480.45	30.897
480.79	31.359
481.14	32.219
481.49	31.870
481.84	29.925
482.19	30.570
482.53	31.238
482.88	30.872
483.23	30.462
483.58	31.191
483.92	30.739
484.27	30.421
484.62	29.783
484.97	30.071
485.31	30.360
485.66	28.726
486.01	28.835
486.36	29.121
486.70	29.127
487.05	29.605
487.40	29.506
487.75	29.400
488.09	29.966
488.44	30.319
488.79	30.015
489.13	29.742
489.48	30.440
489.83	30.460
490.17	29.959
490.52	30.435
490.87	29.393
491.22	29.675
491.56	30.474
491.91	29.333
492.26	29.062
492.60	29.678
492.95	29.932
493.30	29.409
493.64	28.969
493.99	29.469
494.34	29.672
494.68	29.594
495.03	28.706
495.37	28.954
495.72	29.373
496.07	29.664
496.41	28.358
496.76	28.839
497.11	29.390
497.45	28.988
497.80	29.581
498.14	29.622
498.49	28.643
498.84	28.543
499.18	28.372
499.53	29.394
499.87	28.627
500.22	27.974
500.56	28.887
500.91	28.823
501.26	29.015
501.60	28.431
501.95	28.079
502.29	29.417
502.64	29.556
502.98	28.613
503.33	28.467
503.67	28.432
504.02	28.627
504.36	28.133
504.71	27.439
505.06	28.681
505.40	29.227
505.75	28.637
506.09	27.849
506.44	27.772
506.78	28.593
507.13	28.482
507.47	28.473
507.82	28.257
508.16	28.865
508.51	27.634
508.85	27.786
509.19	27.196
509.54	28.579
509.88	27.527
510.23	27.737
510.57	28.655
510.92	27.748
511.26	28.713
511.61	27.333
511.95	28.115
512.30	28.151
512.64	28.150
512.98	27.978
513.33	27.099
513.67	27.030
514.02	27.708
514.36	27.303
514.70	27.887
515.05	28.028
515.39	27.417
515.74	28.478
516.08	27.198
516.42	27.535
516.77	27.417
517.11	27.396
517.46	28.211
517.80	28.390
518.14	27.557
518.49	27.185
518.83	27.745
519.17	27.349
519.52	28.528
519.86	27.747
520.20	27.532
520.55	27.736
520.89	27.135
521.23	27.821
521.58	26.675
521.92	26.776
522.26	26.675
522.61	27.085
522.95	27.526
523.29	27.238
523.64	27.209
523.98	27.827
524.32	26.465
524.66	27.208
525.01	27.982
525.35	27.386
525.69	26.574
526.04	27.427
526.38	26.195
526.72	26.693
527.06	26.370
527.41	26.473
527.75	25.701
528.09	27.638
528.43	26.934
528.78	27.132
529.12	27.490
529.46	26.232
529.80	26.472
530.15	26.512
530.49	26.819
530.83	26.540
531.17	26.575
531.51	25.556
531.86	26.762
532.20	25.775
532.54	26.345
532.88	25.596
533.22	27.609
533.57	26.623
533.91	26.516
534.25	27.539
534.59	25.676
534.93	25.383
535.27	25.924
535.62	25.132
535.96	26.025
536.30	26.662
536.64	25.290
536.98	25.858
537.32	25.196
537.66	26.516
538.01	25.173
538.35	25.000
538.69	26.221
539.03	24.899
539.37	24.413
539.71	25.102
540.05	25.709
540.39	25.189
540.73	26.327
541.07	25.442
541.42	25.253
541.76	24.831
542.10	26.202
542.44	25.225
542.78	25.815
543.12	25.472
543.46	25.294
543.80	25.187
544.14	25.465
544.48	24.618
544.82	25.017
545.16	26.166
545.50	26.469
545.84	24.755
546.18	24.404
546.52	24.912
546.86	24.382
547.20	24.660
547.54	24.017
547.88	25.034
548.22	24.886
548.56	24.750
548.90	24.560
549.24	24.722
549.58	24.840
549.92	24.652
550.26	26.273
550.60	24.324
550.94	24.701
551.28	25.132
551.62	25.338
551.96	24.378
552.30	25.764
552.64	23.870
552.98	25.142
553.32	24.297
553.66	24.872
554.00	24.550
554.34	23.883
554.68	24.981
555.02	24.551
555.36	24.735
555.69	23.816
556.03	23.660
556.37	23.186
556.71	24.527
557.05	24.649
557.39	25.245
557.73	24.130
558.07	23.738
558.41	25.284
558.75	23.711
559.08	22.935
559.42	25.098
559.76	24.465
560.10	23.520
560.44	24.613
560.78	23.165
561.12	23.686
561.45	24.082
561.79	24.140
562.13	24.895
562.47	24.571
562.81	23.737
563.15	24.008
563.48	23.331
563.82	24.008
564.16	24.577
564.50	23.677
564.84	23.243
565.17	23.709
565.51	23.128
565.85	21.719
566.19	23.510
566.52	23.657
566.86	22.946
567.20	23.519
567.54	23.661
567.88	22.844
568.21	22.868
568.55	22.535
568.89	22.682
569.23	22.090
569.56	22.653
569.90	21.664
570.24	21.227
570.57	22.040
570.91	21.971
571.25	21.433
571.59	21.407
571.92	21.561
572.26	21.592
572.60	21.805
572.93	21.618
573.27	21.470
573.61	21.854
573.95	21.787
574.28	21.836
574.62	21.550
574.96	21.383
575.29	21.364
575.63	21.602
575.97	21.929
576.30	21.173
576.64	21.850
576.98	21.720
577.31	21.302
577.65	21.184
577.98	21.208
578.32	20.944
578.66	21.082
578.99	21.878
579.33	21.689
579.67	21.359
580.00	21.193
580.34	20.819
580.67	21.264
581.01	21.269
581.35	20.852
581.68	20.935
582.02	20.721
582.35	20.893
582.69	21.179
583.02	20.713
583.36	21.602
583.70	21.529
584.03	21.812
584.37	21.339
584.70	21.411
585.04	21.173
585.37	21.264
585.71	21.394
586.04	21.228
586.38	20.863
586.72	21.186
587.05	21.320
587.39	21.640
587.72	21.197
588.06	20.958
588.39	21.103
588.73	21.300
589.06	21.565
589.40	20.984
589.73	20.733
590.07	21.254
590.40	21.583
590.73	21.799
591.07	21.563
591.40	21.609
591.74	21.787
592.07	21.451
592.41	21.879
592.74	21.335
593.08	20.171
593.41	20.873
593.75	20.769
594.08	20.829
594.41	22.048
594.75	21.139
595.08	21.397
595.42	21.009
595.75	21.330
596.09	21.247
596.42	21.487
596.75	21.939
597.09	21.474
597.42	21.131
597.75	20.978
598.09	21.311
598.42	20.850
598.76	21.285
599.09	21.248
599.42	20.544
599.76	20.879
600.09	21.009
600.42	20.716
600.76	20.621
601.09	21.092
601.42	21.325
601.76	21.120
602.09	21.848
602.42	21.667
602.76	21.267
603.09	21.314
603.42	20.832
603.76	21.122
604.09	20.632
604.42	20.804
604.76	20.733
605.09	21.205
605.42	21.368
605.75	21.028
606.09	20.654
606.42	21.197
606.75	20.563
607.09	21.498
607.42	20.972
607.75	19.825
608.08	21.190
608.42	20.056
608.75	21.022
609.08	20.970
609.41	20.566
609.75	20.575
610.08	21.351
610.41	20.797
610.74	21.174
611.07	20.842
611.41	20.522
611.74	20.083
612.07	21.157
612.40	20.865
612.73	20.801
613.07	21.120
613.40	21.090
613.73	21.127
614.06	21.006
614.39	20.289
614.72	21.266
615.06	20.722
615.39	21.192
615.72	19.978
616.05	19.707
616.38	20.733
616.71	20.816
617.05	21.069
617.38	21.257
617.71	20.956
618.04	20.963
618.37	21.136
618.70	20.957
619.03	21.237
619.36	21.495
619.69	19.883
620.03	21.484
620.36	20.598
620.69	20.485
621.02	20.308
621.35	19.869
621.68	20.456
622.01	21.036
622.34	21.412
622.67	21.535
623.00	21.505
623.33	20.793
623.66	20.372
623.99	20.330
624.32	20.323
624.65	20.401
624.99	20.426
625.32	21.509
625.65	20.698
625.98	21.327
626.31	20.653
626.64	21.668
626.97	20.675
627.30	21.899
627.63	20.502
627.96	20.433
628.29	21.116
628.62	21.277
628.95	20.240
629.28	21.084
629.61	22.201
629.94	21.954
630.26	22.266
630.59	21.279
630.92	20.783
631.25	20.597
631.58	22.163
631.91	20.042
632.24	21.186
632.57	21.222
632.90	21.470
633.23	19.424
633.56	21.942
633.89	21.651
634.22	21.908
634.55	22.777
634.88	20.588
635.20	22.250
635.53	21.059
635.86	19.615
636.19	21.712
636.52	20.122
636.85	19.903
637.18	20.341
637.51	20.599
637.83	22.977
638.16	19.733
638.49	21.629
638.82	21.438
639.15	21.676
639.48	20.856
639.81	20.417
640.13	22.958
640.46	21.893
640.79	20.719
641.12	20.710
641.45	20.961
641.77	19.588
642.10	19.970
642.43	21.541
642.76	18.770
643.09	22.364
643.41	22.169
643.74	19.709
644.07	20.550
644.40	22.056
644.73	20.000
645.05	20.419
645.38	21.096
645.71	22.449
646.04	19.697
646.36	21.181
646.69	18.007
647.02	21.129
647.35	17.367
647.67	21.627
648.00	20.290
648.33	21.864
648.66	19.032
648.98	21.584
649.31	21.166
649.64	19.718
649.96	22.275
650.29	19.608
650.62	20.593
650.94	20.000
651.27	21.731
651.60	21.853
651.92	20.251
652.25	20.268
652.58	21.122
652.90	22.222
653.23	18.166
653.56	17.521
653.88	17.406
654.21	16.382
654.54	17.442
654.86	21.138
655.19	18.207
655.52	18.891
655.84	17.294
656.17	21.283
656.49	28.742
656.82	28.562
657.15	21.336
657.47	15.997
657.80	12.011
658.13	12.832
658.45	18.685
658.78	18.937
659.10	19.229
659.43	19.815
659.75	19.853
660.08	19.793
660.41	20.081
660.73	19.146
661.06	19.898
661.38	20.155
661.71	18.033
662.03	20.719
662.36	20.133
662.68	18.710
663.01	22.246
663.33	19.654
663.66	17.517
663.98	22.247
664.31	19.780
664.63	15.315
664.96	20.131
665.28	24.249
665.61	19.870
665.93	17.773
666.26	21.308
666.58	19.914
666.91	21.525
667.23	23.502
667.56	21.609
667.88	19.860
668.21	22.768
668.53	20.460
668.86	20.863
669.18	19.149
669.50	20.968
669.83	21.718
670.15	20.238
670.48	19.310
670.80	26.039
671.13	21.053
671.45	21.461
671.77	21.121
672.10	18.713
672.42	20.992
672.75	18.750
673.07	19.455
673.39	18.470
673.72	21.756
674.04	20.287
674.37	19.919
674.69	20.576
675.01	20.513
675.34	22.757
675.66	23.747
675.98	20.133
676.31	19.005
676.63	24.490
676.95	18.588
677.28	18.349
677.60	18.873
677.92	22.838
678.25	22.343
678.57	21.385
678.89	18.977
679.22	15.942
679.54	19.796
679.86	20.703
680.18	18.654
680.51	20.385
680.83	16.764
681.15	17.878
681.48	20.240
681.80	21.063
682.12	17.708
682.44	16.499
682.77	17.053
683.09	22.098
683.41	20.465
683.73	19.643
684.06	20.133
684.38	15.385
684.70	17.312
685.02	20.455
685.34	19.178
685.67	18.949
685.99	18.505
686.31	18.966
686.63	18.750
686.96	22.078
687.28	17.964
687.60	20.794
687.92	18.677
688.24	20.000
688.56	20.833
688.89	16.927
689.21	17.713
689.53	20.045
689.85	20.000
690.17	17.802
690.49	19.082
690.82	16.945
691.14	18.357
691.46	19.026
691.78	19.341
692.10	19.321
692.42	18.242
692.74	20.435
693.06	21.348
693.39	19.906
693.71	19.556
694.03	19.773
694.35	19.369
694.67	20.500
694.99	22.423
695.31	22.222
695.63	21.707
695.95	20.611
696.27	14.795
696.59	20.430
696.91	18.156
697.23	18.274
697.56	20.384
697.88	19.751
698.20	20.734
698.52	19.626
698.84	17.943
699.16	18.913
699.48	18.272
699.80	21.447
700.12	20.912
700.44	18.873
700.76	19.663
701.08	18.731
701.40	21.856
701.72	19.077
702.04	16.981
702.36	19.512
702.68	19.817
703.00	18.713
703.32	18.106
703.64	17.470
703.96	15.249
704.28	16.566
704.60	20.732
704.91	18.495
705.23	16.772
705.55	18.966
705.87	21.127
706.19	19.048
706.51	17.606
706.83	14.650
707.15	20.122
707.47	22.590
707.79	18.528
708.11	15.167
708.43	23.604
708.74	20.745
709.06	17.914
709.38	16.138
709.70	18.318
710.02	18.380
710.34	16.667
710.66	21.173
710.98	18.576
711.29	21.429
711.61	17.742
711.93	15.806
712.25	20.280
712.57	16.140
712.89	16.484
713.20	17.376
713.52	17.518
713.84	18.387
714.16	16.181
714.48	18.671
714.80	18.211
715.11	20.349
715.43	15.839
715.75	19.565
716.07	17.771
716.39	19.192
716.70	18.345
717.02	13.333
717.34	22.727
717.66	17.241
717.97	15.476
718.29	18.504
718.61	16.309
718.93	19.380
719.24	21.033
719.56	17.228
719.88	16.791
720.20	14.625
720.51	15.625
720.83	21.790
721.15	17.073
721.46	19.084
721.78	19.124
722.10	16.733
722.42	18.145
722.73	18.919
723.05	17.143
723.37	23.529
723.68	16.800
724.00	16.170
724.32	17.573
724.63	18.930
724.95	11.966
725.27	21.097
725.58	15.638
725.90	17.155
726.22	19.565
726.53	11.373
726.85	16.788
727.16	16.296
727.48	19.923
727.80	19.922
728.11	19.672
728.43	16.016
728.74	16.667
729.06	13.200
729.38	20.553
729.69	18.861
730.01	15.242
730.32	20.295
730.64	18.561
730.96	23.427
731.27	15.050
731.59	20.317
731.90	17.799
732.22	17.628
732.53	14.527
732.85	15.436
733.16	18.812
733.48	15.878
733.80	19.932
734.11	23.649
734.43	17.957
734.74	23.423
735.06	15.274
735.37	18.237
735.69	16.181
736.00	17.492
736.32	18.794
736.63	18.276
736.95	21.233
737.26	19.655
737.58	21.181
737.89	18.213
738.21	14.591
738.52	17.871
738.83	19.184
739.15	15.612
739.46	17.510
739.78	19.718
740.09	17.808
740.41	14.286
740.72	15.248
741.04	13.200
741.35	15.351
741.66	17.333
741.98	23.077
742.29	25.248
742.61	16.098
742.92	21.053
743.23	15.094
743.55	18.919
743.86	20.179
744.18	24.020
744.49	16.244
744.80	20.408
745.12	17.757
745.43	25.118
745.74	16.667
746.06	22.430
746.37	18.807
746.68	21.635
747.00	18.660
747.31	24.519
747.62	19.725
747.94	19.214
748.25	22.018
748.56	18.667
748.88	21.596
749.19	24.762
749.50	15.049
749.82	14.554
750.13	9.167
750.44	13.462
750.75	14.022
751.07	19.929
751.38	17.730
751.69	20.077
752.01	20.703
752.32	18.846
752.63	12.687
752.94	16.400
753.26	16.736
753.57	15.417
753.88	17.004
754.19	17.131
754.51	17.669
754.82	14.652
755.13	9.130
755.44	15.041
755.75	13.600
756.07	17.343
756.38	17.986
756.69	15.700
757.00	17.757
757.31	13.916
757.63	16.049
757.94	16.949
758.25	19.048
758.56	15.489
758.87	22.321
759.18	17.981
759.50	15.488
759.81	17.726
760.12	16.308
760.43	14.881
760.74	16.102
761.05	17.127
761.36	15.759
761.67	15.106
761.99	16.838
762.30	17.153
762.61	21.811
762.92	21.795
763.23	18.033
763.54	18.182
763.85	13.878
764.16	14.228
764.47	18.400
764.78	19.286
765.10	18.361
765.41	19.149
765.72	17.391
766.03	17.822
766.34	15.385
766.65	14.644
766.96	17.371
767.27	15.842
767.58	15.730
767.89	14.815
768.20	16.575
768.51	22.111
768.82	24.038
769.13	14.159
769.44	14.644
769.75	11.111
770.06	15.247
770.37	18.627
770.68	16.505
770.99	18.932
771.30	15.966
771.61	18.367
771.92	22.822
772.23	14.414
772.54	12.707
772.85	16.860
773.16	16.931
773.47	4.734
773.78	16.092
774.09	18.125
774.39	14.907
774.70	19.048
775.01	15.172
775.32	15.714
775.63	19.549
775.94	17.293
776.25	13.600
776.56	16.529
776.87	29.365
777.18	14.414
777.48	22.523
777.79	17.323
778.10	22.018
778.41	13.158
778.72	18.487
779.03	12.676
779.34	17.568
779.65	16.901
779.95	9.934
780.26	15.827
780.57	22.302
780.88	16.901
781.19	11.765
781.50	18.792
781.80	16.959
782.11	11.628
782.42	18.868
782.73	16.340
783.04	16.552
783.34	12.977
783.65	14.765
783.96	23.077
784.27	19.286
784.57	17.021
784.88	7.692
785.19	21.818
785.50	18.182
785.81	19.048
786.11	11.765
786.42	23.009
786.73	11.321
787.04	9.174
787.34	8.911
787.65	22.500
787.96	15.702
788.26	11.594
788.57	12.698
788.88	14.634
789.19	14.400
789.49	10.687
789.80	25.000
790.11	11.321
790.41	18.812
790.72	21.277
791.03	17.391
791.33	23.529
791.64	11.111
791.95	20.652
792.25	30.682
792.56	24.359
792.87	24.359
793.17	3.846
793.48	20.238
793.79	15.000
794.09	23.077
794.40	13.542
794.70	13.514
795.01	11.719
795.32	17.391
795.62	-2.174
795.93	-1.887
796.23	23.232
796.54	4.878
796.85	28.571
797.15	16.667
797.46	26.087
797.76	10.526
798.07	20.455
798.37	19.512
798.68	12.903
798.99	20.270
799.29	19.277
799.60	15.385
799.90	27.692
800.21	15.152
800.51	8.000
800.82	26.667
801.12	8.333
801.43	10.000
801.73	16.216
802.04	31.429
802.34	21.311
802.65	37.313
802.95	27.273
803.26	29.310
803.56	23.077
803.87	20.755
804.17	3.226
804.48	30.882
804.78	-9.756
805.09	33.333
805.39	11.765
805.70	-17.021
806.00	17.544
806.30	23.077
806.61	11.842
806.91	17.568
807.22	13.158
807.52	23.864
807.83	5.085
808.13	0.000
808.43	1.667
808.74	-8.621
809.04	11.111
809.35	12.245
809.65	25.000
809.95	2.041
810.26	32.394
810.56	16.667
810.86	24.490
811.17	28.846
811.47	14.894
811.77	10.417
812.08	18.868
812.38	-6.250
812.69	10.909
812.99	19.512
813.29	27.027
813.59	8.108
813.90	23.636
814.20	23.636
814.50	20.000
814.81	18.182
815.11	12.281
815.41	32.558
815.72	17.500
816.02	2.857
816.32	8.108
816.62	8.333
816.93	20.000
817.23	13.333
817.53	0.000
817.84	5.405
818.14	12.195
818.44	24.000
818.74	12.245
819.04	19.512
819.35	25.000
819.65	15.909
819.95	-11.111
820.25	15.152
820.56	-7.143
820.86	16.667
821.16	-2.273
821.46	21.739
821.76	20.690
822.07	21.739
822.37	45.455
822.67	60.976
822.97	24.324
823.27	0.000
823.57	31.034
823.88	8.824
824.18	50.000
824.48	31.429
824.78	47.619
825.08	10.714
825.38	7.407
825.69	29.032
825.99	34.146
826.29	44.444
826.59	-6.250
826.89	19.355
827.19	4.348
827.49	5.556
827.79	-4.348
828.09	29.032
828.39	33.333
828.70	-12.500
829.00	37.931
829.30	27.027
829.60	-8.333
829.90	22.222
830.20	15.625
830.50	22.727
830.80	-47.059
831.10	9.091
831.40	17.647
831.70	23.077
832.00	30.303
832.30	38.235
832.60	5.405
832.90	1100.000
833.20	39.286
833.50	-30.000
833.80	7.895
834.10	-20.833
834.40	-4.545
834.70	-20.000
835.00	0.000
835.30	25.000
835.60	9.524
835.90	38.095
836.20	48.000
836.50	-25.000
836.80	10.526
837.10	27.027
837.40	40.000
837.70	-13.043
838.00	100.000
838.30	-15.789
838.60	-20.000
838.90	-100.000
839.19	-41.667
839.49	15.385
839.79	42.105
840.09	0.000
840.39	10.000
840.69	36.364
840.99	33.333
841.29	12.500
841.59	7.692
841.88	0.000
842.18	-14.286
842.48	46.667
842.78	0.000
843.08	7.143
843.38	0.000
843.68	-12.500
843.97	121.429
844.27	-55.556
844.57	-18.182
844.87	20.000
845.17	81.818
845.47	433.333
845.76	53.333
846.06	-8.333
846.36	-850.000
846.66	-31.579
846.96	4.545
847.25	-27.778
847.55	-77.778
847.85	33.333
848.15	0.000
848.44	-183.333
848.74	50.000
849.04	23.077
849.34	0.000
849.63	27.273
849.93	-71.429
850.23	85.000
850.53	-50.000
850.82	5.556
851.12	33.333
851.42	23.529
851.71	25.000
852.01	76.471
852.31	0.000
852.61	100.000
852.90	76.471
853.20	26.667
853.50	-43.750
853.79	-35.714
854.09	-50.000
854.39	5.000
854.68	5.000
854.98	-9.524
855.28	12.000
855.57	50.000
855.87	16.667
856.17	20.000
856.46	21.875
856.76	30.000
857.05	52.000
857.35	-50.000
857.65	0.000
857.94	-58.333
858.24	16.667
858.53	45.000
858.83	54.545
859.13	40.000
859.42	21.429
859.72	0.000
860.01	66.667
860.31	0.000
860.60	-12.500
860.90	16.667
861.20	33.333
861.49	86.667
861.79	25.000
862.08	200.000
862.38	-16.667
862.67	214.286
862.97	125.000
863.26	-18.182
863.56	63.636
863.85	84.211
864.15	5.882
864.44	-80.000
864.74	0.000
865.03	88.889
865.33	21.429
865.62	35.714
865.92	31.579
866.21	16.667
866.51	-54.545
866.80	-11.111
867.10	-62.500
867.39	6.250
867.69	26.667
867.98	80.000
868.27	47.059
868.57	0.000
868.86	350.000
869.16	-75.000
869.45	-214.286
869.75	-300.000
870.04	70.000
870.33	200.000
870.63	73.684
870.92	-33.333
871.22	0.000
871.51	-128.571
871.80	-211.111
872.10	-50.000
>>>>>End Processed Spectral Data<<<<<
