SpectraSuite Data File
++++++++++++++++++++++++++++++++++++
Date: Wed May 13 20:41:01 PDT 2015
User: schluterlab
Dark Spectrum Present: Yes
Reference Spectrum Present: Yes
Number of Sampled Component Spectra: 1
Spectrometers: USB2E3373
Integration Time (usec): 3000 (USB2E3373)
Spectra Averaged: 3 (USB2E3373)
Boxcar Smoothing: 0 (USB2E3373)
Correct for Electrical Dark: No (USB2E3373)
Strobe/Lamp Enabled: No (USB2E3373)
Correct for Detector Non-linearity: No (USB2E3373)
Correct for Stray Light: No (USB2E3373)
Number of Pixels in Processed Spectrum: 2048
>>>>>Begin Processed Spectral Data<<<<<
178.53	0.000
178.91	-875.000
179.29	-1075.000
179.67	-188.889
180.04	-650.000
180.42	1900.000
180.80	760.000
181.18	-575.000
181.56	457.143
181.94	0.000
182.31	-414.286
182.69	1233.333
183.07	-400.000
183.45	-311.111
183.83	400.000
184.20	-320.000
184.58	1450.000
184.96	4000.000
185.34	-620.000
185.72	-437.500
186.09	-1400.000
186.47	2050.000
186.85	1700.000
187.23	4100.000
187.61	-1533.333
187.98	1125.000
188.36	409.091
188.74	327.273
189.12	-520.000
189.49	430.000
189.87	-3300.000
190.25	-700.000
190.63	292.857
191.00	292.308
191.38	533.333
191.76	-725.000
192.14	1200.000
192.51	525.000
192.89	716.667
193.27	400.000
193.65	-975.000
194.02	370.000
194.40	680.000
194.78	420.000
195.15	433.333
195.53	450.000
195.91	-950.000
196.29	268.750
196.66	247.368
197.04	-340.000
197.42	0.000
197.79	360.000
198.17	-3800.000
198.55	400.000
198.92	400.000
199.30	520.000
199.68	0.000
200.05	250.000
200.43	585.714
200.81	3200.000
201.18	1100.000
201.56	-1100.000
201.94	366.667
202.31	388.889
202.69	275.000
203.07	360.000
203.44	0.000
203.82	950.000
204.19	528.571
204.57	292.857
204.95	375.000
205.32	800.000
205.70	363.636
206.08	321.429
206.45	1850.000
206.83	268.750
207.20	566.667
207.58	380.000
207.96	255.556
208.33	487.500
208.71	-500.000
209.08	571.429
209.46	522.222
209.84	400.000
210.21	-866.667
210.59	1050.000
210.96	-287.500
211.34	2000.000
211.71	520.000
212.09	350.000
212.46	0.000
212.84	1166.667
213.22	1050.000
213.59	-2800.000
213.97	650.000
214.34	542.857
214.72	418.182
215.09	900.000
215.47	-1650.000
215.84	-1700.000
216.22	1166.667
216.59	271.429
216.97	1025.000
217.34	327.273
217.72	-650.000
218.09	0.000
218.47	-2700.000
218.84	477.778
219.22	628.571
219.59	1233.333
219.97	-514.286
220.34	560.000
220.72	-1333.333
221.09	264.286
221.47	925.000
221.84	-583.333
222.22	0.000
222.59	1025.000
222.97	-2050.000
223.34	760.000
223.72	284.615
224.09	780.000
224.46	1200.000
224.84	-3800.000
225.21	-660.000
225.59	-3700.000
225.96	420.000
226.34	210.000
226.71	2000.000
227.08	575.000
227.46	390.000
227.83	-500.000
228.21	-1850.000
228.58	422.222
228.95	-1600.000
229.33	-1600.000
229.70	1400.000
230.08	485.714
230.45	-640.000
230.82	300.000
231.20	600.000
231.57	457.143
231.95	416.667
232.32	168.182
232.69	345.455
233.07	485.714
233.44	200.000
233.81	-1066.667
234.19	236.842
234.56	283.333
234.93	341.667
235.31	363.636
235.68	261.538
236.05	321.429
236.43	139.394
236.80	200.000
237.17	3900.000
237.55	176.190
237.92	214.286
238.29	238.095
238.67	154.839
239.04	189.655
239.41	138.889
239.79	100.000
240.16	133.333
240.53	138.636
240.91	100.000
241.28	108.000
241.65	120.000
242.02	98.551
242.40	79.032
242.77	90.000
243.14	67.742
243.51	94.382
243.89	82.353
244.26	85.556
244.63	77.419
245.00	79.787
245.38	78.218
245.75	76.636
246.12	76.147
246.49	68.613
246.87	87.200
247.24	72.308
247.61	62.857
247.98	66.013
248.36	64.865
248.73	68.153
249.10	70.064
249.47	66.667
249.84	62.567
250.22	62.567
250.59	60.947
250.96	61.616
251.33	63.033
251.70	62.871
252.08	64.286
252.45	60.090
252.82	60.870
253.19	57.021
253.56	60.784
253.94	57.261
254.31	65.625
254.68	60.385
255.05	62.731
255.42	58.537
255.79	55.882
256.16	59.928
256.54	52.650
256.91	59.786
257.28	54.317
257.65	57.426
258.02	53.416
258.39	54.574
258.76	55.518
259.14	56.250
259.51	56.231
259.88	59.627
260.25	56.193
260.62	52.890
260.99	55.590
261.36	55.556
261.73	55.301
262.10	52.035
262.47	59.437
262.85	55.153
263.22	54.131
263.59	56.125
263.96	50.549
264.33	52.742
264.70	55.789
265.07	53.453
265.44	49.495
265.81	50.122
266.18	55.276
266.55	53.659
266.92	53.563
267.29	52.546
267.66	51.376
268.03	53.182
268.40	50.000
268.77	52.506
269.14	52.027
269.51	53.950
269.88	52.914
270.25	51.693
270.62	51.461
270.99	52.258
271.36	51.502
271.73	50.701
272.10	49.565
272.47	49.247
272.84	48.268
273.21	51.572
273.58	49.563
273.95	48.218
274.32	50.207
274.69	49.679
275.06	48.819
275.43	48.936
275.80	49.299
276.17	48.269
276.54	53.638
276.91	50.000
277.28	46.484
277.65	50.870
278.02	49.689
278.39	50.391
278.76	45.636
279.13	48.113
279.50	49.907
279.87	47.410
280.23	50.699
280.60	51.257
280.97	46.950
281.34	47.788
281.71	47.636
282.08	48.177
282.45	46.364
282.82	49.378
283.19	46.168
283.56	47.018
283.92	50.931
284.29	47.795
284.66	45.735
285.03	46.655
285.40	45.775
285.77	45.623
286.14	49.396
286.51	45.667
286.87	46.496
287.24	46.417
287.61	44.302
287.98	45.942
288.35	44.216
288.72	43.925
289.08	44.444
289.45	42.998
289.82	43.740
290.19	41.915
290.56	42.113
290.93	41.692
291.29	42.025
291.66	40.855
292.03	42.733
292.40	41.410
292.77	39.497
293.13	40.448
293.50	40.671
293.87	39.556
294.24	40.148
294.60	37.409
294.97	38.227
295.34	39.633
295.71	38.636
296.08	36.610
296.44	37.276
296.81	38.309
297.18	40.244
297.55	36.675
297.91	36.807
298.28	38.286
298.65	37.337
299.02	36.232
299.38	37.317
299.75	35.984
300.12	36.271
300.48	35.625
300.85	35.265
301.22	35.159
301.59	35.354
301.95	36.398
302.32	34.917
302.69	36.320
303.05	34.545
303.42	33.704
303.79	32.843
304.15	34.149
304.52	33.024
304.89	32.288
305.25	31.787
305.62	32.956
305.99	34.829
306.35	35.123
306.72	31.951
307.09	35.294
307.45	34.347
307.82	32.812
308.19	33.444
308.55	35.275
308.92	32.653
309.29	34.108
309.65	32.556
310.02	33.510
310.38	33.226
310.75	33.897
311.12	33.572
311.48	34.692
311.85	35.639
312.22	34.755
312.58	33.576
312.95	35.269
313.31	33.301
313.68	35.343
314.05	36.292
314.41	35.377
314.78	34.441
315.14	34.359
315.51	36.972
315.87	36.337
316.24	37.835
316.61	36.160
316.97	35.029
317.34	36.595
317.70	38.241
318.07	38.114
318.43	39.335
318.80	38.894
319.16	38.889
319.53	38.931
319.89	41.429
320.26	42.100
320.62	41.270
320.99	42.525
321.35	43.232
321.72	44.045
322.08	45.212
322.45	46.866
322.81	44.864
323.18	46.628
323.54	47.310
323.91	46.038
324.27	46.558
324.64	47.530
325.00	47.430
325.37	48.499
325.73	50.987
326.10	48.808
326.46	51.254
326.83	50.992
327.19	51.324
327.56	52.787
327.92	53.631
328.29	53.682
328.65	53.683
329.01	52.978
329.38	54.302
329.74	54.663
330.11	55.325
330.47	56.107
330.84	57.169
331.20	54.189
331.56	54.954
331.93	58.241
332.29	55.191
332.66	56.549
333.02	56.124
333.38	55.736
333.75	56.952
334.11	56.851
334.48	57.853
334.84	57.353
335.20	57.000
335.57	56.573
335.93	57.232
336.29	57.784
336.66	58.521
337.02	56.652
337.38	58.611
337.75	56.150
338.11	58.639
338.47	59.484
338.84	57.012
339.20	57.339
339.56	59.580
339.93	57.182
340.29	56.975
340.65	59.091
341.02	57.679
341.38	59.253
341.74	58.509
342.11	59.127
342.47	58.062
342.83	57.705
343.20	58.874
343.56	57.961
343.92	59.211
344.28	57.313
344.65	59.329
345.01	57.828
345.37	57.633
345.73	59.306
346.10	59.335
346.46	57.966
346.82	58.814
347.19	58.730
347.55	58.456
347.91	59.790
348.27	60.230
348.63	59.448
349.00	57.362
349.36	59.688
349.72	58.781
350.08	56.483
350.45	60.456
350.81	58.164
351.17	58.590
351.53	57.985
351.89	58.251
352.26	59.826
352.62	58.220
352.98	57.699
353.34	59.408
353.70	58.429
354.07	57.742
354.43	57.857
354.79	57.844
355.15	58.180
355.51	60.751
355.87	59.102
356.24	59.609
356.60	58.380
356.96	59.775
357.32	58.872
357.68	58.740
358.04	57.641
358.40	58.195
358.77	58.138
359.13	58.327
359.49	58.196
359.85	57.619
360.21	59.888
360.57	59.922
360.93	60.385
361.29	58.503
361.66	58.282
362.02	57.090
362.38	58.403
362.74	58.482
363.10	57.957
363.46	56.200
363.82	60.469
364.18	58.517
364.54	58.395
364.90	58.994
365.26	60.000
365.62	59.167
365.98	58.510
366.35	57.378
366.71	58.930
367.07	58.631
367.43	60.668
367.79	58.958
368.15	59.986
368.51	58.358
368.87	59.172
369.23	58.449
369.59	59.232
369.95	58.235
370.31	58.689
370.67	57.754
371.03	60.225
371.39	57.362
371.75	59.485
372.11	58.677
372.47	59.604
372.83	59.654
373.19	58.598
373.55	60.310
373.91	60.015
374.27	57.251
374.63	59.418
374.99	58.545
375.35	57.432
375.71	58.191
376.07	57.956
376.42	58.184
376.78	57.787
377.14	59.498
377.50	59.139
377.86	56.915
378.22	58.534
378.58	56.266
378.94	58.580
379.30	58.651
379.66	58.249
380.02	57.678
380.38	56.648
380.74	58.583
381.09	58.313
381.45	58.943
381.81	57.555
382.17	57.834
382.53	57.484
382.89	58.642
383.25	57.348
383.61	57.497
383.97	56.973
384.32	56.706
384.68	56.629
385.04	57.283
385.40	55.542
385.76	55.897
386.12	57.189
386.48	56.514
386.83	57.922
387.19	57.143
387.55	55.535
387.91	56.167
388.27	55.855
388.62	55.931
388.98	56.143
389.34	56.571
389.70	55.733
390.06	56.591
390.42	56.485
390.77	55.789
391.13	57.179
391.49	56.599
391.85	55.824
392.20	53.754
392.56	55.808
392.92	55.856
393.28	55.325
393.64	54.616
393.99	54.307
394.35	55.149
394.71	54.831
395.07	54.704
395.42	54.574
395.78	54.517
396.14	53.818
396.50	55.326
396.85	55.245
397.21	54.809
397.57	53.689
397.92	54.207
398.28	52.747
398.64	53.345
399.00	53.050
399.35	53.017
399.71	53.125
400.07	53.814
400.42	53.374
400.78	53.619
401.14	53.354
401.49	52.955
401.85	53.358
402.21	51.617
402.57	52.930
402.92	53.216
403.28	54.091
403.63	52.661
403.99	53.121
404.35	51.576
404.70	52.398
405.06	50.961
405.42	51.528
405.77	51.771
406.13	51.806
406.49	52.158
406.84	51.447
407.20	51.537
407.55	52.074
407.91	52.200
408.27	52.776
408.62	50.391
408.98	50.674
409.34	51.476
409.69	52.194
410.05	50.743
410.40	50.581
410.76	50.777
411.11	50.844
411.47	49.712
411.83	50.764
412.18	49.351
412.54	50.311
412.89	49.458
413.25	50.236
413.60	50.957
413.96	49.302
414.31	49.210
414.67	49.810
415.03	49.735
415.38	50.129
415.74	49.325
416.09	49.771
416.45	49.665
416.80	49.967
417.16	50.402
417.51	49.171
417.87	47.977
418.22	48.896
418.58	50.355
418.93	50.184
419.29	49.141
419.64	50.126
420.00	47.866
420.35	48.812
420.71	49.193
421.06	48.807
421.42	49.298
421.77	48.374
422.12	47.838
422.48	47.760
422.83	49.563
423.19	48.895
423.54	49.565
423.90	48.928
424.25	48.074
424.61	48.750
424.96	50.204
425.31	48.117
425.67	46.966
426.02	48.400
426.38	48.779
426.73	47.513
427.09	48.754
427.44	48.476
427.79	48.074
428.15	48.274
428.50	48.566
428.85	48.629
429.21	47.929
429.56	47.641
429.92	47.911
430.27	47.567
430.62	47.926
430.98	46.964
431.33	47.010
431.68	48.010
432.04	46.965
432.39	47.973
432.74	48.294
433.10	47.482
433.45	48.688
433.80	46.951
434.16	47.489
434.51	47.842
434.86	48.233
435.22	48.027
435.57	49.058
435.92	47.689
436.28	48.577
436.63	48.124
436.98	48.082
437.34	47.823
437.69	47.841
438.04	47.049
438.39	47.463
438.75	47.647
439.10	47.486
439.45	47.816
439.81	47.855
440.16	47.431
440.51	47.335
440.86	48.350
441.22	47.998
441.57	48.514
441.92	47.646
442.27	48.708
442.63	46.761
442.98	48.113
443.33	47.283
443.68	47.135
444.03	47.877
444.39	47.128
444.74	47.186
445.09	46.954
445.44	47.130
445.79	47.947
446.15	47.221
446.50	47.388
446.85	45.992
447.20	46.813
447.55	47.515
447.91	47.766
448.26	47.078
448.61	47.032
448.96	47.896
449.31	47.019
449.66	46.539
450.02	46.351
450.37	46.882
450.72	47.547
451.07	46.557
451.42	45.289
451.77	47.328
452.12	45.439
452.47	46.704
452.83	46.329
453.18	46.455
453.53	47.310
453.88	46.013
454.23	46.503
454.58	47.062
454.93	47.298
455.28	45.948
455.63	46.299
455.98	47.381
456.34	46.231
456.69	46.713
457.04	47.245
457.39	45.880
457.74	45.270
458.09	45.658
458.44	45.439
458.79	44.089
459.14	46.106
459.49	45.768
459.84	44.765
460.19	45.846
460.54	44.155
460.89	45.145
461.24	45.659
461.59	45.845
461.94	44.821
462.29	45.401
462.64	45.373
462.99	44.112
463.34	46.067
463.69	45.341
464.04	44.638
464.39	44.406
464.74	43.434
465.09	44.331
465.44	43.601
465.79	43.345
466.14	43.350
466.49	43.548
466.84	43.724
467.19	44.116
467.54	43.625
467.89	42.737
468.24	42.292
468.59	44.628
468.94	42.456
469.29	44.987
469.64	43.440
469.99	44.046
470.34	43.791
470.68	43.175
471.03	42.517
471.38	44.197
471.73	42.438
472.08	43.224
472.43	43.719
472.78	42.330
473.13	42.362
473.48	42.135
473.83	42.683
474.17	42.875
474.52	42.680
474.87	43.024
475.22	42.078
475.57	41.913
475.92	42.273
476.27	42.390
476.61	41.644
476.96	42.166
477.31	40.869
477.66	42.013
478.01	40.042
478.36	41.777
478.70	41.485
479.05	41.747
479.40	41.556
479.75	42.145
480.10	40.656
480.45	41.218
480.79	40.659
481.14	40.362
481.49	41.813
481.84	41.198
482.19	40.436
482.53	40.321
482.88	40.763
483.23	40.561
483.58	40.628
483.92	40.487
484.27	40.000
484.62	40.388
484.97	39.771
485.31	40.445
485.66	38.643
486.01	38.522
486.36	39.011
486.70	38.909
487.05	38.588
487.40	38.662
487.75	38.308
488.09	38.581
488.44	37.592
488.79	39.241
489.13	37.892
489.48	39.152
489.83	39.404
490.17	39.500
490.52	39.504
490.87	38.761
491.22	39.154
491.56	37.995
491.91	39.553
492.26	38.677
492.60	38.387
492.95	38.026
493.30	38.738
493.64	38.591
493.99	38.115
494.34	39.084
494.68	38.416
495.03	38.111
495.37	37.925
495.72	38.548
496.07	38.051
496.41	36.947
496.76	37.907
497.11	38.631
497.45	37.541
497.80	37.716
498.14	37.295
498.49	37.561
498.84	37.919
499.18	36.571
499.53	37.892
499.87	38.024
500.22	37.494
500.56	38.641
500.91	37.019
501.26	36.747
501.60	38.396
501.95	36.205
502.29	37.816
502.64	36.732
502.98	37.728
503.33	36.883
503.67	36.613
504.02	36.763
504.36	36.266
504.71	37.225
505.06	37.108
505.40	36.509
505.75	36.789
506.09	34.985
506.44	36.655
506.78	36.922
507.13	37.102
507.47	37.677
507.82	36.424
508.16	37.639
508.51	37.139
508.85	36.197
509.19	35.816
509.54	36.173
509.88	36.837
510.23	35.887
510.57	37.255
510.92	35.940
511.26	36.023
511.61	35.840
511.95	36.587
512.30	35.896
512.64	35.089
512.98	36.174
513.33	36.938
513.67	34.685
514.02	35.552
514.36	35.991
514.70	35.971
515.05	35.081
515.39	35.726
515.74	35.586
516.08	35.830
516.42	36.182
516.77	36.622
517.11	35.017
517.46	35.722
517.80	36.063
518.14	34.221
518.49	35.589
518.83	35.000
519.17	35.912
519.52	35.257
519.86	36.110
520.20	34.798
520.55	35.966
520.89	36.375
521.23	35.887
521.58	35.714
521.92	35.946
522.26	34.838
522.61	34.704
522.95	35.298
523.29	36.153
523.64	36.037
523.98	34.874
524.32	35.585
524.66	35.057
525.01	34.743
525.35	35.068
525.69	34.729
526.04	34.579
526.38	35.082
526.72	34.724
527.06	34.777
527.41	33.911
527.75	35.498
528.09	34.746
528.43	35.373
528.78	35.157
529.12	34.303
529.46	34.966
529.80	35.458
530.15	34.517
530.49	32.862
530.83	35.127
531.17	34.465
531.51	35.863
531.86	33.613
532.20	35.332
532.54	35.170
532.88	34.852
533.22	33.854
533.57	33.580
533.91	33.233
534.25	34.994
534.59	35.021
534.93	33.492
535.27	33.917
535.62	32.845
535.96	34.024
536.30	33.821
536.64	33.226
536.98	33.378
537.32	33.311
537.66	33.733
538.01	34.167
538.35	34.195
538.69	34.014
539.03	32.749
539.37	32.588
539.71	32.728
540.05	33.137
540.39	33.289
540.73	31.695
541.07	35.432
541.42	33.464
541.76	33.097
542.10	33.765
542.44	33.113
542.78	33.992
543.12	32.502
543.46	34.230
543.80	32.921
544.14	32.028
544.48	33.524
544.82	32.457
545.16	33.832
545.50	32.584
545.84	32.594
546.18	32.862
546.52	34.205
546.86	32.646
547.20	33.176
547.54	32.398
547.88	33.163
548.22	32.690
548.56	32.642
548.90	31.818
549.24	32.727
549.58	33.356
549.92	32.830
550.26	33.665
550.60	32.503
550.94	33.451
551.28	32.334
551.62	31.919
551.96	32.632
552.30	33.788
552.64	33.333
552.98	33.288
553.32	32.704
553.66	31.834
554.00	32.876
554.34	32.781
554.68	32.546
555.02	33.216
555.36	32.359
555.69	32.138
556.03	32.032
556.37	32.401
556.71	31.924
557.05	32.983
557.39	32.400
557.73	30.910
558.07	32.125
558.41	31.766
558.75	33.284
559.08	31.991
559.42	32.502
559.76	33.088
560.10	32.120
560.44	31.447
560.78	31.737
561.12	31.332
561.45	32.073
561.79	31.444
562.13	32.260
562.47	32.855
562.81	32.845
563.15	31.639
563.48	32.626
563.82	32.355
564.16	31.131
564.50	31.771
564.84	31.479
565.17	32.304
565.51	32.396
565.85	31.218
566.19	31.622
566.52	32.172
566.86	31.224
567.20	32.547
567.54	31.963
567.88	31.124
568.21	31.905
568.55	32.103
568.89	31.858
569.23	31.373
569.56	31.903
569.90	32.000
570.24	31.719
570.57	30.874
570.91	30.090
571.25	31.285
571.59	31.046
571.92	30.645
572.26	30.560
572.60	30.571
572.93	30.855
573.27	30.908
573.61	30.653
573.95	30.827
574.28	30.628
574.62	30.248
574.96	30.562
575.29	30.795
575.63	30.539
575.97	29.706
576.30	30.589
576.64	30.149
576.98	30.214
577.31	30.152
577.65	30.423
577.98	30.619
578.32	30.044
578.66	30.566
578.99	29.719
579.33	29.896
579.67	29.774
580.00	29.897
580.34	30.256
580.67	30.277
581.01	30.268
581.35	30.129
581.68	30.742
582.02	30.453
582.35	30.362
582.69	30.529
583.02	30.508
583.36	30.159
583.70	29.970
584.03	29.598
584.37	30.435
584.70	30.277
585.04	29.892
585.37	30.289
585.71	30.522
586.04	30.225
586.38	30.460
586.72	30.572
587.05	30.019
587.39	30.290
587.72	30.533
588.06	30.603
588.39	30.590
588.73	30.625
589.06	31.069
589.40	31.145
589.73	30.517
590.07	30.391
590.40	29.814
590.73	30.835
591.07	30.444
591.40	30.704
591.74	30.649
592.07	30.410
592.41	30.798
592.74	30.787
593.08	31.046
593.41	30.370
593.75	29.638
594.08	30.607
594.41	31.389
594.75	30.906
595.08	30.100
595.42	30.753
595.75	30.342
596.09	30.417
596.42	29.902
596.75	30.477
597.09	30.649
597.42	29.595
597.75	30.832
598.09	30.000
598.42	31.057
598.76	30.401
599.09	30.293
599.42	30.277
599.76	30.234
600.09	29.654
600.42	30.168
600.76	29.464
601.09	29.982
601.42	30.670
601.76	29.639
602.09	30.316
602.42	30.414
602.76	30.512
603.09	30.370
603.42	29.871
603.76	29.573
604.09	30.206
604.42	30.208
604.76	29.734
605.09	29.227
605.42	29.756
605.75	30.298
606.09	29.158
606.42	29.996
606.75	29.988
607.09	29.678
607.42	30.039
607.75	29.536
608.08	29.700
608.42	30.076
608.75	29.486
609.08	28.955
609.41	29.367
609.75	29.633
610.08	30.443
610.41	30.354
610.74	29.896
611.07	30.484
611.41	30.029
611.74	29.915
612.07	30.642
612.40	30.955
612.73	29.684
613.07	30.496
613.40	30.174
613.73	28.684
614.06	29.355
614.39	29.575
614.72	30.000
615.06	29.727
615.39	29.618
615.72	29.039
616.05	29.984
616.38	30.183
616.71	30.048
617.05	29.152
617.38	29.104
617.71	29.489
618.04	29.447
618.37	29.213
618.70	30.305
619.03	30.526
619.36	30.414
619.69	30.915
620.03	31.181
620.36	30.147
620.69	30.548
621.02	30.678
621.35	29.287
621.68	29.361
622.01	29.025
622.34	29.728
622.67	30.038
623.00	29.054
623.33	30.593
623.66	29.736
623.99	29.381
624.32	29.529
624.65	30.085
624.99	29.533
625.32	29.399
625.65	30.353
625.98	30.054
626.31	30.093
626.64	30.612
626.97	30.008
627.30	29.842
627.63	29.861
627.96	31.791
628.29	29.659
628.62	29.826
628.95	29.906
629.28	30.474
629.61	30.522
629.94	30.381
630.26	30.219
630.59	29.552
630.92	30.172
631.25	29.319
631.58	29.730
631.91	28.600
632.24	29.852
632.57	30.430
632.90	30.154
633.23	29.306
633.56	30.056
633.89	29.445
634.22	29.398
634.55	30.059
634.88	29.820
635.20	30.585
635.53	30.964
635.86	30.446
636.19	31.059
636.52	30.219
636.85	29.897
637.18	30.069
637.51	29.905
637.83	26.880
638.16	31.458
638.49	29.849
638.82	30.215
639.15	30.875
639.48	30.923
639.81	30.429
640.13	31.380
640.46	29.933
640.79	30.383
641.12	29.298
641.45	28.073
641.77	30.191
642.10	30.409
642.43	29.880
642.76	30.805
643.09	32.209
643.41	28.528
643.74	30.401
644.07	30.488
644.40	30.828
644.73	30.236
645.05	31.220
645.38	31.754
645.71	30.918
646.04	31.561
646.36	31.720
646.69	31.940
647.02	30.272
647.35	31.271
647.67	30.265
648.00	31.057
648.33	28.878
648.66	32.576
648.98	31.934
649.31	29.447
649.64	30.344
649.96	31.297
650.29	32.227
650.62	30.421
650.94	30.308
651.27	32.770
651.60	31.614
651.92	29.393
652.25	30.619
652.58	30.997
652.90	30.964
653.23	28.351
653.56	29.291
653.88	29.319
654.21	32.227
654.54	29.703
654.86	31.620
655.19	29.730
655.52	25.643
655.84	27.157
656.17	34.661
656.49	46.042
656.82	45.145
657.15	33.845
657.47	24.737
657.80	18.500
658.13	18.679
658.45	27.204
658.78	26.664
659.10	27.273
659.43	27.161
659.75	27.289
660.08	28.354
660.41	28.585
660.73	28.081
661.06	30.732
661.38	31.636
661.71	31.923
662.03	31.361
662.36	29.225
662.68	29.719
663.01	32.323
663.33	30.573
663.66	32.983
663.98	31.317
664.31	30.672
664.63	30.567
664.96	29.376
665.28	30.943
665.61	29.045
665.93	30.785
666.26	31.440
666.58	33.473
666.91	34.038
667.23	31.011
667.56	29.374
667.88	30.983
668.21	30.704
668.53	29.935
668.86	30.519
669.18	32.409
669.50	30.652
669.83	33.115
670.15	31.556
670.48	30.501
670.80	29.957
671.13	33.758
671.45	31.064
671.77	31.976
672.10	30.129
672.42	31.979
672.75	31.509
673.07	30.282
673.39	31.103
673.72	30.273
674.04	30.000
674.37	29.709
674.69	31.493
675.01	29.916
675.34	33.881
675.66	31.368
675.98	31.976
676.31	31.092
676.63	30.361
676.95	32.914
677.28	34.579
677.60	29.670
677.92	31.857
678.25	32.033
678.57	30.876
678.89	29.860
679.22	31.238
679.54	32.824
679.86	32.110
680.18	31.843
680.51	29.787
680.83	29.715
681.15	33.585
681.48	31.380
681.80	32.108
682.12	31.801
682.44	29.787
682.77	31.772
683.09	33.262
683.41	31.042
683.73	31.567
684.06	31.612
684.38	29.746
684.70	29.651
685.02	33.021
685.34	28.938
685.67	27.273
685.99	30.412
686.31	31.399
686.63	28.445
686.96	29.286
687.28	29.783
687.60	29.167
687.92	32.358
688.24	29.468
688.56	32.731
688.89	32.988
689.21	31.659
689.53	29.645
689.85	34.590
690.17	30.849
690.49	32.059
690.82	30.374
691.14	31.027
691.46	33.122
691.78	32.932
692.10	30.992
692.42	31.936
692.74	29.046
693.06	29.574
693.39	29.774
693.71	31.223
694.03	32.842
694.35	29.221
694.67	31.121
694.99	31.707
695.31	31.618
695.63	32.057
695.95	32.274
696.27	31.472
696.59	31.865
696.91	35.492
697.23	28.873
697.56	34.115
697.88	30.675
698.20	31.250
698.52	32.688
698.84	31.626
699.16	31.567
699.48	33.017
699.80	30.676
700.12	35.325
700.44	35.013
700.76	33.978
701.08	29.310
701.40	30.168
701.72	35.277
702.04	35.795
702.36	27.195
702.68	31.728
703.00	34.072
703.32	31.915
703.64	31.367
703.96	30.641
704.28	32.558
704.60	33.431
704.91	32.641
705.23	33.431
705.55	33.887
705.87	39.203
706.19	33.569
706.51	35.514
706.83	34.545
707.15	33.333
707.47	32.071
707.79	33.170
708.11	33.790
708.43	31.667
708.74	31.122
709.06	35.844
709.38	34.121
709.70	32.849
710.02	35.608
710.34	32.121
710.66	33.731
710.98	34.375
711.29	33.721
711.61	36.283
711.93	31.731
712.25	35.691
712.57	34.926
712.89	34.256
713.20	34.954
713.52	32.566
713.84	33.228
714.16	34.146
714.48	32.184
714.80	38.906
715.11	36.023
715.43	32.641
715.75	34.493
716.07	32.268
716.39	31.034
716.70	32.558
717.02	32.734
717.34	36.042
717.66	36.567
717.97	37.052
718.29	32.963
718.61	36.861
718.93	37.500
719.24	32.180
719.56	30.508
719.88	35.932
720.20	35.811
720.51	34.843
720.83	39.033
721.15	30.970
721.46	38.652
721.78	34.767
722.10	34.717
722.42	35.338
722.73	38.577
723.05	33.197
723.37	32.389
723.68	33.591
724.00	35.772
724.32	37.903
724.63	34.553
724.95	32.218
725.27	35.223
725.58	36.719
725.90	39.051
726.22	40.000
726.53	37.500
726.85	36.860
727.16	35.231
727.48	37.943
727.80	31.818
728.11	33.696
728.43	33.846
728.74	35.484
729.06	35.766
729.38	38.235
729.69	37.367
730.01	31.741
730.32	34.028
730.64	34.448
730.96	28.713
731.27	36.424
731.59	36.086
731.90	31.487
732.22	37.267
732.53	36.842
732.85	34.615
733.16	33.119
733.48	34.551
733.80	37.338
734.11	38.854
734.43	35.799
734.74	33.429
735.06	34.384
735.37	38.439
735.69	35.032
736.00	38.562
736.32	33.645
736.63	37.061
736.95	37.380
737.26	30.952
737.58	30.645
737.89	33.779
738.21	36.519
738.52	31.786
738.83	35.472
739.15	32.308
739.46	34.307
739.78	33.333
740.09	33.846
740.41	39.032
740.72	31.707
741.04	35.556
741.35	33.333
741.66	43.556
741.98	38.208
742.29	37.799
742.61	43.966
742.92	36.652
743.23	35.897
743.55	34.400
743.86	33.772
744.18	41.150
744.49	36.364
744.80	40.376
745.12	42.727
745.43	38.326
745.74	42.342
746.06	39.450
746.37	37.220
746.68	36.199
747.00	38.426
747.31	38.095
747.62	38.053
747.94	42.291
748.25	34.043
748.56	39.207
748.88	39.604
749.19	37.000
749.50	39.535
749.82	33.740
750.13	36.327
750.44	39.051
750.75	36.842
751.07	37.621
751.38	35.192
751.69	37.545
752.01	39.098
752.32	37.906
752.63	35.816
752.94	35.656
753.26	38.400
753.57	30.488
753.88	41.016
754.19	32.500
754.51	35.417
754.82	35.740
755.13	34.717
755.44	37.218
755.75	32.847
756.07	34.752
756.38	32.117
756.69	33.557
757.00	32.934
757.31	31.157
757.63	33.918
757.94	37.534
758.25	33.333
758.56	30.370
758.87	31.452
759.18	33.636
759.50	33.229
759.81	32.399
760.12	31.250
760.43	31.232
760.74	33.967
761.05	32.768
761.36	33.155
761.67	36.932
761.99	33.851
762.30	35.764
762.61	35.878
762.92	41.016
763.23	38.655
763.54	36.800
763.85	35.547
764.16	40.385
764.47	34.981
764.78	35.689
765.10	30.696
765.41	33.923
765.72	32.335
766.03	34.796
766.34	31.333
766.65	41.277
766.96	39.316
767.27	41.117
767.58	40.104
767.89	38.421
768.20	41.379
768.51	38.071
768.82	37.156
769.13	35.366
769.44	37.247
769.75	34.764
770.06	32.569
770.37	40.724
770.68	43.981
770.99	39.556
771.30	36.066
771.61	41.704
771.92	38.525
772.23	42.437
772.54	37.949
772.85	41.361
773.16	36.702
773.47	41.848
773.78	45.685
774.09	41.667
774.39	37.427
774.70	38.272
775.01	49.275
775.32	40.523
775.63	46.711
775.94	46.763
776.25	52.756
776.56	48.507
776.87	53.279
777.18	47.656
777.48	49.618
777.79	57.576
778.10	42.963
778.41	57.143
778.72	45.255
779.03	44.966
779.34	42.953
779.65	39.189
779.95	39.264
780.26	53.595
780.57	45.517
780.88	52.344
781.19	47.368
781.50	56.757
781.80	40.881
782.11	42.373
782.42	41.139
782.73	39.877
783.04	55.405
783.34	43.662
783.65	50.000
783.96	47.761
784.27	44.755
784.57	46.763
784.88	48.148
785.19	51.587
785.50	51.887
785.81	53.731
786.11	53.279
786.42	48.062
786.73	61.062
787.04	46.226
787.34	49.107
787.65	57.000
787.96	55.856
788.26	45.455
788.57	51.695
788.88	61.157
789.19	47.917
789.49	55.303
789.80	52.672
790.11	59.048
790.41	58.416
790.72	53.012
791.03	60.870
791.33	52.326
791.64	61.856
791.95	61.386
792.25	61.111
792.56	74.026
792.87	73.077
793.17	64.557
793.48	68.966
793.79	54.023
794.09	61.364
794.40	50.420
794.70	52.206
795.01	42.222
795.32	48.201
795.62	50.394
795.93	46.552
796.23	53.982
796.54	58.824
796.85	63.514
797.15	77.465
797.46	69.697
797.76	77.108
798.07	78.481
798.37	69.231
798.68	72.727
798.99	63.380
799.29	74.026
799.60	55.682
799.90	72.603
800.21	73.134
800.51	81.034
800.82	70.175
801.12	85.246
801.43	72.727
801.73	72.973
802.04	69.841
802.34	65.432
802.65	67.188
802.95	89.831
803.26	78.125
803.56	57.143
803.87	73.846
804.17	54.412
804.48	101.852
804.78	81.034
805.09	82.353
805.39	98.077
805.70	73.214
806.00	91.803
806.30	71.212
806.61	64.634
806.91	51.899
807.22	64.474
807.52	56.716
807.83	76.056
808.13	73.438
808.43	85.000
808.74	63.158
809.04	82.609
809.35	73.134
809.65	64.474
809.95	88.710
810.26	66.102
810.56	76.190
810.86	93.182
811.17	111.905
811.47	81.667
811.77	87.037
812.08	89.091
812.38	96.000
812.69	97.222
812.99	106.818
813.29	91.837
813.59	76.190
813.90	102.041
814.20	76.364
814.50	69.231
814.81	92.647
815.11	102.041
815.41	65.574
815.72	107.143
816.02	101.818
816.32	102.381
816.62	90.000
816.93	97.561
817.23	102.381
817.53	115.909
817.84	136.364
818.14	121.739
818.44	100.000
818.74	123.529
819.04	100.000
819.35	120.000
819.65	129.412
819.95	114.286
820.25	185.000
820.56	148.718
820.86	111.364
821.16	118.605
821.46	102.564
821.76	112.000
822.07	85.714
822.37	145.000
822.67	90.909
822.97	88.235
823.27	153.571
823.57	94.595
823.88	112.500
824.18	176.667
824.48	116.667
824.78	164.000
825.08	141.667
825.38	121.622
825.69	104.878
825.99	166.667
826.29	131.034
826.59	126.316
826.89	115.789
827.19	147.059
827.49	141.935
827.79	129.545
828.09	109.091
828.39	97.872
828.70	100.000
829.00	159.259
829.30	135.484
829.60	95.000
829.90	200.000
830.20	167.857
830.50	139.130
830.80	156.522
831.10	136.667
831.40	130.000
831.70	169.565
832.00	211.538
832.30	159.259
832.60	218.750
832.90	146.667
833.20	314.286
833.50	129.032
833.80	134.483
834.10	150.000
834.40	161.538
834.70	183.333
835.00	176.190
835.30	97.143
835.60	261.538
835.90	134.483
836.20	200.000
836.50	124.138
836.80	124.000
837.10	136.111
837.40	233.333
837.70	182.353
838.00	137.037
838.30	180.952
838.60	180.952
838.90	173.077
839.19	215.000
839.49	292.857
839.79	215.000
840.09	180.000
840.39	176.190
840.69	195.652
840.99	238.889
841.29	360.000
841.59	216.667
841.88	250.000
842.18	106.897
842.48	195.238
842.78	123.333
843.08	178.261
843.38	131.250
843.68	566.667
843.97	150.000
844.27	127.586
844.57	214.286
844.87	250.000
845.17	162.963
845.47	1033.333
845.76	333.333
846.06	217.647
846.36	325.000
846.66	285.714
846.96	162.500
847.25	290.909
847.55	218.182
847.85	178.261
848.15	360.000
848.44	264.286
848.74	188.889
849.04	152.941
849.34	370.000
849.63	178.947
849.93	354.545
850.23	840.000
850.53	250.000
850.82	1500.000
851.12	-2900.000
851.42	3300.000
851.71	180.000
852.01	-1066.667
852.31	175.000
852.61	1000.000
852.90	171.429
853.20	144.000
853.50	194.118
853.79	195.238
854.09	141.667
854.39	256.250
854.68	148.649
854.98	122.581
855.28	110.000
855.57	186.207
855.87	170.370
856.17	200.000
856.46	153.333
856.76	170.588
857.05	113.793
857.35	166.667
857.65	253.333
857.94	143.478
858.24	180.769
858.53	235.000
858.83	200.000
859.13	280.000
859.42	0.000
859.72	344.444
860.01	272.727
860.31	177.273
860.60	173.684
860.90	169.565
861.20	355.556
861.49	441.667
861.79	-3500.000
862.08	450.000
862.38	214.286
862.67	276.923
862.97	264.706
863.26	355.556
863.56	205.556
863.85	341.667
864.15	512.500
864.44	266.667
864.74	583.333
865.03	475.000
865.33	221.053
865.62	345.455
865.92	361.538
866.21	291.667
866.51	0.000
866.80	290.909
867.10	640.000
867.39	376.923
867.69	309.091
867.98	231.579
868.27	345.455
868.57	257.895
868.86	-3400.000
869.16	287.500
869.45	1250.000
869.75	-3400.000
870.04	325.000
870.33	514.286
870.63	675.000
870.92	1700.000
871.22	657.143
871.51	235.294
871.80	138.095
872.10	250.000
>>>>>End Processed Spectral Data<<<<<
