SpectraSuite Data File
++++++++++++++++++++++++++++++++++++
Date: Wed May 13 20:47:05 PDT 2015
User: schluterlab
Dark Spectrum Present: Yes
Reference Spectrum Present: Yes
Number of Sampled Component Spectra: 1
Spectrometers: USB2E3373
Integration Time (usec): 3000 (USB2E3373)
Spectra Averaged: 3 (USB2E3373)
Boxcar Smoothing: 0 (USB2E3373)
Correct for Electrical Dark: No (USB2E3373)
Strobe/Lamp Enabled: No (USB2E3373)
Correct for Detector Non-linearity: No (USB2E3373)
Correct for Stray Light: No (USB2E3373)
Number of Pixels in Processed Spectrum: 2048
>>>>>Begin Processed Spectral Data<<<<<
178.53	0.000
178.91	-750.000
179.29	-775.000
179.67	-94.444
180.04	-725.000
180.42	1800.000
180.80	640.000
181.18	-700.000
181.56	314.286
181.94	0.000
182.31	-357.143
182.69	1166.667
183.07	-300.000
183.45	-333.333
183.83	363.636
184.20	-230.000
184.58	1450.000
184.96	2300.000
185.34	-520.000
185.72	-387.500
186.09	-1200.000
186.47	1450.000
186.85	1700.000
187.23	3100.000
187.61	-1133.333
187.98	925.000
188.36	354.545
188.74	354.545
189.12	-560.000
189.49	340.000
189.87	-3100.000
190.25	-475.000
190.63	300.000
191.00	292.308
191.38	583.333
191.76	-575.000
192.14	775.000
192.51	425.000
192.89	633.333
193.27	300.000
193.65	-375.000
194.02	290.000
194.40	520.000
194.78	270.000
195.15	350.000
195.53	390.000
195.91	-1250.000
196.29	181.250
196.66	205.263
197.04	-120.000
197.42	0.000
197.79	440.000
198.17	-3200.000
198.55	385.714
198.92	462.500
199.30	500.000
199.68	0.000
200.05	244.444
200.43	528.571
200.81	2500.000
201.18	1133.333
201.56	-600.000
201.94	333.333
202.31	355.556
202.69	233.333
203.07	280.000
203.44	0.000
203.82	500.000
204.19	500.000
204.57	278.571
204.95	337.500
205.32	766.667
205.70	436.364
206.08	221.429
206.45	1800.000
206.83	237.500
207.20	666.667
207.58	300.000
207.96	244.444
208.33	412.500
208.71	-466.667
209.08	428.571
209.46	444.444
209.84	272.727
210.21	-766.667
210.59	775.000
210.96	-287.500
211.34	1250.000
211.71	420.000
212.09	550.000
212.46	0.000
212.84	1200.000
213.22	725.000
213.59	-3200.000
213.97	516.667
214.34	571.429
214.72	409.091
215.09	680.000
215.47	-1300.000
215.84	-1300.000
216.22	900.000
216.59	235.714
216.97	875.000
217.34	309.091
217.72	-416.667
218.09	0.000
218.47	-2800.000
218.84	311.111
219.22	514.286
219.59	1466.667
219.97	-257.143
220.34	620.000
220.72	-1000.000
221.09	242.857
221.47	950.000
221.84	-516.667
222.22	0.000
222.59	675.000
222.97	-1250.000
223.34	720.000
223.72	276.923
224.09	680.000
224.46	1400.000
224.84	-2400.000
225.21	-520.000
225.59	-3100.000
225.96	390.000
226.34	155.000
226.71	1600.000
227.08	400.000
227.46	440.000
227.83	-350.000
228.21	-1250.000
228.58	400.000
228.95	-1150.000
229.33	-1050.000
229.70	900.000
230.08	528.571
230.45	-540.000
230.82	200.000
231.20	566.667
231.57	442.857
231.95	258.333
232.32	113.636
232.69	109.091
233.07	342.857
233.44	230.769
233.81	-833.333
234.19	210.526
234.56	325.000
234.93	175.000
235.31	145.455
235.68	130.769
236.05	135.714
236.43	106.061
236.80	142.105
237.17	2900.000
237.55	114.286
237.92	114.286
238.29	133.333
238.67	93.548
239.04	93.103
239.41	69.444
239.79	43.478
240.16	61.905
240.53	61.364
240.91	60.784
241.28	62.000
241.65	52.000
242.02	47.826
242.40	33.871
242.77	36.667
243.14	45.161
243.51	48.315
243.89	32.941
244.26	32.222
244.63	41.935
245.00	29.787
245.38	32.673
245.75	18.692
246.12	22.936
246.49	32.117
246.87	27.200
247.24	26.154
247.61	24.286
247.98	24.837
248.36	16.216
248.73	21.656
249.10	19.745
249.47	16.384
249.84	20.321
250.22	17.647
250.59	20.118
250.96	17.172
251.33	15.640
251.70	16.832
252.08	15.238
252.45	13.453
252.82	11.304
253.19	15.745
253.56	14.510
253.94	17.842
254.31	13.672
254.68	10.385
255.05	12.546
255.42	8.943
255.79	14.338
256.16	12.996
256.54	8.127
256.91	13.523
257.28	7.914
257.65	10.891
258.02	11.801
258.39	10.410
258.76	8.361
259.14	9.524
259.51	12.462
259.88	4.969
260.25	10.272
260.62	8.382
260.99	8.385
261.36	8.709
261.73	10.315
262.10	7.558
262.47	8.169
262.85	9.749
263.22	8.547
263.59	11.396
263.96	9.615
264.33	11.749
264.70	7.105
265.07	9.974
265.44	8.586
265.81	6.083
266.18	7.538
266.55	8.780
266.92	8.108
267.29	9.954
267.66	6.651
268.03	6.136
268.40	6.542
268.77	8.115
269.14	6.757
269.51	9.029
269.88	7.226
270.25	5.418
270.62	4.494
270.99	10.323
271.36	9.657
271.73	10.047
272.10	7.174
272.47	8.172
272.84	8.658
273.21	7.966
273.58	4.367
273.95	5.660
274.32	4.959
274.69	6.210
275.06	5.906
275.43	7.234
275.80	5.812
276.17	6.110
276.54	8.108
276.91	6.126
277.28	7.031
277.65	5.416
278.02	4.555
278.39	7.227
278.76	8.000
279.13	6.792
279.50	6.518
279.87	6.375
280.23	4.790
280.60	4.449
280.97	6.470
281.34	7.257
281.71	7.455
282.08	6.910
282.45	6.727
282.82	5.861
283.19	4.456
283.56	7.895
283.92	6.261
284.29	5.644
284.66	5.263
285.03	4.702
285.40	5.810
285.77	5.892
286.14	3.627
286.51	6.333
286.87	6.325
287.24	6.678
287.61	7.544
287.98	6.981
288.35	4.913
288.72	7.009
289.08	6.260
289.45	6.096
289.82	6.667
290.19	4.867
290.56	6.891
290.93	4.834
291.29	7.055
291.66	6.047
292.03	7.122
292.40	8.076
292.77	2.515
293.13	6.567
293.50	4.519
293.87	3.704
294.24	4.000
294.60	3.930
294.97	5.087
295.34	6.488
295.71	4.972
296.08	5.983
296.44	4.677
296.81	4.624
297.18	6.504
297.55	4.485
297.91	4.222
298.28	4.685
298.65	5.875
299.02	5.007
299.38	4.250
299.75	2.561
300.12	3.193
300.48	4.375
300.85	5.055
301.22	4.331
301.59	4.545
301.95	5.164
302.32	3.979
302.69	6.213
303.05	4.485
303.42	4.691
303.79	5.096
304.15	4.196
304.52	2.897
304.89	3.833
305.25	4.872
305.62	4.643
305.99	5.431
306.35	4.810
306.72	4.933
307.09	5.216
307.45	5.180
307.82	4.018
308.19	5.519
308.55	5.394
308.92	4.726
309.29	4.752
309.65	5.514
310.02	4.545
310.38	4.194
310.75	5.808
311.12	6.141
311.48	6.165
311.85	5.870
312.22	7.492
312.58	4.678
312.95	6.230
313.31	5.534
313.68	6.133
314.05	7.594
314.41	7.136
314.78	6.445
315.14	7.349
315.51	6.900
315.87	8.614
316.24	7.646
316.61	8.674
316.97	8.023
317.34	8.317
317.70	10.229
318.07	10.106
318.43	9.393
318.80	12.277
319.16	12.053
319.53	10.600
319.89	12.762
320.26	13.300
320.62	12.996
320.99	14.242
321.35	14.242
321.72	14.374
322.08	15.400
322.45	17.114
322.81	16.957
323.18	18.593
323.54	17.904
323.91	18.868
324.27	19.885
324.64	19.944
325.00	20.198
325.37	23.112
325.73	23.698
326.10	24.360
326.46	23.925
326.83	25.108
327.19	24.594
327.56	25.958
327.92	28.346
328.29	28.571
328.65	28.361
329.01	29.964
329.38	30.157
329.74	29.455
330.11	30.820
330.47	31.497
330.84	32.169
331.20	32.423
331.56	32.569
331.93	34.167
332.29	33.363
332.66	34.159
333.02	34.095
333.38	34.869
333.75	35.205
334.11	34.875
334.48	34.960
334.84	35.294
335.20	35.909
335.57	35.993
335.93	34.554
336.29	34.707
336.66	36.700
337.02	35.204
337.38	36.574
337.75	35.116
338.11	36.705
338.47	36.740
338.84	37.397
339.20	34.587
339.56	37.500
339.93	36.091
340.29	35.326
340.65	36.275
341.02	36.562
341.38	36.655
341.74	35.702
342.11	36.157
342.47	36.740
342.83	36.558
343.20	37.316
343.56	35.468
343.92	35.877
344.28	35.969
344.65	37.317
345.01	36.700
345.37	34.820
345.73	36.041
346.10	38.107
346.46	36.695
346.82	36.573
347.19	36.508
347.55	36.125
347.91	36.327
348.27	37.223
348.63	36.873
349.00	36.246
349.36	36.043
349.72	36.167
350.08	35.818
350.45	37.917
350.81	36.799
351.17	35.981
351.53	35.545
351.89	34.818
352.26	36.385
352.62	36.568
352.98	36.143
353.34	37.469
353.70	37.316
354.07	37.016
354.43	36.270
354.79	34.191
355.15	36.792
355.51	36.930
355.87	36.571
356.24	35.993
356.60	34.563
356.96	35.559
357.32	35.814
357.68	35.669
358.04	36.500
358.40	37.609
358.77	36.228
359.13	35.438
359.49	36.627
359.85	36.032
360.21	35.167
360.57	36.965
360.93	36.769
361.29	35.979
361.66	35.294
362.02	36.866
362.38	34.905
362.74	35.937
363.10	35.233
363.46	35.583
363.82	37.339
364.18	36.197
364.54	36.404
364.90	36.544
365.26	35.588
365.62	35.866
365.98	35.500
366.35	35.100
366.71	34.635
367.07	36.198
367.43	37.954
367.79	36.974
368.15	36.710
368.51	35.392
368.87	36.617
369.23	35.991
369.59	36.206
369.95	36.029
370.31	34.900
370.67	36.014
371.03	37.004
371.39	36.443
371.75	38.015
372.11	35.206
372.47	37.170
372.83	36.599
373.19	36.416
373.55	37.620
373.91	37.482
374.27	35.945
374.63	37.164
374.99	37.853
375.35	35.799
375.71	37.080
376.07	37.037
376.42	37.276
376.78	37.906
377.14	37.178
377.50	36.755
377.86	36.769
378.22	37.295
378.58	36.404
378.94	36.141
379.30	36.896
379.66	37.119
380.02	38.084
380.38	36.248
380.74	37.875
381.09	38.142
381.45	38.599
381.81	37.654
382.17	38.280
382.53	37.170
382.89	38.457
383.25	38.149
383.61	38.848
383.97	37.273
384.32	38.054
384.68	37.485
385.04	37.984
385.40	38.328
385.76	38.575
386.12	37.630
386.48	39.144
386.83	38.422
387.19	39.889
387.55	38.343
387.91	37.908
388.27	39.301
388.62	39.828
388.98	38.268
389.34	39.174
389.70	39.853
390.06	39.417
390.42	38.262
390.77	39.377
391.13	38.545
391.49	38.959
391.85	39.593
392.20	39.306
392.56	39.457
392.92	39.258
393.28	37.929
393.64	39.388
393.99	39.768
394.35	40.074
394.71	39.021
395.07	39.875
395.42	40.111
395.78	39.504
396.14	39.665
396.50	39.536
396.85	39.224
397.21	39.211
397.57	39.988
397.92	39.904
398.28	38.845
398.64	39.964
399.00	40.235
399.35	39.368
399.71	39.931
400.07	39.858
400.42	40.123
400.78	40.712
401.14	41.098
401.49	39.642
401.85	38.959
402.21	40.060
402.57	39.543
402.92	40.101
403.28	40.787
403.63	40.594
403.99	40.828
404.35	40.545
404.70	39.868
405.06	40.536
405.42	40.362
405.77	39.600
406.13	39.955
406.49	40.154
406.84	40.224
407.20	40.012
407.55	41.353
407.91	40.267
408.27	40.204
408.62	40.638
408.98	40.809
409.34	40.344
409.69	41.161
410.05	40.644
410.40	40.612
410.76	39.845
411.11	40.953
411.47	39.744
411.83	40.379
412.18	41.868
412.54	39.601
412.89	40.964
413.25	40.909
413.60	41.939
413.96	39.830
414.31	40.462
414.67	41.381
415.03	40.728
415.38	40.979
415.74	41.029
416.09	41.868
416.45	40.763
416.80	40.978
417.16	41.756
417.51	41.805
417.87	41.490
418.22	40.946
418.58	41.640
418.93	41.523
419.29	41.820
419.64	41.940
420.00	41.768
420.35	41.217
420.71	42.140
421.06	40.811
421.42	40.936
421.77	41.143
422.12	41.830
422.48	41.662
422.83	41.934
423.19	41.381
423.54	40.917
423.90	41.797
424.25	41.709
424.61	41.310
424.96	41.749
425.31	41.362
425.67	40.393
426.02	41.257
426.38	42.613
426.73	40.960
427.09	40.973
427.44	42.208
427.79	42.266
428.15	41.726
428.50	41.077
428.85	42.789
429.21	41.303
429.56	42.146
429.92	41.872
430.27	41.509
430.62	41.833
430.98	41.982
431.33	40.619
431.68	41.937
432.04	41.108
432.39	42.604
432.74	40.993
433.10	42.218
433.45	40.816
433.80	42.073
434.16	42.361
434.51	41.895
434.86	42.930
435.22	41.690
435.57	42.188
435.92	41.369
436.28	41.874
436.63	42.329
436.98	42.530
437.34	42.457
437.69	42.765
438.04	42.496
438.39	41.552
438.75	42.069
439.10	42.849
439.45	42.149
439.81	43.142
440.16	42.518
440.51	41.652
440.86	42.328
441.22	41.991
441.57	41.985
441.92	42.989
442.27	42.357
442.63	42.496
442.98	42.423
443.33	42.935
443.68	41.817
444.03	41.972
444.39	41.967
444.74	42.370
445.09	42.318
445.44	40.842
445.79	42.504
446.15	41.451
446.50	42.219
446.85	41.675
447.20	42.376
447.55	41.709
447.91	41.919
448.26	41.124
448.61	41.832
448.96	42.248
449.31	42.745
449.66	41.080
450.02	42.006
450.37	41.723
450.72	41.512
451.07	42.535
451.42	40.547
451.77	42.102
452.12	41.744
452.47	42.724
452.83	42.949
453.18	41.504
453.53	43.166
453.88	42.351
454.23	42.797
454.58	42.217
454.93	42.530
455.28	42.519
455.63	42.415
455.98	43.690
456.34	41.771
456.69	43.269
457.04	41.981
457.39	41.730
457.74	42.078
458.09	41.748
458.44	41.619
458.79	40.998
459.14	41.648
459.49	42.090
459.84	41.440
460.19	42.251
460.54	40.451
460.89	41.031
461.24	41.105
461.59	42.475
461.94	42.109
462.29	40.950
462.64	40.715
462.99	41.184
463.34	40.933
463.69	40.650
464.04	40.986
464.39	40.986
464.74	41.117
465.09	40.651
465.44	40.443
465.79	40.324
466.14	41.051
466.49	40.934
466.84	41.506
467.19	41.823
467.54	41.250
467.89	40.516
468.24	40.663
468.59	41.331
468.94	40.318
469.29	41.967
469.64	41.700
469.99	41.407
470.34	40.555
470.68	40.948
471.03	40.544
471.38	41.487
471.73	41.506
472.08	41.645
472.43	40.704
472.78	40.092
473.13	42.105
473.48	41.323
473.83	40.793
474.17	40.697
474.52	40.819
474.87	40.806
475.22	40.395
475.57	39.710
475.92	39.936
476.27	39.233
476.61	40.651
476.96	40.132
477.31	40.188
477.66	39.880
478.01	38.996
478.36	40.719
478.70	39.460
479.05	40.096
479.40	40.225
479.75	39.095
480.10	39.414
480.45	38.648
480.79	39.513
481.14	40.166
481.49	38.633
481.84	39.506
482.19	39.709
482.53	39.725
482.88	39.739
483.23	39.065
483.58	39.308
483.92	39.597
484.27	37.821
484.62	39.612
484.97	38.707
485.31	38.493
485.66	37.144
486.01	37.712
486.36	37.367
486.70	38.122
487.05	37.483
487.40	37.589
487.75	36.993
488.09	37.458
488.44	37.425
488.79	37.505
489.13	37.968
489.48	37.439
489.83	37.635
490.17	39.281
490.52	38.530
490.87	37.630
491.22	37.790
491.56	37.494
491.91	37.971
492.26	37.621
492.60	37.512
492.95	37.325
493.30	37.383
493.64	37.891
493.99	36.630
494.34	37.743
494.68	38.278
495.03	37.923
495.37	36.994
495.72	37.476
496.07	38.097
496.41	36.239
496.76	37.071
497.11	36.560
497.45	37.354
497.80	37.668
498.14	36.377
498.49	37.317
498.84	37.824
499.18	36.333
499.53	36.847
499.87	36.626
500.22	36.552
500.56	37.476
500.91	36.635
501.26	36.795
501.60	37.162
501.95	35.793
502.29	37.488
502.64	36.359
502.98	36.699
503.33	35.466
503.67	36.937
504.02	36.202
504.36	36.266
504.71	36.492
505.06	36.916
505.40	36.169
505.75	35.294
506.09	36.054
506.44	36.211
506.78	36.191
507.13	35.790
507.47	36.667
507.82	35.714
508.16	34.600
508.51	35.616
508.85	35.899
509.19	35.867
509.54	35.663
509.88	35.909
510.23	35.064
510.57	36.275
510.92	35.422
511.26	35.200
511.61	34.284
511.95	33.977
512.30	35.260
512.64	35.411
512.98	34.887
513.33	35.118
513.67	35.326
514.02	35.281
514.36	35.117
514.70	35.750
515.05	35.304
515.39	34.829
515.74	34.347
516.08	35.103
516.42	35.017
516.77	34.838
517.11	32.908
517.46	34.086
517.80	35.772
518.14	34.279
518.49	35.356
518.83	34.432
519.17	33.718
519.52	33.277
519.86	35.083
520.20	34.393
520.55	34.949
520.89	35.097
521.23	34.680
521.58	34.154
521.92	34.476
522.26	32.642
522.61	34.206
522.95	33.517
523.29	33.901
523.64	33.902
523.98	33.703
524.32	34.017
524.66	32.952
525.01	33.395
525.35	33.024
525.69	31.342
526.04	32.586
526.38	32.886
526.72	33.313
527.06	33.961
527.41	32.178
527.75	32.540
528.09	32.884
528.43	33.461
528.78	33.497
529.12	32.424
529.46	33.190
529.80	33.849
530.15	33.707
530.49	32.246
530.83	32.342
531.17	33.616
531.51	33.917
531.86	32.387
532.20	33.377
532.54	32.351
532.88	32.927
533.22	32.792
533.57	32.284
533.91	32.089
534.25	32.746
534.59	32.398
534.93	32.064
535.27	32.287
535.62	32.173
535.96	32.203
536.30	31.914
536.64	32.389
536.98	31.188
537.32	31.731
537.66	32.533
538.01	31.797
538.35	31.803
538.69	31.780
539.03	31.709
539.37	31.502
539.71	30.071
540.05	30.654
540.39	30.897
540.73	32.277
541.07	31.927
541.42	33.203
541.76	31.806
542.10	31.242
542.44	32.185
542.78	31.159
543.12	30.710
543.46	32.066
543.80	31.815
544.14	30.488
544.48	31.810
544.82	30.917
545.16	31.100
545.50	30.527
545.84	31.183
546.18	30.438
546.52	31.108
546.86	31.890
547.20	31.423
547.54	30.595
547.88	30.357
548.22	30.075
548.56	30.629
548.90	29.257
549.24	29.360
549.58	30.355
549.92	30.151
550.26	30.753
550.60	29.945
550.94	29.648
551.28	29.334
551.62	29.763
551.96	30.175
552.30	30.375
552.64	30.494
552.98	29.898
553.32	30.209
553.66	29.789
554.00	29.238
554.34	29.193
554.68	28.970
555.02	28.914
555.36	28.810
555.69	27.808
556.03	29.004
556.37	28.990
556.71	28.308
557.05	29.622
557.39	29.041
557.73	28.299
558.07	28.499
558.41	28.582
558.75	29.096
559.08	28.486
559.42	28.420
559.76	29.265
560.10	28.694
560.44	28.581
560.78	28.609
561.12	27.573
561.45	29.009
561.79	28.016
562.13	29.175
562.47	28.962
562.81	27.964
563.15	28.227
563.48	29.377
563.82	29.289
564.16	28.123
564.50	27.995
564.84	27.307
565.17	27.992
565.51	28.562
565.85	28.109
566.19	26.738
566.52	29.006
566.86	27.306
567.20	27.653
567.54	27.397
567.88	27.268
568.21	27.037
568.55	26.896
568.89	26.702
569.23	26.961
569.56	26.397
569.90	26.302
570.24	26.911
570.57	26.080
570.91	25.921
571.25	25.726
571.59	25.862
571.92	25.576
572.26	25.534
572.60	26.036
572.93	25.697
573.27	25.614
573.61	25.461
573.95	25.840
574.28	25.050
574.62	25.534
574.96	24.755
575.29	24.491
575.63	25.025
575.97	25.592
576.30	24.934
576.64	24.716
576.98	24.404
577.31	24.954
577.65	24.886
577.98	24.769
578.32	24.325
578.66	24.507
578.99	24.469
579.33	24.256
579.67	24.106
580.00	24.311
580.34	24.395
580.67	24.061
581.01	24.646
581.35	24.279
581.68	23.991
582.02	24.156
582.35	24.286
582.69	24.408
583.02	24.001
583.36	24.279
583.70	24.500
584.03	24.060
584.37	23.926
584.70	23.772
585.04	23.777
585.37	24.045
585.71	23.731
586.04	23.484
586.38	23.981
586.72	24.330
587.05	23.010
587.39	23.325
587.72	23.783
588.06	23.079
588.39	23.347
588.73	23.350
589.06	24.275
589.40	23.704
589.73	23.794
590.07	23.025
590.40	23.749
590.73	23.770
591.07	23.403
591.40	24.294
591.74	23.983
592.07	23.866
592.41	23.191
592.74	23.258
593.08	23.351
593.41	23.062
593.75	22.861
594.08	22.997
594.41	23.047
594.75	24.067
595.08	23.407
595.42	23.292
595.75	22.863
596.09	22.756
596.42	23.418
596.75	22.963
597.09	23.593
597.42	22.091
597.75	22.682
598.09	22.913
598.42	22.466
598.76	22.983
599.09	22.197
599.42	22.052
599.76	23.170
600.09	22.441
600.42	21.804
600.76	22.321
601.09	21.821
601.42	22.184
601.76	22.239
602.09	21.937
602.42	22.014
602.76	22.410
603.09	21.597
603.42	21.476
603.76	21.532
604.09	21.946
604.42	22.381
604.76	22.016
605.09	22.936
605.42	21.975
605.75	21.565
606.09	21.838
606.42	22.231
606.75	21.485
607.09	21.306
607.42	21.267
607.75	20.422
608.08	21.103
608.42	21.874
608.75	21.371
609.08	21.508
609.41	20.562
609.75	20.867
610.08	21.583
610.41	21.089
610.74	21.334
611.07	21.542
611.41	21.688
611.74	21.870
612.07	21.791
612.40	21.301
612.73	21.263
613.07	22.414
613.40	21.696
613.73	21.185
614.06	22.151
614.39	21.395
614.72	21.895
615.06	21.324
615.39	21.231
615.72	20.450
616.05	20.680
616.38	21.623
616.71	21.615
617.05	22.144
617.38	20.986
617.71	21.562
618.04	21.334
618.37	20.047
618.70	21.095
619.03	21.447
619.36	21.249
619.69	21.197
620.03	21.360
620.36	21.658
620.69	21.164
621.02	21.165
621.35	20.752
621.68	20.717
622.01	20.046
622.34	21.331
622.67	20.228
623.00	20.323
623.33	20.372
623.66	20.157
623.99	20.177
624.32	21.041
624.65	20.198
624.99	20.042
625.32	19.986
625.65	20.436
625.98	21.061
626.31	20.529
626.64	20.816
626.97	21.280
627.30	20.033
627.63	20.427
627.96	20.353
628.29	20.910
628.62	20.677
628.95	21.604
629.28	21.077
629.61	20.440
629.94	22.095
630.26	19.447
630.59	21.163
630.92	20.498
631.25	20.829
631.58	20.020
631.91	20.183
632.24	19.726
632.57	20.881
632.90	19.737
633.23	20.358
633.56	20.226
633.89	20.838
634.22	20.204
634.55	22.249
634.88	21.557
635.20	21.625
635.53	21.807
635.86	20.792
636.19	21.412
636.52	21.453
636.85	19.473
637.18	19.585
637.51	21.158
637.83	19.112
638.16	20.332
638.49	19.018
638.82	22.250
639.15	20.625
639.48	21.571
639.81	20.912
640.13	22.526
640.46	20.403
640.79	21.268
641.12	21.320
641.45	18.296
641.77	21.060
642.10	20.175
642.43	19.970
642.76	21.827
643.09	20.859
643.41	20.030
643.74	23.457
644.07	19.360
644.40	21.933
644.73	20.315
645.05	20.444
645.38	20.853
645.71	20.290
646.04	20.266
646.36	23.873
646.69	21.237
647.02	20.578
647.35	22.509
647.67	22.478
648.00	22.602
648.33	20.132
648.66	19.394
648.98	21.589
649.31	19.133
649.64	19.283
649.96	20.566
650.29	21.959
650.62	19.579
650.94	19.935
651.27	21.791
651.60	20.965
651.92	19.808
652.25	18.078
652.58	20.249
652.90	22.117
653.23	18.490
653.56	20.472
653.88	21.078
654.21	21.485
654.54	19.307
654.86	19.003
655.19	18.514
655.52	15.302
655.84	14.778
656.17	18.061
656.49	24.268
656.82	24.300
657.15	18.428
657.47	13.510
657.80	10.349
658.13	10.358
658.45	15.236
658.78	15.111
659.10	15.328
659.43	15.521
659.75	15.319
660.08	15.696
660.41	16.760
660.73	18.297
661.06	18.631
661.38	21.455
661.71	22.500
662.03	19.724
662.36	20.676
662.68	19.076
663.01	20.202
663.33	19.533
663.66	21.218
663.98	20.302
664.31	20.798
664.63	17.206
664.96	18.109
665.28	19.877
665.61	19.688
665.93	18.913
666.26	18.458
666.58	18.201
666.91	20.719
667.23	22.247
667.56	18.143
667.88	19.017
668.21	23.881
668.53	20.607
668.86	19.913
669.18	21.535
669.50	20.000
669.83	20.915
670.15	18.222
670.48	21.133
670.80	20.905
671.13	21.656
671.45	18.298
671.77	21.181
672.10	20.887
672.42	19.611
672.75	16.086
673.07	18.662
673.39	18.987
673.72	18.359
674.04	19.608
674.37	18.641
674.69	18.609
675.01	19.247
675.34	19.302
675.66	20.842
675.98	20.163
676.31	21.218
676.63	19.745
676.95	19.497
677.28	17.991
677.60	20.440
677.92	21.097
678.25	18.891
678.57	18.924
678.89	19.238
679.22	17.289
679.54	18.511
679.86	18.532
680.18	18.605
680.51	15.780
680.83	17.794
681.15	19.811
681.48	20.605
681.80	17.215
682.12	17.241
682.44	17.602
682.77	19.145
683.09	21.030
683.41	19.069
683.73	19.205
684.06	20.868
684.38	18.004
684.70	16.860
685.02	17.824
685.34	17.399
685.67	17.832
685.99	16.495
686.31	17.918
686.63	18.375
686.96	18.214
687.28	17.509
687.60	17.572
687.92	19.561
688.24	15.589
688.56	18.876
688.89	19.917
689.21	20.961
689.53	18.789
689.85	18.847
690.17	14.907
690.49	22.505
690.82	20.093
691.14	16.295
691.46	18.776
691.78	17.871
692.10	19.421
692.42	19.561
692.74	18.465
693.06	18.298
693.39	19.713
693.71	19.432
694.03	17.895
694.35	18.398
694.67	18.535
694.99	18.780
695.31	18.627
695.63	17.464
695.95	18.093
696.27	15.990
696.59	19.689
696.91	18.135
697.23	13.146
697.56	18.124
697.88	15.951
698.20	16.875
698.52	16.989
698.84	19.599
699.16	17.051
699.48	15.439
699.80	18.116
700.12	18.961
700.44	19.098
700.76	21.547
701.08	18.966
701.40	19.832
701.72	20.408
702.04	21.875
702.36	16.714
702.68	19.547
703.00	19.114
703.32	18.351
703.64	15.818
703.96	18.106
704.28	19.186
704.60	21.701
704.91	19.585
705.23	21.408
705.55	25.249
705.87	23.588
706.19	15.901
706.51	20.561
706.83	21.212
707.15	26.050
707.47	17.677
707.79	20.639
708.11	18.721
708.43	16.190
708.74	16.071
709.06	20.519
709.38	19.685
709.70	21.221
710.02	19.585
710.34	15.758
710.66	19.701
710.98	20.455
711.29	20.058
711.61	17.994
711.93	19.872
712.25	21.865
712.57	17.279
712.89	16.955
713.20	17.325
713.52	21.711
713.84	17.089
714.16	19.817
714.48	20.690
714.80	21.581
715.11	17.579
715.43	15.134
715.75	17.101
716.07	19.489
716.39	20.376
716.70	22.591
717.02	22.662
717.34	19.081
717.66	22.761
717.97	23.506
718.29	20.741
718.61	19.708
718.93	25.735
719.24	18.339
719.56	20.000
719.88	20.000
720.20	26.689
720.51	19.861
720.83	21.933
721.15	17.164
721.46	23.050
721.78	24.373
722.10	21.509
722.42	23.684
722.73	21.348
723.05	19.672
723.37	23.077
723.68	20.849
724.00	16.667
724.32	20.565
724.63	21.545
724.95	20.502
725.27	21.862
725.58	20.312
725.90	23.358
726.22	20.377
726.53	19.097
726.85	16.724
727.16	19.217
727.48	21.631
727.80	19.697
728.11	20.290
728.43	18.462
728.74	21.505
729.06	27.007
729.38	19.853
729.69	23.132
730.01	20.478
730.32	20.486
730.64	22.074
730.96	18.152
731.27	22.517
731.59	17.431
731.90	20.991
732.22	18.012
732.53	16.099
732.85	19.231
733.16	19.614
733.48	20.266
733.80	18.182
734.11	20.382
734.43	20.414
734.74	16.000
735.06	14.613
735.37	19.075
735.69	13.376
736.00	20.915
736.32	19.626
736.63	18.211
736.95	15.335
737.26	14.966
737.58	18.065
737.89	18.060
738.21	19.113
738.52	19.286
738.83	18.868
739.15	20.385
739.46	19.343
739.78	19.444
740.09	19.077
740.41	22.581
740.72	18.815
741.04	17.778
741.35	20.833
741.66	27.556
741.98	18.396
742.29	23.445
742.61	24.569
742.92	22.172
743.23	20.940
743.55	19.200
743.86	19.298
744.18	24.779
744.49	21.053
744.80	23.005
745.12	22.727
745.43	22.026
745.74	26.577
746.06	20.642
746.37	26.009
746.68	23.982
747.00	23.148
747.31	21.905
747.62	17.699
747.94	22.467
748.25	20.000
748.56	24.229
748.88	16.337
749.19	24.000
749.50	21.395
749.82	21.138
750.13	22.857
750.44	17.883
750.75	18.947
751.07	22.186
751.38	21.603
751.69	20.939
752.01	18.797
752.32	20.578
752.63	20.213
752.94	18.443
753.26	26.400
753.57	19.512
753.88	23.828
754.19	20.000
754.51	19.444
754.82	23.105
755.13	23.019
755.44	20.677
755.75	21.533
756.07	19.858
756.38	16.788
756.69	19.799
757.00	16.766
757.31	17.211
757.63	18.421
757.94	18.231
758.25	17.157
758.56	12.840
758.87	15.323
759.18	18.182
759.50	15.987
759.81	17.445
760.12	15.000
760.43	19.198
760.74	17.120
761.05	16.102
761.36	16.310
761.67	20.170
761.99	16.770
762.30	17.361
762.61	15.649
762.92	21.484
763.23	21.849
763.54	22.400
763.85	19.141
764.16	20.385
764.47	24.715
764.78	13.074
765.10	13.291
765.41	15.929
765.72	20.060
766.03	19.749
766.34	16.667
766.65	21.702
766.96	17.949
767.27	23.350
767.58	25.000
767.89	28.947
768.20	24.138
768.51	29.949
768.82	21.560
769.13	18.699
769.44	19.028
769.75	17.597
770.06	17.431
770.37	20.814
770.68	18.519
770.99	18.667
771.30	20.492
771.61	22.870
771.92	22.541
772.23	26.891
772.54	25.641
772.85	26.702
773.16	25.532
773.47	19.565
773.78	32.995
774.09	20.238
774.39	28.070
774.70	22.222
775.01	29.710
775.32	32.026
775.63	28.947
775.94	27.338
776.25	30.709
776.56	31.343
776.87	34.426
777.18	33.594
777.48	35.878
777.79	27.273
778.10	28.889
778.41	33.036
778.72	28.467
779.03	32.215
779.34	30.201
779.65	29.054
779.95	17.791
780.26	24.837
780.57	28.966
780.88	37.500
781.19	31.579
781.50	35.811
781.80	27.044
782.11	18.079
782.42	18.354
782.73	24.540
783.04	27.027
783.34	28.873
783.65	34.932
783.96	34.328
784.27	30.769
784.57	20.144
784.88	20.370
785.19	32.540
785.50	35.849
785.81	38.060
786.11	35.246
786.42	34.884
786.73	34.513
787.04	37.736
787.34	28.571
787.65	37.000
787.96	36.937
788.26	31.405
788.57	41.525
788.88	33.884
789.19	36.806
789.49	38.636
789.80	32.061
790.11	36.190
790.41	42.574
790.72	36.145
791.03	44.565
791.33	41.860
791.64	38.144
791.95	36.634
792.25	50.000
792.56	50.649
792.87	47.436
793.17	50.633
793.48	43.678
793.79	40.230
794.09	43.182
794.40	30.252
794.70	30.882
795.01	28.148
795.32	27.338
795.62	33.071
795.93	31.897
796.23	37.168
796.54	38.824
796.85	37.838
797.15	50.704
797.46	39.394
797.76	40.964
798.07	54.430
798.37	41.538
798.68	40.909
798.99	29.577
799.29	54.545
799.60	44.318
799.90	46.575
800.21	64.179
800.51	58.621
800.82	73.684
801.12	34.426
801.43	43.939
801.73	37.838
802.04	52.381
802.34	45.679
802.65	45.313
802.95	61.017
803.26	70.313
803.56	45.714
803.87	46.154
804.17	47.059
804.48	68.519
804.78	50.000
805.09	55.882
805.39	63.462
805.70	51.786
806.00	63.934
806.30	34.848
806.61	42.683
806.91	43.038
807.22	48.684
807.52	34.328
807.83	52.113
808.13	51.562
808.43	61.667
808.74	38.158
809.04	49.275
809.35	55.224
809.65	52.632
809.95	79.032
810.26	42.373
810.56	53.968
810.86	72.727
811.17	102.381
811.47	56.667
811.77	66.667
812.08	52.727
812.38	70.000
812.69	94.444
812.99	75.000
813.29	97.959
813.59	45.238
813.90	79.592
814.20	56.364
814.50	58.462
814.81	52.941
815.11	63.265
815.41	50.820
815.72	64.286
816.02	76.364
816.32	69.048
816.62	85.000
816.93	34.146
817.23	78.571
817.53	68.182
817.84	66.667
818.14	56.522
818.44	48.889
818.74	88.235
819.04	75.000
819.35	111.429
819.65	111.765
819.95	96.429
820.25	60.000
820.56	97.436
820.86	86.364
821.16	104.651
821.46	100.000
821.76	82.000
822.07	82.857
822.37	85.000
822.67	75.758
822.97	76.471
823.27	85.714
823.57	97.297
823.88	95.000
824.18	143.333
824.48	73.810
824.78	148.000
825.08	120.833
825.38	75.676
825.69	82.927
825.99	95.833
826.29	75.862
826.59	94.737
826.89	81.579
827.19	102.941
827.49	96.774
827.79	88.636
828.09	84.091
828.39	57.447
828.70	87.755
829.00	77.778
829.30	100.000
829.60	72.500
829.90	113.333
830.20	103.571
830.50	86.957
830.80	104.348
831.10	113.333
831.40	53.333
831.70	113.043
832.00	126.923
832.30	111.111
832.60	168.750
832.90	116.667
833.20	250.000
833.50	132.258
833.80	82.759
834.10	134.375
834.40	150.000
834.70	188.889
835.00	133.333
835.30	94.286
835.60	207.692
835.90	93.103
836.20	164.286
836.50	117.241
836.80	132.000
837.10	113.889
837.40	171.429
837.70	182.353
838.00	107.407
838.30	142.857
838.60	114.286
838.90	146.154
839.19	135.000
839.49	200.000
839.79	180.000
840.09	165.000
840.39	138.095
840.69	130.435
840.99	144.444
841.29	280.000
841.59	83.333
841.88	200.000
842.18	110.345
842.48	147.619
842.78	120.000
843.08	143.478
843.38	100.000
843.68	450.000
843.97	146.154
844.27	96.552
844.57	142.857
844.87	225.000
845.17	137.037
845.47	833.333
845.76	211.111
846.06	141.176
846.36	400.000
846.66	228.571
846.96	218.750
847.25	281.818
847.55	163.636
847.85	160.870
848.15	300.000
848.44	157.143
848.74	116.667
849.04	135.294
849.34	310.000
849.63	142.105
849.93	218.182
850.23	440.000
850.53	228.571
850.82	1600.000
851.12	-2700.000
851.42	2400.000
851.71	160.000
852.01	-666.667
852.31	166.667
852.61	1133.333
852.90	176.190
853.20	148.000
853.50	194.118
853.79	180.952
854.09	120.833
854.39	200.000
854.68	86.486
854.98	100.000
855.28	96.667
855.57	89.655
855.87	129.630
856.17	142.105
856.46	166.667
856.76	164.706
857.05	106.897
857.35	145.833
857.65	180.000
857.94	108.696
858.24	92.308
858.53	120.000
858.83	122.727
859.13	200.000
859.42	0.000
859.72	322.222
860.01	200.000
860.31	154.545
860.60	142.105
860.90	139.130
861.20	222.222
861.49	300.000
861.79	-2300.000
862.08	287.500
862.38	171.429
862.67	176.923
862.97	205.882
863.26	300.000
863.56	150.000
863.85	175.000
864.15	200.000
864.44	226.667
864.74	600.000
865.03	325.000
865.33	142.105
865.62	254.545
865.92	269.231
866.21	233.333
866.51	0.000
866.80	254.545
867.10	620.000
867.39	261.538
867.69	227.273
867.98	178.947
868.27	236.364
868.57	189.474
868.86	-1500.000
869.16	206.250
869.45	850.000
869.75	-1800.000
870.04	241.667
870.33	214.286
870.63	625.000
870.92	1650.000
871.22	542.857
871.51	205.882
871.80	128.571
872.10	271.429
>>>>>End Processed Spectral Data<<<<<
