SpectraSuite Data File
++++++++++++++++++++++++++++++++++++
Date: Wed May 13 20:23:01 PDT 2015
User: schluterlab
Dark Spectrum Present: Yes
Reference Spectrum Present: Yes
Number of Sampled Component Spectra: 1
Spectrometers: USB2E3373
Integration Time (usec): 3000 (USB2E3373)
Spectra Averaged: 3 (USB2E3373)
Boxcar Smoothing: 0 (USB2E3373)
Correct for Electrical Dark: No (USB2E3373)
Strobe/Lamp Enabled: No (USB2E3373)
Correct for Detector Non-linearity: No (USB2E3373)
Correct for Stray Light: No (USB2E3373)
Number of Pixels in Processed Spectrum: 2048
>>>>>Begin Processed Spectral Data<<<<<
178.53	0.000
178.91	-1400.000
179.29	-1500.000
179.67	-227.778
180.04	-1275.000
180.42	2850.000
180.80	960.000
181.18	-1000.000
181.56	657.143
181.94	0.000
182.31	-757.143
182.69	1800.000
183.07	-600.000
183.45	-500.000
183.83	509.091
184.20	-350.000
184.58	2250.000
184.96	6000.000
185.34	-660.000
185.72	-587.500
186.09	-2550.000
186.47	2400.000
186.85	2350.000
187.23	5400.000
187.61	-1966.667
187.98	1225.000
188.36	527.273
188.74	563.636
189.12	-940.000
189.49	590.000
189.87	-5300.000
190.25	-1150.000
190.63	364.286
191.00	423.077
191.38	866.667
191.76	-1075.000
192.14	1525.000
192.51	650.000
192.89	800.000
193.27	612.500
193.65	-1200.000
194.02	490.000
194.40	800.000
194.78	560.000
195.15	525.000
195.53	570.000
195.91	-2500.000
196.29	293.750
196.66	315.789
197.04	-370.000
197.42	0.000
197.79	600.000
198.17	-4700.000
198.55	742.857
198.92	712.500
199.30	980.000
199.68	0.000
200.05	288.889
200.43	771.429
200.81	4300.000
201.18	1866.667
201.56	-1666.667
201.94	477.778
202.31	544.444
202.69	450.000
203.07	570.000
203.44	0.000
203.82	1125.000
204.19	800.000
204.57	435.714
204.95	712.500
205.32	1433.333
205.70	472.727
206.08	335.714
206.45	2500.000
206.83	331.250
207.20	900.000
207.58	840.000
207.96	311.111
208.33	650.000
208.71	-883.333
209.08	742.857
209.46	588.889
209.84	490.909
210.21	-1366.667
210.59	1350.000
210.96	-475.000
211.34	2300.000
211.71	540.000
212.09	866.667
212.46	0.000
212.84	1866.667
213.22	1400.000
213.59	-4800.000
213.97	766.667
214.34	800.000
214.72	609.091
215.09	980.000
215.47	-2300.000
215.84	-2600.000
216.22	1700.000
216.59	385.714
216.97	1375.000
217.34	454.545
217.72	-666.667
218.09	0.000
218.47	-5400.000
218.84	700.000
219.22	600.000
219.59	1366.667
219.97	-528.571
220.34	980.000
220.72	-1866.667
221.09	392.857
221.47	1500.000
221.84	-866.667
222.22	0.000
222.59	1250.000
222.97	-2700.000
223.34	1060.000
223.72	438.462
224.09	1040.000
224.46	2100.000
224.84	-6000.000
225.21	-1060.000
225.59	-5200.000
225.96	630.000
226.34	290.000
226.71	2950.000
227.08	625.000
227.46	580.000
227.83	-1175.000
228.21	-1900.000
228.58	600.000
228.95	-2000.000
229.33	-2050.000
229.70	1533.333
230.08	742.857
230.45	-640.000
230.82	408.333
231.20	900.000
231.57	728.571
231.95	408.333
232.32	263.636
232.69	500.000
233.07	600.000
233.44	476.923
233.81	-1633.333
234.19	289.474
234.56	400.000
234.93	366.667
235.31	427.273
235.68	361.538
236.05	342.857
236.43	157.576
236.80	289.474
237.17	3900.000
237.55	233.333
237.92	203.571
238.29	252.381
238.67	145.161
239.04	179.310
239.41	133.333
239.79	123.913
240.16	142.857
240.53	122.727
240.91	100.000
241.28	108.000
241.65	118.000
242.02	92.754
242.40	95.161
242.77	100.000
243.14	76.344
243.51	76.404
243.89	83.529
244.26	73.333
244.63	68.817
245.00	58.511
245.38	60.396
245.75	57.944
246.12	46.789
246.49	56.934
246.87	65.600
247.24	54.615
247.61	52.857
247.98	45.752
248.36	45.270
248.73	45.860
249.10	45.860
249.47	40.113
249.84	41.176
250.22	40.642
250.59	44.379
250.96	41.414
251.33	42.180
251.70	46.535
252.08	35.714
252.45	37.668
252.82	40.435
253.19	35.745
253.56	36.078
253.94	35.270
254.31	35.937
254.68	38.462
255.05	38.745
255.42	33.740
255.79	34.559
256.16	36.823
256.54	29.682
256.91	37.367
257.28	32.014
257.65	30.693
258.02	34.161
258.39	32.492
258.76	30.769
259.14	32.440
259.51	30.395
259.88	33.230
260.25	35.045
260.62	27.746
260.99	31.056
261.36	32.132
261.73	29.799
262.10	30.233
262.47	32.676
262.85	29.248
263.22	27.350
263.59	32.764
263.96	29.670
264.33	30.809
264.70	29.211
265.07	29.923
265.44	27.525
265.81	28.467
266.18	29.146
266.55	28.049
266.92	27.027
267.29	25.926
267.66	25.459
268.03	28.636
268.40	28.505
268.77	27.685
269.14	26.577
269.51	30.474
269.88	29.371
270.25	27.088
270.62	29.213
270.99	29.462
271.36	26.395
271.73	26.168
272.10	28.261
272.47	26.667
272.84	24.459
273.21	28.092
273.58	25.546
273.95	25.157
274.32	24.793
274.69	24.839
275.06	23.819
275.43	24.681
275.80	25.451
276.17	22.607
276.54	26.195
276.91	25.296
277.28	25.195
277.65	25.919
278.02	24.638
278.39	28.125
278.76	25.636
279.13	25.283
279.50	24.953
279.87	24.701
280.23	24.351
280.60	22.437
280.97	23.660
281.34	24.425
281.71	22.909
282.08	23.800
282.45	23.818
282.82	22.202
283.19	20.499
283.56	25.088
283.92	22.673
284.29	23.810
284.66	22.686
285.03	23.508
285.40	22.887
285.77	22.054
286.14	22.453
286.51	23.833
286.87	22.906
287.24	25.407
287.61	20.706
287.98	22.403
288.35	22.345
288.72	21.340
289.08	19.875
289.45	20.758
289.82	23.740
290.19	19.466
290.56	20.061
290.93	20.091
291.29	21.012
291.66	19.764
292.03	23.256
292.40	21.292
292.77	21.598
293.13	18.806
293.50	20.845
293.87	19.407
294.24	17.926
294.60	18.923
294.97	18.605
295.34	19.746
295.71	18.892
296.08	18.803
296.44	17.607
296.81	17.966
297.18	19.648
297.55	15.831
297.91	17.546
298.28	19.143
298.65	18.277
299.02	17.787
299.38	18.459
299.75	15.903
300.12	17.369
300.48	17.500
300.85	18.249
301.22	17.325
301.59	17.677
301.95	16.751
302.32	17.587
302.69	16.487
303.05	17.091
303.42	15.185
303.79	16.421
304.15	15.385
304.52	15.180
304.89	16.260
305.25	15.545
305.62	16.988
305.99	15.702
306.35	15.772
306.72	14.798
307.09	16.204
307.45	18.018
307.82	14.397
308.19	16.667
308.55	16.936
308.92	15.252
309.29	15.206
309.65	14.952
310.02	14.693
310.38	16.129
310.75	15.417
311.12	15.763
311.48	15.778
311.85	15.723
312.22	14.360
312.58	16.112
312.95	14.361
313.31	14.563
313.68	14.241
314.05	16.765
314.41	15.377
314.78	13.192
315.14	14.995
315.51	15.448
315.87	16.337
316.24	15.194
316.61	14.912
316.97	14.579
317.34	13.503
317.70	14.723
318.07	13.859
318.43	14.873
318.80	14.527
319.16	15.537
319.53	13.227
319.89	15.333
320.26	15.600
320.62	13.889
320.99	15.253
321.35	15.960
321.72	15.811
322.08	14.906
322.45	15.323
322.81	15.116
323.18	14.740
323.54	14.657
323.91	15.000
324.27	15.010
324.64	13.886
325.00	14.157
325.37	15.105
325.73	16.607
326.10	14.651
326.46	13.082
326.83	14.495
327.19	14.688
327.56	13.240
327.92	14.873
328.29	15.617
328.65	14.641
329.01	14.621
329.38	14.709
329.74	14.220
330.11	13.384
330.47	14.968
330.84	15.717
331.20	14.390
331.56	14.312
331.93	14.815
332.29	14.197
332.66	14.690
333.02	14.534
333.38	13.460
333.75	14.706
334.11	15.391
334.48	14.729
334.84	14.614
335.20	14.909
335.57	14.143
335.93	13.125
336.29	13.462
336.66	13.616
337.02	14.118
337.38	13.796
337.75	14.082
338.11	13.787
338.47	13.628
338.84	13.382
339.20	13.670
339.56	15.055
339.93	13.273
340.29	14.130
340.65	13.547
341.02	15.009
341.38	14.947
341.74	13.509
342.11	13.450
342.47	14.185
342.83	13.870
343.20	14.719
343.56	12.890
343.92	14.035
344.28	14.371
344.65	13.328
345.01	14.141
345.37	13.551
345.73	14.552
346.10	13.555
346.46	14.322
346.82	14.168
347.19	12.865
347.55	12.479
347.91	14.644
348.27	13.558
348.63	13.545
349.00	13.835
349.36	13.383
349.72	14.515
350.08	12.723
350.45	13.914
350.81	13.647
351.17	13.128
351.53	14.005
351.89	13.201
352.26	14.522
352.62	13.873
352.98	13.776
353.34	13.804
353.70	12.193
354.07	13.306
354.43	12.937
354.79	13.757
355.15	13.328
355.51	13.989
355.87	13.224
356.24	13.518
356.60	12.991
356.96	12.953
357.32	13.655
357.68	13.307
358.04	12.985
358.40	12.985
358.77	13.772
359.13	12.628
359.49	12.863
359.85	12.540
360.21	11.563
360.57	12.918
360.93	12.462
361.29	12.774
361.66	12.848
362.02	13.209
362.38	12.928
362.74	12.426
363.10	11.399
363.46	12.546
363.82	12.698
364.18	12.996
364.54	13.076
364.90	12.606
365.26	12.868
365.62	12.564
365.98	11.833
366.35	13.037
366.71	12.581
367.07	12.746
367.43	12.845
367.79	12.848
368.15	14.009
368.51	11.555
368.87	12.491
369.23	12.509
369.59	12.310
369.95	12.279
370.31	12.393
370.67	12.319
371.03	13.633
371.39	11.880
371.75	12.279
372.11	12.376
372.47	12.023
372.83	12.752
373.19	12.934
373.55	11.973
373.91	12.445
374.27	12.302
374.63	12.145
374.99	13.559
375.35	12.421
375.71	11.720
376.07	12.414
376.42	11.967
376.78	12.790
377.14	12.008
377.50	13.245
377.86	11.902
378.22	12.958
378.58	11.090
378.94	11.062
379.30	11.578
379.66	11.485
380.02	12.715
380.38	11.354
380.74	12.245
381.09	11.980
381.45	12.477
381.81	12.899
382.17	12.548
382.53	12.138
382.89	11.790
383.25	11.132
383.61	12.392
383.97	11.820
384.32	10.979
384.68	11.338
385.04	10.817
385.40	11.703
385.76	10.381
386.12	11.593
386.48	11.517
386.83	12.251
387.19	13.173
387.55	12.183
387.91	11.245
388.27	12.017
388.62	11.924
388.98	10.872
389.34	11.702
389.70	11.220
390.06	12.231
390.42	11.933
390.77	11.132
391.13	11.551
391.49	11.739
391.85	12.158
392.20	10.662
392.56	12.121
392.92	11.477
393.28	10.651
393.64	11.631
393.99	11.973
394.35	10.732
394.71	10.540
395.07	11.090
395.42	10.939
395.78	12.087
396.14	11.608
396.50	12.281
396.85	11.062
397.21	10.727
397.57	11.717
397.92	11.959
398.28	10.426
398.64	11.768
399.00	11.696
399.35	10.660
399.71	11.632
400.07	12.123
400.42	12.025
400.78	12.364
401.14	10.854
401.49	11.821
401.85	11.494
402.21	11.078
402.57	10.487
402.92	11.349
403.28	11.618
403.63	11.015
403.99	11.592
404.35	11.576
404.70	11.451
405.06	11.124
405.42	11.104
405.77	10.571
406.13	11.117
406.49	11.295
406.84	11.164
407.20	10.579
407.55	11.615
407.91	11.067
408.27	11.870
408.62	11.258
408.98	11.397
409.34	11.316
409.69	11.935
410.05	10.595
410.40	11.131
410.76	10.992
411.11	11.942
411.47	11.310
411.83	11.790
412.18	11.317
412.54	10.897
412.89	11.446
413.25	11.275
413.60	11.489
413.96	10.990
414.31	11.057
414.67	10.837
415.03	10.795
415.38	12.049
415.74	10.611
416.09	11.496
416.45	11.914
416.80	10.773
417.16	12.668
417.51	11.480
417.87	10.854
418.22	11.420
418.58	11.362
418.93	11.671
419.29	11.649
419.64	12.531
420.00	11.280
420.35	11.536
420.71	12.074
421.06	11.516
421.42	11.170
421.77	11.659
422.12	10.724
422.48	10.362
422.83	10.833
423.19	11.215
423.54	11.376
423.90	11.362
424.25	11.390
424.61	11.548
424.96	11.020
425.31	11.240
425.67	11.685
426.02	11.200
426.38	11.477
426.73	11.001
427.09	10.942
427.44	11.098
427.79	10.983
428.15	11.488
428.50	11.527
428.85	11.740
429.21	10.878
429.56	10.524
429.92	11.072
430.27	10.526
430.62	9.985
430.98	11.417
431.33	10.670
431.68	10.785
432.04	11.768
432.39	10.908
432.74	11.251
433.10	11.375
433.45	11.720
433.80	10.588
434.16	11.271
434.51	11.158
434.86	11.117
435.22	10.673
435.57	10.942
435.92	11.586
436.28	11.269
436.63	11.755
436.98	10.761
437.34	12.045
437.69	11.494
438.04	11.130
438.39	10.985
438.75	11.040
439.10	11.061
439.45	11.570
439.81	10.937
440.16	11.067
440.51	11.424
440.86	11.697
441.22	10.512
441.57	10.934
441.92	11.208
442.27	11.195
442.63	10.690
442.98	10.873
443.33	11.848
443.68	11.255
444.03	11.079
444.39	10.370
444.74	10.985
445.09	10.620
445.44	11.372
445.79	10.935
446.15	11.805
446.50	10.878
446.85	10.586
447.20	10.556
447.55	11.446
447.91	11.087
448.26	11.297
448.61	10.910
448.96	11.517
449.31	11.699
449.66	11.311
450.02	10.251
450.37	11.224
450.72	10.886
451.07	11.395
451.42	10.578
451.77	12.096
452.12	10.681
452.47	11.194
452.83	11.247
453.18	11.186
453.53	11.812
453.88	11.105
454.23	11.178
454.58	11.690
454.93	11.888
455.28	11.097
455.63	10.922
455.98	12.381
456.34	11.432
456.69	10.895
457.04	12.136
457.39	12.215
457.74	10.679
458.09	11.903
458.44	10.946
458.79	10.358
459.14	11.117
459.49	11.792
459.84	10.914
460.19	11.019
460.54	10.590
460.89	11.026
461.24	11.718
461.59	12.144
461.94	11.221
462.29	11.513
462.64	11.551
462.99	11.321
463.34	12.667
463.69	11.445
464.04	11.710
464.39	11.594
464.74	11.408
465.09	10.917
465.44	11.357
465.79	11.018
466.14	11.658
466.49	11.123
466.84	11.092
467.19	11.165
467.54	12.063
467.89	10.444
468.24	11.984
468.59	11.905
468.94	10.874
469.29	12.532
469.64	12.115
469.99	11.570
470.34	10.370
470.68	11.279
471.03	11.224
471.38	11.814
471.73	11.859
472.08	12.237
472.43	11.558
472.78	11.784
473.13	12.067
473.48	11.610
473.83	11.768
474.17	11.823
474.52	12.035
474.87	12.318
475.22	11.840
475.57	11.016
475.92	11.630
476.27	10.767
476.61	12.024
476.96	11.050
477.31	11.355
477.66	10.941
478.01	11.030
478.36	11.898
478.70	10.696
479.05	11.342
479.40	10.696
479.75	10.930
480.10	10.388
480.45	11.042
480.79	11.276
481.14	11.008
481.49	10.774
481.84	10.242
482.19	10.768
482.53	10.872
482.88	11.075
483.23	10.701
483.58	11.101
483.92	11.106
484.27	10.065
484.62	10.302
484.97	10.761
485.31	10.445
485.66	9.562
486.01	8.990
486.36	9.120
486.70	8.712
487.05	9.472
487.40	9.576
487.75	9.693
488.09	10.312
488.44	10.140
488.79	10.850
489.13	10.848
489.48	11.093
489.83	10.833
490.17	10.609
490.52	10.407
490.87	11.262
491.22	10.459
491.56	9.658
491.91	10.470
492.26	10.289
492.60	10.783
492.95	10.477
493.30	11.776
493.64	10.966
493.99	10.678
494.34	11.332
494.68	11.264
495.03	11.090
495.37	11.401
495.72	10.819
496.07	11.462
496.41	10.575
496.76	10.598
497.11	10.356
497.45	11.132
497.80	10.797
498.14	11.208
498.49	11.268
498.84	11.074
499.18	10.810
499.53	10.969
499.87	11.184
500.22	11.116
500.56	11.650
500.91	10.529
501.26	11.143
501.60	11.248
501.95	10.862
502.29	10.918
502.64	11.453
502.98	11.314
503.33	10.878
503.67	10.812
504.02	10.477
504.36	10.716
504.71	11.236
505.06	10.843
505.40	11.084
505.75	10.608
506.09	11.030
506.44	11.199
506.78	10.862
507.13	11.055
507.47	12.172
507.82	11.550
508.16	11.449
508.51	10.502
508.85	11.519
509.19	11.071
509.54	10.765
509.88	11.077
510.23	10.797
510.57	11.713
510.92	11.497
511.26	11.305
511.61	11.618
511.95	10.334
512.30	11.188
512.64	11.338
512.98	11.468
513.33	11.831
513.67	11.046
514.02	10.877
514.36	11.524
514.70	11.455
515.05	11.935
515.39	12.283
515.74	12.106
516.08	12.018
516.42	11.987
516.77	12.152
517.11	11.376
517.46	11.569
517.80	12.253
518.14	11.870
518.49	12.194
518.83	12.330
519.17	12.760
519.52	12.168
519.86	12.037
520.20	12.717
520.55	12.208
520.89	12.652
521.23	12.726
521.58	12.425
521.92	12.186
522.26	11.897
522.61	12.150
522.95	11.725
523.29	12.660
523.64	11.951
523.98	11.768
524.32	12.123
524.66	12.447
525.01	12.500
525.35	11.710
525.69	11.946
526.04	12.461
526.38	12.264
526.72	11.350
527.06	13.183
527.41	11.634
527.75	12.605
528.09	12.653
528.43	12.492
528.78	12.293
529.12	12.364
529.46	12.799
529.80	12.438
530.15	13.146
530.49	11.754
530.83	12.468
531.17	12.990
531.51	13.748
531.86	11.871
532.20	13.364
532.54	12.492
532.88	13.671
533.22	11.930
533.57	12.469
533.91	12.222
534.25	12.029
534.59	12.752
534.93	12.433
535.27	12.251
535.62	13.065
535.96	12.806
536.30	12.397
536.64	12.943
536.98	11.944
537.32	12.706
537.66	12.200
538.01	13.232
538.35	13.122
538.69	13.274
539.03	12.086
539.37	11.821
539.71	11.601
540.05	12.680
540.39	12.890
540.73	12.678
541.07	13.433
541.42	12.851
541.76	13.613
542.10	12.484
542.44	12.053
542.78	13.768
543.12	12.476
543.46	12.721
543.80	12.817
544.14	12.452
544.48	13.397
544.82	12.444
545.16	12.297
545.50	12.725
545.84	13.105
546.18	13.603
546.52	13.352
546.86	12.784
547.20	13.014
547.54	12.759
547.88	13.457
548.22	11.706
548.56	12.956
548.90	12.356
549.24	13.199
549.58	13.506
549.92	13.736
550.26	12.571
550.60	13.416
550.94	13.380
551.28	12.217
551.62	13.515
551.96	12.702
552.30	13.379
552.64	13.523
552.98	13.492
553.32	13.891
553.66	14.247
554.00	13.864
554.34	13.389
554.68	13.019
555.02	13.681
555.36	13.222
555.69	13.599
556.03	13.190
556.37	12.551
556.71	12.074
557.05	13.305
557.39	14.626
557.73	13.056
558.07	13.488
558.41	12.663
558.75	13.593
559.08	14.392
559.42	13.303
559.76	14.485
560.10	13.276
560.44	13.138
560.78	12.508
561.12	12.599
561.45	13.625
561.79	12.722
562.13	12.274
562.47	12.842
562.81	13.529
563.15	13.378
563.48	13.329
563.82	12.133
564.16	12.623
564.50	12.305
564.84	13.970
565.17	12.162
565.51	12.843
565.85	12.881
566.19	12.336
566.52	13.046
566.86	12.176
567.20	13.267
567.54	12.500
567.88	11.896
568.21	12.275
568.55	12.032
568.89	11.770
569.23	10.918
569.56	11.012
569.90	11.358
570.24	11.267
570.57	11.289
570.91	10.763
571.25	10.778
571.59	10.751
571.92	10.743
572.26	10.832
572.60	10.691
572.93	10.435
573.27	11.121
573.61	10.748
573.95	10.543
574.28	10.578
574.62	10.447
574.96	10.633
575.29	10.160
575.63	10.722
575.97	10.336
576.30	10.967
576.64	10.437
576.98	10.379
577.31	10.374
577.65	10.445
577.98	10.354
578.32	10.087
578.66	10.294
578.99	10.819
579.33	10.772
579.67	10.168
580.00	10.597
580.34	10.299
580.67	10.541
581.01	10.906
581.35	10.247
581.68	10.731
582.02	10.198
582.35	10.199
582.69	10.309
583.02	10.379
583.36	10.445
583.70	10.714
584.03	10.998
584.37	10.935
584.70	10.841
585.04	11.008
585.37	10.624
585.71	10.691
586.04	10.606
586.38	10.789
586.72	11.102
587.05	10.405
587.39	10.343
587.72	10.719
588.06	10.752
588.39	10.700
588.73	10.854
589.06	11.499
589.40	10.976
589.73	11.088
590.07	11.423
590.40	11.472
590.73	11.163
591.07	12.047
591.40	11.809
591.74	12.208
592.07	11.257
592.41	11.782
592.74	11.573
593.08	11.359
593.41	11.072
593.75	10.931
594.08	11.264
594.41	11.276
594.75	11.349
595.08	11.059
595.42	11.664
595.75	11.610
596.09	11.829
596.42	11.670
596.75	11.819
597.09	12.121
597.42	11.341
597.75	12.290
598.09	11.913
598.42	11.426
598.76	11.634
599.09	11.631
599.42	11.790
599.76	11.896
600.09	11.621
600.42	11.140
600.76	11.357
601.09	11.002
601.42	11.416
601.76	11.879
602.09	11.423
602.42	12.022
602.76	12.052
603.09	11.172
603.42	11.558
603.76	11.509
604.09	11.245
604.42	11.659
604.76	12.273
605.09	11.839
605.42	11.458
605.75	12.127
606.09	10.736
606.42	11.688
606.75	11.987
607.09	12.474
607.42	11.382
607.75	11.266
608.08	11.854
608.42	12.371
608.75	11.767
609.08	12.165
609.41	12.280
609.75	12.482
610.08	12.535
610.41	11.453
610.74	12.110
611.07	12.302
611.41	12.414
611.74	12.469
612.07	12.422
612.40	12.592
612.73	12.947
613.07	12.662
613.40	12.375
613.73	12.271
614.06	12.204
614.39	12.690
614.72	12.737
615.06	12.500
615.39	12.367
615.72	12.014
616.05	11.696
616.38	12.785
616.71	12.886
617.05	13.486
617.38	13.049
617.71	12.192
618.04	12.981
618.37	12.537
618.70	12.694
619.03	13.947
619.36	12.831
619.69	13.732
620.03	14.560
620.36	13.837
620.69	13.904
621.02	13.643
621.35	14.096
621.68	13.084
622.01	14.551
622.34	13.994
622.67	13.308
623.00	12.839
623.33	13.224
623.66	13.939
623.99	13.034
624.32	14.479
624.65	12.924
624.99	12.890
625.32	13.251
625.65	13.223
625.98	13.221
626.31	14.386
626.64	14.776
626.97	14.214
627.30	12.386
627.63	13.946
627.96	14.382
628.29	15.048
628.62	15.096
628.95	15.755
629.28	15.055
629.61	14.757
629.94	14.952
630.26	14.299
630.59	14.395
630.92	14.464
631.25	13.919
631.58	15.315
631.91	14.807
632.24	14.135
632.57	14.795
632.90	16.338
633.23	15.436
633.56	15.932
633.89	16.195
634.22	17.140
634.55	16.331
634.88	14.132
635.20	16.129
635.53	16.145
635.86	14.233
636.19	15.059
636.52	16.032
636.85	15.006
637.18	15.207
637.51	15.957
637.83	14.303
638.16	13.939
638.49	15.617
638.82	15.803
639.15	16.875
639.48	16.584
639.81	18.901
640.13	16.536
640.46	16.510
640.79	17.173
641.12	14.993
641.45	16.061
641.77	15.464
642.10	17.544
642.43	16.216
642.76	17.647
643.09	17.945
643.41	16.995
643.74	18.827
644.07	16.006
644.40	19.632
644.73	18.425
645.05	19.968
645.38	16.746
645.71	18.035
646.04	17.940
646.36	20.200
646.69	19.064
647.02	18.537
647.35	19.244
647.67	18.053
648.00	18.699
648.33	17.987
648.66	17.879
648.98	17.691
649.31	16.592
649.64	17.339
649.96	16.542
650.29	17.536
650.62	17.152
650.94	18.639
651.27	17.568
651.60	17.471
651.92	17.412
652.25	18.078
652.58	18.380
652.90	17.378
653.23	16.025
653.56	18.425
653.88	18.225
654.21	18.325
654.54	18.812
654.86	17.601
655.19	15.676
655.52	10.640
655.84	8.962
656.17	11.149
656.49	15.206
656.82	15.498
657.15	11.627
657.47	8.800
657.80	6.752
658.13	7.038
658.45	10.809
658.78	11.048
659.10	11.707
659.43	12.321
659.75	13.176
660.08	15.000
660.41	16.574
660.73	18.551
661.06	17.994
661.38	20.545
661.71	19.808
662.03	20.118
662.36	16.700
662.68	20.281
663.01	19.798
663.33	19.745
663.66	21.218
663.98	17.711
664.31	18.067
664.63	18.826
664.96	18.109
665.28	21.926
665.61	18.324
665.93	18.712
666.26	19.878
666.58	18.619
666.91	22.410
667.23	20.899
667.56	16.415
667.88	21.154
668.21	19.403
668.53	20.174
668.86	20.563
669.18	22.814
669.50	21.957
669.83	23.747
670.15	23.111
670.48	19.826
670.80	20.043
671.13	22.081
671.45	19.149
671.77	19.552
672.10	19.963
672.42	18.375
672.75	19.900
673.07	18.134
673.39	18.264
673.72	19.336
674.04	17.059
674.37	20.388
674.69	16.564
675.01	19.247
675.34	23.614
675.66	20.842
675.98	21.792
676.31	22.269
676.63	19.958
676.95	20.126
677.28	21.262
677.60	20.879
677.92	22.996
678.25	18.686
678.57	19.323
678.89	20.240
679.22	19.450
679.54	17.748
679.86	20.917
680.18	18.962
680.51	18.262
680.83	20.285
681.15	18.302
681.48	20.416
681.80	20.503
682.12	19.540
682.44	16.441
682.77	19.348
683.09	22.747
683.41	23.060
683.73	21.192
684.06	21.694
684.38	18.200
684.70	20.155
685.02	20.075
685.34	18.498
685.67	18.182
685.99	17.698
686.31	18.089
686.63	16.784
686.96	19.643
687.28	19.134
687.60	21.196
687.92	19.196
688.24	18.631
688.56	21.486
688.89	21.577
689.21	22.926
689.53	20.459
689.85	19.290
690.17	18.012
690.49	21.868
690.82	18.458
691.14	21.429
691.46	19.831
691.78	20.281
692.10	19.421
692.42	21.158
692.74	20.124
693.06	22.553
693.39	19.302
693.71	19.651
694.03	17.684
694.35	20.779
694.67	18.307
694.99	22.683
695.31	20.098
695.63	18.421
695.95	19.560
696.27	20.305
696.59	24.352
696.91	22.539
697.23	18.779
697.56	21.748
697.88	16.155
698.20	18.542
698.52	21.720
698.84	20.045
699.16	17.972
699.48	22.090
699.80	20.531
700.12	23.636
700.44	22.281
700.76	22.099
701.08	22.414
701.40	20.950
701.72	27.114
702.04	30.114
702.36	21.813
702.68	23.796
703.00	24.100
703.32	19.149
703.64	24.665
703.96	24.234
704.28	22.674
704.60	25.513
704.91	24.926
705.23	24.047
705.55	26.910
705.87	32.558
706.19	23.322
706.51	24.299
706.83	26.667
707.15	25.210
707.47	23.485
707.79	22.113
708.11	23.059
708.43	20.000
708.74	22.959
709.06	23.377
709.38	21.522
709.70	22.965
710.02	23.442
710.34	23.333
710.66	25.970
710.98	27.841
711.29	25.000
711.61	23.894
711.93	25.962
712.25	28.939
712.57	27.206
712.89	26.298
713.20	28.267
713.52	27.961
713.84	21.835
714.16	22.256
714.48	23.563
714.80	25.532
715.11	21.902
715.43	23.145
715.75	27.826
716.07	23.962
716.39	21.944
716.70	27.575
717.02	23.381
717.34	26.502
717.66	30.597
717.97	33.068
718.29	27.778
718.61	23.723
718.93	25.368
719.24	24.567
719.56	32.542
719.88	26.441
720.20	24.662
720.51	32.056
720.83	30.855
721.15	24.627
721.46	27.660
721.78	31.541
722.10	27.170
722.42	26.692
722.73	28.839
723.05	27.869
723.37	25.911
723.68	28.571
724.00	27.642
724.32	26.210
724.63	27.236
724.95	22.176
725.27	27.530
725.58	33.594
725.90	30.657
726.22	27.170
726.53	23.958
726.85	29.352
727.16	26.335
727.48	28.369
727.80	28.409
728.11	27.174
728.43	26.154
728.74	27.957
729.06	28.102
729.38	27.206
729.69	28.470
730.01	25.597
730.32	26.389
730.64	26.087
730.96	22.772
731.27	28.477
731.59	25.688
731.90	25.073
732.22	24.845
732.53	21.981
732.85	25.321
733.16	26.045
733.48	26.578
733.80	26.299
734.11	26.115
734.43	24.260
734.74	24.571
735.06	23.782
735.37	24.566
735.69	17.834
736.00	30.392
736.32	26.791
736.63	24.601
736.95	26.518
737.26	22.789
737.58	22.258
737.89	27.759
738.21	28.328
738.52	26.786
738.83	25.660
739.15	26.923
739.46	28.467
739.78	25.000
740.09	24.000
740.41	26.452
740.72	25.087
741.04	29.630
741.35	27.500
741.66	36.889
741.98	24.057
742.29	38.756
742.61	37.069
742.92	31.674
743.23	31.197
743.55	34.800
743.86	28.947
744.18	31.858
744.49	35.407
744.80	31.925
745.12	38.636
745.43	25.551
745.74	32.432
746.06	26.147
746.37	32.287
746.68	36.652
747.00	33.333
747.31	35.714
747.62	25.221
747.94	28.634
748.25	31.489
748.56	33.921
748.88	32.178
749.19	40.000
749.50	33.023
749.82	29.675
750.13	25.306
750.44	25.182
750.75	29.123
751.07	30.868
751.38	26.829
751.69	28.520
752.01	26.316
752.32	29.603
752.63	26.241
752.94	25.410
753.26	28.800
753.57	23.171
753.88	30.859
754.19	27.500
754.51	30.208
754.82	25.993
755.13	31.698
755.44	26.692
755.75	24.818
756.07	26.596
756.38	23.723
756.69	23.154
757.00	24.551
757.31	21.958
757.63	24.269
757.94	24.397
758.25	21.569
758.56	18.765
758.87	21.505
759.18	25.152
759.50	25.078
759.81	23.676
760.12	21.562
760.43	22.350
760.74	23.098
761.05	24.011
761.36	23.262
761.67	23.011
761.99	26.398
762.30	23.264
762.61	32.443
762.92	29.297
763.23	28.571
763.54	27.200
763.85	27.344
764.16	34.615
764.47	31.559
764.78	28.269
765.10	25.000
765.41	23.304
765.72	23.952
766.03	26.646
766.34	26.000
766.65	28.511
766.96	29.060
767.27	37.056
767.58	34.896
767.89	37.895
768.20	37.931
768.51	35.025
768.82	31.193
769.13	28.455
769.44	29.150
769.75	31.760
770.06	23.394
770.37	35.747
770.68	41.204
770.99	35.111
771.30	27.459
771.61	33.184
771.92	30.738
772.23	38.235
772.54	35.385
772.85	37.696
773.16	38.298
773.47	40.761
773.78	42.640
774.09	41.071
774.39	33.918
774.70	33.951
775.01	39.130
775.32	40.523
775.63	37.500
775.94	41.727
776.25	52.756
776.56	50.746
776.87	47.541
777.18	56.250
777.48	48.092
777.79	45.455
778.10	49.630
778.41	43.750
778.72	49.635
779.03	43.624
779.34	41.611
779.65	39.865
779.95	38.650
780.26	45.752
780.57	48.966
780.88	57.813
781.19	46.617
781.50	47.297
781.80	44.654
782.11	36.723
782.42	40.506
782.73	38.650
783.04	43.919
783.34	39.437
783.65	56.849
783.96	44.776
784.27	44.755
784.57	33.813
784.88	45.370
785.19	57.143
785.50	48.113
785.81	47.761
786.11	55.738
786.42	48.837
786.73	50.442
787.04	59.434
787.34	53.571
787.65	57.000
787.96	50.450
788.26	49.587
788.57	63.559
788.88	51.240
789.19	48.611
789.49	50.758
789.80	50.382
790.11	65.714
790.41	61.386
790.72	67.470
791.03	66.304
791.33	67.442
791.64	61.856
791.95	64.356
792.25	66.667
792.56	81.818
792.87	79.487
793.17	72.152
793.48	73.563
793.79	62.069
794.09	64.773
794.40	58.824
794.70	47.059
795.01	38.519
795.32	53.237
795.62	48.031
795.93	56.034
796.23	59.292
796.54	58.824
796.85	68.919
797.15	91.549
797.46	69.697
797.76	74.699
798.07	79.747
798.37	83.077
798.68	72.727
798.99	69.014
799.29	67.532
799.60	65.909
799.90	86.301
800.21	82.090
800.51	89.655
800.82	94.737
801.12	88.525
801.43	90.909
801.73	71.622
802.04	80.952
802.34	76.543
802.65	87.500
802.95	86.441
803.26	93.750
803.56	87.143
803.87	76.923
804.17	82.353
804.48	103.704
804.78	87.931
805.09	104.412
805.39	94.231
805.70	92.857
806.00	86.885
806.30	80.303
806.61	76.829
806.91	69.620
807.22	82.895
807.52	64.179
807.83	92.958
808.13	90.625
808.43	81.667
808.74	55.263
809.04	98.551
809.35	88.060
809.65	80.263
809.95	98.387
810.26	94.915
810.56	87.302
810.86	125.000
811.17	126.190
811.47	96.667
811.77	103.704
812.08	98.182
812.38	112.000
812.69	105.556
812.99	129.545
813.29	118.367
813.59	114.286
813.90	97.959
814.20	94.545
814.50	81.538
814.81	95.588
815.11	100.000
815.41	100.000
815.72	119.048
816.02	107.273
816.32	138.095
816.62	125.000
816.93	129.268
817.23	159.524
817.53	129.545
817.84	154.545
818.14	113.043
818.44	146.667
818.74	135.294
819.04	132.500
819.35	140.000
819.65	141.176
819.95	142.857
820.25	240.000
820.56	143.590
820.86	150.000
821.16	155.814
821.46	115.385
821.76	138.000
822.07	160.000
822.37	137.500
822.67	178.788
822.97	113.725
823.27	196.429
823.57	145.946
823.88	145.000
824.18	200.000
824.48	142.857
824.78	228.000
825.08	187.500
825.38	162.162
825.69	117.073
825.99	212.500
826.29	144.828
826.59	173.684
826.89	150.000
827.19	141.176
827.49	174.194
827.79	134.091
828.09	129.545
828.39	129.787
828.70	126.531
829.00	174.074
829.30	164.516
829.60	120.000
829.90	286.667
830.20	200.000
830.50	230.435
830.80	256.522
831.10	166.667
831.40	176.667
831.70	182.609
832.00	215.385
832.30	181.481
832.60	268.750
832.90	213.333
833.20	357.143
833.50	190.323
833.80	175.862
834.10	200.000
834.40	184.615
834.70	233.333
835.00	290.476
835.30	160.000
835.60	261.538
835.90	182.759
836.20	278.571
836.50	182.759
836.80	144.000
837.10	166.667
837.40	276.190
837.70	252.941
838.00	192.593
838.30	247.619
838.60	304.762
838.90	203.846
839.19	255.000
839.49	378.571
839.79	295.000
840.09	315.000
840.39	252.381
840.69	230.435
840.99	283.333
841.29	420.000
841.59	325.000
841.88	393.750
842.18	158.621
842.48	209.524
842.78	213.333
843.08	213.043
843.38	156.250
843.68	750.000
843.97	203.846
844.27	217.241
844.57	304.762
844.87	318.750
845.17	188.889
845.47	1500.000
845.76	555.556
846.06	288.235
846.36	525.000
846.66	357.143
846.96	275.000
847.25	372.727
847.55	363.636
847.85	226.087
848.15	490.000
848.44	357.143
848.74	266.667
849.04	270.588
849.34	420.000
849.63	268.421
849.93	445.455
850.23	1120.000
850.53	428.571
850.82	2300.000
851.12	-4100.000
851.42	4100.000
851.71	225.000
852.01	-1400.000
852.31	220.833
852.61	1433.333
852.90	257.143
853.20	228.000
853.50	352.941
853.79	261.905
854.09	187.500
854.39	331.250
854.68	154.054
854.98	206.452
855.28	176.667
855.57	210.345
855.87	196.296
856.17	257.895
856.46	260.000
856.76	252.941
857.05	193.103
857.35	262.500
857.65	320.000
857.94	243.478
858.24	223.077
858.53	345.000
858.83	254.545
859.13	320.000
859.42	0.000
859.72	522.222
860.01	409.091
860.31	240.909
860.60	263.158
860.90	252.174
861.20	577.778
861.49	475.000
861.79	-3400.000
862.08	625.000
862.38	242.857
862.67	392.308
862.97	341.176
863.26	466.667
863.56	222.222
863.85	450.000
864.15	512.500
864.44	393.333
864.74	866.667
865.03	500.000
865.33	300.000
865.62	454.545
865.92	369.231
866.21	458.333
866.51	0.000
866.80	500.000
867.10	1200.000
867.39	438.462
867.69	463.636
867.98	268.421
868.27	372.727
868.57	378.947
868.86	-4400.000
869.16	325.000
869.45	2100.000
869.75	-3200.000
870.04	391.667
870.33	500.000
870.63	950.000
870.92	2250.000
871.22	657.143
871.51	352.941
871.80	271.429
872.10	378.571
>>>>>End Processed Spectral Data<<<<<
