SpectraSuite Data File
++++++++++++++++++++++++++++++++++++
Date: Wed May 13 20:40:44 PDT 2015
User: schluterlab
Dark Spectrum Present: Yes
Reference Spectrum Present: Yes
Number of Sampled Component Spectra: 1
Spectrometers: USB2E3373
Integration Time (usec): 3000 (USB2E3373)
Spectra Averaged: 3 (USB2E3373)
Boxcar Smoothing: 0 (USB2E3373)
Correct for Electrical Dark: No (USB2E3373)
Strobe/Lamp Enabled: No (USB2E3373)
Correct for Detector Non-linearity: No (USB2E3373)
Correct for Stray Light: No (USB2E3373)
Number of Pixels in Processed Spectrum: 2048
>>>>>Begin Processed Spectral Data<<<<<
178.53	0.000
178.91	-1025.000
179.29	-1050.000
179.67	-194.444
180.04	-1100.000
180.42	1650.000
180.80	820.000
181.18	-625.000
181.56	471.429
181.94	0.000
182.31	-414.286
182.69	1366.667
183.07	-412.500
183.45	-355.556
183.83	418.182
184.20	-190.000
184.58	2050.000
184.96	3800.000
185.34	-800.000
185.72	-550.000
186.09	-1250.000
186.47	1300.000
186.85	1650.000
187.23	3500.000
187.61	-1166.667
187.98	975.000
188.36	390.909
188.74	400.000
189.12	-560.000
189.49	420.000
189.87	-3100.000
190.25	-875.000
190.63	392.857
191.00	346.154
191.38	650.000
191.76	-925.000
192.14	1125.000
192.51	487.500
192.89	783.333
193.27	350.000
193.65	-825.000
194.02	400.000
194.40	640.000
194.78	350.000
195.15	408.333
195.53	480.000
195.91	-1350.000
196.29	312.500
196.66	210.526
197.04	-200.000
197.42	0.000
197.79	420.000
198.17	-3600.000
198.55	657.143
198.92	475.000
199.30	560.000
199.68	0.000
200.05	233.333
200.43	528.571
200.81	3900.000
201.18	1300.000
201.56	-1300.000
201.94	433.333
202.31	433.333
202.69	333.333
203.07	350.000
203.44	0.000
203.82	975.000
204.19	571.429
204.57	357.143
204.95	350.000
205.32	1066.667
205.70	327.273
206.08	271.429
206.45	1700.000
206.83	287.500
207.20	583.333
207.58	480.000
207.96	244.444
208.33	575.000
208.71	-583.333
209.08	514.286
209.46	455.556
209.84	363.636
210.21	-733.333
210.59	975.000
210.96	-350.000
211.34	2000.000
211.71	460.000
212.09	550.000
212.46	0.000
212.84	1133.333
213.22	800.000
213.59	-3200.000
213.97	683.333
214.34	742.857
214.72	445.455
215.09	860.000
215.47	-1350.000
215.84	-1450.000
216.22	1366.667
216.59	292.857
216.97	900.000
217.34	345.455
217.72	-516.667
218.09	0.000
218.47	-4900.000
218.84	577.778
219.22	585.714
219.59	1133.333
219.97	-514.286
220.34	680.000
220.72	-1100.000
221.09	300.000
221.47	1025.000
221.84	-733.333
222.22	0.000
222.59	1125.000
222.97	-2000.000
223.34	760.000
223.72	369.231
224.09	820.000
224.46	1250.000
224.84	-3900.000
225.21	-680.000
225.59	-3100.000
225.96	480.000
226.34	235.000
226.71	1650.000
227.08	525.000
227.46	470.000
227.83	-625.000
228.21	-1600.000
228.58	488.889
228.95	-1900.000
229.33	-1600.000
229.70	1100.000
230.08	628.571
230.45	-660.000
230.82	300.000
231.20	616.667
231.57	471.429
231.95	375.000
232.32	209.091
232.69	245.455
233.07	428.571
233.44	253.846
233.81	-1233.333
234.19	268.421
234.56	325.000
234.93	233.333
235.31	354.545
235.68	253.846
236.05	271.429
236.43	112.121
236.80	236.842
237.17	2400.000
237.55	166.667
237.92	164.286
238.29	190.476
238.67	119.355
239.04	179.310
239.41	119.444
239.79	106.522
240.16	126.190
240.53	125.000
240.91	68.627
241.28	90.000
241.65	82.000
242.02	82.609
242.40	85.484
242.77	70.000
243.14	58.065
243.51	82.022
243.89	70.588
244.26	73.333
244.63	68.817
245.00	59.574
245.38	55.446
245.75	64.486
246.12	54.128
246.49	63.504
246.87	58.400
247.24	63.077
247.61	49.286
247.98	55.556
248.36	41.892
248.73	47.134
249.10	47.771
249.47	44.068
249.84	49.733
250.22	50.802
250.59	47.337
250.96	42.424
251.33	42.180
251.70	45.050
252.08	42.857
252.45	40.807
252.82	40.435
253.19	40.000
253.56	44.314
253.94	44.398
254.31	43.750
254.68	39.231
255.05	40.221
255.42	38.211
255.79	36.765
256.16	42.238
256.54	38.163
256.91	38.790
257.28	33.094
257.65	35.974
258.02	35.093
258.39	34.385
258.76	36.455
259.14	39.583
259.51	39.514
259.88	33.540
260.25	36.254
260.62	35.549
260.99	36.646
261.36	38.438
261.73	35.817
262.10	34.884
262.47	37.746
262.85	35.376
263.22	33.048
263.59	35.328
263.96	35.440
264.33	34.987
264.70	35.000
265.07	34.527
265.44	35.606
265.81	32.847
266.18	34.673
266.55	35.366
266.92	34.152
267.29	32.870
267.66	34.174
268.03	34.318
268.40	35.047
268.77	32.458
269.14	31.081
269.51	32.280
269.88	35.431
270.25	33.634
270.62	35.281
270.99	34.194
271.36	33.691
271.73	35.047
272.10	30.870
272.47	33.978
272.84	32.684
273.21	33.962
273.58	31.004
273.95	33.333
274.32	31.818
274.69	33.405
275.06	31.693
275.43	34.468
275.80	30.261
276.17	32.179
276.54	34.719
276.91	33.399
277.28	32.031
277.65	31.141
278.02	31.677
278.39	31.055
278.76	29.636
279.13	30.566
279.50	29.609
279.87	30.478
280.23	31.737
280.60	28.820
280.97	31.238
281.34	32.212
281.71	29.818
282.08	30.326
282.45	28.182
282.82	30.195
283.19	29.768
283.56	30.000
283.92	31.303
284.29	29.277
284.66	31.034
285.03	29.295
285.40	28.521
285.77	30.135
286.14	31.261
286.51	30.000
286.87	28.205
287.24	30.293
287.61	28.411
287.98	28.896
288.35	28.843
288.72	27.570
289.08	27.700
289.45	28.336
289.82	28.455
290.19	26.060
290.56	26.340
290.93	26.284
291.29	26.534
291.66	26.401
292.03	28.198
292.40	26.872
292.77	26.331
293.13	27.313
293.50	26.676
293.87	25.778
294.24	25.333
294.60	25.619
294.97	24.419
295.34	25.106
295.71	26.562
296.08	22.650
296.44	23.934
296.81	24.439
297.18	24.932
297.55	24.406
297.91	23.087
298.28	24.498
298.65	24.543
299.02	23.584
299.38	22.444
299.75	22.237
300.12	22.478
300.48	21.750
300.85	22.688
301.22	24.331
301.59	20.960
301.95	23.929
302.32	23.363
302.69	23.297
303.05	22.182
303.42	22.099
303.79	20.498
304.15	22.261
304.52	21.321
304.89	21.719
305.25	20.882
305.62	21.857
305.99	22.078
306.35	22.595
306.72	22.982
307.09	22.863
307.45	24.775
307.82	21.317
308.19	22.406
308.55	23.085
308.92	23.093
309.29	22.703
309.65	21.951
310.02	21.987
310.38	23.656
310.75	24.287
311.12	23.849
311.48	22.780
311.85	23.899
312.22	23.517
312.58	24.012
312.95	24.498
313.31	23.204
313.68	24.324
314.05	25.345
314.41	24.523
314.78	25.076
315.14	24.826
315.51	24.820
315.87	25.842
316.24	26.316
316.61	26.413
316.97	28.082
317.34	27.006
317.70	27.438
318.07	28.393
318.43	28.474
318.80	29.522
319.16	28.343
319.53	29.644
319.89	30.667
320.26	31.300
320.62	30.853
320.99	31.414
321.35	31.212
321.72	32.341
322.08	33.268
322.45	33.632
322.81	33.043
323.18	34.971
323.54	35.158
323.91	34.717
324.27	35.755
324.64	34.576
325.00	34.626
325.37	37.853
325.73	36.894
326.10	36.981
326.46	37.903
326.83	37.791
327.19	38.002
327.56	39.373
327.92	40.245
328.29	40.373
328.65	40.700
329.01	40.162
329.38	41.813
329.74	41.182
330.11	41.753
330.47	43.985
330.84	43.566
331.20	43.898
331.56	43.211
331.93	42.407
332.29	43.123
332.66	42.920
333.02	42.505
333.38	44.535
333.75	44.920
334.11	44.929
334.48	44.720
334.84	45.129
335.20	46.455
335.57	44.968
335.93	45.179
336.29	46.795
336.66	47.250
337.02	44.253
337.38	47.130
337.75	44.742
338.11	47.001
338.47	46.869
338.84	47.021
339.20	45.688
339.56	47.810
339.93	47.364
340.29	46.014
340.65	44.920
341.02	47.033
341.38	47.242
341.74	45.088
342.11	45.677
342.47	47.841
342.83	45.719
343.20	47.013
343.56	47.178
343.92	47.982
344.28	46.003
344.65	46.948
345.01	45.034
345.37	44.940
345.73	45.770
346.10	45.013
346.46	45.847
346.82	45.222
347.19	44.612
347.55	44.499
347.91	44.498
348.27	47.001
348.63	45.652
349.00	44.579
349.36	45.074
349.72	44.908
350.08	44.733
350.45	45.728
350.81	44.354
351.17	44.814
351.53	44.472
351.89	44.307
352.26	44.751
352.62	44.026
352.98	44.733
353.34	43.385
353.70	43.453
354.07	44.355
354.43	42.778
354.79	42.317
355.15	43.815
355.51	44.764
355.87	42.612
356.24	44.707
356.60	43.625
356.96	42.800
357.32	44.317
357.68	43.386
358.04	42.835
358.40	43.943
358.77	42.723
359.13	42.857
359.49	42.980
359.85	41.667
360.21	43.541
360.57	43.424
360.93	42.308
361.29	43.386
361.66	42.028
362.02	42.090
362.38	43.726
362.74	42.560
363.10	43.153
363.46	42.406
363.82	41.648
364.18	41.483
364.54	42.868
364.90	42.564
365.26	42.500
365.62	42.440
365.98	40.760
366.35	40.759
366.71	41.721
367.07	40.495
367.43	42.017
367.79	43.398
368.15	42.241
368.51	41.424
368.87	42.113
369.23	41.624
369.59	41.347
369.95	41.618
370.31	41.168
370.67	40.870
371.03	42.322
371.39	41.399
371.75	40.662
372.11	40.967
372.47	41.789
372.83	42.507
373.19	40.824
373.55	41.833
373.91	41.458
374.27	41.306
374.63	40.364
374.99	41.031
375.35	39.707
375.71	40.233
376.07	41.701
376.42	40.922
376.78	40.822
377.14	40.366
377.50	40.861
377.86	39.694
378.22	38.938
378.58	38.784
378.94	39.849
379.30	40.776
379.66	41.624
380.02	41.032
380.38	38.859
380.74	40.516
381.09	40.648
381.45	40.258
381.81	38.943
382.17	39.554
382.53	39.560
382.89	40.494
383.25	39.525
383.61	38.786
383.97	39.525
384.32	39.800
384.68	38.786
385.04	39.090
385.40	38.452
385.76	38.636
386.12	38.212
386.48	39.144
386.83	39.641
387.19	39.765
387.55	39.147
387.91	38.271
388.27	38.688
388.62	38.783
388.98	37.899
389.34	38.861
389.70	37.339
390.06	38.086
390.42	37.808
390.77	37.850
391.13	39.630
391.49	38.388
391.85	37.174
392.20	37.918
392.56	38.321
392.92	38.376
393.28	37.988
393.64	38.549
393.99	37.569
394.35	37.841
394.71	38.206
395.07	37.445
395.42	38.072
395.78	37.977
396.14	36.996
396.50	38.095
396.85	37.317
397.21	36.498
397.57	37.136
397.92	37.320
398.28	37.444
398.64	37.037
399.00	37.717
399.35	35.871
399.71	36.979
400.07	36.192
400.42	36.012
400.78	36.912
401.14	37.073
401.49	37.910
401.85	35.572
402.21	35.808
402.57	36.706
402.92	37.453
403.28	37.227
403.63	36.881
403.99	36.624
404.35	36.545
404.70	36.691
405.06	35.760
405.42	35.870
405.77	35.771
406.13	34.876
406.49	36.251
406.84	36.385
407.20	35.638
407.55	35.354
407.91	37.400
408.27	36.184
408.62	36.183
408.98	35.600
409.34	35.486
409.69	37.806
410.05	36.307
410.40	36.269
410.76	35.962
411.11	36.852
411.47	35.655
411.83	35.308
412.18	34.941
412.54	35.367
412.89	35.542
413.25	35.301
413.60	35.948
413.96	34.001
414.31	35.601
414.67	35.678
415.03	36.159
415.38	35.116
415.74	34.662
416.09	35.924
416.45	34.672
416.80	35.823
417.16	36.193
417.51	35.899
417.87	36.159
418.22	36.215
418.58	36.023
418.93	35.995
419.29	35.646
419.64	34.824
420.00	34.573
420.35	34.957
420.71	35.684
421.06	35.561
421.42	35.731
421.77	36.379
422.12	35.430
422.48	34.700
422.83	36.575
423.19	36.022
423.54	35.636
423.90	35.420
424.25	35.176
424.61	35.000
424.96	35.510
425.31	35.659
425.67	35.056
426.02	34.971
426.38	36.203
426.73	34.289
427.09	35.745
427.44	35.825
427.79	35.020
428.15	35.238
428.50	36.337
428.85	35.697
429.21	35.229
429.56	35.874
429.92	35.229
430.27	34.608
430.62	35.228
430.98	35.444
431.33	35.876
431.68	36.492
432.04	35.517
432.39	35.637
432.74	35.966
433.10	36.276
433.45	35.627
433.80	36.308
434.16	36.378
434.51	35.789
434.86	36.374
435.22	37.132
435.57	36.353
435.92	36.454
436.28	36.536
436.63	37.693
436.98	36.749
437.34	38.044
437.69	37.981
438.04	37.381
438.39	37.313
438.75	37.478
439.10	37.486
439.45	36.541
439.81	37.221
440.16	37.436
440.51	37.786
440.86	37.695
441.22	37.264
441.57	37.473
441.92	38.025
442.27	37.944
442.63	37.915
442.98	39.211
443.33	37.663
443.68	38.668
444.03	37.628
444.39	38.023
444.74	39.340
445.09	38.868
445.44	38.054
445.79	38.347
446.15	38.751
446.50	39.095
446.85	39.671
447.20	39.521
447.55	39.587
447.91	39.051
448.26	38.898
448.61	40.305
448.96	39.701
449.31	40.101
449.66	39.674
450.02	40.167
450.37	40.703
450.72	39.199
451.07	39.549
451.42	40.000
451.77	41.456
452.12	40.185
452.47	40.485
452.83	40.909
453.18	39.914
453.53	41.806
453.88	40.343
454.23	41.004
454.58	42.035
454.93	42.276
455.28	40.711
455.63	42.354
455.98	42.083
456.34	41.709
456.69	42.204
457.04	42.229
457.39	41.964
457.74	41.730
458.09	41.921
458.44	42.531
458.79	41.432
459.14	42.156
459.49	43.024
459.84	42.715
460.19	42.840
460.54	42.766
460.89	42.293
461.24	44.141
461.59	43.986
461.94	43.033
462.29	43.561
462.64	43.650
462.99	42.941
463.34	43.933
463.69	43.340
464.04	42.609
464.39	42.725
464.74	43.197
465.09	42.943
465.44	44.044
465.79	43.065
466.14	43.131
466.49	42.770
466.84	43.024
467.19	43.331
467.54	44.000
467.89	43.758
468.24	43.572
468.59	44.811
468.94	43.861
469.29	44.987
469.64	44.846
469.99	45.737
470.34	44.848
470.68	44.899
471.03	44.830
471.38	46.074
471.73	44.837
472.08	45.789
472.43	44.849
472.78	45.425
473.13	45.828
473.48	46.255
473.83	46.098
474.17	45.613
474.52	46.216
474.87	44.950
475.22	44.922
475.57	45.191
475.92	45.884
476.27	45.885
476.61	45.450
476.96	46.619
477.31	45.317
477.66	46.608
478.01	45.374
478.36	46.430
478.70	46.158
479.05	46.113
479.40	46.162
479.75	46.518
480.10	45.527
480.45	45.169
480.79	45.485
481.14	46.086
481.49	46.369
481.84	45.770
482.19	46.252
482.53	45.321
482.88	46.347
483.23	47.150
483.58	46.087
483.92	47.188
484.27	45.011
484.62	45.905
484.97	45.329
485.31	45.753
485.66	43.584
486.01	43.183
486.36	42.878
486.70	42.441
487.05	44.069
487.40	43.769
487.75	44.606
488.09	45.011
488.44	45.297
488.79	46.438
489.13	47.135
489.48	46.533
489.83	46.871
490.17	47.698
490.52	48.273
490.87	47.987
491.22	48.067
491.56	46.606
491.91	48.953
492.26	47.405
492.60	47.880
492.95	47.848
493.30	48.364
493.64	48.063
493.99	48.143
494.34	48.566
494.68	50.092
495.03	49.013
495.37	47.510
495.72	48.879
496.07	50.116
496.41	47.876
496.76	48.725
497.11	49.437
497.45	49.138
497.80	50.000
498.14	49.903
498.49	50.049
498.84	49.137
499.18	49.524
499.53	49.858
499.87	48.649
500.22	48.752
500.56	50.243
500.91	50.000
501.26	50.356
501.60	51.068
501.95	48.992
502.29	49.203
502.64	50.512
502.98	50.070
503.33	50.183
503.67	49.559
504.02	49.953
504.36	49.789
504.71	51.441
505.06	50.747
505.40	51.823
505.75	50.338
506.09	50.292
506.44	51.307
506.78	51.827
507.13	52.448
507.47	52.172
507.82	51.925
508.16	52.685
508.51	53.323
508.85	51.192
509.19	52.653
509.54	51.071
509.88	51.468
510.23	51.979
510.57	52.993
510.92	52.771
511.26	51.696
511.61	52.386
511.95	51.827
512.30	52.280
512.64	51.961
512.98	53.591
513.33	53.266
513.67	52.935
514.02	54.275
514.36	53.140
514.70	52.684
515.05	53.653
515.39	54.964
515.74	54.448
516.08	54.723
516.42	54.384
516.77	55.686
517.11	53.385
517.46	54.740
517.80	56.678
518.14	54.951
518.49	56.126
518.83	54.943
519.17	55.831
519.52	54.556
519.86	55.163
520.20	55.607
520.55	55.416
520.89	57.056
521.23	56.695
521.58	55.582
521.92	55.603
522.26	54.728
522.61	57.321
522.95	56.538
523.29	56.665
523.64	57.439
523.98	57.733
524.32	57.177
524.66	56.164
525.01	55.515
525.35	56.196
525.69	56.034
526.04	57.445
526.38	57.169
526.72	56.626
527.06	58.004
527.41	55.879
527.75	58.071
528.09	57.290
528.43	58.190
528.78	57.837
529.12	57.758
529.46	58.175
529.80	59.158
530.15	58.754
530.49	56.554
530.83	59.620
531.17	58.812
531.51	58.301
531.86	58.903
532.20	60.561
532.54	58.040
532.88	58.922
533.22	57.027
533.57	57.222
533.91	56.773
534.25	56.258
534.59	58.816
534.93	57.525
535.27	57.272
535.62	57.937
535.96	59.448
536.30	57.661
536.64	58.983
536.98	59.390
537.32	57.275
537.66	59.667
538.01	59.842
538.35	58.888
538.69	58.902
539.03	58.739
539.37	58.403
539.71	58.004
540.05	60.196
540.39	58.538
540.73	59.961
541.07	58.469
541.42	59.295
541.76	59.161
542.10	60.285
542.44	60.397
542.78	60.145
543.12	57.326
543.46	58.623
543.80	60.703
544.14	58.922
544.48	59.492
544.82	59.974
545.16	60.182
545.50	59.897
545.84	59.812
546.18	59.798
546.52	61.803
546.86	61.237
547.20	60.013
547.54	59.452
547.88	60.204
548.22	58.717
548.56	59.748
548.90	61.012
549.24	60.135
549.58	61.733
549.92	61.195
550.26	61.932
550.60	61.134
550.94	62.254
551.28	62.034
551.62	62.185
551.96	59.439
552.30	62.116
552.64	62.407
552.98	62.712
553.32	61.699
553.66	61.213
554.00	63.075
554.34	60.594
554.68	63.162
555.02	61.989
555.36	61.865
555.69	61.570
556.03	61.709
556.37	63.165
556.71	61.187
557.05	63.165
557.39	62.491
557.73	63.444
558.07	65.410
558.41	62.808
558.75	63.189
559.08	63.236
559.42	63.946
559.76	63.676
560.10	63.169
560.44	63.452
560.78	61.810
561.12	62.929
561.45	62.321
561.79	62.162
562.13	63.649
562.47	65.096
562.81	63.738
563.15	61.672
563.48	62.334
563.82	63.014
564.16	62.067
564.50	64.453
564.84	61.568
565.17	63.320
565.51	63.514
565.85	63.135
566.19	62.179
566.52	63.458
566.86	62.387
567.20	63.797
567.54	62.614
567.88	61.325
568.21	60.899
568.55	61.527
568.89	60.554
569.23	60.472
569.56	58.745
569.90	59.170
570.24	58.593
570.57	58.892
570.91	56.852
571.25	57.443
571.59	56.878
571.92	56.999
572.26	57.423
572.60	57.658
572.93	56.942
573.27	57.350
573.61	57.175
573.95	57.209
574.28	57.286
574.62	56.608
574.96	56.081
575.29	56.523
575.63	56.098
575.97	56.730
576.30	56.665
576.64	56.912
576.98	57.365
577.31	57.232
577.65	56.091
577.98	56.333
578.32	55.381
578.66	56.541
578.99	55.900
579.33	56.863
579.67	56.847
580.00	57.420
580.34	57.499
580.67	56.322
581.01	58.039
581.35	57.435
581.68	56.686
582.02	56.218
582.35	57.016
582.69	57.438
583.02	58.192
583.36	58.589
583.70	58.766
584.03	58.359
584.37	58.445
584.70	59.613
585.04	58.072
585.37	58.248
585.71	58.036
586.04	59.193
586.38	59.431
586.72	60.453
587.05	59.250
587.39	59.103
587.72	59.366
588.06	59.925
588.39	60.137
588.73	59.754
589.06	60.330
589.40	61.414
589.73	61.739
590.07	62.384
590.40	61.162
590.73	62.998
591.07	63.736
591.40	63.349
591.74	63.766
592.07	63.264
592.41	63.497
592.74	62.659
593.08	61.659
593.41	61.942
593.75	60.962
594.08	62.018
594.41	63.061
594.75	63.253
595.08	62.097
595.42	62.872
595.75	63.319
596.09	63.988
596.42	63.654
596.75	63.402
597.09	63.939
597.42	63.111
597.75	64.122
598.09	63.826
598.42	64.089
598.76	64.005
599.09	63.284
599.42	63.537
599.76	63.763
600.09	63.060
600.42	63.221
600.76	63.321
601.09	63.352
601.42	64.193
601.76	64.440
602.09	63.992
602.42	63.854
602.76	64.692
603.09	64.831
603.42	65.560
603.76	63.529
604.09	65.491
604.42	65.756
604.76	65.247
605.09	65.662
605.42	65.113
605.75	64.735
606.09	64.986
606.42	65.836
606.75	65.533
607.09	64.504
607.42	66.025
607.75	64.557
608.08	65.002
608.42	65.666
608.75	64.743
609.08	66.327
609.41	66.207
609.75	66.222
610.08	67.107
610.41	65.829
610.74	66.793
611.07	68.231
611.41	67.566
611.74	68.074
612.07	69.203
612.40	69.780
612.73	67.211
613.07	69.450
613.40	68.562
613.73	67.278
614.06	68.280
614.39	68.170
614.72	67.000
615.06	68.382
615.39	68.471
615.72	67.894
616.05	67.677
616.38	69.705
616.71	70.962
617.05	70.612
617.38	68.791
617.71	70.511
618.04	71.094
618.37	71.437
618.70	72.371
619.03	70.461
619.36	71.826
619.69	73.592
620.03	72.596
620.36	71.925
620.69	73.630
621.02	74.410
621.35	73.688
621.68	72.897
622.01	73.375
622.34	73.298
622.67	74.601
623.00	71.974
623.33	72.552
623.66	73.195
623.99	74.080
624.32	73.039
624.65	74.435
624.99	72.167
625.32	75.018
625.65	74.981
625.98	74.789
626.31	75.505
626.64	74.612
626.97	75.395
627.30	75.727
627.63	75.062
627.96	76.114
628.29	76.640
628.62	77.493
628.95	78.491
629.28	76.642
629.61	78.368
629.94	78.476
630.26	77.884
630.59	78.074
630.92	78.065
631.25	78.875
631.58	79.680
631.91	80.730
632.24	78.692
632.57	78.804
632.90	82.018
633.23	81.879
633.56	83.390
633.89	83.692
634.22	81.952
634.55	85.207
634.88	85.030
635.20	85.544
635.53	83.012
635.86	86.139
636.19	81.529
636.52	82.238
636.85	82.932
637.18	82.258
637.51	83.097
637.83	81.504
638.16	86.317
638.49	85.264
638.82	85.209
639.15	85.250
639.48	83.167
639.81	84.182
640.13	85.156
640.46	85.906
640.79	84.676
641.12	82.256
641.45	84.497
641.77	89.543
642.10	88.012
642.43	87.688
642.76	88.854
643.09	89.724
643.41	86.798
643.74	89.198
644.07	86.585
644.40	90.184
644.73	90.079
645.05	88.906
645.38	88.310
645.71	87.923
646.04	90.698
646.36	93.155
646.69	89.632
647.02	92.347
647.35	91.237
647.67	93.451
648.00	89.106
648.33	90.594
648.66	85.455
648.98	87.106
649.31	88.191
649.64	88.939
649.96	85.693
650.29	86.730
650.62	88.188
650.94	86.062
651.27	90.203
651.60	90.349
651.92	87.700
652.25	87.948
652.58	88.162
652.90	89.100
653.23	83.975
653.56	87.087
653.88	87.005
654.21	88.468
654.54	88.119
654.86	88.162
655.19	82.838
655.52	65.571
655.84	60.387
656.17	75.546
656.49	98.023
656.82	98.413
657.15	75.577
657.47	56.186
657.80	43.244
658.13	44.266
658.45	66.090
658.78	66.791
659.10	66.913
659.43	68.958
659.75	69.808
660.08	74.304
660.41	81.285
660.73	83.863
661.06	84.076
661.38	92.909
661.71	90.769
662.03	94.083
662.36	89.264
662.68	90.964
663.01	92.929
663.33	95.966
663.66	94.958
663.98	96.544
664.31	93.697
664.63	91.700
664.96	88.934
665.28	94.057
665.61	91.423
665.93	89.940
666.26	91.481
666.58	94.979
666.91	96.195
667.23	93.258
667.56	92.657
667.88	93.162
668.21	94.456
668.53	95.011
668.86	92.857
669.18	92.751
669.50	96.087
669.83	94.118
670.15	97.111
670.48	96.950
670.80	93.750
671.13	95.966
671.45	92.128
671.77	93.686
672.10	89.834
672.42	86.926
672.75	86.567
673.07	87.676
673.39	89.512
673.72	92.578
674.04	88.824
674.37	89.126
674.69	91.207
675.01	90.795
675.34	92.608
675.66	94.737
675.98	92.464
676.31	92.227
676.63	93.206
676.95	92.243
677.28	99.299
677.60	93.846
677.92	94.937
678.25	88.706
678.57	94.024
678.89	91.383
679.22	90.766
679.54	85.305
679.86	89.541
680.18	88.372
680.51	89.007
680.83	87.722
681.15	88.113
681.48	88.658
681.80	92.843
682.12	88.123
682.44	86.654
682.77	91.853
683.09	94.421
683.41	93.126
683.73	94.923
684.06	94.215
684.38	88.454
684.70	90.504
685.02	85.929
685.34	86.447
685.67	88.287
685.99	84.880
686.31	86.519
686.63	85.689
686.96	85.536
687.28	85.921
687.60	85.145
687.92	87.569
688.24	88.593
688.56	89.357
688.89	89.419
689.21	95.633
689.53	86.221
689.85	93.348
690.17	86.335
690.49	90.658
690.82	94.626
691.14	93.973
691.46	86.920
691.78	86.948
692.10	91.116
692.42	87.824
692.74	90.249
693.06	89.787
693.39	86.858
693.71	91.048
694.03	87.368
694.35	89.177
694.67	89.016
694.99	93.659
695.31	94.118
695.63	92.344
695.95	94.866
696.27	96.193
696.59	92.228
696.91	94.301
697.23	86.854
697.56	86.354
697.88	84.458
698.20	86.667
698.52	86.022
698.84	90.423
699.16	91.244
699.48	89.311
699.80	91.063
700.12	98.701
700.44	94.695
700.76	95.028
701.08	94.828
701.40	94.413
701.72	97.668
702.04	102.557
702.36	92.351
702.68	94.051
703.00	92.244
703.32	88.032
703.64	92.761
703.96	92.479
704.28	95.640
704.60	99.120
704.91	94.065
705.23	94.428
705.55	104.319
705.87	102.990
706.19	100.353
706.51	97.196
706.83	93.636
707.15	93.277
707.47	90.152
707.79	92.138
708.11	88.813
708.43	88.095
708.74	90.306
709.06	92.727
709.38	90.026
709.70	95.640
710.02	96.736
710.34	95.455
710.66	91.642
710.98	96.591
711.29	91.279
711.61	94.985
711.93	95.192
712.25	96.785
712.57	110.662
712.89	98.270
713.20	87.842
713.52	100.000
713.84	94.620
714.16	92.988
714.48	88.506
714.80	96.353
715.11	92.795
715.43	94.065
715.75	95.072
716.07	97.764
716.39	93.417
716.70	94.020
717.02	96.763
717.34	97.527
717.66	100.000
717.97	103.586
718.29	97.407
718.61	101.095
718.93	101.103
719.24	94.810
719.56	92.203
719.88	100.000
720.20	93.581
720.51	98.606
720.83	102.602
721.15	90.672
721.46	94.326
721.78	96.774
722.10	95.472
722.42	96.241
722.73	100.375
723.05	100.000
723.37	97.166
723.68	95.753
724.00	96.748
724.32	100.000
724.63	102.033
724.95	101.255
725.27	104.049
725.58	100.391
725.90	95.985
726.22	96.226
726.53	92.708
726.85	92.491
727.16	94.306
727.48	91.135
727.80	93.561
728.11	84.420
728.43	94.231
728.74	94.265
729.06	96.350
729.38	96.691
729.69	96.441
730.01	85.666
730.32	91.319
730.64	88.294
730.96	88.449
731.27	89.735
731.59	90.520
731.90	84.548
732.22	88.820
732.53	87.926
732.85	85.256
733.16	90.354
733.48	90.033
733.80	87.338
734.11	89.172
734.43	86.982
734.74	83.714
735.06	81.948
735.37	87.283
735.69	90.127
736.00	92.484
736.32	86.293
736.63	86.581
736.95	86.262
737.26	84.354
737.58	86.774
737.89	83.946
738.21	90.785
738.52	84.286
738.83	86.038
739.15	89.615
739.46	93.066
739.78	89.236
740.09	85.231
740.41	88.387
740.72	86.063
741.04	92.222
741.35	94.583
741.66	100.000
741.98	93.396
742.29	101.914
742.61	96.121
742.92	98.190
743.23	95.299
743.55	91.600
743.86	101.316
744.18	100.885
744.49	106.220
744.80	105.164
745.12	102.273
745.43	96.476
745.74	105.405
746.06	100.917
746.37	95.516
746.68	97.285
747.00	98.148
747.31	100.000
747.62	96.903
747.94	92.952
748.25	91.915
748.56	94.714
748.88	101.485
749.19	108.000
749.50	106.977
749.82	92.683
750.13	92.245
750.44	87.591
750.75	90.877
751.07	85.209
751.38	88.850
751.69	89.531
752.01	87.970
752.32	87.004
752.63	88.298
752.94	92.213
753.26	94.000
753.57	92.683
753.88	93.750
754.19	90.357
754.51	91.319
754.82	89.531
755.13	87.170
755.44	88.346
755.75	86.496
756.07	89.007
756.38	84.307
756.69	86.913
757.00	78.144
757.31	79.525
757.63	80.409
757.94	80.429
758.25	78.431
758.56	75.309
758.87	79.839
759.18	83.939
759.50	79.937
759.81	84.112
760.12	82.812
760.43	85.100
760.74	78.533
761.05	81.921
761.36	81.551
761.67	84.375
761.99	82.609
762.30	86.458
762.61	88.550
762.92	85.938
763.23	91.597
763.54	87.600
763.85	88.672
764.16	91.923
764.47	88.973
764.78	86.219
765.10	77.532
765.41	84.366
765.72	82.934
766.03	81.191
766.34	81.000
766.65	102.553
766.96	89.744
767.27	99.492
767.58	94.792
767.89	95.263
768.20	106.897
768.51	96.447
768.82	94.954
769.13	87.398
769.44	82.186
769.75	94.421
770.06	86.697
770.37	95.928
770.68	89.352
770.99	91.556
771.30	84.016
771.61	89.238
771.92	85.246
772.23	90.756
772.54	91.795
772.85	97.382
773.16	91.489
773.47	98.370
773.78	87.310
774.09	94.643
774.39	96.491
774.70	96.296
775.01	112.319
775.32	95.425
775.63	95.395
775.94	92.086
776.25	118.110
776.56	100.000
776.87	113.115
777.18	107.813
777.48	106.107
777.79	104.545
778.10	106.667
778.41	112.500
778.72	94.161
779.03	99.329
779.34	95.973
779.65	102.703
779.95	92.025
780.26	101.307
780.57	95.862
780.88	110.156
781.19	106.767
781.50	102.027
781.80	101.258
782.11	88.136
782.42	98.101
782.73	89.571
783.04	95.946
783.34	92.958
783.65	101.370
783.96	106.716
784.27	102.797
784.57	95.683
784.88	113.889
785.19	100.000
785.50	115.094
785.81	106.716
786.11	109.016
786.42	100.000
786.73	101.770
787.04	108.491
787.34	104.464
787.65	120.000
787.96	103.604
788.26	102.479
788.57	116.102
788.88	119.008
789.19	87.500
789.49	100.000
789.80	93.893
790.11	119.048
790.41	116.832
790.72	122.892
791.03	121.739
791.33	124.419
791.64	119.588
791.95	113.861
792.25	123.333
792.56	129.870
792.87	146.154
793.17	117.722
793.48	129.885
793.79	114.943
794.09	121.591
794.40	105.882
794.70	97.794
795.01	94.074
795.32	88.489
795.62	91.339
795.93	106.897
796.23	100.885
796.54	125.882
796.85	120.270
797.15	142.254
797.46	142.424
797.76	112.048
798.07	118.987
798.37	132.308
798.68	124.242
798.99	114.085
799.29	123.377
799.60	95.455
799.90	131.507
800.21	146.269
800.51	156.897
800.82	147.368
801.12	131.148
801.43	143.939
801.73	113.514
802.04	146.032
802.34	122.222
802.65	137.500
802.95	144.068
803.26	145.313
803.56	121.429
803.87	107.692
804.17	135.294
804.48	151.852
804.78	131.034
805.09	129.412
805.39	146.154
805.70	142.857
806.00	152.459
806.30	103.030
806.61	130.488
806.91	110.127
807.22	114.474
807.52	113.433
807.83	116.901
808.13	146.875
808.43	126.667
808.74	107.895
809.04	142.029
809.35	140.299
809.65	106.579
809.95	130.645
810.26	135.593
810.56	123.810
810.86	168.182
811.17	188.095
811.47	131.667
811.77	140.741
812.08	132.727
812.38	152.000
812.69	200.000
812.99	175.000
813.29	155.102
813.59	133.333
813.90	175.510
814.20	140.000
814.50	112.308
814.81	116.176
815.11	153.061
815.41	124.590
815.72	171.429
816.02	136.364
816.32	147.619
816.62	160.000
816.93	168.293
817.23	197.619
817.53	168.182
817.84	215.152
818.14	145.652
818.44	160.000
818.74	176.471
819.04	160.000
819.35	191.429
819.65	182.353
819.95	253.571
820.25	275.000
820.56	194.872
820.86	134.091
821.16	172.093
821.46	171.795
821.76	166.000
822.07	194.286
822.37	165.000
822.67	172.727
822.97	125.490
823.27	260.714
823.57	178.378
823.88	187.500
824.18	223.333
824.48	171.429
824.78	232.000
825.08	212.500
825.38	162.162
825.69	148.780
825.99	250.000
826.29	189.655
826.59	155.263
826.89	173.684
827.19	188.235
827.49	206.452
827.79	170.455
828.09	152.273
828.39	144.681
828.70	114.286
829.00	185.185
829.30	177.419
829.60	155.000
829.90	320.000
830.20	185.714
830.50	182.609
830.80	243.478
831.10	230.000
831.40	206.667
831.70	186.957
832.00	234.615
832.30	229.630
832.60	350.000
832.90	213.333
833.20	335.714
833.50	183.871
833.80	155.172
834.10	200.000
834.40	234.615
834.70	211.111
835.00	257.143
835.30	157.143
835.60	323.077
835.90	231.034
836.20	321.429
836.50	210.345
836.80	204.000
837.10	180.556
837.40	300.000
837.70	305.882
838.00	200.000
838.30	171.429
838.60	261.905
838.90	234.615
839.19	295.000
839.49	321.429
839.79	285.000
840.09	240.000
840.39	295.238
840.69	226.087
840.99	305.556
841.29	490.000
841.59	350.000
841.88	343.750
842.18	162.069
842.48	295.238
842.78	196.667
843.08	260.870
843.38	159.375
843.68	650.000
843.97	184.615
844.27	196.552
844.57	280.952
844.87	331.250
845.17	196.296
845.47	1433.333
845.76	511.111
846.06	270.588
846.36	362.500
846.66	307.143
846.96	337.500
847.25	372.727
847.55	409.091
847.85	247.826
848.15	490.000
848.44	285.714
848.74	244.444
849.04	252.941
849.34	460.000
849.63	252.632
849.93	327.273
850.23	840.000
850.53	371.429
850.82	1850.000
851.12	-3800.000
851.42	4000.000
851.71	265.000
852.01	-1066.667
852.31	216.667
852.61	1766.667
852.90	219.048
853.20	172.000
853.50	300.000
853.79	266.667
854.09	187.500
854.39	293.750
854.68	156.757
854.98	161.290
855.28	136.667
855.57	196.552
855.87	188.889
856.17	226.316
856.46	320.000
856.76	252.941
857.05	175.862
857.35	245.833
857.65	240.000
857.94	195.652
858.24	184.615
858.53	305.000
858.83	195.455
859.13	300.000
859.42	0.000
859.72	411.111
860.01	363.636
860.31	254.545
860.60	247.368
860.90	191.304
861.20	444.444
861.49	450.000
861.79	-2800.000
862.08	562.500
862.38	228.571
862.67	276.923
862.97	252.941
863.26	411.111
863.56	277.778
863.85	308.333
864.15	487.500
864.44	260.000
864.74	733.333
865.03	612.500
865.33	200.000
865.62	409.091
865.92	407.692
866.21	275.000
866.51	0.000
866.80	445.455
867.10	1160.000
867.39	361.538
867.69	318.182
867.98	215.789
868.27	327.273
868.57	252.632
868.86	-3100.000
869.16	331.250
869.45	1750.000
869.75	-2900.000
870.04	383.333
870.33	571.429
870.63	850.000
870.92	2000.000
871.22	700.000
871.51	252.941
871.80	223.810
872.10	292.857
>>>>>End Processed Spectral Data<<<<<
