SpectraSuite Data File
++++++++++++++++++++++++++++++++++++
Date: Wed May 13 21:01:56 PDT 2015
User: schluterlab
Dark Spectrum Present: Yes
Reference Spectrum Present: Yes
Number of Sampled Component Spectra: 1
Spectrometers: USB2E3373
Integration Time (usec): 3000 (USB2E3373)
Spectra Averaged: 3 (USB2E3373)
Boxcar Smoothing: 0 (USB2E3373)
Correct for Electrical Dark: No (USB2E3373)
Strobe/Lamp Enabled: No (USB2E3373)
Correct for Detector Non-linearity: No (USB2E3373)
Correct for Stray Light: No (USB2E3373)
Number of Pixels in Processed Spectrum: 2048
>>>>>Begin Processed Spectral Data<<<<<
178.53	0.000
178.91	-100.000
179.29	75.000
179.67	-150.000
180.04	-33.333
180.42	140.000
180.80	500.000
181.18	150.000
181.56	-450.000
181.94	0.000
182.31	0.000
182.69	84.615
183.07	0.000
183.45	233.333
183.83	100.000
184.20	14.286
184.58	200.000
184.96	100.000
185.34	-42.857
185.72	0.000
186.09	800.000
186.47	160.000
186.85	40.000
187.23	250.000
187.61	-150.000
187.98	-200.000
188.36	100.000
188.74	0.000
189.12	81.818
189.49	110.000
189.87	41.667
190.25	240.000
190.63	-700.000
191.00	120.000
191.38	60.000
191.76	125.000
192.14	-25.000
192.51	21.053
192.89	266.667
193.27	150.000
193.65	-220.000
194.02	9.091
194.40	100.000
194.78	-600.000
195.15	160.000
195.53	-120.000
195.91	100.000
196.29	-33.333
196.66	0.000
197.04	150.000
197.42	80.000
197.79	50.000
198.17	-75.000
198.55	100.000
198.92	200.000
199.30	-166.667
199.68	10.000
200.05	-250.000
200.43	200.000
200.81	-700.000
201.18	20.000
201.56	66.667
201.94	325.000
202.31	26.087
202.69	71.429
203.07	-200.000
203.44	-120.000
203.82	-366.667
204.19	30.000
204.57	0.000
204.95	66.667
205.32	0.000
205.70	450.000
206.08	-75.000
206.45	33.333
206.83	225.000
207.20	-100.000
207.58	10.000
207.96	-1400.000
208.33	-185.714
208.71	-800.000
209.08	-0.000
209.46	400.000
209.84	0.000
210.21	140.000
210.59	900.000
210.96	-0.000
211.34	400.000
211.71	-450.000
212.09	-16.667
212.46	-70.000
212.84	-33.333
213.22	-100.000
213.59	200.000
213.97	-500.000
214.34	-500.000
214.72	46.154
215.09	62.500
215.47	133.333
215.84	800.000
216.22	-100.000
216.59	-350.000
216.97	666.667
217.34	55.556
217.72	0.000
218.09	-66.667
218.47	500.000
218.84	114.286
219.22	12.500
219.59	33.333
219.97	0.000
220.34	-12.500
220.72	60.000
221.09	0.000
221.47	-116.667
221.84	300.000
222.22	0.000
222.59	800.000
222.97	33.333
223.34	-8.333
223.72	-1000.000
224.09	0.000
224.46	-45.455
224.84	0.000
225.21	-114.286
225.59	-25.000
225.96	-50.000
226.34	50.000
226.71	0.000
227.08	400.000
227.46	0.000
227.83	400.000
228.21	-18.750
228.58	-175.000
228.95	-35.294
229.33	81.250
229.70	-25.000
230.08	38.462
230.45	37.500
230.82	0.000
231.20	14.286
231.57	-125.000
231.95	300.000
232.32	16.667
232.69	11.765
233.07	-1100.000
233.44	-13.043
233.81	100.000
234.19	16.667
234.56	20.000
234.93	-20.000
235.31	10.526
235.68	-69.231
236.05	-7.692
236.43	22.222
236.80	24.242
237.17	-13.333
237.55	23.529
237.92	17.241
238.29	-3.704
238.67	16.667
239.04	25.806
239.41	27.660
239.79	51.064
240.16	37.209
240.53	28.571
240.91	33.929
241.28	23.214
241.65	22.581
242.02	22.368
242.40	42.029
242.77	36.232
243.14	26.923
243.51	36.170
243.89	32.692
244.26	45.283
244.63	28.846
245.00	42.708
245.38	35.294
245.75	28.689
246.12	28.571
246.49	24.390
246.87	16.807
247.24	31.757
247.61	28.477
247.98	30.128
248.36	32.544
248.73	33.146
249.10	25.758
249.47	33.871
249.84	23.684
250.22	38.806
250.59	25.234
250.96	33.182
251.33	27.751
251.70	36.402
252.08	34.728
252.45	35.391
252.82	31.179
253.19	28.016
253.56	33.813
253.94	34.520
254.31	33.451
254.68	28.859
255.05	36.634
255.42	30.070
255.79	29.755
256.16	31.861
256.54	34.603
256.91	31.646
257.28	34.277
257.65	31.529
258.02	33.724
258.39	34.211
258.76	27.326
259.14	30.114
259.51	33.708
259.88	33.604
260.25	32.500
260.62	31.461
260.99	35.544
261.36	31.865
261.73	32.840
262.10	29.771
262.47	29.136
262.85	27.861
263.22	32.821
263.59	30.390
263.96	28.954
264.33	30.769
264.70	30.465
265.07	31.250
265.44	35.632
265.81	32.265
266.18	31.435
266.55	31.223
266.92	32.415
267.29	29.835
267.66	33.121
268.03	31.481
268.40	34.322
268.77	29.959
269.14	33.265
269.51	32.649
269.88	31.365
270.25	36.229
270.62	30.328
270.99	31.890
271.36	31.548
271.73	32.129
272.10	32.000
272.47	31.478
272.84	31.102
273.21	29.550
273.58	32.992
273.95	30.189
274.32	32.090
274.69	32.240
275.06	34.806
275.43	27.307
275.80	29.787
276.17	32.597
276.54	30.551
276.91	30.488
277.28	29.422
277.65	31.469
278.02	32.500
278.39	30.728
278.76	29.933
279.13	27.616
279.50	30.862
279.87	29.529
280.23	32.793
280.60	28.893
280.97	30.032
281.34	29.022
281.71	29.593
282.08	29.402
282.45	31.311
282.82	30.192
283.19	32.012
283.56	29.375
283.92	30.428
284.29	29.329
284.66	28.666
285.03	29.479
285.40	28.701
285.77	29.279
286.14	30.243
286.51	30.135
286.87	29.231
287.24	28.171
287.61	30.271
287.98	28.382
288.35	28.018
288.72	28.551
289.08	29.202
289.45	27.460
289.82	29.198
290.19	29.032
290.56	27.699
290.93	26.105
291.29	26.129
291.66	27.869
292.03	26.975
292.40	24.899
292.77	25.703
293.13	26.220
293.50	27.190
293.87	25.600
294.24	25.794
294.60	25.618
294.97	25.926
295.34	24.011
295.71	23.784
296.08	23.953
296.44	25.765
296.81	24.482
297.18	24.875
297.55	24.175
297.91	23.602
298.28	23.850
298.65	23.522
299.02	26.374
299.38	24.540
299.75	24.880
300.12	21.977
300.48	22.807
300.85	21.824
301.22	23.345
301.59	22.535
301.95	21.951
302.32	22.287
302.69	22.486
303.05	21.927
303.42	23.977
303.79	23.449
304.15	22.892
304.52	25.591
304.89	23.256
305.25	20.417
305.62	21.800
305.99	22.416
306.35	23.824
306.72	23.296
307.09	21.898
307.45	23.110
307.82	22.316
308.19	22.048
308.55	21.494
308.92	22.790
309.29	22.823
309.65	21.479
310.02	22.068
310.38	22.358
310.75	21.696
311.12	21.088
311.48	21.266
311.85	22.638
312.22	21.567
312.58	22.029
312.95	22.289
313.31	23.140
313.68	21.947
314.05	21.928
314.41	23.439
314.78	23.245
315.14	22.037
315.51	23.501
315.87	21.687
316.24	22.681
316.61	22.740
316.97	21.389
317.34	22.193
317.70	23.104
318.07	22.715
318.43	23.397
318.80	22.077
319.16	22.900
319.53	23.746
319.89	22.945
320.26	24.122
320.62	23.355
320.99	22.965
321.35	22.170
321.72	21.848
322.08	22.970
322.45	21.832
322.81	20.980
323.18	21.109
323.54	21.119
323.91	22.764
324.27	22.232
324.64	21.864
325.00	22.222
325.37	23.635
325.73	23.316
326.10	22.708
326.46	22.324
326.83	23.058
327.19	22.276
327.56	23.932
327.92	22.043
328.29	23.790
328.65	24.628
329.01	23.659
329.38	24.696
329.74	22.489
330.11	23.354
330.47	22.483
330.84	22.653
331.20	22.032
331.56	22.011
331.93	22.653
332.29	23.892
332.66	22.373
333.02	22.589
333.38	21.842
333.75	23.123
334.11	22.830
334.48	22.406
334.84	22.880
335.20	22.041
335.57	22.019
335.93	21.649
336.29	22.242
336.66	22.051
337.02	22.957
337.38	21.758
337.75	22.739
338.11	22.972
338.47	21.233
338.84	22.165
339.20	22.840
339.56	22.611
339.93	22.126
340.29	21.862
340.65	23.097
341.02	21.880
341.38	22.973
341.74	21.765
342.11	21.552
342.47	20.921
342.83	21.650
343.20	21.404
343.56	22.240
343.92	21.771
344.28	22.240
344.65	22.041
345.01	21.388
345.37	23.437
345.73	22.549
346.10	21.429
346.46	20.488
346.82	21.429
347.19	21.519
347.55	21.890
347.91	20.499
348.27	21.215
348.63	21.314
349.00	21.148
349.36	21.036
349.72	20.108
350.08	21.139
350.45	21.222
350.81	21.205
351.17	22.325
351.53	20.346
351.89	20.890
352.26	19.614
352.62	20.388
352.98	20.847
353.34	21.014
353.70	21.340
354.07	20.863
354.43	20.995
354.79	21.875
355.15	20.730
355.51	20.501
355.87	21.658
356.24	20.706
356.60	20.563
356.96	21.489
357.32	20.201
357.68	20.015
358.04	20.869
358.40	20.620
358.77	20.566
359.13	20.934
359.49	21.423
359.85	21.001
360.21	21.126
360.57	21.065
360.93	20.410
361.29	20.281
361.66	21.185
362.02	21.053
362.38	20.679
362.74	20.160
363.10	20.174
363.46	20.749
363.82	20.843
364.18	19.869
364.54	21.152
364.90	19.861
365.26	20.170
365.62	20.384
365.98	19.929
366.35	20.993
366.71	20.542
367.07	19.773
367.43	20.976
367.79	21.195
368.15	20.464
368.51	20.816
368.87	20.447
369.23	19.573
369.59	19.732
369.95	19.303
370.31	19.386
370.67	18.682
371.03	20.490
371.39	20.014
371.75	20.857
372.11	20.513
372.47	19.034
372.83	20.527
373.19	19.928
373.55	19.870
373.91	20.297
374.27	19.087
374.63	19.559
374.99	19.011
375.35	19.521
375.71	19.701
376.07	19.945
376.42	19.051
376.78	20.806
377.14	19.661
377.50	19.817
377.86	20.717
378.22	19.406
378.58	19.546
378.94	20.750
379.30	19.613
379.66	20.222
380.02	19.914
380.38	19.277
380.74	20.143
381.09	20.386
381.45	20.133
381.81	19.901
382.17	19.408
382.53	20.000
382.89	19.180
383.25	20.000
383.61	19.431
383.97	19.500
384.32	19.408
384.68	20.543
385.04	18.143
385.40	19.054
385.76	19.039
386.12	19.626
386.48	19.749
386.83	19.587
387.19	19.186
387.55	19.742
387.91	19.434
388.27	19.297
388.62	19.476
388.98	19.024
389.34	19.424
389.70	18.742
390.06	19.000
390.42	19.265
390.77	19.667
391.13	18.750
391.49	18.912
391.85	18.914
392.20	19.110
392.56	19.048
392.92	18.607
393.28	18.594
393.64	19.755
393.99	18.299
394.35	19.383
394.71	18.397
395.07	18.616
395.42	19.317
395.78	18.983
396.14	18.833
396.50	19.023
396.85	19.694
397.21	18.976
397.57	19.193
397.92	19.281
398.28	19.120
398.64	18.883
399.00	18.973
399.35	19.807
399.71	18.928
400.07	19.277
400.42	18.119
400.78	18.369
401.14	18.516
401.49	18.814
401.85	18.735
402.21	18.514
402.57	19.252
402.92	19.337
403.28	19.575
403.63	19.343
403.99	19.002
404.35	18.890
404.70	18.187
405.06	18.673
405.42	19.158
405.77	18.318
406.13	18.743
406.49	18.814
406.84	18.742
407.20	18.946
407.55	18.766
407.91	18.332
408.27	17.530
408.62	18.907
408.98	18.002
409.34	18.502
409.69	19.428
410.05	18.719
410.40	18.868
410.76	18.893
411.11	19.216
411.47	18.713
411.83	18.341
412.18	17.821
412.54	18.672
412.89	18.621
413.25	18.230
413.60	18.621
413.96	18.789
414.31	18.372
414.67	18.794
415.03	18.200
415.38	17.635
415.74	18.064
416.09	18.308
416.45	19.139
416.80	19.195
417.16	19.501
417.51	18.218
417.87	17.262
418.22	18.746
418.58	18.134
418.93	19.460
419.29	18.746
419.64	17.621
420.00	18.603
420.35	17.812
420.71	19.439
421.06	18.758
421.42	18.978
421.77	18.902
422.12	18.797
422.48	17.775
422.83	18.488
423.19	18.286
423.54	18.610
423.90	17.933
424.25	19.295
424.61	17.930
424.96	18.273
425.31	17.947
425.67	18.930
426.02	18.492
426.38	17.973
426.73	18.754
427.09	17.949
427.44	18.849
427.79	18.112
428.15	18.960
428.50	18.731
428.85	18.143
429.21	18.120
429.56	19.129
429.92	19.365
430.27	19.121
430.62	18.416
430.98	18.562
431.33	19.022
431.68	18.956
432.04	18.592
432.39	18.591
432.74	18.148
433.10	17.722
433.45	19.172
433.80	18.448
434.16	18.405
434.51	19.185
434.86	19.199
435.22	18.676
435.57	18.182
435.92	17.973
436.28	18.378
436.63	18.418
436.98	19.389
437.34	19.109
437.69	17.946
438.04	18.393
438.39	18.057
438.75	18.296
439.10	18.161
439.45	17.736
439.81	19.089
440.16	18.841
440.51	19.084
440.86	19.087
441.22	18.244
441.57	18.980
441.92	18.611
442.27	19.156
442.63	18.407
442.98	18.519
443.33	18.736
443.68	18.714
444.03	18.530
444.39	18.840
444.74	18.609
445.09	18.117
445.44	18.930
445.79	18.895
446.15	18.247
446.50	18.337
446.85	19.401
447.20	18.975
447.55	19.138
447.91	18.427
448.26	18.639
448.61	19.102
448.96	19.647
449.31	19.417
449.66	18.797
450.02	19.613
450.37	18.919
450.72	18.485
451.07	19.498
451.42	18.590
451.77	19.294
452.12	18.776
452.47	17.883
452.83	18.809
453.18	18.714
453.53	19.357
453.88	19.036
454.23	19.283
454.58	19.301
454.93	18.666
455.28	19.717
455.63	18.840
455.98	18.807
456.34	18.881
456.69	18.530
457.04	19.381
457.39	19.363
457.74	19.749
458.09	18.780
458.44	19.271
458.79	19.001
459.14	18.652
459.49	19.146
459.84	19.673
460.19	18.367
460.54	19.100
460.89	19.707
461.24	18.866
461.59	19.263
461.94	19.279
462.29	17.708
462.64	18.931
462.99	19.584
463.34	18.854
463.69	18.621
464.04	18.908
464.39	19.402
464.74	18.857
465.09	18.785
465.44	19.529
465.79	19.264
466.14	18.814
466.49	19.589
466.84	19.845
467.19	18.726
467.54	19.443
467.89	19.799
468.24	19.299
468.59	18.738
468.94	19.349
469.29	19.233
469.64	19.177
469.99	19.586
470.34	19.690
470.68	18.067
471.03	19.182
471.38	19.680
471.73	19.616
472.08	18.419
472.43	19.129
472.78	19.202
473.13	19.327
473.48	18.917
473.83	19.021
474.17	19.596
474.52	19.223
474.87	19.723
475.22	19.988
475.57	19.520
475.92	19.357
476.27	18.823
476.61	18.573
476.96	19.189
477.31	19.094
477.66	19.605
478.01	18.571
478.36	19.455
478.70	18.475
479.05	19.645
479.40	19.397
479.75	19.129
480.10	20.041
480.45	19.127
480.79	19.662
481.14	20.111
481.49	19.783
481.84	18.709
482.19	19.592
482.53	19.000
482.88	19.271
483.23	19.057
483.58	19.045
483.92	19.066
484.27	18.390
484.62	18.997
484.97	18.623
485.31	19.586
485.66	20.483
486.01	20.470
486.36	20.237
486.70	19.129
487.05	19.109
487.40	17.814
487.75	18.088
488.09	17.235
488.44	17.490
488.79	17.222
489.13	18.211
489.48	17.785
489.83	19.071
490.17	18.293
490.52	20.243
490.87	18.312
491.22	19.878
491.56	19.693
491.91	19.251
492.26	19.294
492.60	18.711
492.95	19.096
493.30	19.041
493.64	17.986
493.99	19.807
494.34	19.316
494.68	19.523
495.03	18.923
495.37	18.686
495.72	18.997
496.07	19.484
496.41	18.952
496.76	18.967
497.11	18.779
497.45	18.580
497.80	19.283
498.14	19.144
498.49	18.659
498.84	19.079
499.18	18.318
499.53	19.202
499.87	18.632
500.22	20.408
500.56	19.509
500.91	20.121
501.26	19.606
501.60	18.578
501.95	19.070
502.29	18.932
502.64	20.058
502.98	18.545
503.33	19.659
503.67	18.695
504.02	18.382
504.36	19.515
504.71	18.343
505.06	19.358
505.40	19.330
505.75	19.583
506.09	18.958
506.44	19.103
506.78	18.436
507.13	18.971
507.47	18.770
507.82	19.519
508.16	19.103
508.51	19.060
508.85	18.611
509.19	19.577
509.54	19.357
509.88	19.462
510.23	18.526
510.57	19.597
510.92	19.289
511.26	18.482
511.61	18.825
511.95	18.743
512.30	19.600
512.64	19.807
512.98	18.726
513.33	19.211
513.67	18.853
514.02	19.099
514.36	18.708
514.70	19.053
515.05	19.778
515.39	18.396
515.74	18.709
516.08	19.233
516.42	18.260
516.77	18.864
517.11	17.872
517.46	18.968
517.80	19.976
518.14	18.677
518.49	18.023
518.83	19.451
519.17	20.181
519.52	19.119
519.86	19.429
520.20	18.557
520.55	18.719
520.89	18.216
521.23	19.487
521.58	18.647
521.92	19.233
522.26	18.347
522.61	18.681
522.95	19.236
523.29	19.302
523.64	19.072
523.98	19.504
524.32	19.597
524.66	19.091
525.01	18.807
525.35	19.157
525.69	19.218
526.04	18.697
526.38	19.567
526.72	19.724
527.06	18.698
527.41	18.994
527.75	18.692
528.09	20.286
528.43	18.725
528.78	18.863
529.12	19.793
529.46	19.642
529.80	19.159
530.15	19.112
530.49	19.205
530.83	19.770
531.17	19.178
531.51	19.622
531.86	19.038
532.20	18.815
532.54	18.690
532.88	19.401
533.22	19.327
533.57	18.146
533.91	20.774
534.25	20.312
534.59	19.498
534.93	19.388
535.27	18.854
535.62	19.211
535.96	19.909
536.30	19.481
536.64	17.635
536.98	18.641
537.32	19.288
537.66	18.688
538.01	18.932
538.35	19.475
538.69	19.264
539.03	18.389
539.37	18.444
539.71	18.963
540.05	18.691
540.39	18.789
540.73	18.296
541.07	19.660
541.42	19.192
541.76	19.012
542.10	18.483
542.44	18.850
542.78	19.153
543.12	17.925
543.46	18.659
543.80	19.484
544.14	18.376
544.48	17.983
544.82	19.032
545.16	18.932
545.50	19.514
545.84	19.144
546.18	18.093
546.52	19.337
546.86	18.304
547.20	18.299
547.54	18.370
547.88	19.771
548.22	19.349
548.56	19.880
548.90	18.268
549.24	18.542
549.58	18.434
549.92	19.442
550.26	19.483
550.60	18.468
550.94	17.985
551.28	18.698
551.62	19.248
551.96	19.473
552.30	18.341
552.64	18.503
552.98	19.247
553.32	18.097
553.66	19.663
554.00	18.503
554.34	18.242
554.68	19.090
555.02	19.087
555.36	17.927
555.69	18.500
556.03	18.871
556.37	17.923
556.71	18.921
557.05	18.745
557.39	17.784
557.73	19.062
558.07	19.216
558.41	20.061
558.75	19.323
559.08	17.803
559.42	19.197
559.76	18.884
560.10	19.523
560.44	19.749
560.78	19.137
561.12	18.711
561.45	18.503
561.79	19.188
562.13	18.143
562.47	19.571
562.81	17.821
563.15	18.768
563.48	19.133
563.82	18.331
564.16	19.160
564.50	18.725
564.84	17.973
565.17	18.609
565.51	18.249
565.85	18.854
566.19	19.603
566.52	19.463
566.86	17.699
567.20	19.304
567.54	18.768
567.88	18.197
568.21	18.631
568.55	19.144
568.89	19.093
569.23	18.790
569.56	19.316
569.90	19.517
570.24	19.170
570.57	18.697
570.91	19.374
571.25	18.758
571.59	18.701
571.92	19.243
572.26	18.384
572.60	18.571
572.93	17.744
573.27	18.129
573.61	18.946
573.95	18.535
574.28	18.639
574.62	18.366
574.96	18.652
575.29	18.054
575.63	17.993
575.97	18.478
576.30	18.309
576.64	18.627
576.98	18.794
577.31	18.731
577.65	18.533
577.98	18.788
578.32	18.492
578.66	18.538
578.99	18.146
579.33	18.391
579.67	17.999
580.00	17.466
580.34	18.032
580.67	18.055
581.01	18.563
581.35	19.057
581.68	19.118
582.02	19.586
582.35	18.945
582.69	18.589
583.02	17.697
583.36	17.644
583.70	17.270
584.03	17.579
584.37	17.705
584.70	17.763
585.04	18.703
585.37	18.712
585.71	18.982
586.04	18.221
586.38	18.364
586.72	18.376
587.05	19.261
587.39	18.708
587.72	18.750
588.06	18.550
588.39	17.828
588.73	17.990
589.06	18.041
589.40	17.922
589.73	17.391
590.07	17.937
590.40	17.910
590.73	17.990
591.07	18.011
591.40	17.870
591.74	18.052
592.07	18.165
592.41	18.704
592.74	18.750
593.08	19.419
593.41	19.589
593.75	18.669
594.08	18.687
594.41	18.245
594.75	18.291
595.08	18.708
595.42	18.039
595.75	18.583
596.09	18.245
596.42	17.402
596.75	17.990
597.09	18.517
597.42	19.067
597.75	18.267
598.09	18.260
598.42	19.060
598.76	18.766
599.09	19.448
599.42	19.222
599.76	19.264
600.09	18.675
600.42	18.870
600.76	19.180
601.09	19.134
601.42	18.895
601.76	18.147
602.09	18.768
602.42	18.366
602.76	18.205
603.09	19.179
603.42	18.752
603.76	18.745
604.09	18.735
604.42	18.418
604.76	18.202
605.09	18.124
605.42	18.623
605.75	18.672
606.09	18.750
606.42	18.579
606.75	18.182
607.09	18.573
607.42	18.958
607.75	17.987
608.08	18.350
608.42	18.135
608.75	18.347
609.08	18.471
609.41	18.480
609.75	17.852
610.08	18.836
610.41	19.631
610.74	18.768
611.07	18.487
611.41	19.089
611.74	18.530
612.07	18.343
612.40	19.081
612.73	18.935
613.07	18.514
613.40	18.612
613.73	19.177
614.06	18.297
614.39	18.788
614.72	19.323
615.06	18.667
615.39	18.488
615.72	17.981
616.05	18.074
616.38	18.213
616.71	17.636
617.05	18.673
617.38	17.807
617.71	18.015
618.04	18.708
618.37	18.991
618.70	18.693
619.03	17.801
619.36	18.434
619.69	17.763
620.03	18.233
620.36	18.859
620.69	18.415
621.02	17.308
621.35	17.907
621.68	17.441
622.01	18.851
622.34	17.526
622.67	18.794
623.00	19.453
623.33	19.372
623.66	17.770
623.99	19.205
624.32	18.782
624.65	18.843
624.99	19.471
625.32	18.372
625.65	17.907
625.98	17.457
626.31	18.857
626.64	18.315
626.97	18.772
627.30	18.221
627.63	19.031
627.96	17.835
628.29	18.326
628.62	18.472
628.95	17.034
629.28	19.015
629.61	20.287
629.94	19.439
630.26	19.212
630.59	17.682
630.92	17.972
631.25	18.332
631.58	19.486
631.91	17.073
632.24	18.332
632.57	18.222
632.90	17.620
633.23	17.746
633.56	18.945
633.89	18.301
634.22	22.026
634.55	19.245
634.88	17.157
635.20	19.875
635.53	17.054
635.86	18.590
636.19	17.990
636.52	18.171
636.85	18.094
637.18	17.174
637.51	17.228
637.83	20.757
638.16	17.200
638.49	17.356
638.82	19.085
639.15	20.479
639.48	19.251
639.81	18.472
640.13	19.155
640.46	18.220
640.79	17.554
641.12	19.083
641.45	17.467
641.77	17.968
642.10	18.457
642.43	20.283
642.76	17.981
643.09	18.211
643.41	17.863
643.74	18.255
644.07	17.799
644.40	18.408
644.73	17.458
645.05	16.928
645.38	17.608
645.71	19.558
646.04	17.003
646.36	19.965
646.69	17.483
647.02	16.211
647.35	21.938
647.67	19.039
648.00	18.478
648.33	19.153
648.66	18.364
648.98	18.944
649.31	19.172
649.64	17.684
649.96	19.747
650.29	15.686
650.62	18.451
650.94	16.552
651.27	16.784
651.60	18.881
651.92	19.355
652.25	18.928
652.58	18.977
652.90	17.845
653.23	17.997
653.56	16.529
653.88	16.382
654.21	18.601
654.54	16.777
654.86	16.423
655.19	16.947
655.52	21.857
655.84	23.718
656.17	28.313
656.49	35.208
656.82	31.957
657.15	21.531
657.47	14.611
657.80	10.267
658.13	9.950
658.45	13.566
658.78	12.757
659.10	12.280
659.43	12.177
659.75	12.958
660.08	12.897
660.41	12.982
660.73	15.978
661.06	16.327
661.38	15.504
661.71	18.648
662.03	19.662
662.36	17.478
662.68	18.065
663.01	19.068
663.33	18.359
663.66	15.965
663.98	19.101
664.31	16.264
664.63	16.216
664.96	17.724
665.28	19.313
665.61	19.654
665.93	18.415
666.26	19.198
666.58	16.702
666.91	19.058
667.23	17.972
667.56	19.310
667.88	16.121
668.21	16.741
668.53	18.161
668.86	19.664
669.18	19.385
669.50	17.051
669.83	19.809
670.15	16.905
670.48	17.931
670.80	19.694
671.13	18.993
671.45	18.037
671.77	18.103
672.10	17.934
672.42	18.511
672.75	17.679
673.07	20.182
673.39	16.418
673.72	20.758
674.04	18.648
674.37	19.512
674.69	15.638
675.01	17.094
675.34	17.287
675.66	20.044
675.98	15.708
676.31	16.290
676.63	20.635
676.95	16.471
677.28	17.202
677.60	20.588
677.92	20.177
678.25	19.523
678.57	19.348
678.89	18.550
679.22	16.149
679.54	20.816
679.86	17.969
680.18	19.231
680.51	15.962
680.83	15.595
681.15	18.861
681.48	15.431
681.80	19.018
682.12	17.917
682.44	17.505
682.77	15.368
683.09	15.848
683.41	14.419
683.73	18.080
684.06	17.257
684.38	17.308
684.70	18.534
685.02	18.802
685.34	21.135
685.67	19.887
685.99	18.861
686.31	18.966
686.63	19.301
686.96	19.481
687.28	18.164
687.60	21.550
687.92	19.455
688.24	18.000
688.56	19.079
688.89	16.704
689.21	15.247
689.53	14.865
689.85	16.629
690.17	19.341
690.49	17.391
690.82	15.752
691.14	17.633
691.46	17.865
691.78	17.582
692.10	17.622
692.42	16.923
692.74	18.043
693.06	15.955
693.39	15.925
693.71	19.333
694.03	18.864
694.35	19.144
694.67	18.750
694.99	19.072
695.31	16.279
695.63	20.000
695.95	18.575
696.27	13.425
696.59	16.398
696.91	12.570
697.23	17.766
697.56	20.863
697.88	22.661
698.20	18.359
698.52	17.757
698.84	16.986
699.16	16.785
699.48	19.506
699.80	18.605
700.12	19.035
700.44	17.465
700.76	16.011
701.08	15.408
701.40	18.563
701.72	14.462
702.04	15.094
702.36	16.768
702.68	16.768
703.00	21.345
703.32	18.942
703.64	18.675
703.96	18.182
704.28	17.771
704.60	14.939
704.91	16.928
705.23	17.089
705.55	17.241
705.87	18.310
706.19	18.315
706.51	14.437
706.83	18.471
707.15	17.988
707.47	20.937
707.79	17.766
708.11	17.738
708.43	20.812
708.74	18.351
709.06	18.182
709.38	17.291
709.70	18.619
710.02	20.249
710.34	16.667
710.66	16.612
710.98	17.647
711.29	18.831
711.61	14.839
711.93	19.032
712.25	16.783
712.57	12.982
712.89	21.245
713.20	15.248
713.52	15.693
713.84	20.968
714.16	14.239
714.48	21.203
714.80	14.696
715.11	20.349
715.43	16.149
715.75	18.323
716.07	16.566
716.39	15.488
716.70	16.906
717.02	14.118
717.34	20.455
717.66	19.828
717.97	16.667
718.29	19.685
718.61	14.163
718.93	20.155
719.24	19.926
719.56	15.730
719.88	17.910
720.20	17.787
720.51	15.625
720.83	21.012
721.15	14.634
721.46	21.374
721.78	13.944
722.10	17.131
722.42	19.355
722.73	16.988
723.05	17.551
723.37	19.328
723.68	18.400
724.00	15.319
724.32	18.410
724.63	22.634
724.95	13.248
725.27	26.160
725.58	24.280
725.90	21.339
726.22	22.101
726.53	11.765
726.85	22.263
727.16	17.037
727.48	19.923
727.80	20.313
728.11	22.541
728.43	19.141
728.74	21.032
729.06	15.600
729.38	16.601
729.69	20.285
730.01	17.100
730.32	19.188
730.64	17.803
730.96	20.280
731.27	17.391
731.59	22.222
731.90	18.123
732.22	16.667
732.53	17.230
732.85	14.094
733.16	21.122
733.48	18.243
733.80	23.649
734.11	19.932
734.43	21.672
734.74	24.625
735.06	14.121
735.37	19.149
735.69	17.476
736.00	16.502
736.32	18.085
736.63	20.345
736.95	20.205
737.26	19.310
737.58	20.486
737.89	20.962
738.21	16.726
738.52	17.490
738.83	18.367
739.15	20.253
739.46	18.677
739.78	15.141
740.09	19.521
740.41	17.500
740.72	15.248
741.04	17.200
741.35	14.912
741.66	17.778
741.98	23.077
742.29	25.248
742.61	19.512
742.92	21.930
743.23	16.038
743.55	23.874
743.86	17.489
744.18	18.627
744.49	14.721
744.80	20.408
745.12	18.692
745.43	21.801
745.74	20.270
746.06	20.093
746.37	15.138
746.68	17.308
747.00	22.488
747.31	19.231
747.62	23.853
747.94	21.397
748.25	22.936
748.56	25.333
748.88	23.474
749.19	25.238
749.50	16.505
749.82	23.474
750.13	14.167
750.44	14.615
750.75	18.819
751.07	22.776
751.38	19.504
751.69	19.305
752.01	18.359
752.32	16.923
752.63	20.149
752.94	23.200
753.26	17.155
753.57	17.083
753.88	19.028
754.19	21.514
754.51	18.045
754.82	16.850
755.13	14.783
755.44	19.106
755.75	20.800
756.07	20.664
756.38	16.547
756.69	20.137
757.00	16.822
757.31	16.505
757.63	18.827
757.94	20.621
758.25	21.958
758.56	16.033
758.87	19.940
759.18	18.927
759.50	14.815
759.81	17.391
760.12	23.692
760.43	22.619
760.74	14.972
761.05	22.928
761.36	20.630
761.67	19.033
761.99	20.962
762.30	19.708
762.61	15.638
762.92	20.940
763.23	17.213
763.54	25.108
763.85	18.776
764.16	16.667
764.47	19.200
764.78	19.643
765.10	22.951
765.41	21.277
765.72	21.118
766.03	19.472
766.34	18.846
766.65	17.155
766.96	19.718
767.27	24.752
767.58	6.742
767.89	20.988
768.20	25.967
768.51	21.106
768.82	22.115
769.13	24.779
769.44	21.339
769.75	18.376
770.06	20.628
770.37	18.627
770.68	21.359
770.99	20.388
771.30	19.328
771.61	16.735
771.92	22.822
772.23	16.667
772.54	15.470
772.85	15.698
773.16	23.810
773.47	17.160
773.78	21.264
774.09	18.750
774.39	15.528
774.70	21.769
775.01	16.552
775.32	17.857
775.63	15.789
775.94	12.782
776.25	10.400
776.56	20.661
776.87	24.603
777.18	22.523
777.48	19.820
777.79	15.748
778.10	19.266
778.41	14.912
778.72	17.647
779.03	12.676
779.34	23.649
779.65	24.648
779.95	25.828
780.26	18.705
780.57	17.986
780.88	12.676
781.19	15.126
781.50	25.503
781.80	22.807
782.11	20.349
782.42	22.013
782.73	20.261
783.04	21.379
783.34	19.847
783.65	22.819
783.96	16.154
784.27	27.143
784.57	21.277
784.88	14.423
785.19	24.545
785.50	10.909
785.81	13.333
786.11	20.168
786.42	30.973
786.73	16.038
787.04	13.761
787.34	15.842
787.65	19.167
787.96	27.273
788.26	21.739
788.57	15.873
788.88	18.699
789.19	20.000
789.49	14.504
789.80	26.515
790.11	10.377
790.41	23.762
790.72	8.511
791.03	13.043
791.33	17.647
791.64	25.926
791.95	4.348
792.25	11.364
792.56	35.897
792.87	8.974
793.17	8.974
793.48	11.905
793.79	15.000
794.09	23.077
794.40	19.792
794.70	21.622
795.01	14.844
795.32	20.870
795.62	15.217
795.93	15.094
796.23	17.172
796.54	10.976
796.85	21.429
797.15	7.576
797.46	21.739
797.76	15.789
798.07	14.773
798.37	6.098
798.68	1.613
798.99	12.162
799.29	27.711
799.60	14.103
799.90	7.692
800.21	10.606
800.51	18.667
800.82	21.333
801.12	6.250
801.43	5.000
801.73	9.459
802.04	34.286
802.34	8.197
802.65	20.896
802.95	14.545
803.26	10.345
803.56	40.000
803.87	0.000
804.17	17.742
804.48	-1.471
804.78	-2.439
805.09	36.232
805.39	11.765
805.70	6.383
806.00	33.333
806.30	29.487
806.61	26.316
806.91	24.324
807.22	17.105
807.52	18.182
807.83	-3.390
808.13	-27.273
808.43	18.333
808.74	3.448
809.04	12.698
809.35	16.327
809.65	15.000
809.95	16.327
810.26	15.493
810.56	8.333
810.86	34.694
811.17	17.308
811.47	2.128
811.77	20.833
812.08	28.302
812.38	9.375
812.69	21.818
812.99	9.756
813.29	5.405
813.59	8.108
813.90	10.909
814.20	18.182
814.50	21.667
814.81	20.000
815.11	33.333
815.41	13.953
815.72	15.000
816.02	34.286
816.32	-2.703
816.62	12.500
816.93	20.000
817.23	-8.889
817.53	-38.889
817.84	5.405
818.14	17.073
818.44	28.000
818.74	24.490
819.04	31.707
819.35	19.444
819.65	29.545
819.95	-27.778
820.25	27.273
820.56	-4.762
820.86	2.778
821.16	20.455
821.46	10.870
821.76	6.897
822.07	6.522
822.37	39.394
822.67	36.585
822.97	37.838
823.27	-31.429
823.57	17.241
823.88	-5.882
824.18	25.000
824.48	5.714
824.78	33.333
825.08	57.143
825.38	7.407
825.69	9.677
825.99	19.512
826.29	0.000
826.59	-3.125
826.89	6.452
827.19	26.087
827.49	-2.778
827.79	-30.435
828.09	22.581
828.39	12.500
828.70	-3.125
829.00	20.690
829.30	10.811
829.60	-50.000
829.90	62.963
830.20	-6.250
830.50	4.545
830.80	-29.412
831.10	-13.636
831.40	5.882
831.70	15.385
832.00	36.364
832.30	17.647
832.60	18.919
832.90	700.000
833.20	32.143
833.50	-80.000
833.80	18.421
834.10	0.000
834.40	13.636
834.70	-73.333
835.00	70.000
835.30	-25.000
835.60	19.048
835.90	-4.762
836.20	24.000
836.50	41.667
836.80	0.000
837.10	24.324
837.40	56.667
837.70	43.478
838.00	45.833
838.30	15.789
838.60	-110.000
838.90	20.000
839.19	-66.667
839.49	0.000
839.79	5.263
840.09	-66.667
840.39	-140.000
840.69	9.091
840.99	-4.762
841.29	-45.833
841.59	-84.615
841.88	-60.000
842.18	-28.571
842.48	36.667
842.78	-157.143
843.08	7.143
843.38	25.000
843.68	-50.000
843.97	21.429
844.27	-88.889
844.57	-18.182
844.87	-60.000
845.17	4.545
845.47	566.667
845.76	26.667
846.06	0.000
846.36	-850.000
846.66	-73.684
846.96	-9.091
847.25	-16.667
847.55	-100.000
847.85	-19.048
848.15	0.000
848.44	-166.667
848.74	0.000
849.04	0.000
849.34	-150.000
849.63	-118.182
849.93	0.000
850.23	30.000
850.53	-25.000
850.82	38.889
851.12	-26.667
851.42	0.000
851.71	75.000
852.01	-17.647
852.31	-7.692
852.61	50.000
852.90	76.471
853.20	80.000
853.50	50.000
853.79	-142.857
854.09	-225.000
854.39	0.000
854.68	27.500
854.98	42.857
855.28	24.000
855.57	8.333
855.87	-25.000
856.17	0.000
856.46	34.375
856.76	30.000
857.05	52.000
857.35	-75.000
857.65	5.882
857.94	-91.667
858.24	-50.000
858.53	-35.000
858.83	-72.727
859.13	52.000
859.42	0.000
859.72	25.000
860.01	33.333
860.31	-100.000
860.60	-68.750
860.90	83.333
861.20	-66.667
861.49	60.000
861.79	18.750
862.08	250.000
862.38	-41.667
862.67	114.286
862.97	-75.000
863.26	-36.364
863.56	81.818
863.85	26.316
864.15	88.235
864.44	-80.000
864.74	-70.000
865.03	-44.444
865.33	35.714
865.62	92.857
865.92	63.158
866.21	-33.333
866.51	-45.455
866.80	0.000
867.10	-37.500
867.39	18.750
867.69	-20.000
867.98	-20.000
868.27	52.941
868.57	0.000
868.86	550.000
869.16	-150.000
869.45	-214.286
869.75	150.000
870.04	90.000
870.33	-1500.000
870.63	26.316
870.92	-41.667
871.22	400.000
871.51	-100.000
871.80	-33.333
872.10	-25.000
>>>>>End Processed Spectral Data<<<<<
