SpectraSuite Data File
++++++++++++++++++++++++++++++++++++
Date: Wed May 13 21:00:12 PDT 2015
User: schluterlab
Dark Spectrum Present: Yes
Reference Spectrum Present: Yes
Number of Sampled Component Spectra: 1
Spectrometers: USB2E3373
Integration Time (usec): 3000 (USB2E3373)
Spectra Averaged: 3 (USB2E3373)
Boxcar Smoothing: 0 (USB2E3373)
Correct for Electrical Dark: No (USB2E3373)
Strobe/Lamp Enabled: No (USB2E3373)
Correct for Detector Non-linearity: No (USB2E3373)
Correct for Stray Light: No (USB2E3373)
Number of Pixels in Processed Spectrum: 2048
>>>>>Begin Processed Spectral Data<<<<<
178.53	0.000
178.91	-150.000
179.29	100.000
179.67	-100.000
180.04	-133.333
180.42	20.000
180.80	400.000
181.18	50.000
181.56	-300.000
181.94	-50.000
182.31	100.000
182.69	-7.692
183.07	-80.000
183.45	150.000
183.83	11.111
184.20	42.857
184.58	100.000
184.96	-66.667
185.34	85.714
185.72	0.000
186.09	100.000
186.47	-140.000
186.85	-60.000
187.23	250.000
187.61	300.000
187.98	700.000
188.36	62.500
188.74	0.000
189.12	27.273
189.49	130.000
189.87	16.667
190.25	240.000
190.63	500.000
191.00	-20.000
191.38	140.000
191.76	-25.000
192.14	91.667
192.51	15.789
192.89	300.000
193.27	-25.000
193.65	-180.000
194.02	136.364
194.40	110.000
194.78	-900.000
195.15	240.000
195.53	-80.000
195.91	12.500
196.29	266.667
196.66	0.000
197.04	-0.000
197.42	180.000
197.79	-10.000
198.17	37.500
198.55	-100.000
198.92	-150.000
199.30	-166.667
199.68	40.000
200.05	300.000
200.43	50.000
200.81	-500.000
201.18	-140.000
201.56	166.667
201.94	375.000
202.31	60.870
202.69	71.429
203.07	-333.333
203.44	0.000
203.82	-200.000
204.19	50.000
204.57	0.000
204.95	100.000
205.32	0.000
205.70	-250.000
206.08	100.000
206.45	66.667
206.83	-50.000
207.20	0.000
207.58	10.000
207.96	100.000
208.33	14.286
208.71	-1300.000
209.08	150.000
209.46	475.000
209.84	0.000
210.21	10.000
210.59	1200.000
210.96	100.000
211.34	300.000
211.71	-350.000
212.09	-66.667
212.46	-20.000
212.84	333.333
213.22	-25.000
213.59	100.000
213.97	-500.000
214.34	-300.000
214.72	15.385
215.09	37.500
215.47	-44.444
215.84	50.000
216.22	62.500
216.59	400.000
216.97	500.000
217.34	77.778
217.72	0.000
218.09	333.333
218.47	100.000
218.84	57.143
219.22	50.000
219.59	-33.333
219.97	-25.000
220.34	-12.500
220.72	-180.000
221.09	0.000
221.47	-16.667
221.84	0.000
222.22	0.000
222.59	1000.000
222.97	366.667
223.34	0.000
223.72	-800.000
224.09	-650.000
224.46	54.545
224.84	175.000
225.21	128.571
225.59	0.000
225.96	16.667
226.34	40.000
226.71	-71.429
227.08	550.000
227.46	12.500
227.83	-400.000
228.21	6.250
228.58	-75.000
228.95	70.588
229.33	56.250
229.70	-75.000
230.08	38.462
230.45	0.000
230.82	16.667
231.20	57.143
231.57	-100.000
231.95	-500.000
232.32	91.667
232.69	5.882
233.07	200.000
233.44	13.043
233.81	-350.000
234.19	45.833
234.56	-60.000
234.93	53.333
235.31	47.368
235.68	-15.385
236.05	7.692
236.43	38.889
236.80	-3.030
237.17	-6.667
237.55	-17.647
237.92	-6.897
238.29	25.926
238.67	22.222
239.04	19.355
239.41	4.255
239.79	21.277
240.16	2.326
240.53	28.571
240.91	21.429
241.28	5.357
241.65	16.129
242.02	22.368
242.40	7.246
242.77	11.594
243.14	8.974
243.51	15.957
243.89	16.346
244.26	24.528
244.63	7.692
245.00	17.708
245.38	13.445
245.75	7.377
246.12	21.053
246.49	8.943
246.87	0.840
247.24	17.568
247.61	14.570
247.98	24.359
248.36	14.793
248.73	12.921
249.10	13.636
249.47	10.215
249.84	11.053
250.22	21.393
250.59	14.486
250.96	21.364
251.33	9.569
251.70	14.226
252.08	15.900
252.45	16.049
252.82	15.209
253.19	10.895
253.56	14.029
253.94	21.708
254.31	17.254
254.68	19.128
255.05	21.452
255.42	13.287
255.79	14.417
256.16	20.820
256.54	18.095
256.91	13.924
257.28	17.296
257.65	12.102
258.02	14.663
258.39	15.497
258.76	14.826
259.14	14.489
259.51	16.573
259.88	17.073
260.25	15.556
260.62	15.169
260.99	16.976
261.36	16.580
261.73	13.827
262.10	16.285
262.47	14.568
262.85	14.925
263.22	14.359
263.59	17.143
263.96	16.302
264.33	17.067
264.70	15.116
265.07	15.972
265.44	15.862
265.81	14.874
266.18	15.718
266.55	14.629
266.92	16.737
267.29	15.844
267.66	17.410
268.03	16.255
268.40	16.737
268.77	15.289
269.14	17.143
269.51	20.123
269.88	13.849
270.25	16.949
270.62	15.574
270.99	15.945
271.36	13.492
271.73	13.253
272.10	14.857
272.47	16.507
272.84	16.142
273.21	15.264
273.58	14.959
273.95	14.717
274.32	16.791
274.69	16.029
275.06	16.431
275.43	17.326
275.80	16.489
276.17	16.575
276.54	13.677
276.91	14.111
277.28	14.621
277.65	15.559
278.02	16.429
278.39	13.677
278.76	17.057
279.13	15.266
279.50	14.828
279.87	14.130
280.23	12.793
280.60	15.052
280.97	14.935
281.34	15.773
281.71	14.472
282.08	13.162
282.45	14.754
282.82	14.377
283.19	15.244
283.56	14.219
283.92	14.679
284.29	14.041
284.66	15.486
285.03	14.007
285.40	14.199
285.77	14.565
286.14	15.198
286.51	17.241
286.87	12.923
287.24	12.389
287.61	14.307
287.98	14.706
288.35	13.860
288.72	15.208
289.08	15.954
289.45	12.188
289.82	15.431
290.19	13.745
290.56	11.506
290.93	14.227
291.29	12.722
291.66	12.568
292.03	13.351
292.40	13.190
292.77	13.387
293.13	11.855
293.50	13.856
293.87	13.200
294.24	13.492
294.60	13.394
294.97	13.095
295.34	11.609
295.71	11.170
296.08	10.471
296.44	11.735
296.81	12.180
297.18	11.250
297.55	13.325
297.91	13.168
298.28	11.864
298.65	11.453
299.02	13.797
299.38	10.307
299.75	12.380
300.12	10.814
300.48	10.994
300.85	12.009
301.22	10.337
301.59	11.620
301.95	10.221
302.32	10.735
302.69	10.621
303.05	10.299
303.42	10.909
303.79	11.672
304.15	10.296
304.52	11.075
304.89	10.853
305.25	10.428
305.62	10.304
305.99	11.317
306.35	11.181
306.72	10.783
307.09	11.157
307.45	11.395
307.82	9.895
308.19	9.509
308.55	11.771
308.92	11.788
309.29	9.409
309.65	9.590
310.02	10.239
310.38	11.789
310.75	10.651
311.12	9.621
311.48	8.704
311.85	10.531
312.22	11.219
312.58	10.628
312.95	10.846
313.31	11.295
313.68	9.828
314.05	11.815
314.41	10.567
314.78	11.860
315.14	10.926
315.51	9.990
315.87	11.677
316.24	10.560
316.61	10.594
316.97	10.000
317.34	10.250
317.70	10.705
318.07	11.535
318.43	10.569
318.80	11.257
319.16	9.195
319.53	10.932
319.89	9.304
320.26	10.074
320.62	11.214
320.99	9.884
321.35	9.822
321.72	11.261
322.08	10.701
322.45	10.823
322.81	10.351
323.18	10.465
323.54	10.018
323.91	11.834
324.27	10.441
324.64	10.105
325.00	10.586
325.37	10.410
325.73	10.690
326.10	9.924
326.46	10.702
326.83	10.194
327.19	10.813
327.56	11.201
327.92	10.619
328.29	11.185
328.65	11.744
329.01	10.730
329.38	11.304
329.74	10.901
330.11	9.648
330.47	9.201
330.84	10.650
331.20	10.845
331.56	9.873
331.93	11.370
332.29	11.034
332.66	10.169
333.02	11.903
333.38	10.000
333.75	10.324
334.11	11.458
334.48	11.072
334.84	10.689
335.20	10.292
335.57	10.705
335.93	9.278
336.29	10.420
336.66	11.197
337.02	10.609
337.38	10.966
337.75	9.991
338.11	11.102
338.47	10.188
338.84	11.426
339.20	11.111
339.56	10.751
339.93	11.236
340.29	10.418
340.65	10.436
341.02	11.231
341.38	10.980
341.74	9.748
342.11	9.827
342.47	10.209
342.83	10.539
343.20	9.898
343.56	10.957
343.92	9.504
344.28	11.039
344.65	9.878
345.01	9.847
345.37	10.115
345.73	10.212
346.10	10.995
346.46	9.512
346.82	10.032
347.19	9.731
347.55	10.662
347.91	9.665
348.27	9.464
348.63	10.897
349.00	9.670
349.36	9.733
349.72	10.982
350.08	11.076
350.45	10.102
350.81	10.798
351.17	11.085
351.53	10.526
351.89	10.087
352.26	9.730
352.62	10.078
352.98	9.425
353.34	10.950
353.70	10.358
354.07	9.804
354.43	9.176
354.79	9.776
355.15	9.161
355.51	10.706
355.87	9.851
356.24	8.186
356.60	9.773
356.96	9.593
357.32	10.139
357.68	10.542
358.04	9.465
358.40	10.310
358.77	9.404
359.13	10.584
359.49	9.917
359.85	9.704
360.21	8.944
360.57	9.506
360.93	9.181
361.29	9.697
361.66	10.023
362.02	9.637
362.38	9.453
362.74	9.065
363.10	9.400
363.46	9.510
363.82	10.052
364.18	9.935
364.54	8.972
364.90	9.826
365.26	9.837
365.62	9.659
365.98	9.324
366.35	9.291
366.71	9.486
367.07	9.568
367.43	10.453
367.79	9.382
368.15	10.338
368.51	9.212
368.87	9.979
369.23	9.893
369.59	9.655
369.95	9.361
370.31	10.042
370.67	10.065
371.03	10.319
371.39	9.936
371.75	10.214
372.11	9.544
372.47	9.589
372.83	9.709
373.19	8.921
373.55	9.610
373.91	9.689
374.27	8.852
374.63	9.957
374.99	9.053
375.35	9.041
375.71	9.307
376.07	9.253
376.42	9.960
376.78	10.568
377.14	10.169
377.50	9.452
377.86	10.425
378.22	9.608
378.58	9.395
378.94	10.937
379.30	8.745
379.66	9.988
380.02	9.743
380.38	9.819
380.74	9.085
381.09	9.650
381.45	10.097
381.81	9.365
382.17	9.074
382.53	9.415
382.89	9.409
383.25	9.012
383.61	9.746
383.97	9.875
384.32	8.444
384.68	9.377
385.04	8.919
385.40	9.589
385.76	9.428
386.12	9.425
386.48	9.404
386.83	9.574
387.19	9.747
387.55	9.197
387.91	9.471
388.27	8.755
388.62	9.051
388.98	9.637
389.34	9.900
389.70	10.012
390.06	9.688
390.42	9.923
390.77	9.609
391.13	9.407
391.49	9.488
391.85	9.201
392.20	8.897
392.56	9.460
392.92	9.421
393.28	9.587
393.64	8.196
393.99	8.690
394.35	8.889
394.71	8.846
395.07	8.176
395.42	9.445
395.78	8.752
396.14	9.892
396.50	10.209
396.85	10.516
397.21	9.551
397.57	9.441
397.92	9.281
398.28	10.096
398.64	8.986
399.00	9.375
399.35	9.364
399.71	9.377
400.07	9.699
400.42	8.903
400.78	8.701
401.14	9.135
401.49	9.047
401.85	8.845
402.21	9.783
402.57	10.055
402.92	10.638
403.28	9.443
403.63	9.361
403.99	8.701
404.35	9.352
404.70	8.157
405.06	8.632
405.42	9.736
405.77	9.562
406.13	8.800
406.49	9.107
406.84	9.158
407.20	8.881
407.55	8.961
407.91	9.067
408.27	9.046
408.62	9.576
408.98	10.049
409.34	9.097
409.69	9.162
410.05	9.391
410.40	9.191
410.76	9.206
411.11	9.577
411.47	10.285
411.83	8.796
412.18	9.698
412.54	9.962
412.89	8.966
413.25	9.381
413.60	9.467
413.96	9.301
414.31	9.248
414.67	9.587
415.03	9.743
415.38	8.454
415.74	10.201
416.09	10.046
416.45	8.886
416.80	10.403
417.16	10.729
417.51	9.511
417.87	9.722
418.22	9.696
418.58	9.593
418.93	9.479
419.29	9.571
419.64	10.369
420.00	10.286
420.35	9.145
420.71	9.080
421.06	9.902
421.42	9.672
421.77	9.653
422.12	10.143
422.48	9.487
422.83	9.923
423.19	9.258
423.54	9.776
423.90	8.610
424.25	9.648
424.61	9.489
424.96	9.521
425.31	9.310
425.67	10.229
426.02	10.247
426.38	9.764
426.73	9.224
427.09	9.068
427.44	10.217
427.79	8.967
428.15	9.725
428.50	9.184
428.85	9.717
429.21	9.454
429.56	9.299
429.92	9.735
430.27	9.407
430.62	9.759
430.98	9.360
431.33	9.726
431.68	9.904
432.04	9.634
432.39	9.007
432.74	9.503
433.10	9.297
433.45	9.882
433.80	9.885
434.16	9.885
434.51	9.565
434.86	9.717
435.22	9.508
435.57	8.661
435.92	9.650
436.28	9.189
436.63	9.469
436.98	9.224
437.34	9.890
437.69	9.268
438.04	9.168
438.39	9.589
438.75	9.237
439.10	9.485
439.45	10.048
439.81	10.468
440.16	10.145
440.51	10.761
440.86	9.662
441.22	10.155
441.57	9.436
441.92	9.642
442.27	9.416
442.63	9.526
442.98	8.681
443.33	8.860
443.68	9.172
444.03	10.035
444.39	9.668
444.74	9.221
445.09	9.692
445.44	10.423
445.79	9.654
446.15	9.928
446.50	10.077
446.85	10.048
447.20	9.880
447.55	9.849
447.91	9.663
448.26	10.063
448.61	9.148
448.96	10.080
449.31	10.109
449.66	9.717
450.02	9.949
450.37	9.753
450.72	10.161
451.07	9.906
451.42	9.857
451.77	10.164
452.12	9.566
452.47	10.265
452.83	10.083
453.18	9.039
453.53	10.151
453.88	9.518
454.23	10.198
454.58	10.907
454.93	9.686
455.28	10.533
455.63	9.295
455.98	9.495
456.34	9.472
456.69	9.840
457.04	9.783
457.39	10.463
457.74	9.994
458.09	9.716
458.44	9.518
458.79	10.379
459.14	9.719
459.49	9.634
459.84	9.921
460.19	9.244
460.54	9.124
460.89	9.572
461.24	9.433
461.59	9.903
461.94	10.051
462.29	9.069
462.64	10.224
462.99	9.658
463.34	10.497
463.69	10.696
464.04	9.064
464.39	10.128
464.74	9.214
465.09	9.113
465.44	10.269
465.79	10.351
466.14	9.806
466.49	9.677
466.84	10.580
467.19	9.554
467.54	10.369
467.89	10.497
468.24	10.203
468.59	9.560
468.94	10.345
469.29	9.584
469.64	10.391
469.99	10.483
470.34	9.710
470.68	9.294
471.03	10.085
471.38	9.736
471.73	11.180
472.08	8.866
472.43	9.697
472.78	10.615
473.13	9.103
473.48	9.263
473.83	9.730
474.17	9.701
474.52	10.421
474.87	9.952
475.22	10.749
475.57	10.541
475.92	9.978
476.27	9.674
476.61	10.193
476.96	9.252
477.31	9.709
477.66	10.056
478.01	10.000
478.36	9.264
478.70	9.882
479.05	9.989
479.40	9.516
479.75	9.777
480.10	10.301
480.45	9.760
480.79	9.706
481.14	10.132
481.49	10.656
481.84	9.755
482.19	9.866
482.53	9.524
482.88	9.779
483.23	9.240
483.58	10.066
483.92	9.047
484.27	9.515
484.62	9.898
484.97	9.664
485.31	9.668
485.66	9.600
486.01	9.568
486.36	9.559
486.70	9.574
487.05	10.083
487.40	9.984
487.75	10.221
488.09	9.822
488.44	10.305
488.79	9.500
489.13	9.702
489.48	10.090
489.83	9.647
490.17	9.941
490.52	10.145
490.87	9.133
491.22	10.363
491.56	10.206
491.91	10.034
492.26	9.961
492.60	10.005
492.95	10.253
493.30	9.884
493.64	9.544
493.99	10.097
494.34	10.212
494.68	9.976
495.03	9.783
495.37	9.781
495.72	9.774
496.07	10.034
496.41	9.640
496.76	10.055
497.11	10.000
497.45	9.436
497.80	10.348
498.14	10.529
498.49	9.430
498.84	10.071
499.18	9.557
499.53	9.601
499.87	9.267
500.22	10.204
500.56	9.529
500.91	9.960
501.26	10.099
501.60	9.706
501.95	9.966
502.29	9.903
502.64	10.752
502.98	10.164
503.33	9.927
503.67	9.883
504.02	9.902
504.36	9.609
504.71	9.807
505.06	10.647
505.40	9.948
505.75	10.224
506.09	9.862
506.44	10.433
506.78	10.462
507.13	10.239
507.47	9.491
507.82	9.733
508.16	9.921
508.51	10.021
508.85	9.694
509.19	9.894
509.54	10.241
509.88	9.892
510.23	9.579
510.57	9.322
510.92	10.453
511.26	9.736
511.61	9.660
511.95	9.592
512.30	9.994
512.64	11.010
512.98	10.970
513.33	9.915
513.67	10.221
514.02	10.376
514.36	10.056
514.70	10.277
515.05	10.181
515.39	9.493
515.74	9.769
516.08	9.322
516.42	9.505
516.77	9.549
517.11	8.877
517.46	10.084
517.80	10.351
518.14	9.247
518.49	10.006
518.83	9.785
519.17	9.337
519.52	10.434
519.86	9.775
520.20	9.157
520.55	8.831
520.89	9.994
521.23	10.513
521.58	9.229
521.92	9.491
522.26	9.824
522.61	10.472
522.95	10.622
523.29	9.714
523.64	9.981
523.98	10.229
524.32	10.208
524.66	10.000
525.01	10.092
525.35	10.270
525.69	9.211
526.04	9.772
526.38	10.134
526.72	10.125
527.06	10.509
527.41	10.258
527.75	9.279
528.09	10.483
528.43	10.991
528.78	9.755
529.12	10.349
529.46	10.621
529.80	10.162
530.15	9.588
530.49	8.962
530.83	10.291
531.17	10.205
531.51	9.373
531.86	9.688
532.20	9.993
532.54	9.517
532.88	9.598
533.22	9.764
533.57	9.868
533.91	10.774
534.25	10.352
534.59	9.459
534.93	10.459
535.27	10.191
535.62	9.934
535.96	9.954
536.30	10.705
536.64	9.501
536.98	9.741
537.32	9.822
537.66	10.437
538.01	10.333
538.35	10.221
538.69	10.435
539.03	8.993
539.37	10.060
539.71	10.573
540.05	9.177
540.39	9.291
540.73	9.707
541.07	10.340
541.42	10.101
541.76	10.690
542.10	9.140
542.44	9.078
542.78	9.715
543.12	10.714
543.46	9.675
543.80	9.776
544.14	9.635
544.48	8.361
544.82	9.146
545.16	8.993
545.50	10.804
545.84	9.537
546.18	9.958
546.52	9.598
546.86	9.329
547.20	10.007
547.54	9.936
547.88	9.987
548.22	10.554
548.56	9.540
548.90	9.472
549.24	10.625
549.58	9.751
549.92	10.418
550.26	11.218
550.60	10.285
550.94	9.925
551.28	9.463
551.62	10.902
551.96	9.736
552.30	9.461
552.64	9.463
552.98	10.866
553.32	9.589
553.66	9.758
554.00	10.223
554.34	9.524
554.68	9.843
555.02	9.506
555.36	9.607
555.69	9.832
556.03	9.221
556.37	8.819
556.71	9.530
557.05	9.225
557.39	9.344
557.73	9.834
558.07	9.797
558.41	9.992
558.75	10.162
559.08	8.661
559.42	10.228
559.76	10.092
560.10	9.377
560.44	11.054
560.78	9.424
561.12	10.862
561.45	9.388
561.79	10.454
562.13	9.845
562.47	10.643
562.81	8.297
563.15	9.915
563.48	9.153
563.82	9.302
564.16	9.749
564.50	9.701
564.84	9.392
565.17	9.139
565.51	8.824
565.85	9.993
566.19	9.735
566.52	9.699
566.86	8.976
567.20	9.285
567.54	9.614
567.88	9.239
568.21	9.777
568.55	9.494
568.89	9.422
569.23	9.533
569.56	10.346
569.90	9.471
570.24	9.134
570.57	10.133
570.91	9.421
571.25	9.554
571.59	9.621
571.92	9.534
572.26	9.771
572.60	9.055
572.93	9.560
573.27	9.384
573.61	9.761
573.95	9.915
574.28	9.822
574.62	9.553
574.96	9.793
575.29	9.704
575.63	9.352
575.97	9.837
576.30	9.389
576.64	9.248
576.98	9.763
577.31	9.696
577.65	9.631
577.98	9.373
578.32	9.542
578.66	9.269
578.99	9.742
579.33	9.670
579.67	9.649
580.00	9.565
580.34	9.452
580.67	9.775
581.01	9.492
581.35	9.914
581.68	9.540
582.02	9.550
582.35	9.482
582.69	9.662
583.02	9.829
583.36	9.517
583.70	9.648
584.03	10.084
584.37	9.590
584.70	9.294
585.04	9.442
585.37	9.550
585.71	9.720
586.04	9.624
586.38	9.340
586.72	9.441
587.05	9.898
587.39	9.693
587.72	9.628
588.06	9.384
588.39	9.516
588.73	9.687
589.06	9.505
589.40	9.116
589.73	8.768
590.07	9.479
590.40	9.277
590.73	9.562
591.07	9.486
591.40	9.304
591.74	10.227
592.07	9.493
592.41	9.524
592.74	10.069
593.08	8.991
593.41	9.859
593.75	9.432
594.08	9.603
594.41	9.799
594.75	9.558
595.08	9.783
595.42	9.341
595.75	9.798
596.09	9.238
596.42	9.273
596.75	10.004
597.09	9.918
597.42	9.960
597.75	9.333
598.09	9.381
598.42	9.709
598.76	9.740
599.09	9.924
599.42	9.705
599.76	9.238
600.09	9.563
600.42	8.851
600.76	9.313
601.09	9.529
601.42	9.957
601.76	9.344
602.09	9.931
602.42	9.616
602.76	8.893
603.09	9.117
603.42	9.396
603.76	9.314
604.09	9.209
604.42	9.041
604.76	9.297
605.09	9.606
605.42	10.031
605.75	9.293
606.09	8.526
606.42	9.767
606.75	8.874
607.09	8.821
607.42	9.851
607.75	8.928
608.08	10.234
608.42	9.419
608.75	9.890
609.08	8.476
609.41	9.886
609.75	9.128
610.08	9.369
610.41	9.378
610.74	9.240
611.07	9.770
611.41	10.082
611.74	9.731
612.07	8.963
612.40	9.784
612.73	9.440
613.07	9.590
613.40	8.866
613.73	9.859
614.06	10.227
614.39	8.671
614.72	10.105
615.06	9.222
615.39	9.713
615.72	9.125
616.05	8.784
616.38	9.221
616.71	9.178
617.05	9.214
617.38	9.550
617.71	9.130
618.04	8.958
618.37	9.653
618.70	9.314
619.03	8.385
619.36	9.537
619.69	8.333
620.03	9.046
620.36	8.629
620.69	8.351
621.02	8.385
621.35	7.768
621.68	8.476
622.01	9.547
622.34	8.565
622.67	9.475
623.00	9.498
623.33	9.050
623.66	8.699
623.99	9.527
624.32	9.098
624.65	9.570
624.99	8.744
625.32	9.037
625.65	10.078
625.98	9.163
626.31	10.367
626.64	9.802
626.97	8.997
627.30	9.581
627.63	8.910
627.96	9.437
628.29	10.698
628.62	9.768
628.95	9.319
629.28	8.670
629.61	10.431
629.94	10.735
630.26	9.163
630.59	10.390
630.92	9.036
631.25	9.681
631.58	9.957
631.91	8.696
632.24	8.672
632.57	7.444
632.90	9.218
633.23	7.674
633.56	10.312
633.89	8.852
634.22	12.721
634.55	10.110
634.88	10.172
635.20	9.125
635.53	8.656
635.86	8.846
636.19	9.677
636.52	8.659
636.85	8.444
637.18	7.917
637.51	9.613
637.83	10.966
638.16	8.533
638.49	8.011
638.82	8.366
639.15	8.511
639.48	9.893
639.81	8.889
640.13	8.310
640.46	9.605
640.79	7.482
641.12	8.580
641.45	8.297
641.77	8.100
642.10	9.834
642.43	9.748
642.76	8.675
643.09	7.827
643.41	11.005
643.74	8.885
644.07	9.871
644.40	8.292
644.73	9.153
645.05	6.981
645.38	7.973
645.71	9.184
646.04	8.081
646.36	7.986
646.69	8.741
647.02	10.383
647.35	9.872
647.67	7.763
648.00	8.152
648.33	10.508
648.66	6.845
648.98	10.559
649.31	8.589
649.64	8.294
649.96	7.899
650.29	6.863
650.62	10.049
650.94	7.241
651.27	10.247
651.60	9.790
651.92	8.781
652.25	10.050
652.58	8.251
652.90	8.586
653.23	6.282
653.56	7.603
653.88	6.997
654.21	6.143
654.54	6.645
654.86	8.455
655.19	6.443
655.52	9.994
655.84	9.041
656.17	11.262
656.49	15.009
656.82	14.740
657.15	11.034
657.47	8.236
657.80	6.073
658.13	6.405
658.45	9.422
658.78	9.188
659.10	9.359
659.43	9.077
659.75	8.900
660.08	9.034
660.41	7.708
660.73	8.540
661.06	9.864
661.38	7.946
661.71	10.041
662.03	11.416
662.36	7.080
662.68	9.462
663.01	9.322
663.33	7.343
663.66	5.100
663.98	8.090
664.31	9.670
664.63	7.432
664.96	11.160
665.28	11.373
665.61	6.479
665.93	7.281
666.26	9.705
666.58	7.709
666.91	10.090
667.23	9.217
667.56	8.736
667.88	7.710
668.21	11.161
668.53	8.736
668.86	8.633
669.18	7.565
669.50	9.677
669.83	7.160
670.15	7.619
670.48	6.437
670.80	12.035
671.13	6.865
671.45	8.676
671.77	7.328
672.10	7.212
672.42	8.588
672.75	7.857
673.07	7.091
673.39	8.582
673.72	8.982
674.04	7.172
674.37	11.789
674.69	9.671
675.01	10.043
675.34	9.847
675.66	10.022
675.98	7.301
676.31	8.597
676.63	9.977
676.95	4.235
677.28	7.339
677.60	9.314
677.92	9.534
678.25	9.978
678.57	8.961
678.89	8.955
679.22	8.903
679.54	9.388
679.86	9.570
680.18	9.615
680.51	7.885
680.83	6.433
681.15	7.466
681.48	9.419
681.80	6.339
682.12	7.500
682.44	9.054
682.77	8.421
683.09	8.705
683.41	5.814
683.73	7.366
684.06	7.965
684.38	5.983
684.70	7.128
685.02	9.711
685.34	10.176
685.67	8.630
685.99	7.473
686.31	8.966
686.63	9.743
686.96	10.019
687.28	8.782
687.60	9.641
687.92	8.560
688.24	8.000
688.56	9.649
688.89	6.013
689.21	7.175
689.53	3.829
689.85	9.663
690.17	9.670
690.49	10.145
690.82	7.399
691.14	8.213
691.46	8.585
691.78	9.011
692.10	8.280
692.42	5.495
692.74	10.217
693.06	6.517
693.39	6.557
693.71	11.111
694.03	8.864
694.35	8.784
694.67	8.500
694.99	9.536
695.31	11.886
695.63	11.951
695.95	6.616
696.27	2.466
696.59	6.720
696.91	5.028
697.23	6.345
697.56	8.153
697.88	10.187
698.20	10.583
698.52	5.841
698.84	9.809
699.16	8.274
699.48	12.593
699.80	9.044
700.12	9.651
700.44	5.915
700.76	10.674
701.08	6.949
701.40	9.281
701.72	8.000
702.04	7.862
702.36	6.402
702.68	5.488
703.00	7.895
703.32	7.799
703.64	11.446
703.96	5.865
704.28	8.434
704.60	9.146
704.91	4.389
705.23	11.709
705.55	4.828
705.87	14.085
706.19	3.663
706.51	2.465
706.83	6.369
707.15	6.098
707.47	9.091
707.79	8.376
708.11	6.941
708.43	10.152
708.74	8.511
709.06	6.417
709.38	8.069
709.70	9.309
710.02	6.542
710.34	5.333
710.66	7.492
710.98	6.811
711.29	8.117
711.61	9.355
711.93	5.806
712.25	7.692
712.57	7.018
712.89	5.861
713.20	12.411
713.52	10.949
713.84	7.742
714.16	8.091
714.48	5.696
714.80	7.987
715.11	9.884
715.43	2.795
715.75	10.248
716.07	8.434
716.39	9.091
716.70	10.072
717.02	5.490
717.34	11.364
717.66	3.879
717.97	3.175
718.29	7.087
718.61	3.004
718.93	8.527
719.24	8.118
719.56	3.745
719.88	6.343
720.20	6.719
720.51	7.422
720.83	7.004
721.15	4.065
721.46	7.252
721.78	11.554
722.10	5.578
722.42	10.081
722.73	10.039
723.05	7.755
723.37	8.403
723.68	10.400
724.00	2.553
724.32	5.021
724.63	9.877
724.95	6.410
725.27	9.283
725.58	10.700
725.90	8.368
726.22	9.058
726.53	5.882
726.85	12.044
727.16	9.630
727.48	14.559
727.80	10.547
728.11	9.426
728.43	9.375
728.74	8.730
729.06	7.200
729.38	11.462
729.69	13.879
730.01	5.948
730.32	8.118
730.64	2.652
730.96	11.538
731.27	9.699
731.59	10.159
731.90	10.356
732.22	6.090
732.53	5.405
732.85	5.705
733.16	9.241
733.48	7.432
733.80	4.730
734.11	7.432
734.43	8.669
734.74	8.709
735.06	8.357
735.37	9.726
735.69	9.385
736.00	8.251
736.32	6.383
736.63	8.621
736.95	10.616
737.26	9.655
737.58	10.764
737.89	8.247
738.21	6.406
738.52	6.464
738.83	9.796
739.15	7.173
739.46	5.837
739.78	7.394
740.09	8.562
740.41	7.143
740.72	8.511
741.04	4.800
741.35	7.456
741.66	11.111
741.98	8.654
742.29	14.851
742.61	11.707
742.92	11.842
743.23	9.906
743.55	10.811
743.86	5.830
744.18	10.294
744.49	11.675
744.80	14.286
745.12	8.879
745.43	11.374
745.74	13.964
746.06	2.804
746.37	6.422
746.68	6.731
747.00	7.177
747.31	9.615
747.62	8.716
747.94	13.974
748.25	6.422
748.56	14.222
748.88	13.615
749.19	11.429
749.50	6.311
749.82	8.451
750.13	-0.417
750.44	7.308
750.75	6.642
751.07	12.100
751.38	12.057
751.69	10.039
752.01	8.594
752.32	8.846
752.63	10.448
752.94	8.000
753.26	10.042
753.57	12.083
753.88	11.741
754.19	9.163
754.51	4.135
754.82	6.960
755.13	2.609
755.44	8.943
755.75	7.200
756.07	6.273
756.38	9.712
756.69	11.263
757.00	9.034
757.31	10.680
757.63	5.556
757.94	7.910
758.25	9.259
758.56	7.880
758.87	5.357
759.18	9.464
759.50	4.377
759.81	8.361
760.12	8.308
760.43	8.036
760.74	8.475
761.05	8.287
761.36	5.158
761.67	8.157
761.99	10.653
762.30	9.489
762.61	10.700
762.92	11.966
763.23	10.246
763.54	8.225
763.85	7.347
764.16	4.472
764.47	3.200
764.78	9.286
765.10	11.148
765.41	12.462
765.72	9.006
766.03	10.561
766.34	11.154
766.65	5.439
766.96	6.573
767.27	13.366
767.58	7.865
767.89	12.346
768.20	2.762
768.51	13.065
768.82	12.019
769.13	10.619
769.44	6.695
769.75	2.564
770.06	10.762
770.37	11.275
770.68	10.194
770.99	8.738
771.30	7.563
771.61	4.898
771.92	11.203
772.23	8.559
772.54	4.420
772.85	1.744
773.16	15.873
773.47	6.509
773.78	10.920
774.09	10.000
774.39	9.938
774.70	6.122
775.01	8.276
775.32	7.143
775.63	7.519
775.94	4.511
776.25	-0.800
776.56	11.570
776.87	19.048
777.18	4.505
777.48	6.306
777.79	9.449
778.10	14.679
778.41	1.754
778.72	6.723
779.03	4.225
779.34	12.162
779.65	2.113
779.95	7.947
780.26	6.475
780.57	15.827
780.88	15.493
781.19	10.084
781.50	15.436
781.80	5.263
782.11	4.651
782.42	13.836
782.73	9.804
783.04	4.828
783.34	0.763
783.65	12.752
783.96	13.077
784.27	11.429
784.57	10.638
784.88	0.000
785.19	23.636
785.50	15.455
785.81	2.857
786.11	6.723
786.42	19.469
786.73	-0.943
787.04	-1.835
787.34	1.980
787.65	18.333
787.96	13.223
788.26	13.043
788.57	-1.587
788.88	2.439
789.19	5.600
789.49	-5.344
789.80	8.333
790.11	8.491
790.41	8.911
790.72	14.894
791.03	11.957
791.33	9.412
791.64	9.877
791.95	4.348
792.25	5.682
792.56	14.103
792.87	0.000
793.17	-1.282
793.48	5.952
793.79	10.000
794.09	13.462
794.40	10.417
794.70	9.009
795.01	6.250
795.32	13.913
795.62	-3.261
795.93	8.491
796.23	5.051
796.54	9.756
796.85	14.286
797.15	-4.545
797.46	2.899
797.76	0.000
798.07	12.500
798.37	8.537
798.68	-12.903
798.99	4.054
799.29	13.253
799.60	10.256
799.90	9.231
800.21	7.576
800.51	0.000
800.82	-1.333
801.12	-14.583
801.43	-6.667
801.73	0.000
802.04	14.286
802.34	0.000
802.65	14.925
802.95	0.000
803.26	-5.172
803.56	0.000
803.87	26.415
804.17	19.355
804.48	22.059
804.78	-9.756
805.09	36.232
805.39	13.235
805.70	-8.511
806.00	-3.509
806.30	15.385
806.61	14.474
806.91	-5.405
807.22	3.947
807.52	15.909
807.83	10.169
808.13	-10.606
808.43	-3.333
808.74	-12.069
809.04	0.000
809.35	-24.490
809.65	13.333
809.95	0.000
810.26	23.944
810.56	6.250
810.86	-4.082
811.17	19.231
811.47	12.766
811.77	-4.167
812.08	11.321
812.38	-3.125
812.69	23.636
812.99	31.707
813.29	16.216
813.59	-21.622
813.90	12.727
814.20	3.636
814.50	3.333
814.81	20.000
815.11	12.281
815.41	20.930
815.72	0.000
816.02	31.429
816.32	0.000
816.62	-2.083
816.93	4.444
817.23	-15.556
817.53	-27.778
817.84	-2.703
818.14	-2.439
818.44	-2.000
818.74	8.163
819.04	26.829
819.35	-16.667
819.65	13.636
819.95	-116.667
820.25	-24.242
820.56	-19.048
820.86	2.778
821.16	-9.091
821.46	-8.696
821.76	-6.897
822.07	21.739
822.37	42.424
822.67	24.390
822.97	5.405
823.27	2.857
823.57	34.483
823.88	17.647
824.18	11.111
824.48	28.571
824.78	-4.762
825.08	17.857
825.38	40.741
825.69	12.903
825.99	0.000
826.29	-11.111
826.59	-28.125
826.89	16.129
827.19	26.087
827.49	-16.667
827.79	-13.043
828.09	3.226
828.39	22.917
828.70	6.250
829.00	-10.345
829.30	16.216
829.60	-33.333
829.90	0.000
830.20	12.500
830.50	50.000
830.80	-111.765
831.10	-9.091
831.40	-14.706
831.70	30.769
832.00	-27.273
832.30	41.176
832.60	10.811
832.90	800.000
833.20	0.000
833.50	-25.000
833.80	7.895
834.10	-8.333
834.40	-31.818
834.70	-33.333
835.00	-70.000
835.30	25.000
835.60	-4.762
835.90	-9.524
836.20	-16.000
836.50	-20.833
836.80	-63.158
837.10	18.919
837.40	50.000
837.70	8.696
838.00	33.333
838.30	5.263
838.60	-100.000
838.90	-80.000
839.19	-50.000
839.49	23.077
839.79	63.158
840.09	-83.333
840.39	-100.000
840.69	36.364
840.99	33.333
841.29	0.000
841.59	-46.154
841.88	-26.667
842.18	21.429
842.48	16.667
842.78	-114.286
843.08	-85.714
843.38	-87.500
843.68	-75.000
843.97	-14.286
844.27	-55.556
844.57	-63.636
844.87	-53.333
845.17	54.545
845.47	500.000
845.76	-26.667
846.06	-100.000
846.36	-500.000
846.66	21.053
846.96	-13.636
847.25	-55.556
847.55	-177.778
847.85	-4.762
848.15	30.769
848.44	16.667
848.74	16.667
849.04	-84.615
849.34	-125.000
849.63	18.182
849.93	-85.714
850.23	5.000
850.53	-62.500
850.82	22.222
851.12	33.333
851.42	52.941
851.71	-25.000
852.01	41.176
852.31	0.000
852.61	750.000
852.90	23.529
853.20	53.333
853.50	25.000
853.79	-121.429
854.09	-100.000
854.39	-5.000
854.68	2.500
854.98	4.762
855.28	-12.000
855.57	16.667
855.87	4.167
856.17	-8.000
856.46	9.375
856.76	5.000
857.05	16.000
857.35	-91.667
857.65	-5.882
857.94	-91.667
858.24	-25.000
858.53	-25.000
858.83	-118.182
859.13	36.000
859.42	-42.857
859.72	-87.500
860.01	66.667
860.31	-137.500
860.60	-18.750
860.90	-83.333
861.20	100.000
861.49	6.667
861.79	12.500
862.08	75.000
862.38	-91.667
862.67	128.571
862.97	75.000
863.26	-109.091
863.56	36.364
863.85	5.263
864.15	-5.882
864.44	-20.000
864.74	30.000
865.03	44.444
865.33	7.143
865.62	107.143
865.92	-21.053
866.21	-50.000
866.51	90.909
866.80	-44.444
867.10	-100.000
867.39	12.500
867.69	-40.000
867.98	-10.000
868.27	58.824
868.57	0.000
868.86	600.000
869.16	-200.000
869.45	-171.429
869.75	150.000
870.04	70.000
870.33	400.000
870.63	0.000
870.92	-16.667
871.22	200.000
871.51	-171.429
871.80	-166.667
872.10	-25.000
>>>>>End Processed Spectral Data<<<<<
