SpectraSuite Data File
++++++++++++++++++++++++++++++++++++
Date: Wed May 13 20:40:06 PDT 2015
User: schluterlab
Dark Spectrum Present: Yes
Reference Spectrum Present: Yes
Number of Sampled Component Spectra: 1
Spectrometers: USB2E3373
Integration Time (usec): 3000 (USB2E3373)
Spectra Averaged: 3 (USB2E3373)
Boxcar Smoothing: 0 (USB2E3373)
Correct for Electrical Dark: No (USB2E3373)
Strobe/Lamp Enabled: No (USB2E3373)
Correct for Detector Non-linearity: No (USB2E3373)
Correct for Stray Light: No (USB2E3373)
Number of Pixels in Processed Spectrum: 2048
>>>>>Begin Processed Spectral Data<<<<<
178.53	0.000
178.91	-900.000
179.29	-925.000
179.67	-200.000
180.04	-1100.000
180.42	2050.000
180.80	900.000
181.18	-750.000
181.56	471.429
181.94	0.000
182.31	-500.000
182.69	1400.000
183.07	-312.500
183.45	-400.000
183.83	390.909
184.20	-300.000
184.58	1700.000
184.96	4100.000
185.34	-680.000
185.72	-350.000
186.09	-1850.000
186.47	1700.000
186.85	1700.000
187.23	2400.000
187.61	-1266.667
187.98	775.000
188.36	372.727
188.74	336.364
189.12	-340.000
189.49	420.000
189.87	-2300.000
190.25	-975.000
190.63	357.143
191.00	392.308
191.38	550.000
191.76	-775.000
192.14	950.000
192.51	575.000
192.89	683.333
193.27	425.000
193.65	-775.000
194.02	320.000
194.40	680.000
194.78	430.000
195.15	375.000
195.53	500.000
195.91	-1200.000
196.29	243.750
196.66	252.632
197.04	-70.000
197.42	0.000
197.79	380.000
198.17	-3100.000
198.55	485.714
198.92	525.000
199.30	520.000
199.68	0.000
200.05	255.556
200.43	500.000
200.81	2500.000
201.18	900.000
201.56	-1166.667
201.94	388.889
202.31	344.444
202.69	250.000
203.07	390.000
203.44	0.000
203.82	725.000
204.19	557.143
204.57	328.571
204.95	525.000
205.32	1100.000
205.70	372.727
206.08	235.714
206.45	1750.000
206.83	300.000
207.20	633.333
207.58	480.000
207.96	288.889
208.33	412.500
208.71	-633.333
209.08	585.714
209.46	511.111
209.84	400.000
210.21	-1100.000
210.59	1025.000
210.96	-275.000
211.34	1800.000
211.71	430.000
212.09	483.333
212.46	0.000
212.84	1300.000
213.22	1075.000
213.59	-2300.000
213.97	633.333
214.34	585.714
214.72	445.455
215.09	620.000
215.47	-1750.000
215.84	-1750.000
216.22	1400.000
216.59	264.286
216.97	850.000
217.34	327.273
217.72	-433.333
218.09	0.000
218.47	-3800.000
218.84	500.000
219.22	542.857
219.59	1166.667
219.97	-371.429
220.34	520.000
220.72	-933.333
221.09	264.286
221.47	1175.000
221.84	-550.000
222.22	0.000
222.59	1000.000
222.97	-2150.000
223.34	900.000
223.72	407.692
224.09	980.000
224.46	1850.000
224.84	-3200.000
225.21	-900.000
225.59	-3300.000
225.96	460.000
226.34	265.000
226.71	2150.000
227.08	600.000
227.46	380.000
227.83	-800.000
228.21	-1850.000
228.58	477.778
228.95	-1900.000
229.33	-1150.000
229.70	1233.333
230.08	528.571
230.45	-480.000
230.82	341.667
231.20	516.667
231.57	428.571
231.95	316.667
232.32	177.273
232.69	281.818
233.07	471.429
233.44	338.462
233.81	-1166.667
234.19	231.579
234.56	425.000
234.93	333.333
235.31	409.091
235.68	353.846
236.05	250.000
236.43	145.455
236.80	221.053
237.17	4400.000
237.55	247.619
237.92	203.571
238.29	247.619
238.67	158.065
239.04	206.897
239.41	166.667
239.79	115.217
240.16	171.429
240.53	147.727
240.91	131.373
241.28	118.000
241.65	148.000
242.02	113.043
242.40	108.065
242.77	101.667
243.14	95.699
243.51	112.360
243.89	104.706
244.26	93.333
244.63	90.323
245.00	93.617
245.38	84.158
245.75	91.589
246.12	83.486
246.49	86.131
246.87	94.400
247.24	87.692
247.61	81.429
247.98	79.739
248.36	79.054
248.73	81.529
249.10	89.809
249.47	80.791
249.84	78.610
250.22	70.053
250.59	82.840
250.96	73.232
251.33	77.251
251.70	84.158
252.08	72.857
252.45	77.130
252.82	75.652
253.19	72.340
253.56	73.333
253.94	75.104
254.31	73.828
254.68	74.615
255.05	71.956
255.42	76.829
255.79	77.206
256.16	75.812
256.54	72.085
256.91	74.021
257.28	69.424
257.65	71.947
258.02	68.012
258.39	69.716
258.76	69.231
259.14	69.940
259.51	69.301
259.88	68.634
260.25	70.393
260.62	69.653
260.99	71.118
261.36	72.372
261.73	69.914
262.10	71.221
262.47	68.451
262.85	69.081
263.22	69.231
263.59	72.365
263.96	69.231
264.33	66.057
264.70	68.158
265.07	67.008
265.44	69.949
265.81	62.774
266.18	68.844
266.55	65.854
266.92	70.516
267.29	70.370
267.66	65.367
268.03	65.909
268.40	64.252
268.77	68.019
269.14	62.162
269.51	66.140
269.88	69.697
270.25	61.400
270.62	65.169
270.99	68.172
271.36	62.232
271.73	70.561
272.10	63.913
272.47	65.591
272.84	66.667
273.21	61.426
273.58	61.572
273.95	62.893
274.32	61.983
274.69	67.024
275.06	61.811
275.43	64.043
275.80	62.124
276.17	63.951
276.54	65.904
276.91	63.834
277.28	62.109
277.65	62.863
278.02	65.839
278.39	62.695
278.76	60.545
279.13	63.396
279.50	62.570
279.87	62.749
280.23	64.870
280.60	63.250
280.97	61.738
281.34	63.186
281.71	60.182
282.08	63.916
282.45	56.909
282.82	62.167
283.19	58.467
283.56	58.947
283.92	61.760
284.29	60.494
284.66	59.165
285.03	57.324
285.40	60.739
285.77	59.428
286.14	58.722
286.51	61.000
286.87	57.436
287.24	57.329
287.61	57.464
287.98	56.981
288.35	55.151
288.72	55.140
289.08	51.800
289.45	54.695
289.82	54.634
290.19	53.846
290.56	53.446
290.93	52.115
291.29	54.294
291.66	52.655
292.03	53.924
292.40	53.157
292.77	52.219
293.13	51.791
293.50	51.458
293.87	50.222
294.24	50.667
294.60	49.345
294.97	49.128
295.34	49.365
295.71	48.295
296.08	48.860
296.44	49.519
296.81	46.367
297.18	47.019
297.55	46.438
297.91	46.438
298.28	46.854
298.65	47.258
299.02	46.772
299.38	47.012
299.75	43.396
300.12	44.955
300.48	44.250
300.85	45.993
301.22	44.841
301.59	43.813
301.95	45.970
302.32	44.288
302.69	44.564
303.05	44.364
303.42	43.086
303.79	43.148
304.15	43.357
304.52	42.294
304.89	42.160
305.25	41.763
305.62	40.883
305.99	43.684
306.35	41.163
306.72	42.040
307.09	42.730
307.45	42.005
307.82	39.955
308.19	43.377
308.55	41.532
308.92	41.676
309.29	41.499
309.65	40.509
310.02	40.486
310.38	41.290
310.75	39.599
311.12	39.713
311.48	42.006
311.85	40.461
312.22	40.687
312.58	40.748
312.95	40.655
313.31	39.709
313.68	40.229
314.05	40.434
314.41	40.302
314.78	40.181
315.14	40.814
315.51	39.753
315.87	40.396
316.24	39.722
316.61	39.766
316.97	39.824
317.34	37.573
317.70	39.579
318.07	38.402
318.43	40.802
318.80	37.863
319.16	39.360
319.53	38.931
319.89	38.857
320.26	40.100
320.62	37.996
320.99	36.970
321.35	39.596
321.72	39.322
322.08	39.289
322.45	40.100
322.81	39.632
323.18	41.233
323.54	39.147
323.91	40.755
324.27	40.440
324.64	38.956
325.00	37.692
325.37	38.581
325.73	39.228
326.10	38.658
326.46	38.082
326.83	38.740
327.19	39.112
327.56	39.895
327.92	39.983
328.29	40.106
328.65	40.055
329.01	38.809
329.38	39.500
329.74	39.797
330.11	38.926
330.47	38.108
330.84	37.868
331.20	38.434
331.56	38.991
331.93	38.981
332.29	37.888
332.66	38.496
333.02	37.660
333.38	39.024
333.75	38.859
334.11	37.011
334.48	37.178
334.84	35.937
335.20	38.818
335.57	36.174
335.93	36.696
336.29	37.363
336.66	37.962
337.02	37.285
337.38	38.796
337.75	36.809
338.11	36.885
338.47	38.122
338.84	37.764
339.20	36.606
339.56	38.595
339.93	38.000
340.29	36.504
340.65	36.988
341.02	37.522
341.38	37.811
341.74	37.105
342.11	37.729
342.47	38.414
342.83	36.901
343.20	37.922
343.56	36.563
343.92	35.526
344.28	36.735
344.65	38.435
345.01	35.774
345.37	35.420
345.73	36.887
346.10	36.232
346.46	36.271
346.82	35.502
347.19	35.004
347.55	35.550
347.91	37.540
348.27	37.305
348.63	35.953
349.00	34.951
349.36	35.714
349.72	34.643
350.08	34.522
350.45	35.720
350.81	34.362
351.17	33.549
351.53	34.316
351.89	34.571
352.26	35.596
352.62	35.766
352.98	33.955
353.34	34.429
353.70	34.861
354.07	34.758
354.43	34.603
354.79	34.755
355.15	33.360
355.51	36.131
355.87	34.122
356.24	33.876
356.60	34.563
356.96	34.513
357.32	34.505
357.68	34.094
358.04	34.521
358.40	33.967
358.77	33.020
359.13	32.833
359.49	33.882
359.85	32.937
360.21	32.695
360.57	34.397
360.93	34.692
361.29	33.636
361.66	32.508
362.02	32.761
362.38	33.384
362.74	33.631
363.10	32.939
363.46	32.942
363.82	32.955
364.18	33.407
364.54	33.284
364.90	33.003
365.26	32.647
365.62	33.309
365.98	32.944
366.35	32.092
366.71	33.261
367.07	32.119
367.43	33.164
367.79	33.262
368.15	33.621
368.51	30.814
368.87	32.334
369.23	32.480
369.59	32.078
369.95	31.691
370.31	31.054
370.67	31.087
371.03	33.184
371.39	32.362
371.75	31.618
372.11	31.508
372.47	31.525
372.83	32.061
373.19	31.069
373.55	32.003
373.91	31.738
374.27	30.378
374.63	31.782
374.99	32.768
375.35	31.333
375.71	31.117
376.07	30.864
376.42	30.812
376.78	31.677
377.14	30.054
377.50	31.192
377.86	30.718
378.22	30.721
378.58	30.201
378.94	30.358
379.30	30.534
379.66	31.980
380.02	31.204
380.38	30.723
380.74	30.732
381.09	30.685
381.45	31.961
381.81	31.265
382.17	31.083
382.53	30.126
382.89	31.667
383.25	30.582
383.61	31.351
383.97	30.769
384.32	30.006
384.68	30.173
385.04	29.932
385.40	30.712
385.76	30.590
386.12	31.023
386.48	31.403
386.83	30.212
387.19	30.921
387.55	29.932
387.91	30.048
388.27	30.349
388.62	30.240
388.98	29.975
389.34	30.476
389.70	29.798
390.06	30.672
390.42	29.572
390.77	29.453
391.13	30.249
391.49	29.251
391.85	29.790
392.20	29.022
392.56	30.240
392.92	30.430
393.28	29.527
393.64	30.276
393.99	29.627
394.35	29.653
394.71	30.050
395.07	29.470
395.42	29.543
395.78	29.644
396.14	29.733
396.50	30.514
396.85	29.688
397.21	29.100
397.57	28.952
397.92	28.726
398.28	28.363
398.64	29.630
399.00	29.267
399.35	28.596
399.71	29.977
400.07	29.627
400.42	28.773
400.78	29.011
401.14	28.963
401.49	29.493
401.85	28.615
402.21	28.982
402.57	28.933
402.92	29.634
403.28	28.295
403.63	28.837
403.99	29.299
404.35	28.364
404.70	28.597
405.06	28.538
405.42	29.258
405.77	28.457
406.13	28.781
406.49	29.095
406.84	29.533
407.20	28.073
407.55	28.653
407.91	28.867
408.27	28.717
408.62	28.116
408.98	27.635
409.34	28.475
409.69	28.581
410.05	28.686
410.40	28.746
410.76	27.838
411.11	28.227
411.47	27.923
411.83	29.078
412.18	27.644
412.54	28.456
412.89	28.373
413.25	28.453
413.60	28.721
413.96	27.444
414.31	28.372
414.67	28.961
415.03	27.550
415.38	28.673
415.74	28.682
416.09	29.197
416.45	28.046
416.80	28.156
417.16	29.088
417.51	28.534
417.87	27.874
418.22	28.770
418.58	28.793
418.93	28.870
419.29	29.663
419.64	28.212
420.00	28.049
420.35	28.754
420.71	27.974
421.06	28.938
421.42	28.538
421.77	28.083
422.12	27.793
422.48	27.685
422.83	27.665
423.19	27.735
423.54	28.555
423.90	28.348
424.25	28.978
424.61	28.869
424.96	28.980
425.31	27.796
425.67	27.472
426.02	27.429
426.38	28.877
426.73	27.677
427.09	28.085
427.44	27.200
427.79	27.027
428.15	27.262
428.50	28.204
428.85	27.354
429.21	26.505
429.56	27.942
429.92	27.227
430.27	27.309
430.62	26.882
430.98	27.452
431.33	27.165
431.68	28.063
432.04	27.796
432.39	28.212
432.74	27.947
433.10	28.070
433.45	27.872
433.80	26.441
434.16	26.923
434.51	27.105
434.86	27.708
435.22	27.404
435.57	27.356
435.92	27.092
436.28	28.233
436.63	27.539
436.98	27.819
437.34	27.311
437.69	28.238
438.04	27.544
438.39	27.284
438.75	27.252
439.10	28.045
439.45	26.741
439.81	27.734
440.16	27.273
440.51	27.475
440.86	27.389
441.22	27.364
441.57	27.495
441.92	27.840
442.27	27.879
442.63	26.856
442.98	28.620
443.33	26.957
443.68	27.052
444.03	27.770
444.39	26.923
444.74	26.840
445.09	27.655
445.44	28.267
445.79	27.610
446.15	28.004
446.50	27.356
446.85	27.081
447.20	27.843
447.55	27.192
447.91	27.082
448.26	27.268
448.61	27.473
448.96	27.187
449.31	27.334
449.66	27.349
450.02	27.075
450.37	27.268
450.72	27.862
451.07	27.483
451.42	26.687
451.77	28.538
452.12	27.483
452.47	27.612
452.83	25.699
453.18	26.284
453.53	28.139
453.88	26.285
454.23	26.599
454.58	27.014
454.93	27.591
455.28	26.995
455.63	26.942
455.98	28.452
456.34	27.575
456.69	27.677
457.04	27.121
457.39	25.482
457.74	26.872
458.09	27.372
458.44	26.682
458.79	26.518
459.14	27.370
459.49	27.204
459.84	27.091
460.19	27.873
460.54	25.405
460.89	26.879
461.24	27.808
461.59	27.484
461.94	26.695
462.29	27.478
462.64	27.058
462.99	26.545
463.34	27.667
463.69	26.954
464.04	27.072
464.39	26.899
464.74	26.500
465.09	26.538
465.44	26.981
465.79	25.727
466.14	27.094
466.49	26.641
466.84	27.145
467.19	27.218
467.54	26.875
467.89	25.870
468.24	26.353
468.59	26.740
468.94	26.695
469.29	26.414
469.64	27.041
469.99	27.267
470.34	25.429
470.68	27.371
471.03	25.782
471.38	26.060
471.73	25.650
472.08	26.513
472.43	25.754
472.78	26.465
473.13	25.931
473.48	26.342
473.83	25.488
474.17	25.078
474.52	26.861
474.87	26.620
475.22	26.291
475.57	25.309
475.92	26.075
476.27	25.423
476.61	25.869
476.96	25.509
477.31	25.013
477.66	26.258
478.01	25.144
478.36	25.806
478.70	25.597
479.05	26.145
479.40	25.844
479.75	25.623
480.10	25.149
480.45	25.083
480.79	25.036
481.14	25.636
481.49	25.676
481.84	24.463
482.19	25.625
482.53	25.229
482.88	25.500
483.23	25.794
483.58	26.160
483.92	25.961
484.27	24.706
484.62	24.914
484.97	24.793
485.31	25.411
485.66	24.263
486.01	24.282
486.36	24.702
486.70	25.677
487.05	26.116
487.40	26.124
487.75	26.616
488.09	27.025
488.44	26.251
488.79	27.125
489.13	26.432
489.48	25.938
489.83	24.773
490.17	25.121
490.52	25.376
490.87	24.966
491.22	25.375
491.56	23.827
491.91	24.570
492.26	24.759
492.60	24.562
492.95	24.181
493.30	24.112
493.64	24.358
493.99	24.420
494.34	24.514
494.68	24.771
495.03	24.389
495.37	24.383
495.72	25.244
496.07	25.151
496.41	23.805
496.76	24.494
497.11	24.493
497.45	24.360
497.80	24.712
498.14	24.106
498.49	24.732
498.84	24.688
499.18	24.190
499.53	24.169
499.87	24.604
500.22	24.447
500.56	25.534
500.91	24.423
501.26	24.040
501.60	25.202
501.95	24.335
502.29	25.586
502.64	23.743
502.98	24.825
503.33	24.086
503.67	24.594
504.02	24.743
504.36	24.052
504.71	25.892
505.06	24.578
505.40	24.988
505.75	24.060
506.09	24.344
506.44	24.519
506.78	24.355
507.13	24.685
507.47	24.394
507.82	24.215
508.16	24.620
508.51	24.759
508.85	24.926
509.19	24.592
509.54	23.776
509.88	24.008
510.23	23.548
510.57	25.284
510.92	24.288
511.26	23.947
511.61	24.118
511.95	23.956
512.30	23.224
512.64	24.127
512.98	24.437
513.33	23.394
513.67	24.226
514.02	23.485
514.36	24.031
514.70	24.350
515.05	23.926
515.39	23.780
515.74	23.592
516.08	23.812
516.42	23.807
516.77	23.634
517.11	22.752
517.46	23.646
517.80	23.810
518.14	23.046
518.49	23.746
518.83	23.807
519.17	23.845
519.52	23.260
519.86	23.731
520.20	23.584
520.55	23.818
520.89	23.783
521.23	23.583
521.58	23.649
521.92	23.576
522.26	22.636
522.61	23.801
522.95	23.204
523.29	23.128
523.64	23.720
523.98	23.475
524.32	23.281
524.66	23.452
525.01	23.775
525.35	23.358
525.69	21.921
526.04	23.551
526.38	23.490
526.72	23.190
527.06	23.164
527.41	22.030
527.75	23.987
528.09	24.406
528.43	23.008
528.78	22.864
529.12	23.273
529.46	24.189
529.80	23.948
530.15	23.801
530.49	21.969
530.83	24.304
531.17	23.956
531.51	24.643
531.86	23.226
532.20	23.207
532.54	23.767
532.88	24.262
533.22	23.111
533.57	23.025
533.91	22.517
534.25	23.269
534.59	23.856
534.93	23.795
535.27	23.355
535.62	23.016
535.96	23.603
536.30	23.776
536.64	23.245
536.98	23.955
537.32	23.107
537.66	24.067
538.01	24.358
538.35	23.982
538.69	24.697
539.03	22.157
539.37	23.067
539.71	22.035
540.05	23.660
540.39	23.787
540.73	22.833
541.07	24.270
541.42	23.679
541.76	25.290
542.10	24.321
542.44	24.106
542.78	24.506
543.12	23.161
543.46	23.934
543.80	24.008
544.14	22.786
544.48	23.746
544.82	23.605
545.16	24.723
545.50	23.393
545.84	24.059
546.18	24.310
546.52	24.088
546.86	24.124
547.20	24.680
547.54	24.649
547.88	24.872
548.22	24.035
548.56	23.962
548.90	23.367
549.24	23.704
549.58	24.966
549.92	23.832
550.26	24.361
550.60	24.066
550.94	22.746
551.28	22.312
551.62	24.443
551.96	23.158
552.30	24.096
552.64	24.070
552.98	24.475
553.32	23.736
553.66	23.995
554.00	23.953
554.34	24.569
554.68	24.249
555.02	23.907
555.36	23.660
555.69	24.222
556.03	23.553
556.37	23.738
556.71	22.510
557.05	23.459
557.39	24.773
557.73	24.277
558.07	24.438
558.41	23.951
558.75	23.659
559.08	24.981
559.42	23.054
559.76	23.824
560.10	23.198
560.44	23.201
560.78	23.087
561.12	23.879
561.45	23.924
561.79	23.401
562.13	23.340
562.47	24.249
562.81	23.640
563.15	23.144
563.48	23.011
563.82	23.549
564.16	23.806
564.50	22.721
564.84	23.198
565.17	24.775
565.51	25.367
565.85	23.858
566.19	24.108
566.52	24.699
566.86	23.568
567.20	25.590
567.54	24.315
567.88	23.954
568.21	24.550
568.55	24.317
568.89	24.708
569.23	24.822
569.56	24.211
569.90	24.604
570.24	24.794
570.57	24.719
570.91	24.790
571.25	24.460
571.59	24.831
571.92	25.576
572.26	25.043
572.60	25.646
572.93	24.918
573.27	25.348
573.61	25.209
573.95	25.581
574.28	25.050
574.62	25.340
574.96	25.161
575.29	25.024
575.63	25.864
575.97	25.540
576.30	25.624
576.64	25.474
576.98	25.280
577.31	25.439
577.65	25.016
577.98	25.111
578.32	25.159
578.66	25.954
578.99	25.702
579.33	25.514
579.67	25.298
580.00	25.725
580.34	25.819
580.67	25.715
581.01	25.703
581.35	25.302
581.68	25.479
582.02	25.188
582.35	25.678
582.69	25.924
583.02	26.344
583.36	27.369
583.70	26.249
584.03	26.803
584.37	26.614
584.70	26.306
585.04	25.881
585.37	25.280
585.71	25.752
586.04	26.142
586.38	26.202
586.72	26.678
587.05	25.238
587.39	25.488
587.72	25.612
588.06	26.094
588.39	26.337
588.73	26.430
589.06	26.239
589.40	26.599
589.73	26.118
590.07	26.157
590.40	25.429
590.73	26.151
591.07	26.943
591.40	25.474
591.74	26.926
592.07	26.047
592.41	25.300
592.74	24.869
593.08	25.350
593.41	25.214
593.75	24.953
594.08	25.679
594.41	26.193
594.75	26.100
595.08	26.020
595.42	25.744
595.75	26.104
596.09	26.249
596.42	26.287
596.75	26.298
597.09	26.710
597.42	24.578
597.75	25.226
598.09	25.783
598.42	25.988
598.76	24.605
599.09	24.173
599.42	25.218
599.76	25.659
600.09	24.882
600.42	25.347
600.76	25.607
601.09	24.882
601.42	25.837
601.76	25.579
602.09	26.206
602.42	26.075
602.76	25.474
603.09	25.531
603.42	25.966
603.76	25.419
604.09	25.514
604.42	25.357
604.76	25.728
605.09	25.688
605.42	24.882
605.75	25.414
606.09	25.498
606.42	25.991
606.75	25.467
607.09	25.701
607.42	25.802
607.75	24.641
608.08	25.662
608.42	25.549
608.75	25.113
609.08	24.746
609.41	25.559
609.75	25.441
610.08	24.882
610.41	25.000
610.74	26.159
611.07	25.593
611.41	25.270
611.74	25.842
612.07	26.087
612.40	25.813
612.73	26.000
613.07	25.647
613.40	24.908
613.73	25.013
614.06	25.806
614.39	25.118
614.72	25.474
615.06	25.315
615.39	25.106
615.72	24.387
616.05	25.837
616.38	25.403
616.71	25.059
617.05	24.794
617.38	25.616
617.71	26.006
618.04	26.322
618.37	25.370
618.70	25.327
619.03	26.053
619.36	24.100
619.69	25.493
620.03	25.069
620.36	25.201
620.69	25.000
621.02	25.959
621.35	24.589
621.68	23.598
622.01	23.839
622.34	24.811
622.67	24.867
623.00	25.165
623.33	24.946
623.66	25.661
623.99	24.448
624.32	24.394
624.65	24.718
624.99	23.300
625.32	23.968
625.65	24.493
625.98	25.058
626.31	25.428
626.64	25.388
626.97	24.356
627.30	24.356
627.63	24.856
627.96	24.474
628.29	25.372
628.62	23.696
628.95	25.660
629.28	23.540
629.61	25.756
629.94	24.476
630.26	23.070
630.59	23.832
630.92	24.330
631.25	23.988
631.58	24.725
631.91	23.124
632.24	24.051
632.57	24.029
632.90	24.781
633.23	24.161
633.56	23.616
633.89	24.236
634.22	22.701
634.55	24.260
634.88	25.030
635.20	24.373
635.53	24.940
635.86	23.267
636.19	23.529
636.52	23.529
636.85	24.284
637.18	23.618
637.51	24.232
637.83	22.688
638.16	23.402
638.49	23.678
638.82	25.032
639.15	24.500
639.48	25.561
639.81	24.397
640.13	25.391
640.46	24.430
640.79	24.967
641.12	23.659
641.45	22.346
641.77	24.890
642.10	23.684
642.43	23.123
642.76	23.220
643.09	23.620
643.41	23.065
643.74	24.691
644.07	23.933
644.40	24.693
644.73	24.567
645.05	24.881
645.38	23.381
645.71	23.510
646.04	25.581
646.36	23.873
646.69	24.749
647.02	23.469
647.35	21.993
647.67	24.425
648.00	23.252
648.33	24.587
648.66	25.000
648.98	23.838
649.31	22.571
649.64	23.916
649.96	24.143
650.29	22.275
650.62	22.654
650.94	24.311
651.27	25.507
651.60	25.458
651.92	27.796
652.25	22.638
652.58	23.832
652.90	23.539
653.23	23.729
653.56	22.835
653.88	26.941
654.21	28.278
654.54	24.587
654.86	26.168
655.19	23.514
655.52	21.040
655.84	20.516
656.17	27.197
656.49	38.150
656.82	40.723
657.15	32.166
657.47	24.695
657.80	19.281
658.13	20.392
658.45	30.566
658.78	31.430
659.10	32.003
659.43	32.709
659.75	32.604
660.08	31.266
660.41	30.540
660.73	28.971
661.06	27.866
661.38	28.909
661.71	26.538
662.03	25.641
662.36	22.266
662.68	26.104
663.01	23.838
663.33	25.690
663.66	25.630
663.98	25.702
664.31	22.899
664.63	25.304
664.96	24.145
665.28	24.590
665.61	23.977
665.93	23.541
666.26	24.746
666.58	24.895
666.91	24.736
667.23	26.292
667.56	23.110
667.88	23.718
668.21	26.013
668.53	24.729
668.86	24.026
669.18	26.013
669.50	25.435
669.83	28.322
670.15	25.556
670.48	23.094
670.80	25.000
671.13	23.355
671.45	25.106
671.77	24.236
672.10	26.063
672.42	25.088
672.75	24.710
673.07	26.232
673.39	23.327
673.72	22.656
674.04	26.471
674.37	25.825
674.69	24.540
675.01	23.431
675.34	27.515
675.66	27.579
675.98	27.088
676.31	27.521
676.63	25.690
676.95	24.319
677.28	23.364
677.60	23.516
677.92	25.527
678.25	26.489
678.57	25.498
678.89	23.848
679.22	23.183
679.54	24.809
679.86	26.055
680.18	26.834
680.51	26.596
680.83	25.979
681.15	26.415
681.48	28.544
681.80	25.532
682.12	24.904
682.44	23.985
682.77	26.680
683.09	27.253
683.41	26.829
683.73	24.945
684.06	27.273
684.38	25.245
684.70	26.550
685.02	28.518
685.34	26.740
685.67	23.601
685.99	25.601
686.31	25.427
686.63	24.205
686.96	26.071
687.28	24.729
687.60	25.362
687.92	26.874
688.24	25.665
688.56	26.305
688.89	27.593
689.21	26.638
689.53	24.217
689.85	26.829
690.17	24.638
690.49	25.902
690.82	26.869
691.14	23.661
691.46	22.996
691.78	26.908
692.10	28.306
692.42	24.551
692.74	24.274
693.06	24.043
693.39	26.694
693.71	25.328
694.03	25.895
694.35	25.108
694.67	24.714
694.99	28.049
695.31	26.961
695.63	26.316
695.95	25.917
696.27	22.335
696.59	26.943
696.91	26.943
697.23	22.770
697.56	26.439
697.88	22.904
698.20	26.250
698.52	26.237
698.84	24.722
699.16	25.806
699.48	24.703
699.80	28.019
700.12	29.610
700.44	27.586
700.76	25.414
701.08	25.575
701.40	25.698
701.72	29.155
702.04	30.398
702.36	26.912
702.68	28.329
703.00	27.147
703.32	24.734
703.64	27.614
703.96	27.855
704.28	25.291
704.60	30.205
704.91	29.080
705.23	29.619
705.55	23.588
705.87	33.223
706.19	30.389
706.51	30.218
706.83	29.697
707.15	28.571
707.47	27.525
707.79	30.467
708.11	25.342
708.43	26.667
708.74	27.041
709.06	29.610
709.38	25.984
709.70	28.779
710.02	31.751
710.34	25.455
710.66	29.851
710.98	28.693
711.29	28.198
711.61	26.549
711.93	26.603
712.25	31.833
712.57	28.309
712.89	26.990
713.20	27.660
713.52	29.276
713.84	25.000
714.16	29.878
714.48	29.885
714.80	32.827
715.11	29.395
715.43	28.487
715.75	27.536
716.07	30.990
716.39	28.527
716.70	30.565
717.02	30.216
717.34	27.915
717.66	30.224
717.97	30.279
718.29	26.667
718.61	25.912
718.93	30.147
719.24	29.412
719.56	28.814
719.88	27.119
720.20	32.770
720.51	36.585
720.83	33.457
721.15	27.239
721.46	29.787
721.78	29.391
722.10	29.057
722.42	31.955
722.73	32.210
723.05	27.459
723.37	29.150
723.68	33.977
724.00	32.114
724.32	32.258
724.63	26.423
724.95	26.360
725.27	32.794
725.58	27.344
725.90	28.832
726.22	31.321
726.53	28.819
726.85	31.399
727.16	29.893
727.48	30.142
727.80	31.439
728.11	30.435
728.43	28.077
728.74	28.674
729.06	36.131
729.38	36.765
729.69	30.961
730.01	25.597
730.32	27.083
730.64	32.107
730.96	29.703
731.27	28.477
731.59	29.969
731.90	30.904
732.22	30.124
732.53	26.006
732.85	28.205
733.16	29.904
733.48	32.226
733.80	31.169
734.11	30.255
734.43	30.769
734.74	26.571
735.06	25.788
735.37	32.370
735.69	30.255
736.00	31.373
736.32	29.595
736.63	24.281
736.95	28.435
737.26	26.871
737.58	30.323
737.89	32.776
738.21	33.788
738.52	28.929
738.83	28.679
739.15	32.692
739.46	34.672
739.78	30.903
740.09	30.769
740.41	32.581
740.72	26.481
741.04	35.185
741.35	32.083
741.66	31.556
741.98	33.491
742.29	28.230
742.61	38.793
742.92	29.864
743.23	27.778
743.55	32.000
743.86	32.895
744.18	38.496
744.49	32.536
744.80	36.620
745.12	37.727
745.43	31.278
745.74	33.333
746.06	33.028
746.37	33.184
746.68	33.032
747.00	33.333
747.31	29.524
747.62	30.531
747.94	31.718
748.25	28.085
748.56	33.040
748.88	29.703
749.19	37.500
749.50	33.023
749.82	30.488
750.13	27.347
750.44	30.292
750.75	34.035
751.07	32.476
751.38	32.404
751.69	34.296
752.01	32.331
752.32	28.520
752.63	34.043
752.94	29.508
753.26	36.400
753.57	28.862
753.88	34.375
754.19	31.071
754.51	28.472
754.82	30.325
755.13	33.585
755.44	33.083
755.75	29.197
756.07	30.142
756.38	30.292
756.69	31.208
757.00	27.246
757.31	30.267
757.63	30.409
757.94	27.078
758.25	30.147
758.56	26.914
758.87	26.613
759.18	32.424
759.50	27.273
759.81	31.153
760.12	26.875
760.43	29.513
760.74	28.533
761.05	29.096
761.36	32.888
761.67	32.102
761.99	31.056
762.30	34.375
762.61	29.389
762.92	30.078
763.23	34.874
763.54	36.800
763.85	30.078
764.16	35.000
764.47	34.221
764.78	25.442
765.10	28.797
765.41	32.153
765.72	29.940
766.03	29.467
766.34	35.000
766.65	39.574
766.96	32.906
767.27	37.563
767.58	39.583
767.89	37.368
768.20	37.931
768.51	35.533
768.82	37.615
769.13	31.301
769.44	34.413
769.75	34.764
770.06	27.523
770.37	33.484
770.68	37.500
770.99	33.778
771.30	27.869
771.61	34.529
771.92	32.377
772.23	40.756
772.54	37.436
772.85	38.743
773.16	34.043
773.47	36.957
773.78	47.716
774.09	37.500
774.39	33.918
774.70	40.123
775.01	44.928
775.32	49.020
775.63	46.053
775.94	36.691
776.25	42.520
776.56	45.522
776.87	45.902
777.18	49.219
777.48	49.618
777.79	43.182
778.10	39.259
778.41	46.429
778.72	32.847
779.03	38.255
779.34	34.899
779.65	38.514
779.95	34.356
780.26	41.830
780.57	40.690
780.88	57.813
781.19	49.624
781.50	44.595
781.80	37.107
782.11	38.983
782.42	44.937
782.73	36.196
783.04	43.243
783.34	42.958
783.65	49.315
783.96	45.522
784.27	40.559
784.57	35.252
784.88	40.741
785.19	56.349
785.50	41.509
785.81	41.791
786.11	48.361
786.42	47.287
786.73	37.168
787.04	65.094
787.34	47.321
787.65	46.000
787.96	49.550
788.26	41.322
788.57	50.000
788.88	54.545
789.19	47.917
789.49	50.000
789.80	45.038
790.11	61.905
790.41	54.455
790.72	50.602
791.03	54.348
791.33	59.302
791.64	49.485
791.95	61.386
792.25	55.556
792.56	42.857
792.87	75.641
793.17	72.152
793.48	59.770
793.79	71.264
794.09	65.909
794.40	50.420
794.70	45.588
795.01	42.963
795.32	41.007
795.62	48.031
795.93	56.034
796.23	52.212
796.54	48.235
796.85	64.865
797.15	69.014
797.46	59.091
797.76	71.084
798.07	60.759
798.37	53.846
798.68	69.697
798.99	52.113
799.29	62.338
799.60	52.273
799.90	63.014
800.21	65.672
800.51	62.069
800.82	75.439
801.12	75.410
801.43	92.424
801.73	59.459
802.04	77.778
802.34	75.309
802.65	64.063
802.95	81.356
803.26	95.312
803.56	48.571
803.87	67.692
804.17	73.529
804.48	83.333
804.78	60.345
805.09	64.706
805.39	96.154
805.70	96.429
806.00	72.131
806.30	51.515
806.61	69.512
806.91	63.291
807.22	60.526
807.52	46.269
807.83	77.465
808.13	73.438
808.43	68.333
808.74	46.053
809.04	69.565
809.35	73.134
809.65	65.789
809.95	80.645
810.26	79.661
810.56	69.841
810.86	100.000
811.17	116.667
811.47	76.667
811.77	83.333
812.08	69.091
812.38	82.000
812.69	108.333
812.99	100.000
813.29	83.673
813.59	64.286
813.90	83.673
814.20	76.364
814.50	69.231
814.81	83.824
815.11	85.714
815.41	86.885
815.72	119.048
816.02	85.455
816.32	97.619
816.62	107.500
816.93	90.244
817.23	100.000
817.53	93.182
817.84	127.273
818.14	108.696
818.44	95.556
818.74	129.412
819.04	97.500
819.35	100.000
819.65	108.824
819.95	117.857
820.25	115.000
820.56	112.821
820.86	93.182
821.16	109.302
821.46	110.256
821.76	102.000
822.07	102.857
822.37	112.500
822.67	142.424
822.97	96.078
823.27	150.000
823.57	105.405
823.88	125.000
824.18	160.000
824.48	114.286
824.78	160.000
825.08	141.667
825.38	105.405
825.69	109.756
825.99	179.167
826.29	100.000
826.59	123.684
826.89	94.737
827.19	117.647
827.49	138.710
827.79	125.000
828.09	86.364
828.39	108.511
828.70	100.000
829.00	125.926
829.30	138.710
829.60	97.500
829.90	213.333
830.20	139.286
830.50	182.609
830.80	139.130
831.10	126.667
831.40	140.000
831.70	134.783
832.00	153.846
832.30	137.037
832.60	243.750
832.90	163.333
833.20	300.000
833.50	154.839
833.80	131.034
834.10	131.250
834.40	176.923
834.70	183.333
835.00	180.952
835.30	128.571
835.60	238.462
835.90	158.621
836.20	214.286
836.50	141.379
836.80	148.000
837.10	127.778
837.40	180.952
837.70	223.529
838.00	144.444
838.30	147.619
838.60	228.571
838.90	176.923
839.19	200.000
839.49	307.143
839.79	230.000
840.09	200.000
840.39	176.190
840.69	160.870
840.99	211.111
841.29	240.000
841.59	216.667
841.88	281.250
842.18	141.379
842.48	214.286
842.78	153.333
843.08	156.522
843.38	134.375
843.68	566.667
843.97	138.462
844.27	124.138
844.57	219.048
844.87	225.000
845.17	166.667
845.47	1066.667
845.76	266.667
846.06	229.412
846.36	337.500
846.66	228.571
846.96	175.000
847.25	309.091
847.55	272.727
847.85	186.957
848.15	340.000
848.44	242.857
848.74	155.556
849.04	223.529
849.34	350.000
849.63	157.895
849.93	227.273
850.23	620.000
850.53	242.857
850.82	1250.000
851.12	-2900.000
851.42	3000.000
851.71	185.000
852.01	-566.667
852.31	145.833
852.61	1233.333
852.90	166.667
853.20	160.000
853.50	194.118
853.79	166.667
854.09	191.667
854.39	225.000
854.68	143.243
854.98	183.871
855.28	126.667
855.57	165.517
855.87	140.741
856.17	168.421
856.46	133.333
856.76	188.235
857.05	124.138
857.35	187.500
857.65	240.000
857.94	165.217
858.24	173.077
858.53	200.000
858.83	190.909
859.13	280.000
859.42	0.000
859.72	544.444
860.01	254.545
860.31	190.909
860.60	242.105
860.90	208.696
861.20	388.889
861.49	400.000
861.79	-4200.000
862.08	387.500
862.38	238.095
862.67	161.538
862.97	300.000
863.26	455.556
863.56	222.222
863.85	275.000
864.15	475.000
864.44	273.333
864.74	600.000
865.03	500.000
865.33	178.947
865.62	363.636
865.92	284.615
866.21	341.667
866.51	0.000
866.80	345.455
867.10	1000.000
867.39	276.923
867.69	300.000
867.98	194.737
868.27	345.455
868.57	236.842
868.86	-3400.000
869.16	268.750
869.45	1050.000
869.75	-2100.000
870.04	366.667
870.33	542.857
870.63	1000.000
870.92	2350.000
871.22	457.143
871.51	241.176
871.80	147.619
872.10	292.857
>>>>>End Processed Spectral Data<<<<<
