SpectraSuite Data File
++++++++++++++++++++++++++++++++++++
Date: Wed May 13 20:40:52 PDT 2015
User: schluterlab
Dark Spectrum Present: Yes
Reference Spectrum Present: Yes
Number of Sampled Component Spectra: 1
Spectrometers: USB2E3373
Integration Time (usec): 3000 (USB2E3373)
Spectra Averaged: 3 (USB2E3373)
Boxcar Smoothing: 0 (USB2E3373)
Correct for Electrical Dark: No (USB2E3373)
Strobe/Lamp Enabled: No (USB2E3373)
Correct for Detector Non-linearity: No (USB2E3373)
Correct for Stray Light: No (USB2E3373)
Number of Pixels in Processed Spectrum: 2048
>>>>>Begin Processed Spectral Data<<<<<
178.53	0.000
178.91	-925.000
179.29	-850.000
179.67	-88.889
180.04	-950.000
180.42	2000.000
180.80	680.000
181.18	-750.000
181.56	585.714
181.94	0.000
182.31	-457.143
182.69	1400.000
183.07	-487.500
183.45	-433.333
183.83	336.364
184.20	-260.000
184.58	1200.000
184.96	3800.000
185.34	-440.000
185.72	-412.500
186.09	-1750.000
186.47	1900.000
186.85	1950.000
187.23	3300.000
187.61	-966.667
187.98	1000.000
188.36	409.091
188.74	436.364
189.12	-640.000
189.49	480.000
189.87	-3100.000
190.25	-775.000
190.63	321.429
191.00	323.077
191.38	583.333
191.76	-700.000
192.14	1175.000
192.51	387.500
192.89	550.000
193.27	387.500
193.65	-725.000
194.02	410.000
194.40	780.000
194.78	410.000
195.15	408.333
195.53	450.000
195.91	-1350.000
196.29	250.000
196.66	210.526
197.04	-250.000
197.42	0.000
197.79	480.000
198.17	-2900.000
198.55	342.857
198.92	512.500
199.30	620.000
199.68	0.000
200.05	272.222
200.43	557.143
200.81	3400.000
201.18	1366.667
201.56	-900.000
201.94	388.889
202.31	566.667
202.69	358.333
203.07	420.000
203.44	0.000
203.82	925.000
204.19	471.429
204.57	335.714
204.95	475.000
205.32	1300.000
205.70	354.545
206.08	214.286
206.45	1600.000
206.83	218.750
207.20	533.333
207.58	620.000
207.96	211.111
208.33	550.000
208.71	-583.333
209.08	442.857
209.46	400.000
209.84	409.091
210.21	-1000.000
210.59	1125.000
210.96	-275.000
211.34	2250.000
211.71	470.000
212.09	666.667
212.46	0.000
212.84	1533.333
213.22	1000.000
213.59	-3400.000
213.97	583.333
214.34	714.286
214.72	481.818
215.09	800.000
215.47	-1450.000
215.84	-1600.000
216.22	1200.000
216.59	285.714
216.97	875.000
217.34	345.455
217.72	-466.667
218.09	0.000
218.47	-3600.000
218.84	544.444
219.22	500.000
219.59	1466.667
219.97	-442.857
220.34	800.000
220.72	-1200.000
221.09	335.714
221.47	1000.000
221.84	-616.667
222.22	0.000
222.59	1025.000
222.97	-2250.000
223.34	740.000
223.72	369.231
224.09	960.000
224.46	2100.000
224.84	-2800.000
225.21	-540.000
225.59	-3400.000
225.96	500.000
226.34	205.000
226.71	1850.000
227.08	387.500
227.46	430.000
227.83	-875.000
228.21	-1650.000
228.58	444.444
228.95	-1850.000
229.33	-1900.000
229.70	833.333
230.08	600.000
230.45	-560.000
230.82	308.333
231.20	633.333
231.57	471.429
231.95	325.000
232.32	172.727
232.69	363.636
233.07	542.857
233.44	292.308
233.81	-1300.000
234.19	289.474
234.56	325.000
234.93	291.667
235.31	318.182
235.68	238.462
236.05	314.286
236.43	142.424
236.80	226.316
237.17	3900.000
237.55	195.238
237.92	171.429
238.29	223.810
238.67	170.968
239.04	186.207
239.41	177.778
239.79	123.913
240.16	135.714
240.53	125.000
240.91	113.725
241.28	106.000
241.65	124.000
242.02	115.942
242.40	119.355
242.77	121.667
243.14	92.473
243.51	94.382
243.89	95.294
244.26	85.556
244.63	86.022
245.00	84.043
245.38	91.089
245.75	87.850
246.12	78.899
246.49	79.562
246.87	84.000
247.24	85.385
247.61	80.000
247.98	86.275
248.36	79.730
248.73	70.701
249.10	78.981
249.47	72.316
249.84	79.144
250.22	75.401
250.59	74.556
250.96	70.707
251.33	70.616
251.70	71.782
252.08	76.190
252.45	71.300
252.82	64.783
253.19	69.362
253.56	67.843
253.94	73.444
254.31	69.531
254.68	72.308
255.05	70.849
255.42	72.358
255.79	68.382
256.16	73.285
256.54	67.491
256.91	70.107
257.28	69.065
257.65	61.386
258.02	67.081
258.39	62.145
258.76	64.548
259.14	61.905
259.51	62.006
259.88	62.422
260.25	66.465
260.62	63.584
260.99	64.907
261.36	65.766
261.73	67.908
262.10	66.279
262.47	65.352
262.85	62.396
263.22	59.544
263.59	65.242
263.96	61.813
264.33	62.141
264.70	61.316
265.07	61.637
265.44	63.889
265.81	59.611
266.18	60.050
266.55	60.000
266.92	62.654
267.29	60.417
267.66	59.862
268.03	59.545
268.40	64.019
268.77	61.575
269.14	60.811
269.51	62.528
269.88	62.005
270.25	57.336
270.62	59.101
270.99	61.075
271.36	60.086
271.73	60.514
272.10	60.217
272.47	61.075
272.84	60.173
273.21	59.539
273.58	59.389
273.95	59.119
274.32	56.818
274.69	59.743
275.06	58.661
275.43	58.723
275.80	58.116
276.17	58.859
276.54	58.628
276.91	60.079
277.28	57.031
277.65	58.027
278.02	59.213
278.39	61.133
278.76	58.909
279.13	58.868
279.50	60.521
279.87	56.773
280.23	58.483
280.60	59.381
280.97	57.671
281.34	58.584
281.71	58.727
282.08	59.885
282.45	54.545
282.82	58.082
283.19	58.289
283.56	57.193
283.92	56.176
284.29	55.203
284.66	54.628
285.03	54.792
285.40	58.099
285.77	58.081
286.14	55.786
286.51	55.833
286.87	54.872
287.24	56.840
287.61	54.414
287.98	54.383
288.35	51.981
288.72	53.738
289.08	54.773
289.45	50.906
289.82	53.659
290.19	51.962
290.56	51.302
290.93	48.943
291.29	50.000
291.66	51.180
292.03	51.163
292.40	50.367
292.77	49.408
293.13	50.000
293.50	48.980
293.87	48.148
294.24	48.889
294.60	47.744
294.97	48.256
295.34	47.955
295.71	46.165
296.08	48.006
296.44	46.492
296.81	45.971
297.18	47.425
297.55	43.799
297.91	43.404
298.28	46.988
298.65	44.256
299.02	43.347
299.38	47.676
299.75	42.453
300.12	43.678
300.48	43.750
300.85	43.896
301.22	43.312
301.59	40.909
301.95	43.577
302.32	42.875
302.69	41.338
303.05	42.061
303.42	40.741
303.79	42.582
304.15	40.793
304.52	42.642
304.89	42.393
305.25	40.139
305.62	42.582
305.99	40.732
306.35	40.828
306.72	41.368
307.09	41.620
307.45	41.216
307.82	39.174
308.19	41.280
308.55	40.777
308.92	40.387
309.29	39.810
309.65	40.085
310.02	41.121
310.38	39.032
310.75	38.754
311.12	42.170
311.48	41.693
311.85	40.252
312.22	40.479
312.58	38.981
312.95	41.288
313.31	39.223
313.68	41.164
314.05	42.604
314.41	42.513
314.78	42.598
315.14	41.509
315.51	42.019
315.87	44.158
316.24	41.509
316.61	40.936
316.97	42.368
317.34	42.172
317.70	42.639
318.07	43.311
318.43	43.738
318.80	43.205
319.16	43.032
319.53	41.839
319.89	44.000
320.26	46.400
320.62	45.437
320.99	44.949
321.35	45.354
321.72	46.920
322.08	46.890
322.45	46.468
322.81	47.190
323.18	47.399
323.54	46.660
323.91	48.491
324.27	49.140
324.64	48.835
325.00	47.160
325.37	48.863
325.73	49.910
326.10	50.044
326.46	50.717
326.83	51.337
327.19	52.178
327.56	51.481
327.92	53.193
328.29	52.440
328.65	53.959
329.01	53.700
329.38	54.209
329.74	52.909
330.11	55.891
330.47	54.362
330.84	54.963
331.20	54.918
331.56	54.954
331.93	55.648
332.29	54.747
332.66	57.611
333.02	55.667
333.38	55.556
333.75	56.863
334.11	55.872
334.48	55.989
334.84	58.364
335.20	57.818
335.57	57.026
335.93	57.946
336.29	56.502
336.66	58.702
337.02	57.738
337.38	56.759
337.75	57.843
338.11	57.296
338.47	58.379
338.84	59.853
339.20	60.183
339.56	60.584
339.93	59.182
340.29	57.065
340.65	58.913
341.02	58.639
341.38	59.075
341.74	56.754
342.11	60.262
342.47	58.238
342.83	57.021
343.20	58.009
343.56	57.456
343.92	58.947
344.28	56.973
344.65	58.985
345.01	57.492
345.37	56.775
345.73	56.853
346.10	57.289
346.46	58.644
346.82	57.166
347.19	56.976
347.55	56.650
347.91	57.120
348.27	57.108
348.63	55.686
349.00	55.663
349.36	57.635
349.72	56.055
350.08	57.131
350.45	56.143
350.81	56.133
351.17	55.916
351.53	55.364
351.89	56.353
352.26	56.748
352.62	56.455
352.98	54.862
353.34	57.108
353.70	54.828
354.07	55.645
354.43	54.206
354.79	54.385
355.15	54.988
355.51	57.554
355.87	54.612
356.24	56.270
356.60	53.809
356.96	56.637
357.32	56.092
357.68	55.669
358.04	54.949
358.40	54.157
358.77	53.912
359.13	54.696
359.49	54.353
359.85	54.524
360.21	53.748
360.57	56.809
360.93	54.538
361.29	54.195
361.66	53.096
362.02	53.657
362.38	55.285
362.74	54.092
363.10	53.590
363.46	52.971
363.82	53.893
364.18	53.965
364.54	54.012
364.90	53.895
365.26	54.265
365.62	54.492
365.98	53.762
366.35	54.226
366.71	53.507
367.07	54.042
367.43	55.225
367.79	53.605
368.15	54.167
368.51	53.706
368.87	53.248
369.23	52.451
369.59	53.367
369.95	53.162
370.31	52.778
370.67	51.667
371.03	54.382
371.39	52.915
371.75	54.706
372.11	51.991
372.47	53.812
372.83	55.187
373.19	53.613
373.55	53.806
373.91	55.155
374.27	52.371
374.63	53.236
374.99	52.684
375.35	51.989
375.71	51.679
376.07	53.086
376.42	52.957
376.78	53.347
377.14	52.714
377.50	51.656
377.86	52.394
378.22	52.086
378.58	51.253
378.94	52.294
379.30	52.354
379.66	52.284
380.02	51.536
380.38	51.852
380.74	52.701
381.09	52.323
381.45	51.444
381.81	50.184
382.17	51.338
382.53	51.132
382.89	52.531
383.25	51.282
383.61	52.788
383.97	51.532
384.32	51.653
384.68	50.743
385.04	51.567
385.40	51.022
385.76	51.658
386.12	50.972
386.48	51.731
386.83	51.700
387.19	51.515
387.55	50.897
387.91	50.907
388.27	50.644
388.62	50.400
388.98	50.246
389.34	51.502
389.70	51.441
390.06	49.873
390.42	51.686
390.77	50.891
391.13	50.925
391.49	50.254
391.85	51.496
392.20	49.590
392.56	49.937
392.92	50.029
393.28	49.408
393.64	50.360
393.99	49.297
394.35	50.124
394.71	51.066
395.07	49.470
395.42	51.792
395.78	51.590
396.14	49.534
396.50	51.128
396.85	50.540
397.21	49.877
397.57	50.403
397.92	49.339
398.28	49.159
398.64	49.761
399.00	49.189
399.35	50.254
399.71	49.595
400.07	48.669
400.42	50.123
400.78	49.578
401.14	48.720
401.49	51.104
401.85	49.728
402.21	48.862
402.57	49.352
402.92	50.378
403.28	50.718
403.63	50.062
403.99	49.363
404.35	50.182
404.70	49.700
405.06	47.816
405.42	49.158
405.77	49.029
406.13	48.928
406.49	49.143
406.84	48.435
407.20	48.463
407.55	49.202
407.91	50.600
408.27	49.330
408.62	48.645
408.98	49.694
409.34	49.139
409.69	49.871
410.05	48.575
410.40	50.581
410.76	48.148
411.11	48.914
411.47	48.179
411.83	48.564
412.18	47.619
412.54	50.062
412.89	48.253
413.25	48.170
413.60	49.351
413.96	47.905
414.31	48.360
414.67	48.352
415.03	49.073
415.38	48.325
415.74	48.489
416.09	49.771
416.45	48.193
416.80	48.645
417.16	50.000
417.51	49.967
417.87	47.977
418.22	49.274
418.58	49.322
418.93	50.307
419.29	49.268
419.64	49.181
420.00	49.024
420.35	48.638
420.71	49.432
421.06	47.852
421.42	48.070
421.77	48.991
422.12	48.456
422.48	48.462
422.83	48.748
423.19	48.232
423.54	48.636
423.90	48.000
424.25	49.023
424.61	48.333
424.96	49.913
425.31	47.841
425.67	48.371
426.02	48.857
426.38	51.893
426.73	49.327
427.09	49.483
427.44	48.821
427.79	50.029
428.15	49.464
428.50	50.322
428.85	49.821
429.21	49.475
429.56	49.196
429.92	49.220
430.27	48.610
430.62	47.824
430.98	49.248
431.33	48.814
431.68	49.058
432.04	49.521
432.39	49.800
432.74	50.030
433.10	49.802
433.45	49.854
433.80	49.335
434.16	49.840
434.51	50.053
434.86	51.311
435.22	49.917
435.57	50.456
435.92	49.561
436.28	50.356
436.63	50.000
436.98	50.029
437.34	50.686
437.69	52.450
438.04	50.871
438.39	49.313
438.75	50.668
439.10	50.838
439.45	51.535
439.81	50.453
440.16	50.819
440.51	50.146
440.86	50.376
441.22	50.890
441.57	50.053
441.92	51.331
442.27	51.076
442.63	50.816
442.98	52.225
443.33	51.630
443.68	50.594
444.03	51.147
444.39	50.828
444.74	52.435
445.09	52.237
445.44	50.301
445.79	50.717
446.15	52.356
446.50	50.781
446.85	52.518
447.20	52.371
447.55	52.708
447.91	53.006
448.26	53.979
448.61	52.346
448.96	52.658
449.31	53.768
449.66	53.405
450.02	53.036
450.37	52.098
450.72	53.187
451.07	52.834
451.42	52.705
451.77	52.907
452.12	52.021
452.47	53.234
452.83	53.788
453.18	52.751
453.53	54.360
453.88	53.574
454.23	53.377
454.58	54.452
454.93	56.516
455.28	53.678
455.63	54.551
455.98	56.250
456.34	54.397
456.69	55.542
457.04	56.347
457.39	55.056
457.74	54.904
458.09	56.354
458.44	55.188
458.79	52.983
459.14	56.377
459.49	54.699
459.84	54.017
460.19	55.097
460.54	53.356
460.89	54.361
461.24	55.556
461.59	55.200
461.94	55.857
462.29	56.261
462.64	55.137
462.99	55.172
463.34	56.467
463.69	55.472
464.04	55.652
464.39	54.841
464.74	55.674
465.09	56.454
465.44	54.626
465.79	55.257
466.14	55.610
466.49	54.004
466.84	57.151
467.19	55.522
467.54	55.750
467.89	56.663
468.24	57.301
468.59	55.861
468.94	55.345
469.29	57.262
469.64	57.697
469.99	57.781
470.34	57.001
470.68	58.190
471.03	56.599
471.38	57.609
471.73	56.496
472.08	57.829
472.43	57.161
472.78	57.801
473.13	58.344
473.48	57.928
473.83	57.378
474.17	57.125
474.52	58.313
474.87	57.852
475.22	57.690
475.57	56.475
475.92	57.568
476.27	57.610
476.61	58.081
476.96	57.394
477.31	56.777
477.66	59.190
478.01	56.717
478.36	57.166
478.70	58.619
479.05	58.094
479.40	58.188
479.75	58.414
480.10	57.256
480.45	56.640
480.79	57.525
481.14	58.268
481.49	58.662
481.84	57.385
482.19	57.928
482.53	58.349
482.88	58.632
483.23	58.037
483.58	57.916
483.92	59.185
484.27	57.516
484.62	57.457
484.97	56.129
485.31	57.021
485.66	54.449
486.01	53.832
486.36	52.836
486.70	54.191
487.05	54.781
487.40	55.337
487.75	55.586
488.09	56.172
488.44	56.071
488.79	57.613
489.13	57.639
489.48	58.197
489.83	57.661
490.17	59.842
490.52	59.123
490.87	58.118
491.22	60.209
491.56	58.679
491.91	58.865
492.26	58.751
492.60	59.770
492.95	59.822
493.30	58.318
493.64	60.709
493.99	59.842
494.34	60.962
494.68	61.401
495.03	60.150
495.37	59.888
495.72	60.867
496.07	59.350
496.41	57.965
496.76	59.015
497.11	60.198
497.45	60.363
497.80	60.269
498.14	60.435
498.49	61.951
498.84	60.978
499.18	61.190
499.53	60.161
499.87	59.646
500.22	61.093
500.56	62.184
500.91	60.962
501.26	61.404
501.60	61.557
501.95	59.762
502.29	61.293
502.64	60.568
502.98	60.776
503.33	60.649
503.67	60.046
504.02	60.617
504.36	61.254
504.71	61.749
505.06	60.723
505.40	61.886
505.75	60.800
506.09	61.322
506.44	62.950
506.78	61.520
507.13	62.998
507.47	60.960
507.82	62.614
508.16	62.715
508.51	63.623
508.85	62.016
509.19	61.735
509.54	61.888
509.88	62.751
510.23	64.010
510.57	63.777
510.92	63.283
511.26	62.487
511.61	62.863
511.95	63.100
512.30	62.195
512.64	62.762
512.98	64.041
513.33	63.812
513.67	62.380
514.02	63.095
514.36	64.610
514.70	64.195
515.05	63.915
515.39	63.769
515.74	64.189
516.08	64.561
516.42	64.151
516.77	64.493
517.11	63.430
517.46	65.350
517.80	66.086
518.14	64.389
518.49	66.278
518.83	64.148
519.17	65.704
519.52	64.969
519.86	64.860
520.20	65.896
520.55	66.727
520.89	67.457
521.23	67.250
521.58	65.426
521.92	66.320
522.26	65.894
522.61	67.227
522.95	65.991
523.29	65.794
523.64	68.354
523.98	68.084
524.32	66.586
524.66	66.266
525.01	66.544
525.35	67.472
525.69	65.825
526.04	67.352
526.38	67.419
526.72	66.564
527.06	67.232
527.41	65.285
527.75	67.588
528.09	68.208
528.43	68.196
528.78	67.793
529.12	67.152
529.46	67.667
529.80	68.379
530.15	67.539
530.49	65.846
530.83	66.329
531.17	67.167
531.51	69.974
531.86	67.097
532.20	67.862
532.54	68.482
532.88	67.843
533.22	66.958
533.57	65.988
533.91	65.623
534.25	66.889
534.59	67.846
534.93	65.794
535.27	66.807
535.62	66.484
535.96	68.048
536.30	67.133
536.64	68.448
536.98	69.542
537.32	67.808
537.66	68.000
538.01	69.256
538.35	67.873
538.69	67.773
539.03	68.031
539.37	66.006
539.71	66.623
540.05	68.431
540.39	69.369
540.73	67.658
541.07	68.332
541.42	69.602
541.76	68.258
542.10	67.464
542.44	67.020
542.78	68.709
543.12	67.754
543.46	67.410
543.80	69.746
544.14	65.083
544.48	67.810
544.82	67.736
545.16	69.291
545.50	67.031
545.84	68.414
546.18	69.226
546.52	70.131
546.86	69.347
547.20	69.252
547.54	68.537
547.88	68.878
548.22	67.870
548.56	67.421
548.90	67.606
549.24	68.956
549.58	69.986
549.92	69.162
550.26	70.952
550.60	67.635
550.94	69.155
551.28	68.325
551.62	70.093
551.96	70.246
552.30	70.102
552.64	69.101
552.98	69.492
553.32	68.307
553.66	69.121
554.00	69.870
554.34	68.185
554.68	70.529
555.02	69.958
555.36	69.729
555.69	67.118
556.03	68.304
556.37	70.668
556.71	69.236
557.05	69.118
557.39	69.979
557.73	69.160
558.07	72.589
558.41	71.346
558.75	70.683
559.08	70.619
559.42	72.109
559.76	70.956
560.10	71.092
560.44	70.929
560.78	69.528
561.12	70.910
561.45	69.492
561.79	69.281
562.13	70.959
562.47	71.311
562.81	71.757
563.15	69.231
563.48	69.430
563.82	71.168
564.16	71.681
564.50	68.164
564.84	68.015
565.17	69.884
565.51	70.607
565.85	70.431
566.19	68.817
566.52	70.044
566.86	68.656
567.20	70.047
567.54	68.893
567.88	68.169
568.21	68.042
568.55	67.543
568.89	66.926
569.23	65.463
569.56	66.397
569.90	65.170
570.24	64.657
570.57	63.312
570.91	63.251
571.25	62.940
571.59	62.062
571.92	63.076
572.26	63.287
572.60	62.492
572.93	62.369
573.27	62.348
573.61	62.619
573.95	62.610
574.28	62.261
574.62	61.686
574.96	61.362
575.29	61.324
575.63	61.560
575.97	61.442
576.30	61.869
576.64	62.042
576.98	61.667
577.31	62.454
577.65	61.911
577.98	62.083
578.32	60.822
578.66	61.468
578.99	61.242
579.33	61.293
579.67	61.591
580.00	61.496
580.34	62.197
580.67	62.184
581.01	61.525
581.35	61.730
581.68	61.298
582.02	61.483
582.35	62.405
582.69	61.853
583.02	62.419
583.36	62.670
583.70	63.536
584.03	62.200
584.37	63.794
584.70	63.036
585.04	62.549
585.37	62.279
585.71	62.594
586.04	62.793
586.38	64.577
586.72	64.733
587.05	62.836
587.39	63.219
587.72	63.437
588.06	63.874
588.39	64.609
588.73	64.242
589.06	64.880
589.40	65.488
589.73	66.631
590.07	65.836
590.40	64.304
590.73	67.135
591.07	66.504
591.40	67.609
591.74	67.489
592.07	67.147
592.41	66.887
592.74	66.030
593.08	65.656
593.41	65.201
593.75	64.585
594.08	64.968
594.41	66.737
594.75	66.691
595.08	65.211
595.42	65.499
595.75	66.809
596.09	66.804
596.42	67.151
596.75	67.033
597.09	67.446
597.42	66.273
597.75	68.348
598.09	67.217
598.42	67.053
598.76	66.194
599.09	67.275
599.42	66.849
599.76	66.179
600.09	66.120
600.42	66.107
600.76	64.607
601.09	65.173
601.42	66.743
601.76	66.755
602.09	67.036
602.42	66.799
602.76	67.392
603.09	66.444
603.42	68.059
603.76	66.502
604.09	67.119
604.42	68.365
604.76	68.874
605.09	69.332
605.42	67.208
605.75	67.508
606.09	66.409
606.42	66.326
606.75	67.690
607.09	67.183
607.42	68.378
607.75	66.371
608.08	68.476
608.42	67.772
608.75	67.764
609.08	68.224
609.41	68.539
609.75	69.128
610.08	69.133
610.41	70.112
610.74	70.530
611.07	71.047
611.41	69.529
611.74	70.488
612.07	70.600
612.40	71.616
612.73	70.842
613.07	71.228
613.40	71.090
613.73	70.320
614.06	70.484
614.39	68.327
614.72	69.789
615.06	70.641
615.39	70.011
615.72	69.223
616.05	69.059
616.38	70.372
616.71	71.734
617.05	72.261
617.38	71.197
617.71	71.592
618.04	71.875
618.37	70.727
618.70	72.869
619.03	73.553
619.36	72.709
619.69	73.310
620.03	75.069
620.36	72.393
620.69	73.904
621.02	72.788
621.35	75.411
621.68	73.988
622.01	75.155
622.34	75.719
622.67	75.817
623.00	75.275
623.33	72.337
623.66	74.982
623.99	75.258
624.32	74.750
624.65	75.000
624.99	74.363
625.32	74.366
625.65	74.681
625.98	75.250
626.31	75.894
626.64	75.918
626.97	77.307
627.30	77.805
627.63	75.390
627.96	76.283
628.29	77.428
628.62	79.140
628.95	80.000
629.28	79.836
629.61	78.093
629.94	81.048
630.26	79.028
630.59	79.600
630.92	78.927
631.25	79.763
631.58	79.079
631.91	79.919
632.24	80.380
632.57	80.063
632.90	79.934
633.23	80.872
633.56	81.356
633.89	82.559
634.22	83.995
634.55	83.905
634.88	83.114
635.20	83.751
635.53	83.133
635.86	86.510
636.19	79.765
636.52	81.315
636.85	81.672
637.18	79.147
637.51	82.151
637.83	81.504
638.16	86.189
638.49	82.620
638.82	85.714
639.15	83.125
639.48	80.549
639.81	86.729
640.13	84.505
640.46	84.430
640.79	84.941
641.12	83.906
641.45	84.777
641.77	86.745
642.10	84.064
642.43	86.637
642.76	85.449
643.09	87.117
643.41	87.860
643.74	88.580
644.07	87.652
644.40	86.043
644.73	84.567
645.05	89.382
645.38	84.044
645.71	89.372
646.04	91.362
646.36	91.820
646.69	90.803
647.02	88.265
647.35	88.144
647.67	88.496
648.00	86.992
648.33	88.449
648.66	84.394
648.98	85.307
649.31	84.006
649.64	84.903
649.96	84.799
650.29	87.204
650.62	85.599
650.94	85.575
651.27	87.669
651.60	87.354
651.92	81.470
652.25	85.668
652.58	86.293
652.90	85.782
653.23	82.126
653.56	85.197
653.88	83.043
654.21	86.256
654.54	87.129
654.86	86.449
655.19	81.216
655.52	66.049
655.84	60.799
656.17	75.435
656.49	98.430
656.82	98.608
657.15	74.983
657.47	55.813
657.80	42.395
658.13	43.598
658.45	64.438
658.78	64.287
659.10	64.323
659.43	67.189
659.75	67.843
660.08	70.886
660.41	75.419
660.73	80.305
661.06	84.076
661.38	86.182
661.71	87.500
662.03	90.730
662.36	85.089
662.68	87.550
663.01	93.333
663.33	91.932
663.66	88.655
663.98	93.305
664.31	92.017
664.63	86.235
664.96	87.123
665.28	90.779
665.61	87.329
665.93	88.934
666.26	90.669
666.58	91.423
666.91	90.698
667.23	90.337
667.56	87.689
667.88	90.812
668.21	88.486
668.53	88.937
668.86	87.013
669.18	91.045
669.50	87.391
669.83	90.850
670.15	93.111
670.48	86.275
670.80	88.147
671.13	89.384
671.45	88.298
671.77	87.169
672.10	85.397
672.42	84.099
672.75	83.085
673.07	83.979
673.39	84.268
673.72	87.695
674.04	86.471
674.37	82.913
674.69	88.139
675.01	88.912
675.34	86.242
675.66	89.684
675.98	89.613
676.31	88.235
676.63	86.624
676.95	85.744
677.28	90.654
677.60	91.209
677.92	91.350
678.25	86.037
678.57	85.857
678.89	86.774
679.22	85.462
679.54	83.969
679.86	86.789
680.18	83.005
680.51	83.511
680.83	83.274
681.15	84.906
681.48	86.011
681.80	83.946
682.12	85.824
682.44	82.592
682.77	86.354
683.09	90.987
683.41	89.135
683.73	88.521
684.06	87.810
684.38	85.323
684.70	85.078
685.02	84.803
685.34	81.685
685.67	81.294
685.99	78.522
686.31	79.352
686.63	80.212
686.96	80.893
687.28	80.325
687.60	80.435
687.92	82.267
688.24	79.087
688.56	83.333
688.89	87.137
689.21	88.210
689.53	83.507
689.85	87.583
690.17	80.124
690.49	84.713
690.82	89.252
691.14	88.616
691.46	84.177
691.78	79.116
692.10	87.397
692.42	84.431
692.74	82.573
693.06	83.191
693.39	82.957
693.71	86.026
694.03	83.789
694.35	80.303
694.67	81.693
694.99	88.537
695.31	89.706
695.63	89.474
695.95	88.998
696.27	85.787
696.59	86.788
696.91	87.824
697.23	81.221
697.56	80.810
697.88	80.164
698.20	80.833
698.52	82.581
698.84	81.960
699.16	84.562
699.48	87.411
699.80	88.164
700.12	91.688
700.44	87.798
700.76	87.017
701.08	88.218
701.40	87.709
701.72	90.379
702.04	89.205
702.36	84.419
702.68	88.385
703.00	86.427
703.32	86.170
703.64	84.182
703.96	86.072
704.28	87.500
704.60	90.323
704.91	91.988
705.23	88.563
705.55	91.362
705.87	93.355
706.19	98.587
706.51	90.966
706.83	94.242
707.15	85.994
707.47	83.081
707.79	87.224
708.11	81.279
708.43	79.524
708.74	82.653
709.06	85.714
709.38	80.577
709.70	90.116
710.02	84.866
710.34	85.455
710.66	86.567
710.98	86.080
711.29	86.628
711.61	84.661
711.93	85.577
712.25	89.711
712.57	96.324
712.89	92.388
713.20	83.283
713.52	86.513
713.84	81.013
714.16	82.622
714.48	82.471
714.80	87.234
715.11	81.268
715.43	84.273
715.75	79.710
716.07	87.220
716.39	84.326
716.70	82.724
717.02	91.007
717.34	86.926
717.66	87.313
717.97	94.422
718.29	83.704
718.61	89.051
718.93	93.382
719.24	85.467
719.56	83.051
719.88	84.068
720.20	87.500
720.51	89.199
720.83	89.591
721.15	85.821
721.46	82.979
721.78	84.946
722.10	90.189
722.42	90.602
722.73	89.513
723.05	94.262
723.37	84.615
723.68	87.645
724.00	91.463
724.32	86.694
724.63	88.211
724.95	90.795
725.27	94.737
725.58	89.453
725.90	92.336
726.22	87.925
726.53	80.208
726.85	84.300
727.16	84.698
727.48	81.206
727.80	83.712
728.11	86.957
728.43	89.231
728.74	81.004
729.06	84.307
729.38	88.971
729.69	88.256
730.01	80.887
730.32	83.681
730.64	80.268
730.96	77.888
731.27	84.437
731.59	77.982
731.90	80.758
732.22	80.124
732.53	75.851
732.85	78.526
733.16	82.315
733.48	81.728
733.80	82.143
734.11	81.847
734.43	81.361
734.74	81.429
735.06	75.645
735.37	82.081
735.69	78.025
736.00	84.641
736.32	79.439
736.63	77.955
736.95	80.511
737.26	81.293
737.58	78.065
737.89	80.602
738.21	83.618
738.52	84.643
738.83	81.887
739.15	78.077
739.46	80.292
739.78	82.986
740.09	75.077
740.41	80.645
740.72	80.488
741.04	82.593
741.35	81.667
741.66	96.000
741.98	90.094
742.29	94.737
742.61	83.190
742.92	82.353
743.23	85.897
743.55	78.400
743.86	87.281
744.18	87.168
744.49	91.388
744.80	92.019
745.12	86.364
745.43	89.427
745.74	87.838
746.06	94.495
746.37	89.686
746.68	86.425
747.00	95.370
747.31	90.476
747.62	88.053
747.94	88.987
748.25	84.681
748.56	80.617
748.88	85.644
749.19	93.000
749.50	87.907
749.82	77.642
750.13	86.939
750.44	79.927
750.75	82.105
751.07	79.743
751.38	78.746
751.69	81.949
752.01	82.707
752.32	83.394
752.63	76.950
752.94	84.016
753.26	82.800
753.57	80.894
753.88	88.281
754.19	80.000
754.51	82.639
754.82	77.256
755.13	77.736
755.44	78.947
755.75	80.292
756.07	79.433
756.38	79.197
756.69	81.879
757.00	69.461
757.31	72.107
757.63	76.608
757.94	76.408
758.25	68.873
758.56	69.877
758.87	68.280
759.18	75.758
759.50	72.414
759.81	70.717
760.12	76.250
760.43	75.072
760.74	74.185
761.05	75.424
761.36	75.668
761.67	73.011
761.99	76.087
762.30	77.778
762.61	75.191
762.92	73.438
763.23	77.731
763.54	84.400
763.85	80.859
764.16	81.538
764.47	82.129
764.78	74.558
765.10	71.835
765.41	73.746
765.72	73.054
766.03	68.652
766.34	69.000
766.65	80.000
766.96	78.205
767.27	88.832
767.58	86.458
767.89	80.000
768.20	90.230
768.51	81.218
768.82	83.486
769.13	80.488
769.44	74.494
769.75	84.120
770.06	80.734
770.37	86.425
770.68	89.352
770.99	76.889
771.30	72.131
771.61	88.789
771.92	82.787
772.23	77.731
772.54	82.051
772.85	87.958
773.16	86.170
773.47	84.783
773.78	81.218
774.09	85.714
774.39	88.304
774.70	89.506
775.01	92.754
775.32	84.314
775.63	84.211
775.94	88.489
776.25	103.150
776.56	85.821
776.87	96.721
777.18	94.531
777.48	103.053
777.79	93.182
778.10	93.333
778.41	104.464
778.72	83.212
779.03	81.208
779.34	83.893
779.65	89.189
779.95	85.890
780.26	86.928
780.57	86.897
780.88	104.688
781.19	90.226
781.50	97.973
781.80	89.937
782.11	79.661
782.42	86.076
782.73	80.368
783.04	92.568
783.34	89.437
783.65	93.151
783.96	92.537
784.27	97.203
784.57	79.856
784.88	96.296
785.19	88.889
785.50	109.434
785.81	106.716
786.11	95.902
786.42	95.349
786.73	96.460
787.04	107.547
787.34	88.393
787.65	108.000
787.96	110.811
788.26	93.388
788.57	102.542
788.88	97.521
789.19	90.972
789.49	97.727
789.80	83.206
790.11	103.810
790.41	105.941
790.72	114.458
791.03	107.609
791.33	116.279
791.64	104.124
791.95	106.931
792.25	104.444
792.56	119.481
792.87	115.385
793.17	112.658
793.48	113.793
793.79	111.494
794.09	104.545
794.40	94.958
794.70	91.176
795.01	80.741
795.32	74.101
795.62	82.677
795.93	100.000
796.23	84.071
796.54	103.529
796.85	94.595
797.15	116.901
797.46	124.242
797.76	108.434
798.07	113.924
798.37	118.462
798.68	119.697
798.99	104.225
799.29	107.792
799.60	86.364
799.90	117.808
800.21	114.925
800.51	124.138
800.82	124.561
801.12	132.787
801.43	134.848
801.73	98.649
802.04	130.159
802.34	96.296
802.65	129.688
802.95	122.034
803.26	123.438
803.56	102.857
803.87	107.692
804.17	120.588
804.48	153.704
804.78	110.345
805.09	105.882
805.39	113.462
805.70	128.571
806.00	134.426
806.30	118.182
806.61	110.976
806.91	94.937
807.22	94.737
807.52	108.955
807.83	115.493
808.13	115.625
808.43	130.000
808.74	89.474
809.04	115.942
809.35	120.896
809.65	106.579
809.95	122.581
810.26	116.949
810.56	107.937
810.86	165.909
811.17	176.190
811.47	126.667
811.77	120.370
812.08	138.182
812.38	132.000
812.69	158.333
812.99	172.727
813.29	130.612
813.59	123.810
813.90	116.327
814.20	149.091
814.50	120.000
814.81	110.294
815.11	138.776
815.41	124.590
815.72	171.429
816.02	125.455
816.32	154.762
816.62	155.000
816.93	143.902
817.23	157.143
817.53	138.636
817.84	154.545
818.14	130.435
818.44	140.000
818.74	182.353
819.04	115.000
819.35	177.143
819.65	191.176
819.95	189.286
820.25	235.000
820.56	171.795
820.86	127.273
821.16	181.395
821.46	171.795
821.76	146.000
822.07	191.429
822.37	165.000
822.67	190.909
822.97	121.569
823.27	210.714
823.57	167.568
823.88	162.500
824.18	203.333
824.48	145.238
824.78	224.000
825.08	183.333
825.38	129.730
825.69	141.463
825.99	166.667
826.29	158.621
826.59	147.368
826.89	128.947
827.19	185.294
827.49	177.419
827.79	156.818
828.09	159.091
828.39	125.532
828.70	126.531
829.00	177.778
829.30	141.935
829.60	115.000
829.90	306.667
830.20	178.571
830.50	169.565
830.80	204.348
831.10	170.000
831.40	176.667
831.70	226.087
832.00	226.923
832.30	225.926
832.60	281.250
832.90	156.667
833.20	357.143
833.50	167.742
833.80	175.862
834.10	193.750
834.40	157.692
834.70	277.778
835.00	304.762
835.30	180.000
835.60	376.923
835.90	200.000
836.20	328.571
836.50	189.655
836.80	164.000
837.10	169.444
837.40	285.714
837.70	264.706
838.00	192.593
838.30	204.762
838.60	280.952
838.90	203.846
839.19	275.000
839.49	335.714
839.79	280.000
840.09	205.000
840.39	276.190
840.69	269.565
840.99	300.000
841.29	470.000
841.59	250.000
841.88	350.000
842.18	148.276
842.48	223.810
842.78	153.333
843.08	195.652
843.38	162.500
843.68	733.333
843.97	176.923
844.27	193.103
844.57	261.905
844.87	375.000
845.17	159.259
845.47	1266.667
845.76	333.333
846.06	247.059
846.36	425.000
846.66	328.571
846.96	225.000
847.25	400.000
847.55	354.545
847.85	217.391
848.15	350.000
848.44	235.714
848.74	238.889
849.04	270.588
849.34	500.000
849.63	210.526
849.93	336.364
850.23	900.000
850.53	264.286
850.82	2250.000
851.12	-3800.000
851.42	3600.000
851.71	260.000
852.01	-833.333
852.31	208.333
852.61	1400.000
852.90	261.905
853.20	212.000
853.50	282.353
853.79	223.810
854.09	175.000
854.39	268.750
854.68	189.189
854.98	148.387
855.28	160.000
855.57	220.690
855.87	177.778
856.17	189.474
856.46	246.667
856.76	311.765
857.05	193.103
857.35	229.167
857.65	300.000
857.94	217.391
858.24	176.923
858.53	285.000
858.83	231.818
859.13	286.667
859.42	0.000
859.72	455.556
860.01	400.000
860.31	259.091
860.60	205.263
860.90	178.261
861.20	500.000
861.49	366.667
861.79	-3600.000
862.08	462.500
862.38	233.333
862.67	276.923
862.97	276.471
863.26	444.444
863.56	233.333
863.85	300.000
864.15	525.000
864.44	293.333
864.74	550.000
865.03	550.000
865.33	257.895
865.62	345.455
865.92	353.846
866.21	291.667
866.51	0.000
866.80	372.727
867.10	740.000
867.39	300.000
867.69	381.818
867.98	200.000
868.27	318.182
868.57	242.105
868.86	-3300.000
869.16	256.250
869.45	1450.000
869.75	-3100.000
870.04	300.000
870.33	471.429
870.63	800.000
870.92	2500.000
871.22	557.143
871.51	294.118
871.80	157.143
872.10	307.143
>>>>>End Processed Spectral Data<<<<<
