SpectraSuite Data File
++++++++++++++++++++++++++++++++++++
Date: Wed May 13 20:23:21 PDT 2015
User: schluterlab
Dark Spectrum Present: Yes
Reference Spectrum Present: Yes
Number of Sampled Component Spectra: 1
Spectrometers: USB2E3373
Integration Time (usec): 3000 (USB2E3373)
Spectra Averaged: 3 (USB2E3373)
Boxcar Smoothing: 0 (USB2E3373)
Correct for Electrical Dark: No (USB2E3373)
Strobe/Lamp Enabled: No (USB2E3373)
Correct for Detector Non-linearity: No (USB2E3373)
Correct for Stray Light: No (USB2E3373)
Number of Pixels in Processed Spectrum: 2048
>>>>>Begin Processed Spectral Data<<<<<
178.53	0.000
178.91	-1250.000
179.29	-1250.000
179.67	-216.667
180.04	-1250.000
180.42	2550.000
180.80	1020.000
181.18	-1200.000
181.56	628.571
181.94	0.000
182.31	-700.000
182.69	1733.333
183.07	-550.000
183.45	-411.111
183.83	545.455
184.20	-360.000
184.58	1750.000
184.96	5200.000
185.34	-940.000
185.72	-625.000
186.09	-2250.000
186.47	2750.000
186.85	2800.000
187.23	5500.000
187.61	-2033.333
187.98	1550.000
188.36	527.273
188.74	554.545
189.12	-920.000
189.49	510.000
189.87	-5300.000
190.25	-1375.000
190.63	421.429
191.00	384.615
191.38	916.667
191.76	-1200.000
192.14	1525.000
192.51	662.500
192.89	900.000
193.27	450.000
193.65	-1075.000
194.02	510.000
194.40	860.000
194.78	640.000
195.15	558.333
195.53	650.000
195.91	-1800.000
196.29	362.500
196.66	305.263
197.04	-230.000
197.42	0.000
197.79	560.000
198.17	-5000.000
198.55	742.857
198.92	912.500
199.30	960.000
199.68	0.000
200.05	288.889
200.43	800.000
200.81	4700.000
201.18	1766.667
201.56	-1766.667
201.94	600.000
202.31	577.778
202.69	450.000
203.07	550.000
203.44	0.000
203.82	1325.000
204.19	671.429
204.57	457.143
204.95	587.500
205.32	1633.333
205.70	409.091
206.08	350.000
206.45	2250.000
206.83	375.000
207.20	900.000
207.58	680.000
207.96	283.333
208.33	637.500
208.71	-916.667
209.08	742.857
209.46	511.111
209.84	463.636
210.21	-1500.000
210.59	1325.000
210.96	-550.000
211.34	2900.000
211.71	660.000
212.09	950.000
212.46	0.000
212.84	1700.000
213.22	1225.000
213.59	-4900.000
213.97	833.333
214.34	785.714
214.72	536.364
215.09	1140.000
215.47	-2300.000
215.84	-2300.000
216.22	1733.333
216.59	400.000
216.97	1225.000
217.34	536.364
217.72	-800.000
218.09	0.000
218.47	-4000.000
218.84	655.556
219.22	757.143
219.59	1700.000
219.97	-700.000
220.34	1100.000
220.72	-1600.000
221.09	450.000
221.47	1225.000
221.84	-916.667
222.22	0.000
222.59	1425.000
222.97	-2400.000
223.34	1080.000
223.72	400.000
224.09	1120.000
224.46	2700.000
224.84	-5000.000
225.21	-1040.000
225.59	-4600.000
225.96	640.000
226.34	235.000
226.71	2600.000
227.08	600.000
227.46	480.000
227.83	-1400.000
228.21	-2450.000
228.58	588.889
228.95	-2900.000
229.33	-2150.000
229.70	1700.000
230.08	685.714
230.45	-780.000
230.82	433.333
231.20	800.000
231.57	657.143
231.95	450.000
232.32	263.636
232.69	518.182
233.07	728.571
233.44	384.615
233.81	-1966.667
234.19	336.842
234.56	566.667
234.93	425.000
235.31	481.818
235.68	423.077
236.05	400.000
236.43	190.909
236.80	336.842
237.17	4500.000
237.55	328.571
237.92	221.429
238.29	295.238
238.67	229.032
239.04	272.414
239.41	183.333
239.79	167.391
240.16	209.524
240.53	177.273
240.91	141.176
241.28	170.000
241.65	144.000
242.02	142.029
242.40	130.645
242.77	143.333
243.14	106.452
243.51	116.854
243.89	127.059
244.26	108.889
244.63	106.452
245.00	108.511
245.38	105.941
245.75	107.477
246.12	93.578
246.49	102.920
246.87	105.600
247.24	96.923
247.61	97.143
247.98	92.157
248.36	90.541
248.73	91.083
249.10	89.809
249.47	84.181
249.84	82.353
250.22	83.422
250.59	85.207
250.96	84.343
251.33	81.517
251.70	76.733
252.08	85.238
252.45	78.924
252.82	78.696
253.19	81.277
253.56	74.510
253.94	78.423
254.31	76.172
254.68	80.385
255.05	77.491
255.42	77.642
255.79	77.941
256.16	70.036
256.54	69.965
256.91	76.512
257.28	72.302
257.65	73.927
258.02	70.186
258.39	71.609
258.76	67.893
259.14	71.726
259.51	67.173
259.88	70.807
260.25	74.018
260.62	69.653
260.99	75.776
261.36	72.673
261.73	72.493
262.10	72.384
262.47	72.958
262.85	70.752
263.22	67.806
263.59	72.080
263.96	66.209
264.33	65.013
264.70	68.421
265.07	68.798
265.44	65.152
265.81	64.964
266.18	68.844
266.55	68.049
266.92	68.305
267.29	66.898
267.66	65.596
268.03	66.136
268.40	67.523
268.77	64.439
269.14	64.414
269.51	64.334
269.88	69.231
270.25	65.914
270.62	65.618
270.99	65.806
271.36	64.378
271.73	69.860
272.10	65.435
272.47	67.527
272.84	65.368
273.21	63.941
273.58	65.066
273.95	61.006
274.32	60.124
274.69	67.452
275.06	60.039
275.43	64.894
275.80	63.126
276.17	62.933
276.54	63.617
276.91	59.091
277.28	60.938
277.65	64.023
278.02	62.112
278.39	63.477
278.76	61.091
279.13	63.208
279.50	60.149
279.87	61.753
280.23	60.878
280.60	65.184
280.97	62.292
281.34	60.885
281.71	60.000
282.08	62.380
282.45	60.545
282.82	60.568
283.19	60.606
283.56	60.526
283.92	61.252
284.29	59.612
284.66	60.436
285.03	61.302
285.40	60.035
285.77	59.428
286.14	60.104
286.51	58.333
286.87	57.778
287.24	58.958
287.61	55.377
287.98	57.792
288.35	55.151
288.72	54.050
289.08	55.243
289.45	56.507
289.82	54.472
290.19	54.160
290.56	55.590
290.93	50.302
291.29	52.301
291.66	52.212
292.03	53.343
292.40	52.570
292.77	51.923
293.13	51.343
293.50	51.895
293.87	51.556
294.24	49.333
294.60	48.617
294.97	48.256
295.34	48.378
295.71	50.994
296.08	48.433
296.44	48.693
296.81	46.235
297.18	47.154
297.55	45.383
297.91	45.251
298.28	46.051
298.65	46.084
299.02	46.640
299.38	47.145
299.75	44.744
300.12	45.083
300.48	46.125
300.85	43.527
301.22	45.732
301.59	44.823
301.95	44.836
302.32	44.159
302.69	42.891
303.05	43.515
303.42	43.704
303.79	44.507
304.15	42.541
304.52	43.801
304.89	43.554
305.25	42.923
305.62	41.676
305.99	42.031
306.35	42.729
306.72	41.368
307.09	43.507
307.45	43.243
307.82	41.518
308.19	42.384
308.55	41.855
308.92	42.320
309.29	41.183
309.65	42.312
310.02	40.486
310.38	42.581
310.75	41.816
311.12	40.839
311.48	40.961
311.85	42.558
312.22	42.352
312.58	40.852
312.95	44.456
313.31	39.806
313.68	42.308
314.05	44.477
314.41	43.015
314.78	43.404
315.14	42.800
315.51	43.872
315.87	43.465
316.24	43.198
316.61	42.300
316.97	44.325
317.34	44.716
317.70	47.132
318.07	46.295
318.43	49.804
318.80	49.391
319.16	49.247
319.53	50.000
319.89	49.810
320.26	52.900
320.62	54.067
320.99	52.424
321.35	54.848
321.72	54.517
322.08	55.676
322.45	59.204
322.81	59.690
323.18	62.139
323.54	60.575
323.91	62.642
324.27	63.002
324.64	65.610
325.00	63.751
325.37	69.154
325.73	70.287
326.10	70.168
326.46	72.939
326.83	74.202
327.19	75.491
327.56	79.791
327.92	81.540
328.29	81.189
328.65	83.425
329.01	82.581
329.38	84.736
329.74	85.965
330.11	89.255
330.47	90.725
330.84	89.522
331.20	89.982
331.56	91.101
331.93	95.093
332.29	93.256
332.66	92.035
333.02	93.236
333.38	96.838
333.75	95.455
334.11	96.441
334.48	96.451
334.84	99.724
335.20	98.727
335.57	99.909
335.93	99.464
336.29	103.022
336.66	101.262
337.02	99.095
337.38	104.167
337.75	101.604
338.11	102.954
338.47	106.814
338.84	106.416
339.20	105.963
339.56	107.026
339.93	106.909
340.29	104.348
340.65	107.843
341.02	106.806
341.38	110.142
341.74	108.333
342.11	109.083
342.47	110.308
342.83	108.647
343.20	110.130
343.56	106.571
343.92	110.702
344.28	108.759
344.65	113.758
345.01	108.923
345.37	110.892
345.73	110.829
346.10	112.276
346.46	112.627
346.82	110.956
347.19	112.865
347.55	112.479
347.91	112.621
348.27	114.544
348.63	113.629
349.00	111.731
349.36	115.846
349.72	109.864
350.08	112.642
350.45	114.321
350.81	112.104
351.17	112.642
351.53	116.626
351.89	113.779
352.26	114.365
352.62	115.237
352.98	114.992
353.34	115.694
353.70	114.730
354.07	113.387
354.43	113.016
354.79	112.389
355.15	114.525
355.51	116.627
355.87	118.204
356.24	116.775
356.60	115.076
356.96	118.101
357.32	117.743
357.68	116.929
358.04	114.331
358.40	116.469
358.77	114.945
359.13	116.180
359.49	117.725
359.85	115.794
360.21	118.581
360.57	117.276
360.93	118.615
361.29	116.251
361.66	118.189
362.02	116.194
362.38	117.871
362.74	116.815
363.10	116.136
363.46	116.434
363.82	118.216
364.18	114.978
364.54	118.648
364.90	117.139
365.26	117.426
365.62	116.216
365.98	116.947
366.35	114.327
366.71	116.558
367.07	118.500
367.43	117.997
367.79	119.772
368.15	117.241
368.51	118.605
368.87	118.344
369.23	118.069
369.59	118.682
369.95	117.721
370.31	115.954
370.67	115.145
371.03	117.228
371.39	118.003
371.75	115.882
372.11	114.723
372.47	117.889
372.83	117.867
373.19	116.691
373.55	118.551
373.91	119.735
374.27	114.845
374.63	119.055
374.99	116.525
375.35	116.678
375.71	113.571
376.07	116.598
376.42	116.025
376.78	115.374
377.14	117.028
377.50	118.146
377.86	116.223
378.22	116.435
378.58	115.977
378.94	115.525
379.30	118.193
379.66	117.766
380.02	117.506
380.38	113.236
380.74	115.666
381.09	115.954
381.45	117.210
381.81	114.803
382.17	116.497
382.53	114.780
382.89	115.741
383.25	114.384
383.61	117.534
383.97	116.573
384.32	113.537
384.68	116.729
385.04	114.136
385.40	113.437
385.76	113.882
386.12	114.378
386.48	114.412
386.83	115.459
387.19	115.028
387.55	115.090
387.91	114.450
388.27	114.715
388.62	113.706
388.98	112.101
389.34	113.517
389.70	112.017
390.06	113.878
390.42	115.110
390.77	111.514
391.13	113.401
391.49	113.198
391.85	112.349
392.20	112.681
392.56	112.437
392.92	113.596
393.28	112.604
393.64	111.990
393.99	109.774
394.35	111.787
394.71	111.669
395.07	109.969
395.42	112.794
395.78	111.069
396.14	109.808
396.50	113.158
396.85	111.443
397.21	109.741
397.57	110.229
397.92	108.774
398.28	108.800
398.64	109.080
399.00	110.073
399.35	109.419
399.71	107.407
400.07	108.161
400.42	108.098
400.78	108.263
401.14	109.451
401.49	108.299
401.85	105.989
402.21	106.467
402.57	107.588
402.92	106.116
403.28	107.121
403.63	106.188
403.99	106.943
404.35	105.697
404.70	105.156
405.06	105.416
405.42	106.987
405.77	105.086
406.13	103.725
406.49	105.441
406.84	104.548
407.20	104.137
407.55	105.552
407.91	104.333
408.27	105.041
408.62	102.769
408.98	102.512
409.34	103.629
409.69	104.645
410.05	104.771
410.40	102.630
410.76	102.151
411.11	101.387
411.47	101.917
411.83	100.122
412.18	101.299
412.54	102.864
412.89	99.578
413.25	98.996
413.60	103.459
413.96	98.664
414.31	100.972
414.67	99.493
415.03	100.795
415.38	98.840
415.74	98.199
416.09	99.935
416.45	98.126
416.80	99.075
417.16	100.335
417.51	99.137
417.87	98.908
418.22	98.612
418.58	98.644
418.93	97.727
419.29	97.645
419.64	97.922
420.00	94.512
420.35	96.232
420.71	97.071
421.06	96.241
421.42	95.439
421.77	95.516
422.12	97.361
422.48	94.927
422.83	97.146
423.19	95.304
423.54	96.692
423.90	96.638
424.25	94.472
424.61	93.452
424.96	95.627
425.31	94.186
425.67	90.843
426.02	92.514
426.38	96.520
426.73	94.266
427.09	93.313
427.44	93.387
427.79	93.042
428.15	91.488
428.50	91.633
428.85	92.253
429.21	91.828
429.56	92.639
429.92	92.300
430.27	90.765
430.62	91.756
430.98	90.711
431.33	90.515
431.68	92.251
432.04	89.404
432.39	90.977
432.74	91.442
433.10	92.077
433.45	91.545
433.80	89.523
434.16	90.224
434.51	89.579
434.86	90.137
435.22	89.605
435.57	90.395
435.92	89.526
436.28	89.858
436.63	88.135
436.98	89.754
437.34	90.101
437.69	89.265
438.04	88.814
438.39	88.000
438.75	89.134
439.10	89.050
439.45	87.426
439.81	90.453
440.16	88.538
440.51	88.635
440.86	86.972
441.22	86.596
441.57	87.208
441.92	87.973
442.27	87.729
442.63	85.993
442.98	86.592
443.33	86.522
443.68	85.751
444.03	84.822
444.39	86.076
444.74	85.877
445.09	85.553
445.44	83.980
445.79	85.453
446.15	83.801
446.50	84.060
446.85	84.789
447.20	84.651
447.55	85.706
447.91	85.273
448.26	84.641
448.61	84.398
448.96	84.828
449.31	85.039
449.66	82.386
450.02	84.290
450.37	84.410
450.72	85.223
451.07	82.145
451.42	81.277
451.77	84.087
452.12	82.217
452.47	81.343
452.83	82.984
453.18	82.029
453.53	84.292
453.88	82.457
454.23	82.487
454.58	82.132
454.93	84.043
455.28	80.860
455.63	81.857
455.98	83.036
456.34	81.533
456.69	81.778
457.04	82.539
457.39	81.473
457.74	80.093
458.09	78.206
458.44	80.103
458.79	78.633
459.14	79.120
459.49	79.451
459.84	79.723
460.19	78.315
460.54	76.678
460.89	79.210
461.24	79.235
461.59	79.431
461.94	79.162
462.29	79.169
462.64	79.706
462.99	78.660
463.34	79.333
463.69	78.612
464.04	77.797
464.39	77.913
464.74	78.313
465.09	77.081
465.44	77.341
465.79	76.902
466.14	76.409
466.49	75.362
466.84	76.182
467.19	76.343
467.54	78.312
467.89	77.911
468.24	76.556
468.59	77.228
468.94	74.282
469.29	76.799
469.64	76.707
469.99	77.876
470.34	75.429
470.68	76.509
471.03	76.599
471.38	77.623
471.73	75.150
472.08	76.842
472.43	75.126
472.78	75.576
473.13	74.647
473.48	74.095
473.83	75.427
474.17	72.993
474.52	74.318
474.87	74.956
475.22	73.709
475.57	74.046
475.92	73.181
476.27	73.675
476.61	73.580
476.96	73.667
477.31	73.208
477.66	73.742
478.01	71.824
478.36	72.871
478.70	71.391
479.05	72.843
479.40	71.955
479.75	71.784
480.10	71.769
480.45	69.634
480.79	71.237
481.14	72.652
481.49	70.764
481.84	71.285
482.19	71.604
482.53	70.780
482.88	71.987
483.23	72.103
483.58	70.428
483.92	70.572
484.27	68.061
484.62	70.216
484.97	69.767
485.31	70.342
485.66	67.158
486.01	66.194
486.36	65.147
486.70	66.471
487.05	67.095
487.40	68.309
487.75	68.949
488.09	69.366
488.44	68.879
488.79	70.307
489.13	70.244
489.48	69.984
489.83	68.968
490.17	69.882
490.52	69.176
490.87	69.064
491.22	68.122
491.56	67.472
491.91	67.706
492.26	67.019
492.60	67.051
492.95	67.212
493.30	67.336
493.64	67.989
493.99	67.409
494.34	67.345
494.68	67.491
495.03	67.481
495.37	65.752
495.72	68.324
496.07	68.260
496.41	67.212
496.76	66.139
497.11	66.321
497.45	67.490
497.80	66.891
498.14	66.667
498.49	66.634
498.84	67.210
499.18	66.095
499.53	65.242
499.87	65.657
500.22	64.908
500.56	66.505
500.91	66.010
501.26	65.955
501.60	66.777
501.95	64.895
502.29	66.214
502.64	64.804
502.98	64.750
503.33	63.757
503.67	64.965
504.02	65.295
504.36	63.921
504.71	65.706
505.06	64.675
505.40	64.803
505.75	64.802
506.09	65.209
506.44	65.910
506.78	64.783
507.13	65.270
507.47	64.545
507.82	64.235
508.16	65.198
508.51	66.007
508.85	64.945
509.19	64.184
509.54	63.878
509.88	63.679
510.23	64.524
510.57	65.067
510.92	64.060
511.26	64.132
511.61	64.160
511.95	63.727
512.30	65.058
512.64	64.589
512.98	64.791
513.33	64.240
513.67	61.953
514.02	63.528
514.36	64.227
514.70	63.531
515.05	63.525
515.39	62.479
515.74	64.414
516.08	63.108
516.42	63.041
516.77	63.211
517.11	63.374
517.46	62.980
517.80	63.182
518.14	62.710
518.49	62.894
518.83	62.784
519.17	62.702
519.52	62.705
519.86	63.092
520.20	62.254
520.55	64.093
520.89	64.173
521.23	63.510
521.58	62.545
521.92	63.625
522.26	62.233
522.61	63.427
522.95	62.922
523.29	61.656
523.64	63.232
523.98	63.155
524.32	61.821
524.66	61.275
525.01	62.194
525.35	60.471
525.69	60.899
526.04	61.121
526.38	62.294
526.72	60.982
527.06	61.896
527.41	59.035
527.75	62.701
528.09	62.620
528.43	62.460
528.78	62.139
529.12	59.758
529.46	61.053
529.80	61.262
530.15	61.931
530.49	60.000
530.83	61.266
531.17	63.120
531.51	61.738
531.86	60.839
532.20	62.060
532.54	62.332
532.88	60.526
533.22	59.088
533.57	61.173
533.91	59.603
534.25	59.660
534.59	58.816
534.93	58.894
535.27	59.022
535.62	59.035
535.96	60.891
536.30	59.441
536.64	60.077
536.98	60.319
537.32	58.986
537.66	60.067
538.01	60.566
538.35	60.375
538.69	60.370
539.03	59.519
539.37	59.297
539.71	59.430
540.05	59.150
540.39	59.668
540.73	58.797
541.07	59.766
541.42	60.404
541.76	59.871
542.10	59.573
542.44	59.868
542.78	59.684
543.12	57.390
543.46	59.541
543.80	59.597
544.14	57.574
544.48	59.238
544.82	57.922
545.16	58.360
545.50	57.648
545.84	59.812
546.18	57.912
546.52	58.018
546.86	60.206
547.20	59.002
547.54	58.651
547.88	58.610
548.22	57.534
548.56	58.176
548.90	56.850
549.24	59.529
549.58	58.458
549.92	59.203
550.26	58.878
550.60	56.362
550.94	57.887
551.28	58.522
551.62	58.160
551.96	57.053
552.30	58.362
552.64	56.863
552.98	57.288
553.32	56.979
553.66	56.714
554.00	57.996
554.34	57.281
554.68	58.226
555.02	57.475
555.36	57.481
555.69	55.074
556.03	57.402
556.37	56.548
556.71	56.889
557.05	57.213
557.39	57.243
557.73	57.375
558.07	57.143
558.41	57.670
558.75	56.650
559.08	57.867
559.42	57.294
559.76	56.103
560.10	56.531
560.44	56.604
560.78	54.691
561.12	55.805
561.45	55.215
561.79	54.318
562.13	54.930
562.47	56.762
562.81	56.625
563.15	56.388
563.48	55.570
563.82	55.708
564.16	55.788
564.50	55.729
564.84	56.195
565.17	55.727
565.51	55.080
565.85	55.838
566.19	53.100
566.52	54.528
566.86	54.310
567.20	54.304
567.54	54.224
567.88	52.689
568.21	53.862
568.55	53.286
568.89	52.918
569.23	52.362
569.56	51.012
569.90	51.736
570.24	50.771
570.57	50.901
570.91	49.321
571.25	50.309
571.59	50.221
571.92	50.317
572.26	51.560
572.60	51.742
572.93	50.375
573.27	51.523
573.61	50.921
573.95	49.509
574.28	50.000
574.62	49.636
574.96	50.036
575.29	50.412
575.63	50.965
575.97	50.664
576.30	51.142
576.64	49.684
576.98	49.587
577.31	50.139
577.65	49.837
577.98	49.839
578.32	49.384
578.66	50.377
578.99	50.605
579.33	49.867
579.67	50.109
580.00	50.036
580.34	50.712
580.67	49.870
581.01	49.224
581.35	50.031
581.68	48.484
582.02	48.749
582.35	49.186
582.69	49.081
583.02	49.299
583.36	50.127
583.70	49.550
584.03	49.869
584.37	50.092
584.70	50.026
585.04	48.973
585.37	48.952
585.71	49.436
586.04	48.683
586.38	49.843
586.72	50.014
587.05	48.302
587.39	48.153
587.72	48.879
588.06	49.200
588.39	48.779
588.73	49.487
589.06	49.953
589.40	50.034
589.73	50.018
590.07	49.822
590.40	48.813
590.73	50.546
591.07	50.956
591.40	49.726
591.74	50.996
592.07	50.044
592.41	49.359
592.74	48.764
593.08	47.901
593.41	49.162
593.75	48.251
594.08	49.413
594.41	49.169
594.75	49.427
595.08	48.425
595.42	48.757
595.75	49.395
596.09	49.568
596.42	48.841
596.75	49.599
597.09	49.697
597.42	48.482
597.75	49.202
598.09	48.478
598.42	48.711
598.76	49.412
599.09	48.613
599.42	48.217
599.76	48.023
600.09	48.015
600.42	47.991
600.76	47.857
601.09	48.306
601.42	48.935
601.76	48.349
602.09	48.893
602.42	48.806
602.76	48.529
603.09	48.269
603.42	48.340
603.76	47.370
604.09	48.468
604.42	49.572
604.76	49.093
605.09	48.755
605.42	47.926
605.75	47.517
606.09	46.970
606.42	48.508
606.75	47.864
607.09	46.798
607.42	48.695
607.75	48.017
608.08	48.936
608.42	48.857
608.75	47.971
609.08	47.549
609.41	47.644
609.75	48.023
610.08	48.256
610.41	48.184
610.74	47.398
611.07	48.518
611.41	48.430
611.74	47.763
612.07	48.810
612.40	48.583
612.73	48.684
613.07	48.168
613.40	48.710
613.73	47.719
614.06	48.495
614.39	48.138
614.72	47.947
615.06	47.952
615.39	48.726
615.72	47.086
616.05	47.794
616.38	47.971
616.71	49.050
617.05	48.469
617.38	46.663
617.71	48.649
618.04	49.820
618.37	47.487
618.70	48.102
619.03	49.276
619.36	47.929
619.69	48.099
620.03	48.558
620.36	47.326
620.69	48.836
621.02	49.410
621.35	47.847
621.68	47.352
622.01	48.065
622.34	47.277
622.67	48.441
623.00	47.689
623.33	47.105
623.66	47.963
623.99	49.116
624.32	46.790
624.65	47.599
624.99	47.875
625.32	47.936
625.65	47.708
625.98	47.733
626.31	48.367
626.64	48.653
626.97	48.712
627.30	48.545
627.63	48.154
627.96	48.024
628.29	48.644
628.62	48.490
628.95	50.660
629.28	48.175
629.61	49.129
629.94	50.190
630.26	49.476
630.59	48.046
630.92	48.180
631.25	47.384
631.58	48.148
631.91	49.391
632.24	48.734
632.57	47.744
632.90	49.232
633.23	48.434
633.56	48.814
633.89	48.584
634.22	48.581
634.55	52.544
634.88	48.144
635.20	49.940
635.53	50.000
635.86	49.629
636.19	47.765
636.52	49.596
636.85	47.766
637.18	47.120
637.51	50.709
637.83	45.499
638.16	48.721
638.49	48.866
638.82	48.167
639.15	49.750
639.48	48.254
639.81	52.145
640.13	49.479
640.46	49.396
640.79	49.273
641.12	47.043
641.45	50.000
641.77	50.368
642.10	48.392
642.43	49.550
642.76	48.142
643.09	51.994
643.41	48.558
643.74	48.457
644.07	49.390
644.40	49.233
644.73	48.661
645.05	49.762
645.38	48.657
645.71	48.631
646.04	50.997
646.36	50.751
646.69	49.666
647.02	48.469
647.35	50.687
647.67	52.743
648.00	51.707
648.33	47.525
648.66	47.121
648.98	49.625
649.31	47.235
649.64	49.028
649.96	47.988
650.29	51.027
650.62	50.324
650.94	50.729
651.27	51.689
651.60	51.747
651.92	48.403
652.25	49.837
652.58	47.975
652.90	52.291
653.23	46.841
653.56	49.134
653.88	50.555
654.21	48.341
654.54	50.495
654.86	50.156
655.19	46.757
655.52	36.461
655.84	34.726
656.17	45.224
656.49	62.181
656.82	64.599
657.15	50.297
657.47	37.763
657.80	29.197
658.13	31.117
658.45	46.182
658.78	47.375
659.10	47.939
659.43	50.306
659.75	51.094
660.08	52.405
660.41	53.538
660.73	54.130
661.06	52.548
661.38	52.727
661.71	52.885
662.03	51.479
662.36	51.292
662.68	51.807
663.01	47.879
663.33	50.106
663.66	49.160
663.98	50.972
664.31	51.050
664.63	49.798
664.96	47.686
665.28	53.074
665.61	49.318
665.93	48.290
666.26	48.276
666.58	51.883
666.91	50.317
667.23	54.382
667.56	48.164
667.88	50.641
668.21	52.878
668.53	52.061
668.86	48.268
669.18	55.224
669.50	51.522
669.83	54.902
670.15	51.333
670.48	49.673
670.80	51.940
671.13	51.380
671.45	49.149
671.77	51.935
672.10	47.689
672.42	47.173
672.75	47.595
673.07	49.296
673.39	48.101
673.72	49.609
674.04	50.196
674.37	48.544
674.69	48.466
675.01	50.000
675.34	51.335
675.66	50.947
675.98	52.138
676.31	48.319
676.63	52.229
676.95	51.153
677.28	46.729
677.60	50.330
677.92	52.321
678.25	50.719
678.57	49.602
678.89	51.102
679.22	49.312
679.54	47.137
679.86	48.991
680.18	47.227
680.51	47.695
680.83	50.178
681.15	47.170
681.48	50.284
681.80	47.776
682.12	48.467
682.44	48.162
682.77	51.324
683.09	53.219
683.41	50.333
683.73	51.214
684.06	48.554
684.38	49.119
684.70	48.450
685.02	48.405
685.34	45.421
685.67	48.077
685.99	46.392
686.31	48.635
686.63	48.057
686.96	43.571
687.28	48.014
687.60	45.471
687.92	48.629
688.24	47.148
688.56	47.992
688.89	50.207
689.21	48.908
689.53	48.643
689.85	50.554
690.17	46.584
690.49	48.620
690.82	51.869
691.14	47.545
691.46	44.937
691.78	49.197
692.10	50.207
692.42	48.503
692.74	45.643
693.06	48.511
693.39	49.076
693.71	49.345
694.03	50.526
694.35	49.351
694.67	48.055
694.99	47.561
695.31	45.833
695.63	47.608
695.95	49.878
696.27	50.508
696.59	51.295
696.91	48.705
697.23	43.897
697.56	47.335
697.88	46.012
698.20	46.667
698.52	47.742
698.84	48.330
699.16	48.157
699.48	51.781
699.80	48.068
700.12	53.247
700.44	53.050
700.76	52.210
701.08	52.299
701.40	46.927
701.72	52.770
702.04	53.977
702.36	46.742
702.68	50.425
703.00	47.091
703.32	46.809
703.64	46.917
703.96	49.861
704.28	51.453
704.60	52.493
704.91	49.852
705.23	50.733
705.55	51.495
705.87	53.488
706.19	52.297
706.51	48.287
706.83	49.091
707.15	50.420
707.47	46.970
707.79	48.403
708.11	49.543
708.43	48.810
708.74	50.510
709.06	48.312
709.38	52.231
709.70	52.326
710.02	56.380
710.34	50.606
710.66	51.642
710.98	51.989
711.29	49.709
711.61	51.327
711.93	49.038
712.25	52.412
712.57	58.456
712.89	52.941
713.20	49.848
713.52	54.276
713.84	51.266
714.16	51.220
714.48	47.701
714.80	52.584
715.11	46.686
715.43	49.555
715.75	51.304
716.07	52.396
716.39	53.605
716.70	53.156
717.02	53.957
717.34	50.177
717.66	54.104
717.97	57.769
718.29	51.481
718.61	49.270
718.93	55.882
719.24	50.519
719.56	50.847
719.88	52.203
720.20	53.378
720.51	57.143
720.83	54.275
721.15	52.985
721.46	57.447
721.78	56.989
722.10	48.302
722.42	53.008
722.73	53.933
723.05	52.049
723.37	49.393
723.68	50.193
724.00	57.317
724.32	53.629
724.63	56.504
724.95	51.883
725.27	54.251
725.58	56.641
725.90	56.204
726.22	55.472
726.53	53.472
726.85	51.877
727.16	51.957
727.48	53.546
727.80	49.621
728.11	52.899
728.43	51.923
728.74	53.047
729.06	55.839
729.38	55.515
729.69	52.669
730.01	48.464
730.32	49.306
730.64	49.498
730.96	48.845
731.27	53.974
731.59	47.706
731.90	48.105
732.22	47.516
732.53	52.941
732.85	51.282
733.16	52.733
733.48	49.834
733.80	50.974
734.11	50.637
734.43	46.746
734.74	46.286
735.06	47.564
735.37	47.688
735.69	45.860
736.00	49.346
736.32	53.271
736.63	51.118
736.95	52.077
737.26	42.177
737.58	49.032
737.89	49.833
738.21	52.901
738.52	53.929
738.83	50.943
739.15	52.692
739.46	50.730
739.78	57.639
740.09	45.846
740.41	52.258
740.72	50.523
741.04	50.000
741.35	52.083
741.66	53.778
741.98	49.057
742.29	59.330
742.61	55.172
742.92	58.824
743.23	55.128
743.55	54.400
743.86	53.947
744.18	62.832
744.49	58.373
744.80	59.624
745.12	55.455
745.43	52.863
745.74	59.009
746.06	55.505
746.37	56.951
746.68	51.584
747.00	60.185
747.31	59.524
747.62	52.655
747.94	55.066
748.25	54.468
748.56	59.471
748.88	58.416
749.19	62.500
749.50	57.674
749.82	48.374
750.13	51.837
750.44	50.365
750.75	50.175
751.07	50.804
751.38	50.523
751.69	54.152
752.01	51.880
752.32	49.819
752.63	51.418
752.94	52.049
753.26	56.000
753.57	46.748
753.88	55.859
754.19	49.643
754.51	54.861
754.82	48.375
755.13	52.453
755.44	50.000
755.75	52.190
756.07	48.582
756.38	50.000
756.69	50.671
757.00	45.509
757.31	48.071
757.63	47.953
757.94	48.794
758.25	43.137
758.56	45.432
758.87	44.086
759.18	48.182
759.50	47.649
759.81	48.910
760.12	45.312
760.43	47.278
760.74	42.663
761.05	52.260
761.36	45.455
761.67	43.750
761.99	52.484
762.30	51.736
762.61	50.763
762.92	52.344
763.23	49.580
763.54	52.000
763.85	52.344
764.16	53.846
764.47	54.373
764.78	48.410
765.10	49.684
765.41	48.673
765.72	50.000
766.03	49.216
766.34	50.000
766.65	58.723
766.96	51.282
767.27	59.898
767.58	60.417
767.89	63.158
768.20	53.448
768.51	57.868
768.82	52.752
769.13	51.220
769.44	46.559
769.75	55.365
770.06	50.917
770.37	59.729
770.68	52.778
770.99	52.000
771.30	46.311
771.61	56.951
771.92	50.000
772.23	54.202
772.54	61.538
772.85	62.827
773.16	59.043
773.47	60.326
773.78	52.792
774.09	58.333
774.39	61.988
774.70	62.963
775.01	60.145
775.32	66.667
775.63	59.868
775.94	64.748
776.25	72.441
776.56	64.925
776.87	68.033
777.18	71.875
777.48	74.809
777.79	66.667
778.10	70.370
778.41	66.964
778.72	50.365
779.03	66.443
779.34	67.785
779.65	60.135
779.95	64.417
780.26	64.052
780.57	76.552
780.88	75.781
781.19	66.917
781.50	66.892
781.80	59.119
782.11	64.972
782.42	64.557
782.73	58.896
783.04	63.514
783.34	67.606
783.65	75.342
783.96	75.373
784.27	61.538
784.57	55.396
784.88	62.963
785.19	77.778
785.50	83.962
785.81	73.881
786.11	73.770
786.42	75.969
786.73	76.991
787.04	69.811
787.34	72.321
787.65	89.000
787.96	79.279
788.26	71.901
788.57	76.271
788.88	77.686
789.19	68.750
789.49	72.727
789.80	73.282
790.11	93.333
790.41	85.149
790.72	77.108
791.03	86.957
791.33	82.558
791.64	86.598
791.95	93.069
792.25	84.444
792.56	106.494
792.87	105.128
793.17	105.063
793.48	87.356
793.79	73.563
794.09	76.136
794.40	78.992
794.70	66.176
795.01	71.852
795.32	63.309
795.62	66.929
795.93	80.172
796.23	63.717
796.54	80.000
796.85	91.892
797.15	105.634
797.46	92.424
797.76	83.133
798.07	92.405
798.37	106.154
798.68	96.970
798.99	81.690
799.29	97.403
799.60	85.227
799.90	109.589
800.21	110.448
800.51	113.793
800.82	121.053
801.12	121.311
801.43	107.576
801.73	93.243
802.04	100.000
802.34	88.889
802.65	101.563
802.95	118.644
803.26	132.813
803.56	95.714
803.87	95.385
804.17	97.059
804.48	148.148
804.78	117.241
805.09	105.882
805.39	101.923
805.70	117.857
806.00	122.951
806.30	89.394
806.61	90.244
806.91	79.747
807.22	81.579
807.52	101.493
807.83	108.451
808.13	125.000
808.43	103.333
808.74	96.053
809.04	86.957
809.35	107.463
809.65	90.789
809.95	124.194
810.26	111.864
810.56	109.524
810.86	163.636
811.17	164.286
811.47	123.333
811.77	122.222
812.08	123.636
812.38	112.000
812.69	155.556
812.99	156.818
813.29	144.898
813.59	121.429
813.90	136.735
814.20	123.636
814.50	100.000
814.81	110.294
815.11	114.286
815.41	111.475
815.72	164.286
816.02	138.182
816.32	161.905
816.62	127.500
816.93	141.463
817.23	140.476
817.53	145.455
817.84	193.939
818.14	143.478
818.44	144.444
818.74	173.529
819.04	157.500
819.35	148.571
819.65	194.118
819.95	214.286
820.25	180.000
820.56	151.282
820.86	136.364
821.16	174.419
821.46	141.026
821.76	144.000
822.07	177.143
822.37	157.500
822.67	172.727
822.97	117.647
823.27	225.000
823.57	164.865
823.88	175.000
824.18	180.000
824.48	145.238
824.78	212.000
825.08	200.000
825.38	159.459
825.69	141.463
825.99	237.500
826.29	162.069
826.59	181.579
826.89	181.579
827.19	173.529
827.49	190.323
827.79	184.091
828.09	138.636
828.39	129.787
828.70	132.653
829.00	203.704
829.30	158.065
829.60	130.000
829.90	366.667
830.20	225.000
830.50	256.522
830.80	256.522
831.10	203.333
831.40	190.000
831.70	165.217
832.00	261.538
832.30	200.000
832.60	287.500
832.90	216.667
833.20	442.857
833.50	222.581
833.80	200.000
834.10	200.000
834.40	238.462
834.70	333.333
835.00	280.952
835.30	182.857
835.60	361.538
835.90	206.897
836.20	371.429
836.50	186.207
836.80	204.000
837.10	152.778
837.40	209.524
837.70	323.529
838.00	170.370
838.30	209.524
838.60	300.000
838.90	188.462
839.19	215.000
839.49	421.429
839.79	310.000
840.09	250.000
840.39	290.476
840.69	247.826
840.99	261.111
841.29	420.000
841.59	341.667
841.88	287.500
842.18	189.655
842.48	280.952
842.78	230.000
843.08	208.696
843.38	203.125
843.68	816.667
843.97	203.846
844.27	172.414
844.57	271.429
844.87	381.250
845.17	188.889
845.47	1433.333
845.76	500.000
846.06	282.353
846.36	525.000
846.66	421.429
846.96	300.000
847.25	418.182
847.55	390.909
847.85	230.435
848.15	530.000
848.44	364.286
848.74	261.111
849.04	352.941
849.34	600.000
849.63	273.684
849.93	400.000
850.23	960.000
850.53	400.000
850.82	2400.000
851.12	-5000.000
851.42	4200.000
851.71	295.000
852.01	-1266.667
852.31	208.333
852.61	1933.333
852.90	295.238
853.20	196.000
853.50	364.706
853.79	290.476
854.09	270.833
854.39	443.750
854.68	181.081
854.98	209.677
855.28	186.667
855.57	203.448
855.87	225.926
856.17	247.368
856.46	293.333
856.76	305.882
857.05	217.241
857.35	216.667
857.65	326.667
857.94	252.174
858.24	226.923
858.53	275.000
858.83	250.000
859.13	373.333
859.42	0.000
859.72	533.333
860.01	454.545
860.31	304.545
860.60	300.000
860.90	204.348
861.20	622.222
861.49	541.667
861.79	-3400.000
862.08	700.000
862.38	319.048
862.67	376.923
862.97	352.941
863.26	566.667
863.56	261.111
863.85	433.333
864.15	675.000
864.44	346.667
864.74	833.333
865.03	700.000
865.33	294.737
865.62	536.364
865.92	407.692
866.21	325.000
866.51	0.000
866.80	563.636
867.10	920.000
867.39	469.231
867.69	436.364
867.98	289.474
868.27	518.182
868.57	268.421
868.86	-4300.000
869.16	318.750
869.45	2200.000
869.75	-4600.000
870.04	425.000
870.33	742.857
870.63	1175.000
870.92	3050.000
871.22	757.143
871.51	388.235
871.80	223.810
872.10	392.857
>>>>>End Processed Spectral Data<<<<<
