SpectraSuite Data File
++++++++++++++++++++++++++++++++++++
Date: Wed May 13 20:46:53 PDT 2015
User: schluterlab
Dark Spectrum Present: Yes
Reference Spectrum Present: Yes
Number of Sampled Component Spectra: 1
Spectrometers: USB2E3373
Integration Time (usec): 3000 (USB2E3373)
Spectra Averaged: 3 (USB2E3373)
Boxcar Smoothing: 0 (USB2E3373)
Correct for Electrical Dark: No (USB2E3373)
Strobe/Lamp Enabled: No (USB2E3373)
Correct for Detector Non-linearity: No (USB2E3373)
Correct for Stray Light: No (USB2E3373)
Number of Pixels in Processed Spectrum: 2048
>>>>>Begin Processed Spectral Data<<<<<
178.53	0.000
178.91	-750.000
179.29	-875.000
179.67	-116.667
180.04	-725.000
180.42	1650.000
180.80	580.000
181.18	-925.000
181.56	328.571
181.94	0.000
182.31	-271.429
182.69	766.667
183.07	-300.000
183.45	-355.556
183.83	427.273
184.20	-240.000
184.58	1450.000
184.96	4000.000
185.34	-540.000
185.72	-312.500
186.09	-1350.000
186.47	1050.000
186.85	1500.000
187.23	3900.000
187.61	-1333.333
187.98	775.000
188.36	400.000
188.74	372.727
189.12	-380.000
189.49	340.000
189.87	-3200.000
190.25	-425.000
190.63	214.286
191.00	276.923
191.38	450.000
191.76	-525.000
192.14	750.000
192.51	375.000
192.89	583.333
193.27	337.500
193.65	-700.000
194.02	360.000
194.40	620.000
194.78	320.000
195.15	333.333
195.53	420.000
195.91	-1150.000
196.29	262.500
196.66	189.474
197.04	-220.000
197.42	0.000
197.79	350.000
198.17	-2700.000
198.55	357.143
198.92	425.000
199.30	560.000
199.68	0.000
200.05	172.222
200.43	457.143
200.81	3000.000
201.18	1266.667
201.56	-966.667
201.94	322.222
202.31	377.778
202.69	316.667
203.07	330.000
203.44	0.000
203.82	825.000
204.19	400.000
204.57	285.714
204.95	375.000
205.32	933.333
205.70	309.091
206.08	221.429
206.45	1900.000
206.83	206.250
207.20	633.333
207.58	500.000
207.96	200.000
208.33	462.500
208.71	-416.667
209.08	357.143
209.46	377.778
209.84	290.909
210.21	-1166.667
210.59	800.000
210.96	-262.500
211.34	1100.000
211.71	360.000
212.09	333.333
212.46	0.000
212.84	1066.667
213.22	700.000
213.59	-2800.000
213.97	566.667
214.34	557.143
214.72	363.636
215.09	580.000
215.47	-750.000
215.84	-1800.000
216.22	1200.000
216.59	221.429
216.97	725.000
217.34	263.636
217.72	-500.000
218.09	0.000
218.47	-3200.000
218.84	422.222
219.22	457.143
219.59	933.333
219.97	-471.429
220.34	680.000
220.72	-900.000
221.09	271.429
221.47	1025.000
221.84	-550.000
222.22	0.000
222.59	900.000
222.97	-1450.000
223.34	600.000
223.72	276.923
224.09	700.000
224.46	1650.000
224.84	-4000.000
225.21	-640.000
225.59	-2300.000
225.96	440.000
226.34	175.000
226.71	1400.000
227.08	412.500
227.46	340.000
227.83	-575.000
228.21	-1400.000
228.58	377.778
228.95	-1450.000
229.33	-1650.000
229.70	1333.333
230.08	485.714
230.45	-580.000
230.82	408.333
231.20	450.000
231.57	400.000
231.95	291.667
232.32	118.182
232.69	254.545
233.07	371.429
233.44	269.231
233.81	-900.000
234.19	210.526
234.56	275.000
234.93	200.000
235.31	318.182
235.68	253.846
236.05	242.857
236.43	133.333
236.80	221.053
237.17	3700.000
237.55	171.429
237.92	164.286
238.29	204.762
238.67	167.742
239.04	148.276
239.41	122.222
239.79	100.000
240.16	140.476
240.53	100.000
240.91	90.196
241.28	98.000
241.65	102.000
242.02	110.145
242.40	100.000
242.77	120.000
243.14	84.946
243.51	86.517
243.89	80.000
244.26	84.444
244.63	78.495
245.00	78.723
245.38	75.248
245.75	77.570
246.12	65.138
246.49	75.912
246.87	84.800
247.24	82.308
247.61	68.571
247.98	74.510
248.36	68.243
248.73	73.248
249.10	71.975
249.47	70.621
249.84	74.332
250.22	65.241
250.59	70.414
250.96	73.737
251.33	66.351
251.70	69.802
252.08	70.000
252.45	67.265
252.82	67.826
253.19	67.234
253.56	65.490
253.94	68.465
254.31	66.016
254.68	60.769
255.05	61.624
255.42	64.634
255.79	68.382
256.16	60.650
256.54	60.071
256.91	66.192
257.28	64.029
257.65	61.056
258.02	60.870
258.39	63.407
258.76	61.204
259.14	63.393
259.51	59.878
259.88	59.317
260.25	60.121
260.62	60.983
260.99	66.149
261.36	64.865
261.73	59.599
262.10	64.535
262.47	60.282
262.85	59.053
263.22	59.829
263.59	61.254
263.96	58.242
264.33	60.052
264.70	60.526
265.07	60.358
265.44	62.121
265.81	55.474
266.18	62.060
266.55	59.512
266.92	61.425
267.29	59.491
267.66	58.945
268.03	58.636
268.40	58.879
268.77	59.189
269.14	58.333
269.51	57.562
269.88	60.606
270.25	56.433
270.62	58.427
270.99	57.634
271.36	54.506
271.73	60.280
272.10	60.217
272.47	59.570
272.84	57.792
273.21	56.184
273.58	58.079
273.95	57.023
274.32	55.165
274.69	58.244
275.06	55.315
275.43	57.234
275.80	54.910
276.17	57.026
276.54	58.004
276.91	57.708
277.28	55.273
277.65	57.447
278.02	52.795
278.39	58.984
278.76	54.727
279.13	53.962
279.50	55.121
279.87	54.781
280.23	54.491
280.60	55.126
280.97	56.562
281.34	53.451
281.71	54.909
282.08	57.198
282.45	52.000
282.82	53.286
283.19	52.763
283.56	51.053
283.92	54.146
284.29	52.205
284.66	52.087
285.03	55.335
285.40	53.345
285.77	54.040
286.14	53.195
286.51	51.667
286.87	50.769
287.24	52.117
287.61	50.401
287.98	51.461
288.35	48.811
288.72	49.844
289.08	50.235
289.45	49.259
289.82	50.407
290.19	46.625
290.56	48.392
290.93	46.979
291.29	47.699
291.66	48.230
292.03	50.000
292.40	48.458
292.77	45.266
293.13	44.478
293.50	45.773
293.87	46.370
294.24	43.704
294.60	44.833
294.97	43.169
295.34	45.557
295.71	44.602
296.08	44.160
296.44	45.667
296.81	42.933
297.18	43.767
297.55	40.369
297.91	41.293
298.28	40.830
298.65	40.731
299.02	42.819
299.38	41.965
299.75	40.701
300.12	40.230
300.48	40.125
300.85	40.074
301.22	42.293
301.59	39.520
301.95	40.302
302.32	40.822
302.69	39.188
303.05	37.818
303.42	39.012
303.79	38.279
304.15	38.462
304.52	39.282
304.89	36.005
305.25	37.703
305.62	37.712
305.99	39.787
306.35	39.150
306.72	40.247
307.09	39.068
307.45	40.541
307.82	35.826
308.19	38.521
308.55	38.188
308.92	36.842
309.29	37.592
309.65	37.964
310.02	36.892
310.38	37.742
310.75	37.592
311.12	37.564
311.48	36.364
311.85	37.631
312.22	37.357
312.58	37.526
312.95	36.959
313.31	37.379
313.68	38.669
314.05	39.250
314.41	38.693
314.78	37.261
315.14	37.140
315.51	38.208
315.87	38.911
316.24	38.928
316.61	37.719
316.97	38.845
317.34	38.650
317.70	39.388
318.07	39.557
318.43	40.313
318.80	39.175
319.16	38.701
319.53	38.837
319.89	40.762
320.26	40.700
320.62	41.369
320.99	41.414
321.35	40.909
321.72	41.068
322.08	42.744
322.45	43.383
322.81	41.860
323.18	43.160
323.54	42.672
323.91	42.830
324.27	43.595
324.64	43.709
325.00	41.298
325.37	45.496
325.73	44.973
326.10	44.484
326.46	45.072
326.83	46.592
327.19	45.944
327.56	46.080
327.92	46.982
328.29	47.294
328.65	46.225
329.01	46.209
329.38	47.456
329.74	46.537
330.11	48.351
330.47	47.107
330.84	46.324
331.20	47.359
331.56	48.073
331.93	49.167
332.29	47.205
332.66	48.319
333.02	47.623
333.38	48.058
333.75	47.772
334.11	46.530
334.48	47.205
334.84	48.070
335.20	47.909
335.57	47.144
335.93	46.518
336.29	47.161
336.66	47.881
337.02	47.330
337.38	47.778
337.75	46.078
338.11	48.254
338.47	48.803
338.84	48.396
339.20	46.972
339.56	47.901
339.93	48.364
340.29	48.460
340.65	47.683
341.02	48.953
341.38	47.687
341.74	48.246
342.11	49.345
342.47	48.987
342.83	48.887
343.20	49.610
343.56	47.515
343.92	47.719
344.28	49.490
344.65	48.323
345.01	49.495
345.37	48.456
345.73	49.915
346.10	50.043
346.46	49.322
346.82	48.929
347.19	49.958
347.55	48.851
347.91	49.110
348.27	48.809
348.63	50.251
349.00	49.676
349.36	48.604
349.72	49.238
350.08	49.109
350.45	50.936
350.81	49.472
351.17	49.838
351.53	50.041
351.89	49.752
352.26	48.540
352.62	51.403
352.98	49.595
353.34	49.959
353.70	49.100
354.07	50.887
354.43	49.206
354.79	48.994
355.15	49.880
355.51	50.679
355.87	51.673
356.24	50.896
356.60	48.677
356.96	50.845
357.32	50.450
357.68	49.764
358.04	49.327
358.40	49.485
358.77	49.139
359.13	49.645
359.49	50.510
359.85	48.333
360.21	49.522
360.57	50.973
360.93	49.923
361.29	50.113
361.66	48.762
362.02	49.552
362.38	49.354
362.74	51.339
363.10	49.963
363.46	49.010
363.82	51.474
364.18	49.339
364.54	50.892
364.90	50.283
365.26	49.706
365.62	50.694
365.98	49.890
366.35	48.496
366.71	50.398
367.07	51.056
367.43	51.597
367.79	50.749
368.15	51.078
368.51	50.000
368.87	50.821
369.23	51.792
369.59	50.253
369.95	49.926
370.31	49.786
370.67	49.565
371.03	51.311
371.39	50.437
371.75	50.588
372.11	49.502
372.47	52.419
372.83	52.450
373.19	49.566
373.55	50.407
373.91	52.577
374.27	48.935
374.63	50.327
374.99	49.859
375.35	48.709
375.71	50.171
376.07	50.617
376.42	50.550
376.78	51.027
377.14	50.678
377.50	51.192
377.86	49.335
378.22	50.948
378.58	49.499
378.94	49.654
379.30	50.700
379.66	51.459
380.02	51.597
380.38	49.970
380.74	51.200
381.09	50.611
381.45	51.506
381.81	49.877
382.17	50.191
382.53	51.824
382.89	51.667
383.25	51.032
383.61	52.602
383.97	49.406
384.32	51.092
384.68	50.372
385.04	49.908
385.40	51.207
385.76	50.307
386.12	50.972
386.48	52.108
386.83	52.085
387.19	52.195
387.55	52.134
387.91	51.511
388.27	50.521
388.62	50.584
388.98	51.106
389.34	51.314
389.70	51.502
390.06	51.901
390.42	51.621
390.77	51.209
391.13	52.521
391.49	51.840
391.85	51.432
392.20	51.546
392.56	52.778
392.92	51.501
393.28	52.544
393.64	51.139
393.99	50.886
394.35	52.730
394.71	51.317
395.07	50.903
395.42	52.225
395.78	51.908
396.14	51.893
396.50	52.005
396.85	53.083
397.21	51.048
397.57	51.085
397.92	51.983
398.28	51.177
398.64	50.896
399.00	51.091
399.35	52.397
399.71	51.505
400.07	52.099
400.42	52.025
400.78	52.774
401.14	52.744
401.49	52.836
401.85	51.845
402.21	51.796
402.57	51.080
402.92	53.720
403.28	53.654
403.63	51.980
403.99	51.338
404.35	52.606
404.70	53.477
405.06	52.009
405.42	53.088
405.77	51.829
406.13	51.749
406.49	53.755
406.84	52.569
407.20	52.305
407.55	52.840
407.91	53.400
408.27	52.329
408.62	52.800
408.98	53.493
409.34	53.075
409.69	53.484
410.05	53.222
410.40	52.844
410.76	53.524
411.11	53.679
411.47	51.565
411.83	54.123
412.18	52.752
412.54	52.927
412.89	52.892
413.25	53.188
413.60	54.540
413.96	52.338
414.31	54.253
414.67	53.802
415.03	55.430
415.38	53.802
415.74	53.248
416.09	54.735
416.45	54.819
416.80	54.858
417.16	56.769
417.51	54.944
417.87	52.922
418.22	55.647
418.58	54.487
418.93	54.668
419.29	54.933
419.64	55.479
420.00	54.085
420.35	54.493
420.71	56.665
421.06	55.131
421.42	55.205
421.77	55.549
422.12	55.362
422.48	54.722
422.83	56.261
423.19	55.470
423.54	56.239
423.90	55.942
424.25	55.779
424.61	56.548
424.96	57.201
425.31	56.921
425.67	54.326
426.02	56.971
426.38	56.166
426.73	56.349
427.09	55.988
427.44	56.124
427.79	56.699
428.15	57.083
428.50	56.349
428.85	57.092
429.21	56.875
429.56	57.024
429.92	56.266
430.27	56.703
430.62	57.296
430.98	57.654
431.33	57.371
431.68	58.063
432.04	56.922
432.39	58.538
432.74	58.767
433.10	59.310
433.45	57.609
433.80	58.204
434.16	57.639
434.51	58.947
434.86	59.578
435.22	59.477
435.57	59.271
435.92	57.987
436.28	59.668
436.63	58.554
436.98	59.416
437.34	59.750
437.69	60.327
438.04	59.584
438.39	59.522
438.75	59.965
439.10	60.838
439.45	60.508
439.81	60.423
440.16	61.208
440.51	60.808
440.86	61.146
441.22	60.067
441.57	60.350
441.92	60.952
442.27	62.002
442.63	60.664
442.98	61.070
443.33	60.163
443.68	61.332
444.03	61.298
444.39	61.246
444.74	61.580
445.09	61.240
445.44	61.236
445.79	61.158
446.15	61.567
446.50	60.905
446.85	61.973
447.20	63.080
447.55	62.702
447.91	62.548
448.26	61.881
448.61	63.086
448.96	62.071
449.31	62.767
449.66	62.521
450.02	61.950
450.37	62.642
450.72	63.395
451.07	63.132
451.42	62.979
451.77	62.595
452.12	61.605
452.47	62.935
452.83	63.578
453.18	63.020
453.53	63.822
453.88	63.733
454.23	62.463
454.58	65.597
454.93	64.654
455.28	63.404
455.63	65.109
455.98	65.357
456.34	65.452
456.69	65.373
457.04	65.325
457.39	64.056
457.74	65.003
458.09	64.692
458.44	64.994
458.79	63.612
459.14	65.406
459.49	64.156
459.84	64.488
460.19	64.938
460.54	63.715
460.89	64.125
461.24	65.452
461.59	65.950
461.94	64.242
462.29	65.638
462.64	66.241
462.99	64.086
463.34	64.067
463.69	65.478
464.04	64.754
464.39	63.536
464.74	65.775
465.09	64.717
465.44	65.042
465.79	63.982
466.14	64.532
466.49	64.683
466.84	65.616
467.19	64.816
467.54	65.188
467.89	65.666
468.24	65.969
468.59	65.995
468.94	64.936
469.29	65.874
469.64	67.336
469.99	67.388
470.34	67.503
470.68	66.882
471.03	67.211
471.38	68.033
471.73	66.755
472.08	66.382
472.43	66.457
472.78	66.162
473.13	66.175
473.48	65.481
473.83	66.280
474.17	66.148
474.52	66.005
474.87	65.382
475.22	65.815
475.57	65.556
475.92	67.021
476.27	66.404
476.61	66.685
476.96	64.486
477.31	65.934
477.66	67.177
478.01	63.199
478.36	66.737
478.70	66.615
479.05	66.880
479.40	65.967
479.75	66.090
480.10	66.551
480.45	65.017
480.79	65.026
481.14	66.047
481.49	66.635
481.84	65.341
482.19	66.197
482.53	65.917
482.88	65.612
483.23	66.075
483.58	66.060
483.92	66.635
484.27	65.011
484.62	65.216
484.97	64.959
485.31	65.068
485.66	62.832
486.01	63.228
486.36	63.068
486.70	64.861
487.05	65.246
487.40	64.939
487.75	64.759
488.09	64.816
488.44	64.276
488.79	66.148
489.13	64.591
489.48	65.131
489.83	65.559
490.17	65.936
490.52	64.570
490.87	64.858
491.22	64.893
491.56	65.057
491.91	67.054
492.26	64.401
492.60	64.885
492.95	63.658
493.30	64.953
493.64	65.422
493.99	64.949
494.34	65.680
494.68	65.980
495.03	66.118
495.37	65.100
495.72	65.010
496.07	65.429
496.41	63.142
496.76	64.380
497.11	65.196
497.45	65.533
497.80	65.499
498.14	64.444
498.49	65.024
498.84	64.909
499.18	63.714
499.53	65.005
499.87	64.772
500.22	64.531
500.56	66.262
500.91	64.856
501.26	64.059
501.60	65.828
501.95	63.841
502.29	65.745
502.64	64.199
502.98	65.077
503.33	63.848
503.67	62.413
504.02	63.658
504.36	62.377
504.71	64.680
505.06	64.000
505.40	63.442
505.75	63.211
506.09	63.605
506.44	63.838
506.78	64.247
507.13	65.119
507.47	64.596
507.82	64.336
508.16	64.894
508.51	65.145
508.85	64.499
509.19	64.898
509.54	63.673
509.88	64.142
510.23	64.370
510.57	64.293
510.92	64.682
511.26	63.875
511.61	63.434
511.95	63.361
512.30	63.203
512.64	63.192
512.98	64.094
513.33	64.668
513.67	63.607
514.02	62.879
514.36	64.555
514.70	63.586
515.05	62.856
515.39	62.759
515.74	63.908
516.08	62.605
516.42	64.484
516.77	63.099
517.11	62.708
517.46	64.786
517.80	62.776
518.14	62.942
518.49	64.527
518.83	62.216
519.17	62.413
519.52	63.271
519.86	64.176
520.20	63.006
520.55	64.333
520.89	64.173
521.23	63.390
521.58	62.425
521.92	64.360
522.26	62.843
522.61	63.115
522.95	62.492
523.29	62.873
523.64	62.866
523.98	64.325
524.32	62.002
524.66	62.057
525.01	62.561
525.35	63.631
525.69	62.377
526.04	62.555
526.38	61.745
526.72	62.331
527.06	63.089
527.41	60.891
527.75	63.087
528.09	62.685
528.43	62.588
528.78	62.815
529.12	60.606
529.46	62.707
529.80	63.923
530.15	60.810
530.49	59.877
530.83	62.025
531.17	64.230
531.51	62.581
531.86	62.194
532.20	62.386
532.54	61.883
532.88	62.388
533.22	59.088
533.57	61.358
533.91	59.904
534.25	61.908
534.59	62.660
534.93	59.548
535.27	59.928
535.62	60.562
535.96	60.075
536.30	59.886
536.64	60.464
536.98	60.518
537.32	60.237
537.66	59.600
538.01	59.579
538.35	59.858
538.69	60.115
539.03	59.909
539.37	58.211
539.71	58.522
540.05	59.150
540.39	60.399
540.73	59.314
541.07	60.286
541.42	61.187
541.76	59.097
542.10	59.638
542.44	59.007
542.78	59.684
543.12	57.518
543.46	58.230
543.80	60.052
544.14	57.895
544.48	59.048
544.82	59.012
545.16	58.946
545.50	59.062
545.84	57.997
546.18	58.990
546.52	58.981
546.86	58.832
547.20	58.328
547.54	58.450
547.88	58.355
548.22	57.285
548.56	56.730
548.90	57.426
549.24	57.576
549.58	57.435
549.92	56.799
550.26	57.173
550.60	58.299
550.94	56.831
551.28	56.108
551.62	58.231
551.96	56.772
552.30	57.406
552.64	57.471
552.98	56.203
553.32	55.833
553.66	56.987
554.00	56.898
554.34	55.349
554.68	57.511
555.02	55.853
555.36	56.298
555.69	54.263
556.03	55.451
556.37	55.866
556.71	54.775
557.05	55.322
557.39	54.724
557.73	56.951
558.07	56.635
558.41	55.716
558.75	56.576
559.08	56.301
559.42	55.707
559.76	55.368
560.10	53.890
560.44	55.695
560.78	54.424
561.12	53.958
561.45	54.563
561.79	53.856
562.13	54.527
562.47	55.669
562.81	56.695
563.15	53.779
563.48	54.841
563.82	53.490
564.16	54.284
564.50	52.799
564.84	53.540
565.17	54.376
565.51	53.099
565.85	53.490
566.19	53.100
566.52	55.288
566.86	52.381
567.20	53.479
567.54	52.854
567.88	52.526
568.21	51.693
568.55	52.073
568.89	52.335
569.23	51.916
569.56	50.931
569.90	51.358
570.24	50.843
570.57	50.663
570.91	48.901
571.25	50.587
571.59	50.515
571.92	50.749
572.26	50.520
572.60	50.751
572.93	49.205
573.27	49.837
573.61	50.195
573.95	49.199
574.28	49.095
574.62	49.587
574.96	49.080
575.29	48.569
575.63	48.958
575.97	48.894
576.30	48.752
576.64	48.345
576.98	49.198
577.31	48.567
577.65	48.773
577.98	48.251
578.32	48.114
578.66	48.532
578.99	48.185
579.33	48.172
579.67	47.872
580.00	48.238
580.34	48.624
580.67	47.554
581.01	47.852
581.35	47.842
581.68	47.554
582.02	47.105
582.35	48.354
582.69	48.380
583.02	48.148
583.36	48.766
583.70	48.377
584.03	48.224
584.37	47.642
584.70	47.231
585.04	46.380
585.37	47.297
585.71	46.664
586.04	47.451
586.38	48.197
586.72	47.804
587.05	46.672
587.39	45.805
587.72	47.436
588.06	46.451
588.39	47.160
588.73	46.876
589.06	47.523
589.40	47.104
589.73	47.026
590.07	47.402
590.40	47.424
590.73	46.916
591.07	47.700
591.40	46.689
591.74	47.316
592.07	47.295
592.41	46.507
592.74	45.693
593.08	46.003
593.41	45.808
593.75	45.003
594.08	45.659
594.41	45.705
594.75	46.396
595.08	45.168
595.42	45.884
595.75	46.225
596.09	46.301
596.42	46.090
596.75	45.884
597.09	45.844
597.42	44.772
597.75	45.882
598.09	45.130
598.42	44.330
598.76	43.778
599.09	44.470
599.42	44.360
599.76	44.473
600.09	44.335
600.42	44.485
600.76	44.036
601.09	44.845
601.42	44.444
601.76	44.364
602.09	44.229
602.42	44.546
602.76	44.337
603.09	43.942
603.42	43.811
603.76	43.331
604.09	43.738
604.42	44.558
604.76	45.171
605.09	43.600
605.42	43.095
605.75	43.046
606.09	43.392
606.42	44.463
606.75	43.426
607.09	42.905
607.42	43.218
607.75	42.996
608.08	42.727
608.42	43.971
608.75	42.922
609.08	43.478
609.41	42.551
609.75	43.020
610.08	43.120
610.41	42.598
610.74	42.857
611.07	43.874
611.41	42.885
611.74	43.439
612.07	42.961
612.40	42.812
612.73	42.421
613.07	43.588
613.40	42.865
613.73	41.636
614.06	43.011
614.39	42.213
614.72	41.632
615.06	41.912
615.39	42.834
615.72	42.178
616.05	42.690
616.38	42.357
616.71	43.052
617.05	41.991
617.38	42.453
617.71	42.162
618.04	43.389
618.37	41.159
618.70	42.377
619.03	41.908
619.36	42.091
619.69	41.479
620.03	42.995
620.36	40.909
620.69	42.329
621.02	42.404
621.35	42.991
621.68	40.654
622.01	40.480
622.34	40.545
622.67	43.194
623.00	40.939
623.33	40.600
623.66	41.887
623.99	40.353
624.32	40.371
624.65	40.749
624.99	40.722
625.32	41.274
625.65	41.848
625.98	43.198
626.31	41.757
626.64	41.959
626.97	42.810
627.30	41.313
627.63	41.345
627.96	41.127
628.29	39.633
628.62	41.995
628.95	41.321
629.28	39.872
629.61	42.163
629.94	43.048
630.26	40.515
630.59	40.991
630.92	41.667
631.25	40.178
631.58	40.541
631.91	39.452
632.24	40.401
632.57	40.714
632.90	40.680
633.23	41.723
633.56	40.678
633.89	41.336
634.22	41.998
634.55	43.195
634.88	41.677
635.20	41.697
635.53	41.928
635.86	41.089
636.19	41.059
636.52	39.908
636.85	40.893
637.18	39.286
637.51	40.780
637.83	38.718
638.16	41.560
638.49	39.673
638.82	41.593
639.15	41.500
639.48	40.773
639.81	42.225
640.13	39.974
640.46	40.403
640.79	41.347
641.12	38.652
641.45	40.642
641.77	43.004
642.10	40.058
642.43	39.940
642.76	40.402
643.09	41.104
643.41	39.150
643.74	41.049
644.07	40.549
644.40	41.718
644.73	39.685
645.05	39.461
645.38	39.336
645.71	38.647
646.04	38.538
646.36	43.573
646.69	42.140
647.02	39.796
647.35	40.722
647.67	38.938
648.00	38.374
648.33	41.914
648.66	38.788
648.98	39.130
649.31	40.209
649.64	40.209
649.96	37.407
650.29	40.284
650.62	39.482
650.94	40.681
651.27	42.230
651.60	39.268
651.92	40.575
652.25	38.925
652.58	39.097
652.90	39.336
653.23	37.134
653.56	40.157
653.88	40.254
654.21	41.232
654.54	38.944
654.86	38.474
655.19	38.649
655.52	32.756
655.84	32.818
656.17	41.505
656.49	56.920
656.82	58.233
657.15	45.149
657.47	33.410
657.80	25.515
658.13	26.407
658.45	38.982
658.78	38.744
659.10	39.191
659.43	39.415
659.75	37.919
660.08	37.532
660.41	37.896
660.73	39.263
661.06	37.580
661.38	40.545
661.71	40.000
662.03	40.631
662.36	37.773
662.68	40.161
663.01	40.000
663.33	39.278
663.66	39.286
663.98	40.821
664.31	39.706
664.63	37.045
664.96	36.620
665.28	38.525
665.61	38.596
665.93	40.644
666.26	38.742
666.58	38.285
666.91	39.535
667.23	38.427
667.56	36.285
667.88	38.034
668.21	41.151
668.53	36.659
668.86	39.177
669.18	43.284
669.50	38.043
669.83	41.394
670.15	39.111
670.48	39.216
670.80	37.069
671.13	39.066
671.45	39.574
671.77	40.530
672.10	38.447
672.42	34.982
672.75	35.323
673.07	38.204
673.39	38.698
673.72	37.500
674.04	37.647
674.37	36.893
674.69	37.219
675.01	35.774
675.34	41.068
675.66	39.579
675.98	39.308
676.31	37.815
676.63	35.456
676.95	36.478
677.28	38.551
677.60	35.385
677.92	40.084
678.25	39.014
678.57	39.044
678.89	36.874
679.22	34.774
679.54	37.405
679.86	36.514
680.18	38.819
680.51	36.525
680.83	36.477
681.15	37.547
681.48	38.752
681.80	39.845
682.12	36.590
682.44	33.849
682.77	37.882
683.09	40.129
683.41	38.137
683.73	35.982
684.06	39.876
684.38	37.378
684.70	37.597
685.02	38.462
685.34	35.714
685.67	35.140
685.99	35.223
686.31	35.495
686.63	36.749
686.96	35.536
687.28	35.560
687.60	36.051
687.92	37.294
688.24	38.593
688.56	38.956
688.89	36.100
689.21	39.083
689.53	35.282
689.85	39.246
690.17	36.232
690.49	38.217
690.82	38.785
691.14	37.723
691.46	36.076
691.78	35.341
692.10	40.289
692.42	38.723
692.74	36.929
693.06	38.511
693.39	40.041
693.71	37.773
694.03	37.895
694.35	35.498
694.67	35.011
694.99	39.756
695.31	37.745
695.63	35.646
695.95	37.897
696.27	38.071
696.59	38.083
696.91	39.637
697.23	34.272
697.56	34.968
697.88	34.969
698.20	35.000
698.52	37.849
698.84	37.194
699.16	36.636
699.48	38.717
699.80	38.406
700.12	40.519
700.44	35.809
700.76	35.083
701.08	36.494
701.40	38.547
701.72	36.443
702.04	43.466
702.36	35.411
702.68	37.677
703.00	37.950
703.32	32.181
703.64	34.853
703.96	37.326
704.28	36.337
704.60	37.830
704.91	38.279
705.23	37.830
705.55	36.545
705.87	39.867
706.19	38.163
706.51	38.629
706.83	39.697
707.15	36.975
707.47	36.364
707.79	39.558
708.11	36.073
708.43	34.048
708.74	38.520
709.06	38.182
709.38	38.320
709.70	37.500
710.02	36.795
710.34	36.364
710.66	36.716
710.98	39.489
711.29	40.116
711.61	38.643
711.93	36.218
712.25	41.479
712.57	39.706
712.89	37.024
713.20	35.866
713.52	42.105
713.84	37.025
714.16	37.195
714.48	36.782
714.80	40.426
715.11	37.752
715.43	36.499
715.75	35.362
716.07	36.422
716.39	35.737
716.70	42.857
717.02	37.410
717.34	39.576
717.66	38.433
717.97	38.645
718.29	38.889
718.61	37.226
718.93	38.235
719.24	37.024
719.56	35.593
719.88	39.661
720.20	38.851
720.51	40.418
720.83	41.264
721.15	36.567
721.46	39.716
721.78	44.086
722.10	34.717
722.42	44.361
722.73	38.202
723.05	38.525
723.37	41.296
723.68	40.541
724.00	37.398
724.32	40.726
724.63	37.805
724.95	43.096
725.27	41.700
725.58	40.234
725.90	38.321
726.22	37.736
726.53	37.153
726.85	37.884
727.16	42.705
727.48	37.589
727.80	37.500
728.11	38.768
728.43	38.077
728.74	38.710
729.06	42.336
729.38	44.485
729.69	38.790
730.01	36.177
730.32	36.806
730.64	36.789
730.96	36.634
731.27	40.066
731.59	40.979
731.90	36.735
732.22	39.130
732.53	34.365
732.85	38.141
733.16	37.621
733.48	37.209
733.80	37.338
734.11	35.350
734.43	39.645
734.74	32.857
735.06	34.957
735.37	36.705
735.69	36.306
736.00	41.503
736.32	37.383
736.63	36.741
736.95	38.019
737.26	29.932
737.58	38.065
737.89	37.458
738.21	41.980
738.52	40.000
738.83	32.830
739.15	40.000
739.46	40.876
739.78	39.236
740.09	36.308
740.41	37.742
740.72	35.540
741.04	39.630
741.35	36.667
741.66	48.889
741.98	36.792
742.29	43.062
742.61	43.966
742.92	38.914
743.23	42.308
743.55	40.400
743.86	43.421
744.18	45.133
744.49	40.191
744.80	39.906
745.12	46.364
745.43	36.123
745.74	41.892
746.06	38.532
746.37	39.013
746.68	40.271
747.00	37.500
747.31	43.810
747.62	38.053
747.94	37.885
748.25	38.723
748.56	42.291
748.88	41.584
749.19	44.000
749.50	39.070
749.82	34.146
750.13	35.102
750.44	38.686
750.75	39.298
751.07	44.051
751.38	39.024
751.69	41.877
752.01	43.609
752.32	33.935
752.63	38.298
752.94	40.984
753.26	43.200
753.57	34.959
753.88	39.453
754.19	37.143
754.51	40.278
754.82	38.628
755.13	39.245
755.44	36.842
755.75	36.861
756.07	37.234
756.38	34.672
756.69	37.584
757.00	35.629
757.31	35.905
757.63	36.550
757.94	39.142
758.25	35.294
758.56	35.062
758.87	34.409
759.18	35.455
759.50	36.364
759.81	37.072
760.12	37.187
760.43	37.822
760.74	33.967
761.05	40.113
761.36	35.294
761.67	38.920
761.99	35.714
762.30	38.889
762.61	39.695
762.92	38.281
763.23	36.975
763.54	44.000
763.85	36.328
764.16	38.846
764.47	43.346
764.78	36.042
765.10	36.709
765.41	35.693
765.72	38.024
766.03	39.498
766.34	34.000
766.65	40.851
766.96	40.171
767.27	47.716
767.58	47.396
767.89	47.368
768.20	47.126
768.51	38.071
768.82	42.202
769.13	39.024
769.44	38.866
769.75	37.768
770.06	35.780
770.37	42.534
770.68	44.444
770.99	43.111
771.30	33.607
771.61	41.704
771.92	39.344
772.23	46.218
772.54	36.410
772.85	40.314
773.16	47.872
773.47	45.109
773.78	41.624
774.09	39.286
774.39	47.953
774.70	44.444
775.01	41.304
775.32	48.366
775.63	46.711
775.94	42.446
776.25	51.181
776.56	41.045
776.87	50.000
777.18	47.656
777.48	53.435
777.79	50.758
778.10	39.259
778.41	51.786
778.72	40.876
779.03	55.705
779.34	48.322
779.65	45.270
779.95	46.012
780.26	49.673
780.57	50.345
780.88	51.562
781.19	51.128
781.50	49.324
781.80	49.686
782.11	38.983
782.42	39.873
782.73	42.331
783.04	47.297
783.34	45.775
783.65	53.425
783.96	53.731
784.27	49.650
784.57	51.079
784.88	47.222
785.19	51.587
785.50	54.717
785.81	50.000
786.11	50.820
786.42	51.163
786.73	50.442
787.04	58.491
787.34	52.679
787.65	59.000
787.96	50.450
788.26	45.455
788.57	58.475
788.88	59.504
789.19	47.917
789.49	54.545
789.80	52.672
790.11	68.571
790.41	56.436
790.72	53.012
791.03	60.870
791.33	66.279
791.64	57.732
791.95	60.396
792.25	58.889
792.56	55.844
792.87	58.974
793.17	67.089
793.48	59.770
793.79	57.471
794.09	54.545
794.40	50.420
794.70	52.941
795.01	45.185
795.32	46.763
795.62	47.244
795.93	53.448
796.23	46.903
796.54	62.353
796.85	66.216
797.15	66.197
797.46	56.061
797.76	74.699
798.07	58.228
798.37	66.154
798.68	60.606
798.99	42.254
799.29	54.545
799.60	50.000
799.90	58.904
800.21	76.119
800.51	77.586
800.82	89.474
801.12	75.410
801.43	83.333
801.73	60.811
802.04	76.190
802.34	61.728
802.65	76.563
802.95	76.271
803.26	90.625
803.56	60.000
803.87	64.615
804.17	72.059
804.48	88.889
804.78	68.966
805.09	57.353
805.39	71.154
805.70	71.429
806.00	80.328
806.30	69.697
806.61	60.976
806.91	40.506
807.22	43.421
807.52	52.239
807.83	80.282
808.13	64.063
808.43	76.667
808.74	56.579
809.04	73.913
809.35	79.104
809.65	67.105
809.95	90.323
810.26	77.966
810.56	68.254
810.86	90.909
811.17	97.619
811.47	83.333
811.77	66.667
812.08	83.636
812.38	86.000
812.69	97.222
812.99	102.273
813.29	77.551
813.59	80.952
813.90	110.204
814.20	87.273
814.50	70.769
814.81	85.294
815.11	91.837
815.41	85.246
815.72	109.524
816.02	94.545
816.32	109.524
816.62	87.500
816.93	80.488
817.23	78.571
817.53	90.909
817.84	124.242
818.14	102.174
818.44	77.778
818.74	105.882
819.04	105.000
819.35	145.714
819.65	117.647
819.95	114.286
820.25	130.000
820.56	112.821
820.86	102.273
821.16	106.977
821.46	97.436
821.76	90.000
822.07	131.429
822.37	112.500
822.67	96.970
822.97	58.824
823.27	110.714
823.57	116.216
823.88	97.500
824.18	170.000
824.48	104.762
824.78	124.000
825.08	137.500
825.38	94.595
825.69	109.756
825.99	183.333
826.29	113.793
826.59	126.316
826.89	110.526
827.19	132.353
827.49	125.806
827.79	113.636
828.09	86.364
828.39	87.234
828.70	85.714
829.00	103.704
829.30	93.548
829.60	87.500
829.90	173.333
830.20	125.000
830.50	126.087
830.80	108.696
831.10	130.000
831.40	143.333
831.70	73.913
832.00	126.923
832.30	125.926
832.60	143.750
832.90	116.667
833.20	192.857
833.50	119.355
833.80	100.000
834.10	131.250
834.40	184.615
834.70	188.889
835.00	200.000
835.30	94.286
835.60	100.000
835.90	124.138
836.20	257.143
836.50	124.138
836.80	100.000
837.10	94.444
837.40	171.429
837.70	141.176
838.00	96.296
838.30	133.333
838.60	133.333
838.90	173.077
839.19	165.000
839.49	285.714
839.79	210.000
840.09	170.000
840.39	157.143
840.69	195.652
840.99	183.333
841.29	220.000
841.59	116.667
841.88	250.000
842.18	120.690
842.48	190.476
842.78	130.000
843.08	143.478
843.38	121.875
843.68	516.667
843.97	138.462
844.27	141.379
844.57	195.238
844.87	243.750
845.17	159.259
845.47	733.333
845.76	288.889
846.06	194.118
846.36	225.000
846.66	235.714
846.96	237.500
847.25	227.273
847.55	300.000
847.85	147.826
848.15	340.000
848.44	178.571
848.74	116.667
849.04	223.529
849.34	210.000
849.63	126.316
849.93	272.727
850.23	480.000
850.53	242.857
850.82	1100.000
851.12	-2400.000
851.42	2800.000
851.71	160.000
852.01	-600.000
852.31	150.000
852.61	1033.333
852.90	195.238
853.20	136.000
853.50	235.294
853.79	176.190
854.09	112.500
854.39	212.500
854.68	135.135
854.98	141.935
855.28	126.667
855.57	124.138
855.87	111.111
856.17	121.053
856.46	93.333
856.76	217.647
857.05	120.690
857.35	100.000
857.65	233.333
857.94	160.870
858.24	161.538
858.53	170.000
858.83	222.727
859.13	206.667
859.42	0.000
859.72	266.667
860.01	263.636
860.31	181.818
860.60	178.947
860.90	113.043
861.20	244.444
861.49	291.667
861.79	-2800.000
862.08	475.000
862.38	190.476
862.67	146.154
862.97	205.882
863.26	288.889
863.56	150.000
863.85	191.667
864.15	275.000
864.44	220.000
864.74	450.000
865.03	487.500
865.33	163.158
865.62	209.091
865.92	284.615
866.21	275.000
866.51	0.000
866.80	236.364
867.10	740.000
867.39	315.385
867.69	218.182
867.98	184.211
868.27	354.545
868.57	200.000
868.86	-2900.000
869.16	243.750
869.45	1200.000
869.75	-2000.000
870.04	208.333
870.33	314.286
870.63	725.000
870.92	1200.000
871.22	414.286
871.51	176.471
871.80	161.905
872.10	228.571
>>>>>End Processed Spectral Data<<<<<
