SpectraSuite Data File
++++++++++++++++++++++++++++++++++++
Date: Wed May 13 21:02:03 PDT 2015
User: schluterlab
Dark Spectrum Present: Yes
Reference Spectrum Present: Yes
Number of Sampled Component Spectra: 1
Spectrometers: USB2E3373
Integration Time (usec): 3000 (USB2E3373)
Spectra Averaged: 3 (USB2E3373)
Boxcar Smoothing: 0 (USB2E3373)
Correct for Electrical Dark: No (USB2E3373)
Strobe/Lamp Enabled: No (USB2E3373)
Correct for Detector Non-linearity: No (USB2E3373)
Correct for Stray Light: No (USB2E3373)
Number of Pixels in Processed Spectrum: 2048
>>>>>Begin Processed Spectral Data<<<<<
178.53	0.000
178.91	-0.000
179.29	125.000
179.67	-750.000
180.04	100.000
180.42	-120.000
180.80	1000.000
181.18	116.667
181.56	-175.000
181.94	50.000
182.31	90.909
182.69	53.846
183.07	100.000
183.45	233.333
183.83	133.333
184.20	85.714
184.58	-166.667
184.96	66.667
185.34	128.571
185.72	0.000
186.09	200.000
186.47	-200.000
186.85	80.000
187.23	100.000
187.61	350.000
187.98	-200.000
188.36	37.500
188.74	0.000
189.12	-9.091
189.49	80.000
189.87	33.333
190.25	80.000
190.63	100.000
191.00	160.000
191.38	200.000
191.76	350.000
192.14	83.333
192.51	36.842
192.89	433.333
193.27	25.000
193.65	-200.000
194.02	172.727
194.40	80.000
194.78	300.000
195.15	120.000
195.53	20.000
195.91	50.000
196.29	-33.333
196.66	0.000
197.04	-100.000
197.42	0.000
197.79	10.000
198.17	-112.500
198.55	-100.000
198.92	125.000
199.30	-100.000
199.68	30.000
200.05	-250.000
200.43	83.333
200.81	-500.000
201.18	-20.000
201.56	-166.667
201.94	450.000
202.31	21.739
202.69	-14.286
203.07	66.667
203.44	-20.000
203.82	100.000
204.19	-10.000
204.57	0.000
204.95	-16.667
205.32	0.000
205.70	200.000
206.08	-125.000
206.45	50.000
206.83	275.000
207.20	-233.333
207.58	50.000
207.96	-1800.000
208.33	-57.143
208.71	-800.000
209.08	150.000
209.46	250.000
209.84	0.000
210.21	60.000
210.59	500.000
210.96	280.000
211.34	100.000
211.71	-100.000
212.09	-133.333
212.46	-100.000
212.84	66.667
213.22	100.000
213.59	-700.000
213.97	0.000
214.34	-500.000
214.72	-7.692
215.09	62.500
215.47	-33.333
215.84	500.000
216.22	12.500
216.59	500.000
216.97	66.667
217.34	88.889
217.72	0.000
218.09	300.000
218.47	500.000
218.84	-71.429
219.22	-12.500
219.59	-200.000
219.97	75.000
220.34	-25.000
220.72	-80.000
221.09	0.000
221.47	-66.667
221.84	1100.000
222.22	0.000
222.59	700.000
222.97	-233.333
223.34	33.333
223.72	-500.000
224.09	250.000
224.46	-27.273
224.84	112.500
225.21	0.000
225.59	-25.000
225.96	0.000
226.34	10.000
226.71	0.000
227.08	200.000
227.46	125.000
227.83	1700.000
228.21	-6.250
228.58	-50.000
228.95	-35.294
229.33	75.000
229.70	-75.000
230.08	-38.462
230.45	-25.000
230.82	-58.333
231.20	185.714
231.57	100.000
231.95	900.000
232.32	91.667
232.69	70.588
233.07	-500.000
233.44	65.217
233.81	-700.000
234.19	4.167
234.56	-73.333
234.93	-13.333
235.31	5.263
235.68	-46.154
236.05	7.692
236.43	0.000
236.80	51.515
237.17	-73.333
237.55	-29.412
237.92	10.345
238.29	18.519
238.67	11.111
239.04	12.903
239.41	-4.255
239.79	27.660
240.16	37.209
240.53	3.571
240.91	14.286
241.28	12.500
241.65	8.065
242.02	9.211
242.40	26.087
242.77	10.145
243.14	2.564
243.51	20.213
243.89	18.269
244.26	29.245
244.63	7.692
245.00	14.583
245.38	15.966
245.75	11.475
246.12	23.308
246.49	3.252
246.87	9.244
247.24	20.270
247.61	15.894
247.98	17.308
248.36	14.201
248.73	11.236
249.10	13.636
249.47	9.140
249.84	10.526
250.22	11.940
250.59	19.626
250.96	12.727
251.33	6.699
251.70	15.900
252.08	15.481
252.45	16.049
252.82	14.449
253.19	9.728
253.56	11.871
253.94	13.879
254.31	16.197
254.68	18.121
255.05	16.502
255.42	15.035
255.79	12.270
256.16	14.511
256.54	13.016
256.91	13.291
257.28	15.723
257.65	8.917
258.02	14.663
258.39	16.374
258.76	12.500
259.14	11.364
259.51	15.449
259.88	16.260
260.25	16.389
260.62	13.764
260.99	15.385
261.36	16.580
261.73	12.346
262.10	11.196
262.47	14.074
262.85	14.428
263.22	15.897
263.59	14.026
263.96	13.382
264.33	11.779
264.70	15.349
265.07	15.278
265.44	15.862
265.81	14.416
266.18	13.895
266.55	11.790
266.92	13.983
267.29	15.844
267.66	14.013
268.03	17.490
268.40	11.229
268.77	15.083
269.14	16.735
269.51	15.811
269.88	13.035
270.25	14.619
270.62	13.115
270.99	13.583
271.36	14.484
271.73	13.253
272.10	14.476
272.47	16.315
272.84	14.370
273.21	12.916
273.58	12.910
273.95	14.717
274.32	15.858
274.69	15.847
275.06	16.078
275.43	13.559
275.80	12.766
276.17	13.260
276.54	12.433
276.91	12.892
277.28	12.816
277.65	14.685
278.02	14.286
278.39	11.901
278.76	14.883
279.13	13.379
279.50	14.138
279.87	13.406
280.23	11.171
280.60	13.668
280.97	12.662
281.34	14.826
281.71	13.171
282.08	12.991
282.45	12.787
282.82	12.780
283.19	14.787
283.56	13.594
283.92	12.691
284.29	15.445
284.66	11.203
285.03	10.912
285.40	11.329
285.77	13.964
286.14	13.374
286.51	16.342
286.87	11.231
287.24	12.537
287.61	12.801
287.98	13.382
288.35	12.221
288.72	14.204
289.08	13.818
289.45	12.188
289.82	12.254
290.19	12.482
290.56	11.080
290.93	12.017
291.29	11.765
291.66	12.568
292.03	12.943
292.40	12.382
292.77	12.718
293.13	13.110
293.50	11.895
293.87	13.600
294.24	10.317
294.60	11.964
294.97	13.889
295.34	12.401
295.71	11.038
296.08	11.780
296.44	10.714
296.81	10.840
297.18	12.750
297.55	10.495
297.91	11.304
298.28	11.743
298.65	11.330
299.02	11.233
299.38	9.571
299.75	11.058
300.12	10.000
300.48	9.357
300.85	11.432
301.22	10.569
301.59	9.742
301.95	10.105
302.32	11.435
302.69	9.266
303.05	9.635
303.42	11.136
303.79	11.041
304.15	10.843
304.52	12.043
304.89	10.078
305.25	10.099
305.62	10.087
305.99	9.576
306.35	11.599
306.72	11.190
307.09	9.906
307.45	10.543
307.82	10.316
308.19	9.613
308.55	10.235
308.92	11.002
309.29	11.011
309.65	10.290
310.02	10.139
310.38	11.992
310.75	10.454
311.12	10.982
311.48	10.781
311.85	10.531
312.22	11.025
312.58	9.855
312.95	10.945
313.31	11.846
313.68	10.878
314.05	10.964
314.41	10.855
314.78	11.480
315.14	11.204
315.51	12.179
315.87	11.863
316.24	12.213
316.61	11.781
316.97	11.019
317.34	10.873
317.70	11.151
318.07	12.511
318.43	11.834
318.80	11.257
319.16	11.848
319.53	12.007
319.89	10.569
320.26	11.830
320.62	14.736
320.99	12.403
321.35	12.816
321.72	12.897
322.08	13.100
322.45	14.339
322.81	14.603
323.18	13.953
323.54	14.350
323.91	16.531
324.27	15.392
324.64	14.286
325.00	15.573
325.37	16.468
325.73	15.825
326.10	15.896
326.46	16.639
326.83	17.718
327.19	18.374
327.56	18.372
327.92	18.906
328.29	20.200
328.65	20.245
329.01	19.877
329.38	21.478
329.74	21.888
330.11	20.920
330.47	21.441
330.84	21.480
331.20	22.289
331.56	23.822
331.93	22.739
332.29	24.066
332.66	23.729
333.02	24.500
333.38	24.211
333.75	24.317
334.11	24.479
334.48	26.591
334.84	22.880
335.20	24.528
335.57	24.282
335.93	25.344
336.29	24.343
336.66	25.897
337.02	25.304
337.38	25.239
337.75	25.581
338.11	24.424
338.47	24.486
338.84	26.117
339.20	25.838
339.56	26.109
339.93	25.324
340.29	26.815
340.65	27.203
341.02	27.038
341.38	27.196
341.74	25.882
342.11	26.755
342.47	25.607
342.83	26.634
343.20	27.157
343.56	27.146
343.92	26.483
344.28	26.948
344.65	26.857
345.01	25.585
345.37	26.974
345.73	27.941
346.10	26.726
346.46	26.667
346.82	27.528
347.19	27.453
347.55	27.868
347.91	27.592
348.27	28.233
348.63	28.045
349.00	27.516
349.36	27.630
349.72	28.384
350.08	27.535
350.45	28.348
350.81	28.169
351.17	27.406
351.53	27.965
351.89	28.435
352.26	26.409
352.62	29.457
352.98	29.792
353.34	28.986
353.70	29.283
354.07	28.549
354.43	28.849
354.79	29.567
355.15	29.270
355.51	28.398
355.87	28.616
356.24	29.133
356.60	29.163
356.96	29.470
357.32	29.876
357.68	29.412
358.04	29.170
358.40	29.612
358.77	30.734
359.13	29.728
359.49	30.431
359.85	31.008
360.21	30.301
360.57	30.190
360.93	30.653
361.29	30.940
361.66	31.283
362.02	30.541
362.38	31.167
362.74	30.529
363.10	32.176
363.46	30.548
363.82	32.225
364.18	32.052
364.54	32.823
364.90	31.289
365.26	31.564
365.62	31.676
365.98	31.815
366.35	32.979
366.71	31.883
367.07	31.963
367.43	32.474
367.79	31.550
368.15	33.755
368.51	32.560
368.87	33.357
369.23	32.883
369.59	33.404
369.95	33.237
370.31	33.124
370.67	33.382
371.03	34.818
371.39	33.854
371.75	34.357
372.11	34.615
372.47	34.895
372.83	34.397
373.19	33.957
373.55	35.405
373.91	34.512
374.27	34.440
374.63	35.704
374.99	35.446
375.35	36.370
375.71	35.462
376.07	35.915
376.42	36.096
376.78	36.262
377.14	36.814
377.50	36.701
377.86	35.857
378.22	36.410
378.58	36.885
378.94	37.500
379.30	37.414
379.66	36.375
380.02	37.132
380.38	37.048
380.74	38.195
381.09	38.420
381.45	39.057
381.81	39.002
382.17	37.681
382.53	39.385
382.89	38.842
383.25	38.333
383.61	40.012
383.97	39.938
384.32	39.319
384.68	39.543
385.04	37.630
385.40	39.851
385.76	40.572
386.12	40.930
386.48	40.376
386.83	38.986
387.19	41.394
387.55	42.367
387.91	41.697
388.27	40.937
388.62	42.197
388.98	41.489
389.34	42.168
389.70	40.598
390.06	41.313
390.42	42.977
390.77	42.217
391.13	42.992
391.49	41.682
391.85	43.259
392.20	42.481
392.56	41.905
392.92	42.715
393.28	43.173
393.64	43.609
393.99	42.534
394.35	43.148
394.71	43.269
395.07	42.013
395.42	44.059
395.78	43.629
396.14	44.705
396.50	44.261
396.85	44.678
397.21	43.571
397.57	43.851
397.92	44.012
398.28	44.896
398.64	44.141
399.00	44.587
399.35	44.552
399.71	44.321
400.07	45.181
400.42	45.705
400.78	44.471
401.14	45.861
401.49	46.675
401.85	45.762
402.21	47.926
402.57	46.352
402.92	46.183
403.28	46.029
403.63	46.125
403.99	45.425
404.35	46.883
404.70	46.224
405.06	47.035
405.42	46.231
405.77	46.889
406.13	47.657
406.49	47.394
406.84	47.802
407.20	47.425
407.55	47.273
407.91	47.981
408.27	46.787
408.62	46.900
408.98	47.904
409.34	46.720
409.69	48.148
410.05	46.953
410.40	46.865
410.76	47.653
411.11	48.445
411.47	49.370
411.83	48.222
412.18	49.370
412.54	49.436
412.89	49.028
413.25	47.788
413.60	49.530
413.96	49.001
414.31	48.890
414.67	48.889
415.03	49.120
415.38	48.481
415.74	49.253
416.09	49.703
416.45	49.692
416.80	50.134
417.16	50.810
417.51	50.636
417.87	51.190
418.22	50.032
418.58	49.606
418.93	50.094
419.29	50.825
419.64	49.682
420.00	50.349
420.35	49.970
420.71	49.360
421.06	51.046
421.42	52.129
421.77	51.503
422.12	50.946
422.48	50.872
422.83	51.447
423.19	50.949
423.54	51.708
423.90	51.306
424.25	51.358
424.61	51.325
424.96	51.094
425.31	50.589
425.67	52.146
426.02	52.356
426.38	52.674
426.73	51.924
427.09	51.345
427.44	52.202
427.79	52.197
428.15	52.538
428.50	51.722
428.85	53.198
429.21	51.097
429.56	52.338
429.92	52.889
430.27	52.710
430.62	52.361
430.98	52.353
431.33	52.337
431.68	53.035
432.04	53.690
432.39	51.617
432.74	53.955
433.10	53.980
433.45	53.846
433.80	54.195
434.16	52.813
434.51	52.554
434.86	53.298
435.22	53.480
435.57	52.948
435.92	54.403
436.28	53.814
436.63	54.446
436.98	53.525
437.34	55.128
437.69	53.837
438.04	53.537
438.39	54.670
438.75	54.112
439.10	55.292
439.45	55.024
439.81	55.234
440.16	54.551
440.51	53.329
440.86	54.179
441.22	54.159
441.57	55.586
441.92	53.603
442.27	53.193
442.63	54.413
442.98	55.093
443.33	54.176
443.68	54.138
444.03	53.651
444.39	54.834
444.74	54.942
445.09	54.736
445.44	54.704
445.79	54.517
446.15	53.910
446.50	53.634
446.85	55.532
447.20	54.835
447.55	55.400
447.91	54.157
448.26	54.831
448.61	55.178
448.96	55.239
449.31	54.312
449.66	53.730
450.02	54.690
450.37	54.700
450.72	54.879
451.07	56.238
451.42	53.712
451.77	55.021
452.12	53.832
452.47	54.035
452.83	53.833
453.18	54.169
453.53	53.720
453.88	54.759
454.23	53.585
454.58	54.779
454.93	54.137
455.28	53.886
455.63	53.337
455.98	53.987
456.34	54.482
456.69	53.674
457.04	53.932
457.39	54.420
457.74	53.980
458.09	54.088
458.44	54.818
458.79	52.993
459.14	52.809
459.49	54.451
459.84	54.002
460.19	53.241
460.54	54.197
460.89	53.491
461.24	54.377
461.59	55.193
461.94	53.540
462.29	53.983
462.64	53.628
462.99	53.655
463.34	52.624
463.69	54.768
464.04	53.481
464.39	53.691
464.74	53.747
465.09	53.441
465.44	53.311
465.79	53.882
466.14	53.193
466.49	53.490
466.84	52.660
467.19	53.376
467.54	54.310
467.89	52.923
468.24	53.841
468.59	53.665
468.94	53.321
469.29	54.065
469.64	53.556
469.99	54.000
470.34	53.675
470.68	54.647
471.03	52.468
471.38	53.268
471.73	52.812
472.08	54.708
472.43	54.090
472.78	53.414
473.13	51.847
473.48	53.164
473.83	53.923
474.17	53.255
474.52	54.175
474.87	52.774
475.22	52.838
475.57	52.370
475.92	52.835
476.27	52.739
476.61	54.077
476.96	53.684
477.31	51.780
477.66	53.390
478.01	51.209
478.36	52.752
478.70	52.900
479.05	53.330
479.40	51.430
479.75	52.869
480.10	53.085
480.45	51.349
480.79	52.713
481.14	52.128
481.49	52.047
481.84	52.356
482.19	50.811
482.53	52.095
482.88	52.349
483.23	51.203
483.58	51.701
483.92	52.140
484.27	51.144
484.62	51.664
484.97	52.551
485.31	51.552
485.66	50.415
486.01	50.056
486.36	49.737
486.70	49.972
487.05	50.459
487.40	50.736
487.75	50.991
488.09	50.704
488.44	51.069
488.79	51.590
489.13	50.934
489.48	50.962
489.83	50.469
490.17	51.021
490.52	52.267
490.87	50.904
491.22	51.813
491.56	52.563
491.91	49.688
492.26	52.273
492.60	50.938
492.95	51.263
493.30	50.484
493.64	50.312
493.99	51.304
494.34	51.541
494.68	51.933
495.03	50.741
495.37	50.122
495.72	50.175
496.07	51.388
496.41	50.491
496.76	50.868
497.11	50.986
497.45	50.584
497.80	52.448
498.14	51.134
498.49	50.731
498.84	50.607
499.18	50.523
499.53	50.074
499.87	49.636
500.22	51.767
500.56	52.608
500.91	50.050
501.26	50.690
501.60	49.706
501.95	50.311
502.29	50.097
502.64	51.254
502.98	50.337
503.33	50.462
503.67	50.779
504.02	49.657
504.36	51.015
504.71	49.644
505.06	50.178
505.40	51.340
505.75	52.035
506.09	50.485
506.44	50.353
506.78	50.990
507.13	50.104
507.47	50.159
507.82	49.765
508.16	50.607
508.51	49.690
508.85	50.130
509.19	49.947
509.54	50.456
509.88	50.753
510.23	48.947
510.57	50.794
510.92	50.539
511.26	50.495
511.61	50.494
511.95	50.110
512.30	50.250
512.64	51.192
512.98	49.972
513.33	50.704
513.67	50.369
514.02	50.114
514.36	49.944
514.70	51.039
515.05	51.902
515.39	50.354
515.74	50.681
516.08	49.145
516.42	51.728
516.77	51.494
517.11	51.558
517.46	50.720
517.80	51.937
518.14	51.255
518.49	51.477
518.83	49.940
519.17	49.940
519.52	50.905
519.86	51.305
520.20	50.697
520.55	51.866
520.89	50.601
521.23	52.179
521.58	51.264
521.92	49.780
522.26	51.139
522.61	50.485
522.95	51.231
523.29	51.683
523.64	52.130
523.98	50.826
524.32	50.536
524.66	51.299
525.01	52.490
525.35	51.876
525.69	52.021
526.04	51.726
526.38	51.370
526.72	51.019
527.06	50.548
527.41	52.019
527.75	52.069
528.09	52.893
528.43	52.714
528.78	50.323
529.12	51.811
529.46	51.312
529.80	52.168
530.15	50.965
530.49	53.437
530.83	51.794
531.17	53.630
531.51	50.978
531.86	51.016
532.20	50.103
532.54	52.069
532.88	51.804
533.22	52.660
533.57	51.126
533.91	52.258
534.25	52.799
534.59	51.544
534.93	52.041
535.27	51.401
535.62	52.237
535.96	52.180
536.30	51.463
536.64	50.649
536.98	51.577
537.32	52.456
537.66	51.975
538.01	52.635
538.35	50.069
538.69	50.100
539.03	50.201
539.37	49.832
539.71	51.569
540.05	50.067
540.39	50.585
540.73	52.444
541.07	50.748
541.42	51.178
541.76	50.406
542.10	50.982
542.44	51.490
542.78	52.186
543.12	50.741
543.46	49.620
543.80	50.441
544.14	49.966
544.48	51.029
544.82	51.110
545.16	49.831
545.50	50.506
545.84	49.649
546.18	50.491
546.52	50.600
546.86	48.905
547.20	51.465
547.54	49.893
547.88	52.294
548.22	50.228
548.56	50.233
548.90	49.729
549.24	51.042
549.58	49.751
549.92	50.990
550.26	51.070
550.60	51.502
550.94	50.448
551.28	49.129
551.62	51.128
551.96	50.000
552.30	49.418
552.64	49.435
552.98	51.278
553.32	50.685
553.66	50.697
554.00	48.308
554.34	51.209
554.68	49.888
555.02	49.251
555.36	50.530
555.69	50.619
556.03	50.393
556.37	50.427
556.71	49.474
557.05	48.856
557.39	49.962
557.73	51.437
558.07	50.414
558.41	49.811
558.75	50.038
559.08	49.639
559.42	50.039
559.76	49.694
560.10	50.192
560.44	49.226
560.78	49.424
561.12	50.245
561.45	47.687
561.79	48.900
562.13	49.086
562.47	49.357
562.81	50.216
563.15	48.796
563.48	47.763
563.82	48.974
564.16	49.154
564.50	48.779
564.84	47.432
565.17	49.073
565.51	50.267
565.85	48.434
566.19	49.272
566.52	48.034
566.86	48.483
567.20	48.076
567.54	47.611
567.88	46.137
568.21	47.474
568.55	47.522
568.89	46.461
569.23	46.700
569.56	45.932
569.90	46.472
570.24	45.560
570.57	44.661
570.91	44.740
571.25	45.255
571.59	44.708
571.92	44.823
572.26	45.708
572.60	45.273
572.93	44.923
573.27	43.881
573.61	45.148
573.95	44.632
574.28	44.444
574.62	45.051
574.96	44.660
575.29	45.035
575.63	44.231
575.97	45.326
576.30	44.493
576.64	44.616
576.98	44.980
577.31	44.043
577.65	43.936
577.98	44.300
578.32	43.707
578.66	43.953
578.99	44.554
579.33	44.503
579.67	44.246
580.00	43.752
580.34	44.232
580.67	44.194
581.01	44.496
581.35	43.937
581.68	43.441
582.02	43.928
582.35	44.836
582.69	44.174
583.02	42.860
583.36	43.981
583.70	44.188
584.03	44.136
584.37	43.934
584.70	44.341
585.04	44.070
585.37	43.694
585.71	43.729
586.04	43.985
586.38	43.436
586.72	43.355
587.05	43.937
587.39	43.959
587.72	43.590
588.06	43.967
588.39	44.165
588.73	43.652
589.06	44.035
589.40	44.479
589.73	43.083
590.07	43.529
590.40	44.112
590.73	45.259
591.07	45.424
591.40	44.261
591.74	44.909
592.07	44.226
592.41	44.444
592.74	43.326
593.08	43.009
593.41	43.770
593.75	43.379
594.08	43.765
594.41	44.205
594.75	44.265
595.08	44.100
595.42	43.737
595.75	43.492
596.09	43.918
596.42	43.587
596.75	44.800
597.09	44.586
597.42	44.100
597.75	44.133
598.09	44.035
598.42	44.116
598.76	43.241
599.09	44.498
599.42	44.184
599.76	43.335
600.09	43.825
600.42	43.616
600.76	42.609
601.09	43.352
601.42	43.787
601.76	42.973
602.09	43.210
602.42	43.913
602.76	43.834
603.09	44.435
603.42	43.183
603.76	43.102
604.09	43.162
604.42	43.868
604.76	43.125
605.09	44.087
605.42	43.725
605.75	42.441
606.09	43.129
606.42	43.142
606.75	42.944
607.09	42.819
607.42	42.776
607.75	42.188
608.08	43.282
608.42	43.158
608.75	43.430
609.08	44.096
609.41	43.418
609.75	43.217
610.08	43.491
610.41	44.023
610.74	43.215
611.07	42.836
611.41	43.808
611.74	43.219
612.07	42.418
612.40	43.730
612.73	43.414
613.07	43.625
613.40	43.722
613.73	43.770
614.06	42.731
614.39	43.357
614.72	43.531
615.06	43.778
615.39	43.488
615.72	42.927
616.05	44.257
616.38	42.669
616.71	42.951
617.05	43.428
617.38	43.376
617.71	43.444
618.04	43.876
618.37	43.596
618.70	43.467
619.03	44.261
619.36	43.843
619.69	43.494
620.03	42.473
620.36	43.633
620.69	43.326
621.02	42.615
621.35	43.581
621.68	42.706
622.01	45.955
622.34	43.140
622.67	43.540
623.00	44.453
623.33	43.829
623.66	43.494
623.99	43.211
624.32	43.580
624.65	43.472
624.99	44.159
625.32	43.839
625.65	43.411
625.98	44.234
626.31	44.735
626.64	43.594
626.97	43.512
627.30	44.397
627.63	42.215
627.96	42.771
628.29	45.209
628.62	44.874
628.95	44.890
629.28	44.532
629.61	45.263
629.94	44.294
630.26	44.433
630.59	44.855
630.92	43.072
631.25	44.284
631.58	44.968
631.91	42.948
632.24	44.127
632.57	45.111
632.90	45.974
633.23	44.365
633.56	46.763
633.89	44.617
634.22	46.290
634.55	45.311
634.88	44.975
635.20	44.625
635.53	44.057
635.86	44.872
636.19	44.789
636.52	46.341
636.85	43.546
637.18	43.240
637.51	44.569
637.83	45.300
638.16	44.667
638.49	42.056
638.82	43.399
639.15	44.415
639.48	45.989
639.81	46.528
640.13	45.493
640.46	46.893
640.79	44.460
641.12	45.118
641.45	44.250
641.77	43.741
642.10	43.419
642.43	47.327
642.76	44.953
643.09	43.770
643.41	45.455
643.74	46.365
644.07	42.557
644.40	46.932
644.73	47.288
645.05	43.979
645.38	43.688
645.71	43.537
646.04	41.751
646.36	43.576
646.69	42.308
647.02	44.991
647.35	46.618
647.67	47.689
648.00	43.841
648.33	45.085
648.66	43.907
648.98	43.168
649.31	45.399
649.64	43.975
649.96	43.286
650.29	41.830
650.62	43.163
650.94	43.793
651.27	43.640
651.60	45.455
651.92	46.416
652.25	44.221
652.58	43.564
652.90	42.761
653.23	41.426
653.56	43.471
653.88	42.150
654.21	41.468
654.54	42.857
654.86	42.602
655.19	41.457
655.52	41.199
655.84	37.967
656.17	45.108
656.49	59.815
656.82	58.613
657.15	43.675
657.47	32.945
657.80	24.906
658.13	26.012
658.45	39.382
658.78	39.389
659.10	39.875
659.43	40.000
659.75	40.098
660.08	40.759
660.41	41.379
660.73	40.496
661.06	43.367
661.38	43.217
661.71	45.287
662.03	45.666
662.36	42.257
662.68	46.237
663.01	45.763
663.33	44.492
663.66	42.572
663.98	46.292
664.31	45.055
664.63	43.694
664.96	47.046
665.28	42.489
665.61	43.844
665.93	42.612
666.26	44.937
666.58	42.398
666.91	43.722
667.23	44.240
667.56	44.598
667.88	41.822
668.21	41.518
668.53	45.977
668.86	47.002
669.18	42.553
669.50	43.318
669.83	44.630
670.15	43.095
670.48	40.690
670.80	45.952
671.13	42.563
671.45	45.890
671.77	44.828
672.10	41.131
672.42	41.985
672.75	40.000
673.07	39.455
673.39	42.910
673.72	43.713
674.04	41.803
674.37	44.919
674.69	40.947
675.01	43.162
675.34	42.232
675.66	44.880
675.98	41.814
676.31	42.760
676.63	44.218
676.95	42.353
677.28	41.972
677.60	46.569
677.92	41.463
678.25	43.601
678.57	43.788
678.89	43.497
679.22	36.439
679.54	42.449
679.86	43.359
680.18	43.269
680.51	40.000
680.83	39.571
681.15	42.240
681.48	40.681
681.80	39.877
682.12	43.333
682.44	39.437
682.77	38.526
683.09	41.295
683.41	37.442
683.73	40.625
684.06	40.929
684.38	39.957
684.70	42.159
685.02	42.355
685.34	40.509
685.67	44.841
685.99	41.281
686.31	40.517
686.63	39.706
686.96	39.518
687.28	41.118
687.60	40.832
687.92	41.051
688.24	39.800
688.56	41.009
688.89	38.976
689.21	40.583
689.53	40.766
689.85	41.348
690.17	38.681
690.49	44.928
690.82	38.902
691.14	42.754
691.46	40.139
691.78	39.780
692.10	41.614
692.42	39.560
692.74	41.739
693.06	38.202
693.39	39.813
693.71	38.222
694.03	45.000
694.35	41.441
694.67	41.250
694.99	45.361
695.31	41.344
695.63	41.707
695.95	39.949
696.27	41.096
696.59	36.290
696.91	36.872
697.23	38.325
697.56	40.048
697.88	39.917
698.20	38.661
698.52	39.019
698.84	38.995
699.16	37.825
699.48	40.741
699.80	45.736
700.12	38.338
700.44	41.972
700.76	40.730
701.08	43.202
701.40	38.024
701.72	44.615
702.04	38.994
702.36	37.805
702.68	39.939
703.00	40.058
703.32	37.047
703.64	38.855
703.96	39.003
704.28	40.361
704.60	41.159
704.91	33.542
705.23	40.506
705.55	36.207
705.87	42.254
706.19	39.560
706.51	39.437
706.83	35.032
707.15	41.768
707.47	41.598
707.79	39.086
708.11	35.476
708.43	37.310
708.74	37.766
709.06	39.037
709.38	37.752
709.70	39.339
710.02	36.137
710.34	37.667
710.66	34.528
710.98	39.938
711.29	38.961
711.61	38.710
711.93	37.419
712.25	35.664
712.57	30.526
712.89	41.392
713.20	42.199
713.52	39.051
713.84	40.323
714.16	37.864
714.48	34.810
714.80	36.741
715.11	35.465
715.43	34.472
715.75	39.130
716.07	40.663
716.39	37.710
716.70	44.245
717.02	39.216
717.34	38.636
717.66	37.931
717.97	38.889
718.29	41.732
718.61	36.052
718.93	34.884
719.24	37.269
719.56	38.951
719.88	37.313
720.20	35.573
720.51	39.844
720.83	38.911
721.15	36.992
721.46	33.969
721.78	35.857
722.10	37.450
722.42	39.113
722.73	35.907
723.05	37.959
723.37	38.235
723.68	36.000
724.00	34.468
724.32	34.310
724.63	39.918
724.95	37.179
725.27	36.287
725.58	48.560
725.90	36.820
726.22	36.594
726.53	37.647
726.85	39.416
727.16	35.185
727.48	40.996
727.80	38.281
728.11	36.885
728.43	35.547
728.74	35.714
729.06	35.600
729.38	36.364
729.69	39.146
730.01	33.457
730.32	37.269
730.64	35.985
730.96	39.860
731.27	33.445
731.59	36.508
731.90	37.217
732.22	33.654
732.53	32.432
732.85	33.893
733.16	33.993
733.48	36.486
733.80	37.500
734.11	35.811
734.43	40.557
734.74	37.538
735.06	36.023
735.37	35.866
735.69	33.333
736.00	36.304
736.32	37.943
736.63	34.828
736.95	38.699
737.26	34.483
737.58	37.500
737.89	32.990
738.21	33.452
738.52	31.559
738.83	41.633
739.15	37.131
739.46	33.852
739.78	34.507
740.09	30.479
740.41	34.286
740.72	36.170
741.04	35.200
741.35	25.439
741.66	33.333
741.98	35.096
742.29	44.059
742.61	33.171
742.92	40.351
743.23	33.491
743.55	36.486
743.86	35.426
744.18	35.784
744.49	44.670
744.80	33.673
745.12	34.579
745.43	38.389
745.74	36.486
746.06	35.981
746.37	35.321
746.68	34.135
747.00	30.622
747.31	31.731
747.62	36.697
747.94	37.118
748.25	38.532
748.56	37.333
748.88	38.498
749.19	36.667
749.50	28.641
749.82	34.742
750.13	30.417
750.44	33.846
750.75	36.531
751.07	34.875
751.38	32.979
751.69	34.363
752.01	33.984
752.32	31.538
752.63	35.075
752.94	32.400
753.26	30.126
753.57	34.583
753.88	30.769
754.19	36.255
754.51	34.211
754.82	32.601
755.13	33.478
755.44	34.959
755.75	34.800
756.07	29.889
756.38	34.173
756.69	31.741
757.00	34.579
757.31	32.039
757.63	32.099
757.94	34.181
758.25	30.423
758.56	33.152
758.87	33.631
759.18	31.861
759.50	32.997
759.81	31.438
760.12	34.154
760.43	30.952
760.74	28.814
761.05	29.558
761.36	32.092
761.67	30.211
761.99	31.271
762.30	36.131
762.61	34.156
762.92	37.179
763.23	39.754
763.54	33.333
763.85	34.286
764.16	28.049
764.47	32.400
764.78	30.714
765.10	29.508
765.41	29.483
765.72	32.609
766.03	34.323
766.34	33.846
766.65	34.310
766.96	30.516
767.27	35.149
767.58	25.843
767.89	34.568
768.20	28.177
768.51	32.161
768.82	37.500
769.13	29.646
769.44	38.494
769.75	29.487
770.06	31.390
770.37	32.353
770.68	32.039
770.99	33.495
771.30	33.613
771.61	32.653
771.92	39.004
772.23	31.982
772.54	29.834
772.85	36.628
773.16	37.566
773.47	26.036
773.78	35.632
774.09	35.000
774.39	37.888
774.70	32.653
775.01	33.793
775.32	37.143
775.63	38.346
775.94	28.571
776.25	22.400
776.56	29.752
776.87	37.302
777.18	35.135
777.48	31.532
777.79	36.220
778.10	33.945
778.41	29.825
778.72	26.891
779.03	30.986
779.34	32.432
779.65	26.761
779.95	35.762
780.26	17.986
780.57	38.129
780.88	28.169
781.19	31.092
781.50	27.517
781.80	35.088
782.11	31.977
782.42	34.591
782.73	37.255
783.04	32.414
783.34	34.351
783.65	31.544
783.96	37.692
784.27	34.286
784.57	29.787
784.88	23.077
785.19	34.545
785.50	34.545
785.81	36.190
786.11	30.252
786.42	38.053
786.73	30.189
787.04	24.771
787.34	21.782
787.65	37.500
787.96	30.579
788.26	29.710
788.57	23.810
788.88	28.455
789.19	27.200
789.49	29.008
789.80	32.576
790.11	26.415
790.41	33.663
790.72	38.298
791.03	30.435
791.33	31.765
791.64	23.457
791.95	34.783
792.25	38.636
792.56	37.179
792.87	23.077
793.17	12.821
793.48	33.333
793.79	21.250
794.09	40.385
794.40	41.667
794.70	32.432
795.01	29.687
795.32	28.696
795.62	13.043
795.93	26.415
796.23	28.283
796.54	34.146
796.85	28.571
797.15	25.758
797.46	33.333
797.76	34.211
798.07	43.182
798.37	31.707
798.68	40.323
798.99	14.865
799.29	30.120
799.60	37.179
799.90	33.846
800.21	40.909
800.51	32.000
800.82	40.000
801.12	18.750
801.43	6.667
801.73	25.676
802.04	41.429
802.34	27.869
802.65	38.806
802.95	32.727
803.26	18.966
803.56	24.615
803.87	24.528
804.17	27.419
804.48	33.824
804.78	26.829
805.09	28.986
805.39	32.353
805.70	0.000
806.00	29.825
806.30	34.615
806.61	26.316
806.91	36.486
807.22	34.211
807.52	25.000
807.83	28.814
808.13	10.606
808.43	15.000
808.74	17.241
809.04	31.746
809.35	28.571
809.65	20.000
809.95	10.204
810.26	39.437
810.56	25.000
810.86	20.408
811.17	48.077
811.47	10.638
811.77	60.417
812.08	32.075
812.38	28.125
812.69	40.000
812.99	34.146
813.29	29.730
813.59	-8.108
813.90	20.000
814.20	41.818
814.50	35.000
814.81	30.909
815.11	21.053
815.41	48.837
815.72	15.000
816.02	20.000
816.32	8.108
816.62	16.667
816.93	31.111
817.23	8.889
817.53	2.778
817.84	37.838
818.14	24.390
818.44	24.000
818.74	34.694
819.04	36.585
819.35	11.111
819.65	40.909
819.95	-33.333
820.25	15.152
820.56	14.286
820.86	25.000
821.16	0.000
821.46	23.913
821.76	17.241
822.07	43.478
822.37	27.273
822.67	53.659
822.97	21.622
823.27	8.571
823.57	65.517
823.88	8.824
824.18	44.444
824.48	5.714
824.78	14.286
825.08	35.714
825.38	33.333
825.69	61.290
825.99	39.024
826.29	37.037
826.59	34.375
826.89	12.903
827.19	-8.696
827.49	33.333
827.79	17.391
828.09	6.452
828.39	41.667
828.70	6.250
829.00	17.241
829.30	16.216
829.60	0.000
829.90	25.926
830.20	6.250
830.50	59.091
830.80	-64.706
831.10	-13.636
831.40	5.882
831.70	0.000
832.00	33.333
832.30	61.765
832.60	37.838
832.90	-100.000
833.20	39.286
833.50	-35.000
833.80	23.684
834.10	-20.833
834.40	-18.182
834.70	-60.000
835.00	80.000
835.30	16.667
835.60	-38.095
835.90	47.619
836.20	80.000
836.50	29.167
836.80	36.842
837.10	48.649
837.40	50.000
837.70	30.435
838.00	45.833
838.30	26.316
838.60	-50.000
838.90	-80.000
839.19	-50.000
839.49	23.077
839.79	36.842
840.09	0.000
840.39	-30.000
840.69	4.545
840.99	28.571
841.29	-20.833
841.59	0.000
841.88	-93.333
842.18	35.714
842.48	43.333
842.78	-142.857
843.08	-7.143
843.38	-37.500
843.68	-6.250
843.97	57.143
844.27	-88.889
844.57	-18.182
844.87	20.000
845.17	50.000
845.47	533.333
845.76	13.333
846.06	-91.667
846.36	-200.000
846.66	-26.316
846.96	-4.545
847.25	-22.222
847.55	-144.444
847.85	-4.762
848.15	7.692
848.44	-83.333
848.74	-25.000
849.04	15.385
849.34	-175.000
849.63	45.455
849.93	-7.143
850.23	10.000
850.53	125.000
850.82	61.111
851.12	53.333
851.42	23.529
851.71	12.500
852.01	47.059
852.31	23.077
852.61	100.000
852.90	117.647
853.20	46.667
853.50	50.000
853.79	-57.143
854.09	50.000
854.39	15.000
854.68	-5.000
854.98	-38.095
855.28	4.000
855.57	37.500
855.87	45.833
856.17	0.000
856.46	28.125
856.76	-5.000
857.05	44.000
857.35	25.000
857.65	58.824
857.94	-50.000
858.24	25.000
858.53	75.000
858.83	0.000
859.13	12.000
859.42	-21.429
859.72	-137.500
860.01	41.667
860.31	-100.000
860.60	50.000
860.90	100.000
861.20	16.667
861.49	46.667
861.79	-75.000
862.08	250.000
862.38	-8.333
862.67	200.000
862.97	-50.000
863.26	81.818
863.56	-9.091
863.85	89.474
864.15	-5.882
864.44	-40.000
864.74	-60.000
865.03	44.444
865.33	35.714
865.62	92.857
865.92	15.789
866.21	22.222
866.51	100.000
866.80	-33.333
867.10	-100.000
867.39	43.750
867.69	-13.333
867.98	40.000
868.27	11.765
868.57	0.000
868.86	450.000
869.16	-100.000
869.45	14.286
869.75	50.000
870.04	60.000
870.33	-100.000
870.63	-52.632
870.92	8.333
871.22	500.000
871.51	-300.000
871.80	-122.222
872.10	-125.000
>>>>>End Processed Spectral Data<<<<<
