SpectraSuite Data File
++++++++++++++++++++++++++++++++++++
Date: Wed May 13 20:38:42 PDT 2015
User: schluterlab
Dark Spectrum Present: Yes
Reference Spectrum Present: Yes
Number of Sampled Component Spectra: 1
Spectrometers: USB2E3373
Integration Time (usec): 3000 (USB2E3373)
Spectra Averaged: 3 (USB2E3373)
Boxcar Smoothing: 0 (USB2E3373)
Correct for Electrical Dark: No (USB2E3373)
Strobe/Lamp Enabled: No (USB2E3373)
Correct for Detector Non-linearity: No (USB2E3373)
Correct for Stray Light: No (USB2E3373)
Number of Pixels in Processed Spectrum: 2048
>>>>>Begin Processed Spectral Data<<<<<
178.53	0.000
178.91	-925.000
179.29	-825.000
179.67	-100.000
180.04	-700.000
180.42	2250.000
180.80	780.000
181.18	-750.000
181.56	514.286
181.94	0.000
182.31	-414.286
182.69	1366.667
183.07	-350.000
183.45	-411.111
183.83	436.364
184.20	-270.000
184.58	1850.000
184.96	3700.000
185.34	-640.000
185.72	-387.500
186.09	-1750.000
186.47	2000.000
186.85	1900.000
187.23	2700.000
187.61	-1133.333
187.98	1125.000
188.36	454.545
188.74	381.818
189.12	-640.000
189.49	440.000
189.87	-3500.000
190.25	-775.000
190.63	292.857
191.00	284.615
191.38	533.333
191.76	-1000.000
192.14	1125.000
192.51	475.000
192.89	766.667
193.27	512.500
193.65	-675.000
194.02	310.000
194.40	640.000
194.78	470.000
195.15	450.000
195.53	530.000
195.91	-1300.000
196.29	268.750
196.66	200.000
197.04	-190.000
197.42	0.000
197.79	500.000
198.17	-3600.000
198.55	457.143
198.92	587.500
199.30	680.000
199.68	0.000
200.05	222.222
200.43	542.857
200.81	3300.000
201.18	1500.000
201.56	-1100.000
201.94	388.889
202.31	466.667
202.69	266.667
203.07	410.000
203.44	0.000
203.82	825.000
204.19	571.429
204.57	357.143
204.95	450.000
205.32	1200.000
205.70	345.455
206.08	250.000
206.45	1800.000
206.83	225.000
207.20	700.000
207.58	620.000
207.96	250.000
208.33	587.500
208.71	-583.333
209.08	585.714
209.46	477.778
209.84	354.545
210.21	-1233.333
210.59	1075.000
210.96	-337.500
211.34	2200.000
211.71	580.000
212.09	516.667
212.46	0.000
212.84	1266.667
213.22	1000.000
213.59	-2400.000
213.97	633.333
214.34	700.000
214.72	581.818
215.09	880.000
215.47	-1200.000
215.84	-1600.000
216.22	1133.333
216.59	278.571
216.97	950.000
217.34	318.182
217.72	-366.667
218.09	0.000
218.47	-3800.000
218.84	511.111
219.22	628.571
219.59	1133.333
219.97	-442.857
220.34	620.000
220.72	-1333.333
221.09	307.143
221.47	1025.000
221.84	-750.000
222.22	0.000
222.59	975.000
222.97	-1900.000
223.34	860.000
223.72	346.154
224.09	760.000
224.46	2050.000
224.84	-3800.000
225.21	-920.000
225.59	-4200.000
225.96	420.000
226.34	210.000
226.71	1950.000
227.08	412.500
227.46	420.000
227.83	-825.000
228.21	-2050.000
228.58	533.333
228.95	-1850.000
229.33	-1600.000
229.70	1200.000
230.08	528.571
230.45	-640.000
230.82	325.000
231.20	633.333
231.57	357.143
231.95	366.667
232.32	172.727
232.69	281.818
233.07	542.857
233.44	200.000
233.81	-1233.333
234.19	231.579
234.56	350.000
234.93	308.333
235.31	390.909
235.68	300.000
236.05	271.429
236.43	157.576
236.80	215.789
237.17	3600.000
237.55	176.190
237.92	189.286
238.29	204.762
238.67	119.355
239.04	165.517
239.41	125.000
239.79	93.478
240.16	102.381
240.53	118.182
240.91	101.961
241.28	96.000
241.65	88.000
242.02	95.652
242.40	75.806
242.77	106.667
243.14	75.269
243.51	83.146
243.89	75.294
244.26	62.222
244.63	70.968
245.00	67.021
245.38	67.327
245.75	71.963
246.12	63.303
246.49	65.693
246.87	68.800
247.24	71.538
247.61	61.429
247.98	56.209
248.36	54.730
248.73	57.325
249.10	58.599
249.47	51.412
249.84	59.358
250.22	52.941
250.59	55.030
250.96	54.545
251.33	54.502
251.70	55.941
252.08	47.143
252.45	45.291
252.82	48.261
253.19	50.213
253.56	48.235
253.94	50.207
254.31	48.047
254.68	51.538
255.05	51.661
255.42	45.935
255.79	47.794
256.16	48.375
256.54	44.523
256.91	47.331
257.28	43.525
257.65	46.205
258.02	45.031
258.39	41.325
258.76	43.813
259.14	43.452
259.51	44.073
259.88	41.304
260.25	46.526
260.62	45.087
260.99	43.789
261.36	47.447
261.73	42.980
262.10	45.349
262.47	44.507
262.85	44.290
263.22	42.735
263.59	47.009
263.96	39.286
264.33	44.386
264.70	41.579
265.07	45.524
265.44	45.455
265.81	41.119
266.18	40.955
266.55	42.439
266.92	41.278
267.29	45.139
267.66	40.826
268.03	40.000
268.40	44.860
268.77	39.141
269.14	40.315
269.51	40.858
269.88	43.124
270.25	39.052
270.62	43.371
270.99	42.581
271.36	40.343
271.73	40.421
272.10	41.957
272.47	41.290
272.84	41.775
273.21	41.300
273.58	38.428
273.95	37.107
274.32	38.430
274.69	39.186
275.06	40.945
275.43	41.277
275.80	38.477
276.17	39.104
276.54	40.956
276.91	37.154
277.28	38.867
277.65	37.911
278.02	41.408
278.39	42.773
278.76	39.636
279.13	36.981
279.50	40.223
279.87	39.243
280.23	40.719
280.60	38.878
280.97	38.632
281.34	39.292
281.71	39.091
282.08	38.772
282.45	36.909
282.82	38.366
283.19	35.294
283.56	38.246
283.92	40.102
284.29	35.979
284.66	35.209
285.03	36.890
285.40	37.324
285.77	37.037
286.14	36.097
286.51	38.167
286.87	37.094
287.24	39.739
287.61	37.239
287.98	35.552
288.35	35.182
288.72	33.801
289.08	34.116
289.45	36.244
289.82	34.797
290.19	34.380
290.56	33.691
290.93	30.363
291.29	34.969
291.66	33.333
292.03	35.320
292.40	34.802
292.77	30.178
293.13	32.687
293.50	33.236
293.87	32.296
294.24	31.407
294.60	32.169
294.97	31.541
295.34	30.889
295.71	29.972
296.08	29.202
296.44	30.812
296.81	29.987
297.18	31.436
297.55	28.892
297.91	29.551
298.28	29.853
298.65	29.243
299.02	28.986
299.38	29.880
299.75	25.876
300.12	27.458
300.48	28.000
300.85	28.977
301.22	28.153
301.59	26.768
301.95	28.841
302.32	28.626
302.69	28.913
303.05	27.030
303.42	27.160
303.79	27.746
304.15	27.622
304.52	26.188
304.89	27.062
305.25	27.958
305.62	26.840
305.99	28.453
306.35	26.063
306.72	27.803
307.09	27.192
307.45	28.266
307.82	26.897
308.19	26.932
308.55	26.969
308.92	27.175
309.29	26.188
309.65	26.405
310.02	26.744
310.38	26.882
310.75	27.033
311.12	24.258
311.48	28.109
311.85	27.673
312.22	28.304
312.58	27.235
312.95	27.561
313.31	27.087
313.68	29.002
314.05	29.980
314.41	28.844
314.78	27.996
315.14	28.600
315.51	29.557
315.87	28.614
316.24	28.401
316.61	29.435
316.97	30.039
317.34	30.137
317.70	31.166
318.07	30.414
318.43	32.192
318.80	32.334
319.16	33.051
319.53	31.801
319.89	33.810
320.26	33.100
320.62	34.623
320.99	34.646
321.35	33.535
321.72	35.729
322.08	37.414
322.45	39.204
322.81	37.791
323.18	39.499
323.54	36.920
323.91	38.396
324.27	38.337
324.64	38.677
325.00	39.856
325.37	40.582
325.73	40.036
326.10	40.512
326.46	41.577
326.83	41.501
327.19	41.845
327.56	42.596
327.92	44.007
328.29	42.059
328.65	44.107
329.01	44.134
329.38	44.588
329.74	44.044
330.11	45.146
330.47	45.455
330.84	46.232
331.20	45.173
331.56	44.587
331.93	45.463
332.29	45.785
332.66	46.106
333.02	45.887
333.38	46.522
333.75	46.078
334.11	45.907
334.48	46.406
334.84	45.588
335.20	47.182
335.57	45.422
335.93	46.429
336.29	46.429
336.66	46.619
337.02	45.158
337.38	46.481
337.75	46.168
338.11	46.553
338.47	46.133
338.84	46.929
339.20	45.688
339.56	47.172
339.93	47.000
340.29	44.746
340.65	46.078
341.02	46.422
341.38	47.509
341.74	45.614
342.11	46.114
342.47	45.110
342.83	45.719
343.20	47.273
343.56	44.482
343.92	45.877
344.28	45.748
344.65	47.377
345.01	45.286
345.37	44.768
345.73	45.939
346.10	45.013
346.46	45.593
346.82	43.904
347.19	45.781
347.55	44.499
347.91	45.631
348.27	45.029
348.63	45.903
349.00	44.094
349.36	44.253
349.72	44.026
350.08	44.327
350.45	45.321
350.81	44.029
351.17	43.517
351.53	45.700
351.89	44.389
352.26	45.304
352.62	45.469
352.98	44.165
353.34	44.289
353.70	43.617
354.07	45.081
354.43	43.095
354.79	43.604
355.15	43.735
355.51	44.205
355.87	44.735
356.24	44.625
356.60	41.860
356.96	44.087
357.32	43.827
357.68	44.094
358.04	43.151
358.40	42.201
358.77	42.645
359.13	41.989
359.49	42.824
359.85	42.778
360.21	43.222
360.57	43.813
360.93	44.385
361.29	44.142
361.66	41.796
362.02	43.881
362.38	44.030
362.74	43.006
363.10	41.303
363.46	43.287
363.82	42.404
364.18	41.263
364.54	43.091
364.90	42.989
365.26	42.206
365.62	42.732
365.98	42.075
366.35	40.903
366.71	42.155
367.07	40.932
367.43	43.469
367.79	43.540
368.15	41.667
368.51	41.642
368.87	43.469
369.23	41.039
369.59	42.505
369.95	41.103
370.31	41.524
370.67	41.594
371.03	42.996
371.39	42.711
371.75	41.324
372.11	41.181
372.47	42.449
372.83	42.003
373.19	40.751
373.55	41.316
373.91	41.826
374.27	39.794
374.63	41.164
374.99	41.172
375.35	40.893
375.71	39.753
376.07	42.387
376.42	41.884
376.78	40.689
377.14	40.909
377.50	40.927
377.86	40.226
378.22	40.771
378.58	38.596
378.94	39.912
379.30	40.394
379.66	40.419
380.02	41.155
380.38	39.709
380.74	40.516
381.09	40.587
381.45	41.733
381.81	40.233
382.17	39.809
382.53	40.314
382.89	40.370
383.25	39.962
383.61	41.450
383.97	39.900
384.32	39.863
384.68	40.644
385.04	40.443
385.40	40.372
385.76	39.926
386.12	39.573
386.48	40.151
386.83	41.244
387.19	39.889
387.55	38.899
387.91	39.661
388.27	39.301
388.62	39.951
388.98	38.821
389.34	39.987
389.70	40.037
390.06	39.607
390.42	39.754
390.77	39.059
391.13	40.332
391.49	39.784
391.85	39.083
392.20	39.180
392.56	39.520
392.92	39.023
393.28	38.698
393.64	38.729
393.99	39.401
394.35	39.454
394.71	38.269
395.07	37.072
395.42	39.184
395.78	37.786
396.14	38.547
396.50	38.972
396.85	38.462
397.21	38.841
397.57	39.678
397.92	38.642
398.28	38.397
398.64	38.889
399.00	39.004
399.35	38.691
399.71	37.905
400.07	38.675
400.42	38.282
400.78	38.842
401.14	37.622
401.49	38.448
401.85	38.173
402.21	36.946
402.57	37.754
402.92	38.588
403.28	38.351
403.63	39.604
403.99	38.344
404.35	36.606
404.70	37.170
405.06	37.391
405.42	37.929
405.77	37.314
406.13	37.980
406.49	38.025
406.84	37.212
407.20	37.175
407.55	37.332
407.91	38.000
408.27	37.779
408.62	37.026
408.98	37.132
409.34	37.761
409.69	37.548
410.05	37.608
410.40	37.798
410.76	36.738
411.11	36.550
411.47	36.166
411.83	37.752
412.18	36.858
412.54	36.613
412.89	36.506
413.25	36.364
413.60	37.245
413.96	35.458
414.31	37.424
414.67	37.833
415.03	36.623
415.38	36.598
415.74	36.077
416.09	37.100
416.45	37.349
416.80	36.946
417.16	37.265
417.51	37.094
417.87	36.480
418.22	35.962
418.58	37.379
418.93	36.732
419.29	35.455
419.64	37.280
420.00	36.159
420.35	36.754
420.71	35.983
421.06	35.740
421.42	35.848
421.77	35.987
422.12	35.823
422.48	36.373
422.83	36.168
423.19	36.243
423.54	35.694
423.90	36.290
424.25	35.902
424.61	35.774
424.96	35.743
425.31	35.825
425.67	34.607
426.02	34.971
426.38	36.386
426.73	35.693
427.09	35.805
427.44	36.745
427.79	35.480
428.15	36.071
428.50	35.284
428.85	36.114
429.21	34.732
429.56	35.874
429.92	34.927
430.27	34.558
430.62	34.665
430.98	34.665
431.33	34.691
431.68	35.759
432.04	34.771
432.39	35.066
432.74	35.907
433.10	35.371
433.45	35.860
433.80	34.867
434.16	34.722
434.51	34.263
434.86	35.576
435.22	36.409
435.57	35.502
435.92	34.816
436.28	36.180
436.63	35.210
436.98	34.917
437.34	35.182
437.69	35.706
438.04	35.245
438.39	35.821
438.75	35.154
439.10	34.972
439.45	35.596
439.81	35.166
440.16	34.952
440.51	35.091
440.86	34.337
441.22	35.762
441.57	35.032
441.92	34.749
442.27	35.361
442.63	34.702
442.98	35.831
443.33	35.380
443.68	34.228
444.03	35.139
444.39	35.200
444.74	34.686
445.09	35.094
445.44	34.336
445.79	34.587
446.15	34.463
446.50	33.656
446.85	34.995
447.20	34.421
447.55	34.673
447.91	34.804
448.26	34.279
448.61	34.539
448.96	35.271
449.31	35.208
449.66	34.271
450.02	33.983
450.37	34.014
450.72	34.292
451.07	33.760
451.42	34.164
451.77	34.410
452.12	34.758
452.47	34.080
452.83	34.674
453.18	33.496
453.53	34.632
453.88	34.022
454.23	35.087
454.58	34.706
454.93	35.156
455.28	34.414
455.63	34.223
455.98	36.190
456.34	35.050
456.69	34.126
457.04	34.118
457.39	33.723
457.74	34.185
458.09	34.043
458.44	33.808
458.79	33.026
459.14	33.691
459.49	33.508
459.84	33.186
460.19	33.942
460.54	33.160
460.89	33.297
461.24	34.366
461.59	34.980
461.94	33.292
462.29	34.540
462.64	34.014
462.99	33.442
463.34	34.067
463.69	33.834
464.04	33.101
464.39	32.812
464.74	34.225
465.09	33.233
465.44	32.853
465.79	32.383
466.14	32.841
466.49	33.037
466.84	34.501
467.19	33.072
467.54	33.625
467.89	33.133
468.24	32.810
468.59	33.394
468.94	32.987
469.29	33.226
469.64	34.203
469.99	33.491
470.34	33.421
470.68	33.190
471.03	32.925
471.38	33.773
471.73	33.511
472.08	33.816
472.43	34.422
472.78	33.180
473.13	32.798
473.48	32.272
473.83	32.561
474.17	31.674
474.52	33.127
474.87	32.516
475.22	32.095
475.57	31.703
475.92	32.395
476.27	32.807
476.61	31.936
476.96	31.996
477.31	32.234
477.66	32.002
478.01	31.155
478.36	33.316
478.70	31.776
479.05	31.949
479.40	32.446
479.75	31.876
480.10	31.958
480.45	31.652
480.79	30.817
481.14	32.045
481.49	32.653
481.84	31.230
482.19	31.849
482.53	31.330
482.88	31.829
483.23	31.682
483.58	31.802
483.92	31.678
484.27	30.632
484.62	30.560
484.97	30.706
485.31	30.685
485.66	28.589
486.01	28.224
486.36	27.925
486.70	29.100
487.05	29.477
487.40	30.184
487.75	29.901
488.09	31.301
488.44	30.187
488.79	31.790
489.13	31.551
489.48	30.873
489.83	30.168
490.17	31.609
490.52	30.115
490.87	30.620
491.22	30.423
491.56	30.296
491.91	30.712
492.26	30.547
492.60	30.323
492.95	30.122
493.30	29.486
493.64	30.425
493.99	30.594
494.34	30.574
494.68	30.723
495.03	31.156
495.37	31.177
495.72	30.945
496.07	30.162
496.41	30.133
496.76	29.639
497.11	30.347
497.45	29.809
497.80	29.798
498.14	30.338
498.49	29.805
498.84	30.920
499.18	29.619
499.53	30.389
499.87	29.823
500.22	28.968
500.56	30.583
500.91	30.529
501.26	29.777
501.60	31.229
501.95	29.423
502.29	29.522
502.64	29.655
502.98	29.453
503.33	30.347
503.67	30.162
504.02	29.747
504.36	29.715
504.71	29.751
505.06	30.458
505.40	29.363
505.75	29.508
506.09	29.397
506.44	30.044
506.78	29.664
507.13	30.086
507.47	29.747
507.82	29.382
508.16	30.193
508.51	29.883
508.85	29.196
509.19	30.051
509.54	30.204
509.88	30.036
510.23	28.946
510.57	31.269
510.92	29.415
511.26	29.394
511.61	29.927
511.95	30.115
512.30	29.852
512.64	29.823
512.98	30.332
513.33	28.961
513.67	29.562
514.02	28.950
514.36	29.110
514.70	30.105
515.05	29.225
515.39	29.052
515.74	29.110
516.08	29.234
516.42	29.911
516.77	29.877
517.11	29.578
517.46	30.023
517.80	29.617
518.14	29.415
518.49	30.455
518.83	29.432
519.17	28.176
519.52	29.881
519.86	30.348
520.20	29.942
520.55	29.503
520.89	29.623
521.23	30.217
521.58	29.292
521.92	29.822
522.26	29.286
522.61	29.657
522.95	28.729
523.29	29.763
523.64	30.366
523.98	30.068
524.32	29.614
524.66	29.826
525.01	29.412
525.35	28.748
525.69	28.202
526.04	29.034
526.38	29.225
526.72	30.000
527.06	29.504
527.41	28.094
527.75	29.453
528.09	28.452
528.43	29.318
528.78	29.256
529.12	29.152
529.46	29.455
529.80	29.455
530.15	29.346
530.49	28.862
530.83	29.873
531.17	30.548
531.51	30.350
531.86	29.355
532.20	29.791
532.54	29.853
532.88	29.397
533.22	28.732
533.57	29.136
533.91	28.296
534.25	28.858
534.59	28.798
534.93	28.554
535.27	28.365
535.62	28.877
535.96	29.504
536.30	28.862
536.64	29.234
536.98	28.401
537.32	28.176
537.66	27.400
538.01	28.703
538.35	28.507
538.69	28.973
539.03	28.135
539.37	28.115
539.71	27.544
540.05	28.693
540.39	28.571
540.73	28.202
541.07	28.618
541.42	30.007
541.76	29.484
542.10	29.625
542.44	29.139
542.78	29.578
543.12	28.087
543.46	28.590
543.80	28.757
544.14	28.113
544.48	29.079
544.82	27.903
545.16	29.213
545.50	28.342
545.84	28.898
546.18	28.350
546.52	29.800
546.86	28.660
547.20	28.793
547.54	27.923
547.88	28.316
548.22	27.024
548.56	27.736
548.90	27.209
549.24	28.418
549.58	29.195
549.92	28.709
550.26	29.545
550.60	27.870
550.94	29.155
551.28	27.652
551.62	28.541
551.96	27.509
552.30	28.123
552.64	27.721
552.98	27.525
553.32	27.849
553.66	28.425
554.00	26.836
554.34	28.088
554.68	29.256
555.02	27.433
555.36	28.323
555.69	27.131
556.03	27.927
556.37	27.285
556.71	27.831
557.05	27.871
557.39	28.481
557.73	28.934
558.07	29.007
558.41	28.365
558.75	28.655
559.08	27.815
559.42	27.664
559.76	27.574
560.10	28.123
560.44	27.673
560.78	26.547
561.12	27.441
561.45	27.901
561.79	27.291
562.13	28.169
562.47	26.844
562.81	27.545
563.15	27.224
563.48	26.923
563.82	27.854
564.16	26.619
564.50	26.237
564.84	26.612
565.17	27.220
565.51	27.093
565.85	28.109
566.19	26.237
566.52	26.662
566.86	27.728
567.20	26.828
567.54	26.769
567.88	27.159
568.21	26.667
568.55	25.986
568.89	26.216
569.23	26.337
569.56	25.830
569.90	25.396
570.24	24.865
570.57	25.536
570.91	24.693
571.25	25.015
571.59	24.801
571.92	25.173
572.26	25.014
572.60	25.375
572.93	25.067
573.27	25.259
573.61	24.902
573.95	25.013
574.28	24.874
574.62	24.198
574.96	24.301
575.29	24.394
575.63	24.619
575.97	24.577
576.30	24.456
576.64	24.615
576.98	24.283
577.31	24.145
577.65	24.235
577.98	23.965
578.32	23.689
578.66	24.319
578.99	24.492
579.33	24.425
579.67	24.811
580.00	24.550
580.34	24.941
580.67	24.888
581.01	24.893
581.35	24.074
581.68	24.065
582.02	23.509
582.35	23.960
582.69	24.408
583.02	24.398
583.36	24.833
583.70	25.250
584.03	25.261
584.37	24.928
584.70	24.791
585.04	24.119
585.37	24.068
585.71	24.389
586.04	24.330
586.38	25.183
586.72	25.131
587.05	24.015
587.39	24.538
587.72	24.427
588.06	24.893
588.39	25.075
588.73	24.670
589.06	25.740
589.40	25.017
589.73	24.991
590.07	25.552
590.40	25.027
590.73	25.761
591.07	25.967
591.40	25.095
591.74	25.887
592.07	25.175
592.41	24.762
592.74	24.270
593.08	24.550
593.41	24.233
593.75	23.517
594.08	24.170
594.41	24.744
594.75	24.547
595.08	24.803
595.42	24.413
595.75	24.288
596.09	24.897
596.42	25.108
596.75	25.201
597.09	25.238
597.42	24.536
597.75	24.925
598.09	25.000
598.42	25.043
598.76	23.754
599.09	24.021
599.42	23.872
599.76	24.305
600.09	24.189
600.42	24.105
600.76	24.000
601.09	24.372
601.42	23.935
601.76	24.820
602.09	24.545
602.42	24.920
602.76	25.111
603.09	24.823
603.42	25.381
603.76	24.162
604.09	24.002
604.42	24.460
604.76	24.800
605.09	24.858
605.42	24.754
605.75	24.296
606.09	24.929
606.42	24.683
606.75	25.425
607.09	24.152
607.42	24.433
607.75	24.641
608.08	24.099
608.42	25.415
608.75	24.527
609.08	24.607
609.41	24.465
609.75	24.488
610.08	24.599
610.41	24.348
610.74	24.834
611.07	25.198
611.41	24.436
611.74	25.038
612.07	25.828
612.40	25.551
612.73	25.053
613.07	26.401
613.40	24.276
613.73	24.436
614.06	25.215
614.39	24.856
614.72	25.526
615.06	24.947
615.39	24.788
615.72	24.438
616.05	24.189
616.38	25.181
616.71	25.475
617.05	25.795
617.38	25.376
617.71	25.285
618.04	25.962
618.37	25.606
618.70	26.385
619.03	25.724
619.36	25.187
619.69	25.352
620.03	25.618
620.36	24.933
620.69	25.685
621.02	26.180
621.35	25.372
621.68	25.234
622.01	26.084
622.34	25.870
622.67	25.551
623.00	25.825
623.33	25.161
623.66	24.875
623.99	26.289
624.32	25.250
624.65	25.000
624.99	24.363
625.32	25.996
625.65	24.493
625.98	27.210
626.31	26.827
626.64	26.694
626.97	25.769
627.30	24.771
627.63	25.923
627.96	27.502
628.29	26.597
628.62	26.441
628.95	27.925
629.28	26.551
629.61	26.673
629.94	27.238
630.26	25.643
630.59	26.120
630.92	24.425
631.25	25.173
631.58	26.527
631.91	26.978
632.24	26.160
632.57	27.702
632.90	26.535
633.23	26.174
633.56	26.554
633.89	27.633
634.22	27.015
634.55	27.811
634.88	27.186
635.20	27.121
635.53	27.952
635.86	26.238
636.19	25.059
636.52	26.182
636.85	26.575
637.18	26.382
637.51	27.541
637.83	23.921
638.16	27.110
638.49	27.330
638.82	27.686
639.15	27.375
639.48	27.681
639.81	27.346
640.13	28.516
640.46	27.919
640.79	26.156
641.12	26.685
641.45	27.235
641.77	27.688
642.10	28.363
642.43	27.327
642.76	26.471
643.09	28.067
643.41	27.314
643.74	30.401
644.07	27.896
644.40	28.528
644.73	28.819
645.05	30.269
645.38	27.488
645.71	29.308
646.04	30.565
646.36	29.215
646.69	30.100
647.02	30.442
647.35	30.069
647.67	29.204
648.00	28.130
648.33	28.383
648.66	27.727
648.98	28.036
649.31	26.756
649.64	26.906
649.96	28.018
650.29	26.856
650.62	27.508
650.94	29.335
651.27	30.068
651.60	29.118
651.92	29.233
652.25	27.687
652.58	27.414
652.90	30.490
653.23	24.037
653.56	28.661
653.88	28.843
654.21	27.646
654.54	27.723
654.86	28.037
655.19	24.054
655.52	19.605
655.84	17.602
656.17	22.646
656.49	31.447
656.82	33.246
657.15	26.323
657.47	19.908
657.80	15.625
658.13	16.469
658.45	25.076
658.78	25.851
659.10	25.925
659.43	26.685
659.75	27.512
660.08	28.038
660.41	28.771
660.73	30.114
661.06	29.618
661.38	29.636
661.71	27.885
662.03	27.022
662.36	29.225
662.68	28.715
663.01	30.303
663.33	27.389
663.66	27.311
663.98	26.350
664.31	27.731
664.63	27.935
664.96	28.169
665.28	29.303
665.61	26.511
665.93	28.974
666.26	29.615
666.58	30.335
666.91	30.655
667.23	29.888
667.56	28.078
667.88	30.769
668.21	27.505
668.53	28.850
668.86	26.190
669.18	32.623
669.50	31.522
669.83	31.590
670.15	28.667
670.48	30.501
670.80	29.310
671.13	29.512
671.45	24.255
671.77	30.754
672.10	26.433
672.42	27.208
672.75	27.363
673.07	27.289
673.39	27.667
673.72	30.078
674.04	28.627
674.37	30.485
674.69	27.198
675.01	28.661
675.34	29.158
675.66	30.526
675.98	30.346
676.31	30.252
676.63	28.450
676.95	29.140
677.28	29.673
677.60	29.231
677.92	30.802
678.25	28.337
678.57	29.482
678.89	26.653
679.22	27.308
679.54	29.389
679.86	30.459
680.18	27.013
680.51	28.723
680.83	27.224
681.15	27.925
681.48	29.868
681.80	28.046
682.12	26.054
682.44	26.112
682.77	30.143
683.09	30.043
683.41	32.373
683.73	30.243
684.06	28.926
684.38	27.006
684.70	30.039
685.02	30.206
685.34	26.190
685.67	25.350
685.99	24.227
686.31	27.474
686.63	25.795
686.96	27.500
687.28	27.076
687.60	25.362
687.92	27.788
688.24	27.947
688.56	28.514
688.89	29.253
689.21	29.476
689.53	28.392
689.85	30.599
690.17	26.915
690.49	30.786
690.82	28.505
691.14	26.786
691.46	26.371
691.78	26.707
692.10	29.339
692.42	29.142
692.74	25.726
693.06	27.872
693.39	31.828
693.71	27.729
694.03	27.158
694.35	28.571
694.67	29.291
694.99	29.024
695.31	27.451
695.63	29.665
695.95	28.362
696.27	27.919
696.59	31.347
696.91	28.756
697.23	25.822
697.56	30.490
697.88	24.131
698.20	26.875
698.52	27.527
698.84	30.512
699.16	26.498
699.48	28.266
699.80	28.019
700.12	33.506
700.44	27.586
700.76	30.939
701.08	30.172
701.40	29.888
701.72	30.029
702.04	33.523
702.36	29.745
702.68	30.312
703.00	31.856
703.32	26.862
703.64	33.244
703.96	31.476
704.28	30.233
704.60	33.724
704.91	34.421
705.23	30.499
705.55	34.551
705.87	35.216
706.19	30.035
706.51	32.399
706.83	33.636
707.15	33.053
707.47	26.263
707.79	29.484
708.11	28.311
708.43	29.286
708.74	28.061
709.06	30.649
709.38	30.971
709.70	30.233
710.02	32.344
710.34	30.000
710.66	28.955
710.98	30.398
711.29	29.070
711.61	32.743
711.93	30.769
712.25	36.656
712.57	29.044
712.89	33.910
713.20	31.611
713.52	33.882
713.84	26.582
714.16	30.488
714.48	31.609
714.80	32.219
715.11	32.277
715.43	26.409
715.75	27.536
716.07	30.990
716.39	30.721
716.70	34.219
717.02	34.173
717.34	32.509
717.66	32.836
717.97	32.271
718.29	31.481
718.61	31.387
718.93	34.559
719.24	33.910
719.56	31.864
719.88	29.831
720.20	32.095
720.51	31.707
720.83	33.457
721.15	31.343
721.46	33.688
721.78	29.032
722.10	35.472
722.42	37.594
722.73	30.712
723.05	32.377
723.37	29.150
723.68	33.205
724.00	33.333
724.32	36.694
724.63	37.398
724.95	34.728
725.27	33.198
725.58	39.453
725.90	36.496
726.22	31.321
726.53	28.819
726.85	33.106
727.16	33.096
727.48	29.433
727.80	36.364
728.11	37.681
728.43	27.308
728.74	29.749
729.06	32.117
729.38	33.088
729.69	33.096
730.01	34.471
730.32	27.431
730.64	32.776
730.96	28.383
731.27	32.781
731.59	31.193
731.90	32.362
732.22	32.609
732.53	29.721
732.85	31.090
733.16	28.617
733.48	31.229
733.80	32.792
734.11	30.255
734.43	31.657
734.74	28.857
735.06	29.513
735.37	32.370
735.69	28.981
736.00	34.314
736.32	33.645
736.63	31.310
736.95	32.268
737.26	28.231
737.58	28.065
737.89	31.773
738.21	34.471
738.52	35.357
738.83	32.453
739.15	31.154
739.46	36.496
739.78	33.681
740.09	31.077
740.41	29.677
740.72	25.436
741.04	32.222
741.35	30.000
741.66	39.111
741.98	33.019
742.29	37.321
742.61	42.672
742.92	34.389
743.23	33.761
743.55	36.400
743.86	34.649
744.18	41.150
744.49	42.105
744.80	40.376
745.12	38.182
745.43	32.159
745.74	45.495
746.06	38.532
746.37	35.874
746.68	32.579
747.00	33.333
747.31	37.619
747.62	32.743
747.94	34.802
748.25	30.638
748.56	36.564
748.88	36.139
749.19	37.000
749.50	36.744
749.82	32.520
750.13	31.429
750.44	31.752
750.75	34.737
751.07	35.691
751.38	34.146
751.69	33.213
752.01	34.211
752.32	32.130
752.63	32.270
752.94	37.295
753.26	41.600
753.57	30.894
753.88	33.594
754.19	35.357
754.51	33.333
754.82	29.964
755.13	28.679
755.44	29.323
755.75	29.562
756.07	31.206
756.38	29.197
756.69	27.517
757.00	29.641
757.31	31.454
757.63	27.193
757.94	29.223
758.25	27.941
758.56	27.654
758.87	24.194
759.18	27.576
759.50	27.900
759.81	28.349
760.12	27.187
760.43	29.226
760.74	29.620
761.05	29.096
761.36	29.679
761.67	29.545
761.99	31.988
762.30	35.417
762.61	36.260
762.92	34.766
763.23	31.092
763.54	34.000
763.85	30.469
764.16	35.385
764.47	33.460
764.78	31.802
765.10	28.165
765.41	28.024
765.72	30.539
766.03	30.408
766.34	29.000
766.65	32.340
766.96	36.752
767.27	38.071
767.58	37.500
767.89	41.579
768.20	40.230
768.51	36.041
768.82	39.450
769.13	30.894
769.44	29.960
769.75	30.043
770.06	27.982
770.37	41.629
770.68	34.259
770.99	34.667
771.30	24.590
771.61	35.874
771.92	35.246
772.23	38.655
772.54	36.410
772.85	38.743
773.16	39.362
773.47	40.761
773.78	38.579
774.09	35.714
774.39	37.427
774.70	41.358
775.01	41.304
775.32	47.712
775.63	42.105
775.94	41.007
776.25	41.732
776.56	42.537
776.87	39.344
777.18	45.313
777.48	51.908
777.79	40.909
778.10	47.407
778.41	44.643
778.72	35.036
779.03	41.611
779.34	43.624
779.65	37.162
779.95	40.491
780.26	43.137
780.57	42.069
780.88	54.688
781.19	40.602
781.50	43.243
781.80	44.654
782.11	34.463
782.42	34.810
782.73	37.423
783.04	47.973
783.34	43.662
783.65	53.425
783.96	44.776
784.27	39.860
784.57	34.532
784.88	41.667
785.19	51.587
785.50	48.113
785.81	54.478
786.11	55.738
786.42	44.186
786.73	40.708
787.04	52.830
787.34	48.214
787.65	48.000
787.96	52.252
788.26	47.107
788.57	52.542
788.88	50.413
789.19	38.889
789.49	50.000
789.80	44.275
790.11	54.286
790.41	49.505
790.72	57.831
791.03	58.696
791.33	60.465
791.64	51.546
791.95	59.406
792.25	58.889
792.56	53.247
792.87	75.641
793.17	65.823
793.48	59.770
793.79	56.322
794.09	69.318
794.40	55.462
794.70	50.000
795.01	39.259
795.32	41.007
795.62	41.732
795.93	50.862
796.23	40.708
796.54	51.765
796.85	47.297
797.15	70.423
797.46	66.667
797.76	66.265
798.07	67.089
798.37	61.538
798.68	69.697
798.99	60.563
799.29	70.130
799.60	59.091
799.90	71.233
800.21	82.090
800.51	77.586
800.82	85.965
801.12	83.607
801.43	86.364
801.73	64.865
802.04	73.016
802.34	64.198
802.65	73.438
802.95	89.831
803.26	84.375
803.56	62.857
803.87	43.077
804.17	70.588
804.48	94.444
804.78	65.517
805.09	67.647
805.39	78.846
805.70	85.714
806.00	80.328
806.30	48.485
806.61	73.171
806.91	55.696
807.22	50.000
807.52	53.731
807.83	54.930
808.13	75.000
808.43	85.000
808.74	67.105
809.04	81.159
809.35	89.552
809.65	55.263
809.95	90.323
810.26	62.712
810.56	63.492
810.86	111.364
811.17	97.619
811.47	105.000
811.77	83.333
812.08	80.000
812.38	112.000
812.69	116.667
812.99	127.273
813.29	83.673
813.59	57.143
813.90	108.163
814.20	78.182
814.50	67.692
814.81	85.294
815.11	75.510
815.41	103.279
815.72	100.000
816.02	96.364
816.32	104.762
816.62	95.000
816.93	126.829
817.23	111.905
817.53	88.636
817.84	121.212
818.14	130.435
818.44	75.556
818.74	132.353
819.04	97.500
819.35	114.286
819.65	120.588
819.95	132.143
820.25	150.000
820.56	125.641
820.86	104.545
821.16	111.628
821.46	110.256
821.76	118.000
822.07	85.714
822.37	122.500
822.67	127.273
822.97	76.471
823.27	167.857
823.57	81.081
823.88	127.500
824.18	133.333
824.48	114.286
824.78	128.000
825.08	100.000
825.38	129.730
825.69	102.439
825.99	187.500
826.29	124.138
826.59	121.053
826.89	100.000
827.19	155.882
827.49	145.161
827.79	111.364
828.09	111.364
828.39	97.872
828.70	91.837
829.00	100.000
829.30	132.258
829.60	105.000
829.90	233.333
830.20	150.000
830.50	147.826
830.80	186.957
831.10	136.667
831.40	130.000
831.70	143.478
832.00	180.769
832.30	122.222
832.60	187.500
832.90	163.333
833.20	321.429
833.50	122.581
833.80	144.828
834.10	118.750
834.40	169.231
834.70	222.222
835.00	223.810
835.30	134.286
835.60	238.462
835.90	131.034
836.20	300.000
836.50	148.276
836.80	136.000
837.10	127.778
837.40	195.238
837.70	223.529
838.00	181.481
838.30	195.238
838.60	228.571
838.90	150.000
839.19	230.000
839.49	257.143
839.79	250.000
840.09	210.000
840.39	176.190
840.69	217.391
840.99	227.778
841.29	310.000
841.59	258.333
841.88	237.500
842.18	127.586
842.48	190.476
842.78	150.000
843.08	165.217
843.38	112.500
843.68	533.333
843.97	165.385
844.27	124.138
844.57	209.524
844.87	256.250
845.17	133.333
845.47	1000.000
845.76	333.333
846.06	194.118
846.36	325.000
846.66	264.286
846.96	212.500
847.25	227.273
847.55	281.818
847.85	213.043
848.15	340.000
848.44	178.571
848.74	138.889
849.04	217.647
849.34	440.000
849.63	226.316
849.93	327.273
850.23	820.000
850.53	335.714
850.82	1700.000
851.12	-2700.000
851.42	3700.000
851.71	200.000
852.01	-1100.000
852.31	154.167
852.61	1100.000
852.90	166.667
853.20	184.000
853.50	241.176
853.79	185.714
854.09	137.500
854.39	262.500
854.68	135.135
854.98	161.290
855.28	133.333
855.57	203.448
855.87	196.296
856.17	173.684
856.46	193.333
856.76	194.118
857.05	127.586
857.35	175.000
857.65	240.000
857.94	152.174
858.24	180.769
858.53	240.000
858.83	236.364
859.13	246.667
859.42	0.000
859.72	411.111
860.01	272.727
860.31	195.455
860.60	215.789
860.90	191.304
861.20	477.778
861.49	416.667
861.79	-3600.000
862.08	412.500
862.38	209.524
862.67	253.846
862.97	235.294
863.26	366.667
863.56	183.333
863.85	258.333
864.15	375.000
864.44	253.333
864.74	616.667
865.03	562.500
865.33	252.632
865.62	345.455
865.92	353.846
866.21	308.333
866.51	0.000
866.80	363.636
867.10	720.000
867.39	292.308
867.69	300.000
867.98	231.579
868.27	318.182
868.57	247.368
868.86	-3600.000
869.16	325.000
869.45	1400.000
869.75	-3600.000
870.04	308.333
870.33	485.714
870.63	700.000
870.92	1900.000
871.22	471.429
871.51	217.647
871.80	180.952
872.10	307.143
>>>>>End Processed Spectral Data<<<<<
