SpectraSuite Data File
++++++++++++++++++++++++++++++++++++
Date: Wed May 13 21:03:50 PDT 2015
User: schluterlab
Dark Spectrum Present: Yes
Reference Spectrum Present: Yes
Number of Sampled Component Spectra: 1
Spectrometers: USB2E3373
Integration Time (usec): 3000 (USB2E3373)
Spectra Averaged: 3 (USB2E3373)
Boxcar Smoothing: 0 (USB2E3373)
Correct for Electrical Dark: No (USB2E3373)
Strobe/Lamp Enabled: No (USB2E3373)
Correct for Detector Non-linearity: No (USB2E3373)
Correct for Stray Light: No (USB2E3373)
Number of Pixels in Processed Spectrum: 2048
>>>>>Begin Processed Spectral Data<<<<<
178.53	0.000
178.91	-50.000
179.29	150.000
179.67	-300.000
180.04	-66.667
180.42	40.000
180.80	2000.000
181.18	250.000
181.56	-200.000
181.94	-25.000
182.31	9.091
182.69	69.231
183.07	-40.000
183.45	166.667
183.83	144.444
184.20	57.143
184.58	33.333
184.96	233.333
185.34	42.857
185.72	0.000
186.09	300.000
186.47	-300.000
186.85	20.000
187.23	350.000
187.61	600.000
187.98	600.000
188.36	0.000
188.74	0.000
189.12	36.364
189.49	60.000
189.87	91.667
190.25	20.000
190.63	-300.000
191.00	120.000
191.38	40.000
191.76	225.000
192.14	75.000
192.51	47.368
192.89	233.333
193.27	150.000
193.65	-240.000
194.02	181.818
194.40	120.000
194.78	-100.000
195.15	220.000
195.53	-120.000
195.91	87.500
196.29	133.333
196.66	0.000
197.04	50.000
197.42	80.000
197.79	100.000
198.17	-112.500
198.55	33.333
198.92	-50.000
199.30	-400.000
199.68	50.000
200.05	-0.000
200.43	16.667
200.81	-1300.000
201.18	-180.000
201.56	0.000
201.94	375.000
202.31	13.043
202.69	57.143
203.07	-266.667
203.44	-200.000
203.82	-66.667
204.19	0.000
204.57	0.000
204.95	-50.000
205.32	0.000
205.70	250.000
206.08	100.000
206.45	-66.667
206.83	400.000
207.20	-66.667
207.58	0.000
207.96	-1300.000
208.33	-114.286
208.71	-700.000
209.08	62.500
209.46	225.000
209.84	0.000
210.21	160.000
210.59	300.000
210.96	260.000
211.34	600.000
211.71	-300.000
212.09	-150.000
212.46	-40.000
212.84	233.333
213.22	-100.000
213.59	-100.000
213.97	-50.000
214.34	-800.000
214.72	15.385
215.09	62.500
215.47	111.111
215.84	450.000
216.22	25.000
216.59	-150.000
216.97	433.333
217.34	222.222
217.72	0.000
218.09	-33.333
218.47	300.000
218.84	-128.571
219.22	12.500
219.59	-66.667
219.97	-225.000
220.34	25.000
220.72	-100.000
221.09	0.000
221.47	-216.667
221.84	-200.000
222.22	0.000
222.59	900.000
222.97	-333.333
223.34	83.333
223.72	300.000
224.09	-350.000
224.46	-63.636
224.84	25.000
225.21	-71.429
225.59	-200.000
225.96	-33.333
226.34	10.000
226.71	28.571
227.08	300.000
227.46	-62.500
227.83	-1400.000
228.21	31.250
228.58	-50.000
228.95	-17.647
229.33	-12.500
229.70	-87.500
230.08	-30.769
230.45	-12.500
230.82	-33.333
231.20	114.286
231.57	-300.000
231.95	700.000
232.32	-16.667
232.69	-52.941
233.07	-600.000
233.44	-21.739
233.81	-200.000
234.19	20.833
234.56	-13.333
234.93	-40.000
235.31	-36.842
235.68	-69.231
236.05	38.462
236.43	-38.889
236.80	-12.121
237.17	-80.000
237.55	-23.529
237.92	-37.931
238.29	-40.741
238.67	0.000
239.04	-12.903
239.41	-19.149
239.79	-17.021
240.16	-9.302
240.53	3.571
240.91	-1.786
241.28	-1.786
241.65	3.226
242.02	-9.211
242.40	8.696
242.77	-17.391
243.14	-19.231
243.51	-2.128
243.89	11.538
244.26	14.151
244.63	6.731
245.00	1.042
245.38	5.042
245.75	1.639
246.12	1.504
246.49	-9.756
246.87	-20.168
247.24	2.027
247.61	-2.649
247.98	0.641
248.36	-3.550
248.73	-3.933
249.10	1.010
249.47	-1.613
249.84	5.263
250.22	3.980
250.59	-3.738
250.96	0.000
251.33	-10.526
251.70	4.184
252.08	-2.510
252.45	2.058
252.82	1.901
253.19	-1.556
253.56	-2.878
253.94	3.203
254.31	0.704
254.68	0.000
255.05	0.660
255.42	-3.846
255.79	0.613
256.16	2.839
256.54	-0.635
256.91	-3.481
257.28	0.000
257.65	-1.911
258.02	-3.519
258.39	-0.877
258.76	-2.035
259.14	0.284
259.51	-2.247
259.88	0.000
260.25	-1.667
260.62	0.843
260.99	0.796
261.36	2.850
261.73	-0.988
262.10	-1.018
262.47	-2.963
262.85	-0.746
263.22	1.026
263.59	-0.260
263.96	2.190
264.33	-1.683
264.70	0.465
265.07	0.463
265.44	0.920
265.81	-0.458
266.18	-2.733
266.55	-0.437
266.92	-0.424
267.29	1.646
267.66	0.425
268.03	1.646
268.40	-3.178
268.77	1.653
269.14	-0.612
269.51	3.285
269.88	-2.851
270.25	-1.271
270.62	-2.459
270.99	2.362
271.36	1.190
271.73	2.610
272.10	1.524
272.47	0.384
272.84	1.181
273.21	-2.153
273.58	-1.844
273.95	1.321
274.32	-0.746
274.69	0.911
275.06	1.237
275.43	1.883
275.80	0.000
276.17	0.184
276.54	1.066
276.91	-1.045
277.28	-2.166
277.65	0.699
278.02	-0.179
278.39	-0.710
278.76	0.836
279.13	-0.515
279.50	-0.862
279.87	0.000
280.23	0.000
280.60	-0.173
280.97	-0.649
281.34	0.315
281.71	-0.163
282.08	-1.197
282.45	0.492
282.82	0.000
283.19	2.744
283.56	2.188
283.92	1.376
284.29	0.468
284.66	0.659
285.03	0.000
285.40	0.302
285.77	0.450
286.14	0.304
286.51	0.750
286.87	0.615
287.24	-0.590
287.61	0.602
287.98	0.735
288.35	-0.745
288.72	2.296
289.08	1.852
289.45	-0.441
289.82	-0.303
290.19	0.982
290.56	-0.994
290.93	-0.276
291.29	0.137
291.66	1.366
292.03	0.545
292.40	0.404
292.77	0.268
293.13	0.000
293.50	1.569
293.87	1.467
294.24	-0.265
294.60	1.170
294.97	0.794
295.34	0.000
295.71	-1.577
296.08	1.047
296.44	-0.255
296.81	-0.122
297.18	1.625
297.55	0.708
297.91	0.994
298.28	0.363
298.65	0.493
299.02	1.099
299.38	0.000
299.75	0.962
300.12	-0.349
300.48	-0.351
300.85	0.000
301.22	1.974
301.59	0.117
301.95	-1.045
302.32	0.117
302.69	-0.226
303.05	0.443
303.42	0.227
303.79	1.893
304.15	0.329
304.52	1.720
304.89	0.443
305.25	0.000
305.62	1.085
305.99	2.285
306.35	2.299
306.72	0.712
307.09	1.668
307.45	1.065
307.82	0.211
308.19	-0.522
308.55	-0.205
308.92	1.572
309.29	1.201
309.65	0.500
310.02	1.690
310.38	1.016
310.75	1.381
311.12	1.846
311.48	1.286
311.85	2.067
312.22	3.288
312.58	1.353
312.95	0.697
313.31	3.489
313.68	1.718
314.05	3.119
314.41	3.362
314.78	3.890
315.14	3.981
315.51	3.425
315.87	4.356
316.24	5.142
316.61	5.936
316.97	4.722
317.34	4.367
317.70	6.601
318.07	6.122
318.43	5.872
318.80	5.759
319.16	6.454
319.53	6.720
319.89	7.498
320.26	7.763
320.62	8.248
320.99	7.849
321.35	8.513
321.72	9.047
322.08	9.502
322.45	9.621
322.81	11.645
323.18	10.286
323.54	11.733
323.91	11.924
324.27	11.881
324.64	11.498
325.00	11.811
325.37	13.311
325.73	14.815
326.10	12.616
326.46	16.054
326.83	15.534
327.19	14.959
327.56	16.438
327.92	16.653
328.29	16.778
328.65	17.791
329.01	16.887
329.38	18.435
329.74	18.369
330.11	17.493
330.47	18.142
330.84	18.953
331.20	18.617
331.56	18.931
331.93	19.208
332.29	20.591
332.66	19.407
333.02	19.983
333.38	20.614
333.75	20.819
334.11	21.788
334.48	20.663
334.84	19.700
335.20	21.784
335.57	21.410
335.93	20.189
336.29	22.067
336.66	20.427
337.02	22.696
337.38	21.323
337.75	22.050
338.11	21.605
338.47	21.661
338.84	20.103
339.20	22.751
339.56	22.782
339.93	21.867
340.29	22.032
340.65	22.412
341.02	21.298
341.38	21.622
341.74	21.597
342.11	23.287
342.47	22.427
342.83	23.611
343.20	22.927
343.56	22.159
343.92	22.827
344.28	23.782
344.65	23.837
345.01	22.760
345.37	25.082
345.73	25.000
346.10	24.960
346.46	24.715
346.82	24.478
347.19	24.446
347.55	24.960
347.91	23.227
348.27	24.132
348.63	25.240
349.00	24.292
349.36	25.196
349.72	25.135
350.08	25.039
350.45	24.980
350.81	25.117
351.17	25.558
351.53	25.687
351.89	25.020
352.26	25.328
352.62	26.279
352.98	25.160
353.34	26.006
353.70	25.000
354.07	26.902
354.43	25.117
354.79	26.763
355.15	27.096
355.51	25.740
355.87	26.192
356.24	25.843
356.60	25.098
356.96	26.708
357.32	25.851
357.68	26.585
358.04	26.377
358.40	27.054
358.77	27.523
359.13	26.615
359.49	27.706
359.85	26.156
360.21	26.600
360.57	27.681
360.93	28.528
361.29	27.387
361.66	28.322
362.02	26.686
362.38	27.179
362.74	27.339
363.10	27.260
363.46	26.369
363.82	28.973
364.18	27.774
364.54	27.498
364.90	27.247
365.26	27.459
365.62	27.486
365.98	27.829
366.35	27.801
366.71	27.247
367.07	28.065
367.43	28.014
367.79	27.589
368.15	28.833
368.51	27.778
368.87	28.960
369.23	27.616
369.59	28.682
369.95	28.665
370.31	28.033
370.67	28.458
371.03	29.547
371.39	29.028
371.75	28.786
372.11	29.202
372.47	27.830
372.83	29.404
373.19	29.424
373.55	28.540
373.91	30.057
374.27	28.769
374.63	29.161
374.99	29.178
375.35	29.384
375.71	28.533
376.07	29.130
376.42	29.011
376.78	29.260
377.14	29.831
377.50	29.465
377.86	29.681
378.22	30.152
378.58	30.265
378.94	31.000
379.30	31.106
379.66	30.949
380.02	30.453
380.38	30.120
380.74	31.022
381.09	30.398
381.45	29.807
381.81	30.499
382.17	30.813
382.53	31.385
382.89	31.665
383.25	31.111
383.61	31.235
383.97	31.250
384.32	31.191
384.68	30.475
385.04	31.032
385.40	31.694
385.76	31.569
386.12	31.892
386.48	31.850
386.83	31.977
387.19	31.647
387.55	31.882
387.91	31.857
388.27	31.566
388.62	32.210
388.98	33.605
389.34	32.393
389.70	31.990
390.06	32.250
390.42	32.861
390.77	31.775
391.13	32.323
391.49	31.120
391.85	32.843
392.20	32.707
392.56	32.889
392.92	32.768
393.28	32.016
393.64	32.416
393.99	31.579
394.35	33.457
394.71	32.179
395.07	31.447
395.42	32.785
395.78	32.497
396.14	31.833
396.50	32.657
396.85	33.142
397.21	33.021
397.57	32.795
397.92	32.695
398.28	32.205
398.64	32.665
399.00	32.254
399.35	32.917
399.71	32.382
400.07	32.651
400.42	32.476
400.78	31.360
401.14	32.373
401.49	33.014
401.85	32.555
402.21	32.384
402.57	33.231
402.92	33.730
403.28	31.957
403.63	33.292
403.99	33.589
404.35	33.167
404.70	32.205
405.06	33.235
405.42	32.789
405.77	32.316
406.13	32.171
406.49	32.894
406.84	32.479
407.20	32.682
407.55	32.532
407.91	32.627
408.27	32.564
408.62	33.149
408.98	32.244
409.34	32.488
409.69	32.489
410.05	31.903
410.40	31.589
410.76	32.732
411.11	32.152
411.47	32.979
411.83	32.190
412.18	31.234
412.54	32.707
412.89	31.661
413.25	31.150
413.60	32.414
413.96	31.086
414.31	32.182
414.67	31.873
415.03	32.206
415.38	32.431
415.74	32.164
416.09	31.989
416.45	32.262
416.80	31.141
417.16	32.389
417.51	31.815
417.87	30.688
418.22	32.191
418.58	30.815
418.93	31.011
419.29	31.617
419.64	30.534
420.00	31.937
420.35	30.903
420.71	30.652
421.06	31.796
421.42	31.509
421.77	31.734
422.12	31.805
422.48	31.189
422.83	31.778
423.19	31.167
423.54	31.920
423.90	30.998
424.25	31.138
424.61	31.300
424.96	30.396
425.31	30.174
425.67	30.923
426.02	31.213
426.38	31.405
426.73	30.483
427.09	29.894
427.44	30.887
427.79	29.869
428.15	30.703
428.50	29.668
428.85	29.090
429.21	29.544
429.56	30.340
429.92	29.308
430.27	29.908
430.62	29.643
430.98	29.773
431.33	30.360
431.68	29.606
432.04	30.254
432.39	29.388
432.74	28.326
433.10	30.564
433.45	28.757
433.80	30.632
434.16	28.782
434.51	29.674
434.86	28.269
435.22	28.183
435.57	28.808
435.92	29.071
436.28	29.069
436.63	28.868
436.98	28.672
437.34	28.571
437.69	28.630
438.04	27.900
438.39	28.331
438.75	27.592
439.10	28.803
439.45	28.935
439.81	28.756
440.16	28.058
440.51	27.705
440.86	27.919
441.22	27.768
441.57	27.711
441.92	27.527
442.27	27.652
442.63	26.534
442.98	26.736
443.33	26.862
443.68	26.410
444.03	26.528
444.39	27.169
444.74	27.057
445.09	27.478
445.44	28.056
445.79	27.672
446.15	27.510
446.50	27.148
446.85	26.617
447.20	27.287
447.55	26.917
447.91	27.022
448.26	26.358
448.61	26.180
448.96	26.765
449.31	26.556
449.66	27.357
450.02	26.777
450.37	26.498
450.72	26.349
451.07	27.712
451.42	25.390
451.77	25.624
452.12	24.361
452.47	26.727
452.83	25.177
453.18	24.761
453.53	26.040
453.88	27.048
454.23	25.896
454.58	25.613
454.93	25.208
455.28	25.755
455.63	25.265
455.98	25.502
456.34	25.238
456.69	25.495
457.04	26.006
457.39	26.097
457.74	24.955
458.09	24.704
458.44	24.971
458.79	24.822
459.14	24.551
459.49	24.878
459.84	24.521
460.19	23.709
460.54	24.331
460.89	24.662
461.24	24.168
461.59	24.577
461.94	25.284
462.29	23.958
462.64	23.879
462.99	24.413
463.34	24.793
463.69	24.678
464.04	23.709
464.39	23.124
464.74	23.464
465.09	23.497
465.44	23.120
465.79	23.404
466.14	22.748
466.49	23.050
466.84	22.893
467.19	22.548
467.54	24.498
467.89	23.633
468.24	22.803
468.59	23.327
468.94	23.308
469.29	22.538
469.64	22.734
469.99	22.828
470.34	22.792
470.68	22.379
471.03	22.990
471.38	23.296
471.73	21.605
472.08	22.955
472.43	22.559
472.78	22.448
473.13	20.976
473.48	20.678
473.83	22.222
474.17	20.638
474.52	22.718
474.87	21.170
475.22	21.437
475.57	21.249
475.92	21.374
476.27	21.154
476.61	21.518
476.96	21.131
477.31	20.766
477.66	21.130
478.01	19.945
478.36	20.218
478.70	20.999
479.05	21.088
479.40	20.437
479.75	20.670
480.10	19.990
480.45	20.255
480.79	20.806
481.14	20.871
481.49	20.671
481.84	19.981
482.19	20.426
482.53	19.619
482.88	19.847
483.23	19.634
483.58	20.038
483.92	19.698
484.27	18.984
484.62	19.530
484.97	20.116
485.31	19.515
485.66	19.276
486.01	19.154
486.36	18.740
486.70	18.908
487.05	19.339
487.40	19.443
487.75	18.863
488.09	18.955
488.44	18.962
488.79	19.304
489.13	18.648
489.48	18.640
489.83	18.714
490.17	18.611
490.52	19.542
490.87	18.405
491.22	18.323
491.56	18.927
491.91	18.579
492.26	18.327
492.60	18.086
492.95	18.416
493.30	17.926
493.64	17.746
493.99	18.068
494.34	18.353
494.68	17.804
495.03	17.540
495.37	17.518
495.72	17.393
496.07	18.266
496.41	17.361
496.76	17.413
497.11	16.995
497.45	17.510
497.80	17.769
498.14	18.489
498.49	17.347
498.84	17.409
499.18	17.571
499.53	17.479
499.87	17.031
500.22	16.476
500.56	17.051
500.91	17.757
501.26	16.995
501.60	17.059
501.95	16.914
502.29	16.650
502.64	17.020
502.98	16.618
503.33	16.691
503.67	17.186
504.02	16.324
504.36	16.691
504.71	16.209
505.06	16.913
505.40	16.495
505.75	17.141
506.09	16.863
506.44	16.331
506.78	16.811
507.13	16.320
507.47	16.437
507.82	16.222
508.16	16.253
508.51	15.961
508.85	15.397
509.19	16.296
509.54	16.515
509.88	15.914
510.23	15.579
510.57	16.419
510.92	15.948
511.26	16.392
511.61	15.642
511.95	15.270
512.30	15.214
512.64	16.459
512.98	15.291
513.33	16.113
513.67	15.162
514.02	15.792
514.36	15.281
514.70	15.762
515.05	15.097
515.39	14.564
515.74	14.861
516.08	15.280
516.42	14.516
516.77	14.821
517.11	15.168
517.46	15.426
517.80	15.254
518.14	14.881
518.49	14.708
518.83	15.573
519.17	15.301
519.52	14.475
519.86	14.572
520.20	14.251
520.55	15.236
520.89	14.485
521.23	15.385
521.58	14.665
521.92	14.896
522.26	13.663
522.61	14.609
522.95	15.285
523.29	14.349
523.64	14.558
523.98	13.787
524.32	14.997
524.66	13.961
525.01	14.875
525.35	14.944
525.69	15.043
526.04	14.267
526.38	14.149
526.72	14.661
527.06	14.507
527.41	14.560
527.75	13.017
528.09	14.432
528.43	14.450
528.78	13.372
529.12	14.166
529.46	13.436
529.80	14.304
530.15	12.934
530.49	14.084
530.83	13.135
531.17	13.767
531.51	13.419
531.86	13.347
532.20	14.197
532.54	13.034
532.88	14.159
533.22	14.007
533.57	13.974
533.91	14.323
534.25	14.128
534.59	13.449
534.93	13.457
535.27	13.567
535.62	13.684
535.96	13.273
536.30	14.029
536.64	13.329
536.98	12.614
537.32	12.384
537.66	12.482
538.01	12.344
538.35	13.052
538.69	12.575
539.03	12.617
539.37	12.609
539.71	12.142
540.05	12.281
540.39	13.076
540.73	12.500
541.07	13.401
541.42	12.593
541.76	13.870
542.10	12.661
542.44	12.128
542.78	12.491
543.12	12.601
543.46	11.818
543.80	12.288
544.14	12.939
544.48	12.342
544.82	13.046
545.16	11.832
545.50	12.492
545.84	12.132
546.18	11.290
546.52	12.632
546.86	11.025
547.20	12.009
547.54	11.294
547.88	12.888
548.22	12.638
548.56	11.875
548.90	12.314
549.24	13.472
549.58	11.388
549.92	12.399
550.26	12.472
550.60	11.937
550.94	10.746
551.28	11.431
551.62	11.880
551.96	12.592
552.30	10.917
552.64	11.582
552.98	13.068
553.32	11.680
553.66	11.445
554.00	11.015
554.34	11.062
554.68	11.857
555.02	12.126
555.36	10.968
555.69	10.488
556.03	11.008
556.37	12.162
556.71	12.193
557.05	11.070
557.39	11.454
557.73	10.817
558.07	11.228
558.41	11.279
558.75	12.009
559.08	9.222
559.42	12.352
559.76	10.474
560.10	12.145
560.44	11.717
560.78	10.719
561.12	10.722
561.45	10.952
561.79	11.967
562.13	11.814
562.47	11.000
562.81	10.895
563.15	11.190
563.48	10.943
563.82	10.465
564.16	10.900
564.50	10.719
564.84	10.676
565.17	11.126
565.51	10.361
565.85	10.326
566.19	11.523
566.52	11.009
566.86	10.303
567.20	11.179
567.54	11.169
567.88	9.798
568.21	10.320
568.55	10.694
568.89	10.120
569.23	10.999
569.56	10.430
569.90	10.391
570.24	10.036
570.57	10.474
570.91	10.652
571.25	10.064
571.59	9.651
571.92	10.238
572.26	10.157
572.60	10.163
572.93	10.278
573.27	10.234
573.61	10.366
573.95	10.550
574.28	10.363
574.62	10.244
574.96	9.793
575.29	9.980
575.63	10.011
575.97	10.054
576.30	10.490
576.64	9.877
576.98	10.293
577.31	10.167
577.65	9.985
577.98	9.580
578.32	10.074
578.66	9.894
578.99	10.188
579.33	10.220
579.67	10.234
580.00	9.764
580.34	9.937
580.67	10.020
581.01	9.841
581.35	9.873
581.68	10.070
582.02	9.694
582.35	10.033
582.69	9.797
583.02	9.618
583.36	9.823
583.70	10.136
584.03	10.299
584.37	9.727
584.70	9.720
585.04	9.879
585.37	9.818
585.71	9.600
586.04	9.524
586.38	9.261
586.72	9.834
587.05	10.011
587.39	9.639
587.72	9.362
588.06	9.521
588.39	9.712
588.73	9.266
589.06	9.667
589.40	9.701
589.73	9.738
590.07	9.953
590.40	9.618
590.73	10.251
591.07	10.280
591.40	9.391
591.74	9.293
592.07	9.585
592.41	9.695
592.74	9.414
593.08	9.436
593.41	9.602
593.75	8.721
594.08	9.568
594.41	9.543
594.75	9.370
595.08	9.522
595.42	8.876
595.75	9.219
596.09	9.507
596.42	9.477
596.75	9.522
597.09	10.055
597.42	9.017
597.75	9.378
598.09	8.971
598.42	9.888
598.76	9.026
599.09	9.604
599.42	9.630
599.76	9.651
600.09	9.036
600.42	9.567
600.76	9.239
601.09	9.190
601.42	9.565
601.76	9.112
602.09	9.566
602.42	9.699
602.76	9.396
603.09	9.199
603.42	8.916
603.76	9.236
604.09	9.605
604.42	8.497
604.76	9.385
605.09	9.289
605.42	10.121
605.75	8.565
606.09	8.940
606.42	9.227
606.75	8.485
607.09	9.176
607.42	9.501
607.75	8.490
608.08	9.423
608.42	9.044
608.75	9.603
609.08	9.260
609.41	10.084
609.75	8.875
610.08	8.728
610.41	9.184
610.74	8.903
611.07	9.218
611.41	8.854
611.74	8.954
612.07	8.859
612.40	9.676
612.73	8.672
613.07	8.869
613.40	9.251
613.73	8.938
614.06	9.232
614.39	9.005
614.72	9.883
615.06	8.500
615.39	8.775
615.72	7.829
616.05	8.671
616.38	9.565
616.71	8.878
617.05	9.398
617.38	8.688
617.71	9.436
618.04	8.653
618.37	8.707
618.70	9.250
619.03	8.522
619.36	8.399
619.69	8.333
620.03	8.551
620.36	9.743
620.69	7.138
621.02	9.154
621.35	8.667
621.68	8.720
622.01	9.709
622.34	8.327
622.67	9.554
623.00	9.878
623.33	9.125
623.66	7.658
623.99	9.152
624.32	8.731
624.65	8.309
624.99	8.817
625.32	8.887
625.65	9.225
625.98	8.057
626.31	8.980
626.64	9.200
626.97	8.218
627.30	8.896
627.63	8.045
627.96	7.879
628.29	9.674
628.62	8.317
628.95	8.717
629.28	8.079
629.61	9.665
629.94	8.317
630.26	8.966
630.59	6.993
630.92	7.631
631.25	8.445
631.58	8.244
631.91	6.999
632.24	9.111
632.57	8.333
632.90	8.985
633.23	6.115
633.56	9.353
633.89	9.689
634.22	11.543
634.55	10.110
634.88	6.863
635.20	9.500
635.53	6.072
635.86	8.590
636.19	8.065
636.52	7.561
636.85	7.358
637.18	8.039
637.51	7.865
637.83	8.486
638.16	8.267
638.49	6.943
638.82	8.235
639.15	7.181
639.48	8.824
639.81	9.722
640.13	8.451
640.46	9.322
640.79	9.353
641.12	9.024
641.45	8.443
641.77	7.511
642.10	8.775
642.43	8.019
642.76	7.886
643.09	9.585
643.41	9.091
643.74	7.754
644.07	7.767
644.40	8.126
644.73	5.932
645.05	8.202
645.38	6.811
645.71	8.503
646.04	7.576
646.36	9.028
646.69	9.615
647.02	8.197
647.35	6.581
647.67	7.579
648.00	6.159
648.33	7.288
648.66	7.679
648.98	6.988
649.31	6.902
649.64	8.138
649.96	9.163
650.29	8.497
650.62	7.414
650.94	7.586
651.27	8.304
651.60	8.217
651.92	7.348
652.25	7.705
652.58	7.756
652.90	7.576
653.23	4.584
653.56	6.612
653.88	4.266
654.21	4.949
654.54	7.807
654.86	6.504
655.19	4.762
655.52	8.897
655.84	7.479
656.17	8.984
656.49	11.810
656.82	11.702
657.15	8.890
657.47	6.502
657.80	4.832
658.13	5.126
658.45	7.629
658.78	7.859
659.10	7.742
659.43	7.306
659.75	7.531
660.08	8.069
660.41	5.781
660.73	7.851
661.06	7.823
661.38	6.202
661.71	7.377
662.03	9.091
662.36	5.310
662.68	8.602
663.01	6.568
663.33	8.207
663.66	5.543
663.98	8.764
664.31	6.374
664.63	4.054
664.96	8.972
665.28	7.940
665.61	6.695
665.93	7.066
666.26	8.650
666.58	5.567
666.91	10.090
667.23	7.373
667.56	8.276
667.88	7.243
668.21	7.366
668.53	6.437
668.86	5.755
669.18	8.038
669.50	7.373
669.83	8.115
670.15	6.429
670.48	7.356
670.80	10.503
671.13	6.407
671.45	6.393
671.77	6.250
672.10	7.212
672.42	6.870
672.75	3.929
673.07	4.182
673.39	8.022
673.72	6.387
674.04	6.352
674.37	8.130
674.69	7.407
675.01	6.410
675.34	9.847
675.66	8.715
675.98	6.195
676.31	6.335
676.63	7.029
676.95	5.412
677.28	6.193
677.60	6.618
677.92	7.761
678.25	5.206
678.57	9.572
678.89	3.198
679.22	4.348
679.54	6.735
679.86	6.445
680.18	4.808
680.51	7.885
680.83	4.094
681.15	9.823
681.48	6.012
681.80	6.953
682.12	5.000
682.44	7.243
682.77	7.579
683.09	4.464
683.41	7.209
683.73	6.473
684.06	7.743
684.38	6.197
684.70	2.648
685.02	6.818
685.34	6.067
685.67	5.629
685.99	5.516
686.31	7.759
686.63	6.434
686.96	8.349
687.28	7.784
687.60	7.940
687.92	7.977
688.24	4.600
688.56	7.018
688.89	3.563
689.21	6.278
689.53	6.757
689.85	7.416
690.17	10.769
690.49	6.280
690.82	6.921
691.14	8.213
691.46	3.712
691.78	8.791
692.10	6.369
692.42	4.835
692.74	7.174
693.06	5.618
693.39	5.621
693.71	5.111
694.03	9.545
694.35	9.685
694.67	5.750
694.99	7.732
695.31	8.269
695.63	9.268
695.95	4.835
696.27	4.932
696.59	4.301
696.91	4.190
697.23	3.299
697.56	5.995
697.88	9.563
698.20	8.207
698.52	5.374
698.84	7.895
699.16	5.201
699.48	7.901
699.80	7.752
700.12	8.579
700.44	6.761
700.76	8.989
701.08	7.251
701.40	5.090
701.72	7.385
702.04	4.088
702.36	2.744
702.68	5.488
703.00	9.942
703.32	4.735
703.64	7.229
703.96	9.971
704.28	7.530
704.60	5.488
704.91	2.508
705.23	9.494
705.55	2.414
705.87	4.577
706.19	5.128
706.51	1.761
706.83	4.459
707.15	7.317
707.47	6.612
707.79	6.853
708.11	5.398
708.43	7.868
708.74	6.383
709.06	7.219
709.38	6.916
709.70	6.607
710.02	8.411
710.34	0.667
710.66	5.212
710.98	5.882
711.29	7.792
711.61	5.161
711.93	5.161
712.25	3.846
712.57	0.351
712.89	-0.733
713.20	8.156
713.52	2.555
713.84	7.097
714.16	3.883
714.48	6.962
714.80	4.153
715.11	13.372
715.43	3.106
715.75	6.832
716.07	6.627
716.39	4.377
716.70	9.712
717.02	3.137
717.34	6.818
717.66	6.466
717.97	3.968
718.29	7.087
718.61	7.296
718.93	5.039
719.24	4.059
719.56	3.745
719.88	4.851
720.20	8.300
720.51	8.594
720.83	9.728
721.15	2.439
721.46	3.435
721.78	3.984
722.10	1.594
722.42	4.032
722.73	8.880
723.05	9.796
723.37	8.824
723.68	4.400
724.00	4.681
724.32	6.276
724.63	7.407
724.95	2.564
725.27	8.439
725.58	6.996
725.90	3.347
726.22	6.522
726.53	3.137
726.85	8.029
727.16	2.593
727.48	11.494
727.80	6.250
728.11	6.557
728.43	7.422
728.74	1.587
729.06	2.000
729.38	5.138
729.69	8.541
730.01	2.974
730.32	10.701
730.64	4.545
730.96	6.993
731.27	0.334
731.59	8.254
731.90	1.618
732.22	4.167
732.53	4.392
732.85	4.698
733.16	7.921
733.48	3.716
733.80	5.743
734.11	5.405
734.43	5.263
734.74	8.108
735.06	6.052
735.37	9.422
735.69	2.589
736.00	6.931
736.32	4.255
736.63	6.207
736.95	5.479
737.26	4.828
737.58	2.431
737.89	8.247
738.21	4.982
738.52	8.365
738.83	8.571
739.15	0.422
739.46	5.447
739.78	2.465
740.09	5.822
740.41	2.500
740.72	2.837
741.04	7.200
741.35	3.070
741.66	5.333
741.98	8.654
742.29	13.366
742.61	3.902
742.92	9.211
743.23	2.358
743.55	7.207
743.86	3.139
744.18	7.353
744.49	5.076
744.80	5.102
745.12	6.075
745.43	7.109
745.74	11.261
746.06	4.673
746.37	7.798
746.68	4.808
747.00	2.392
747.31	4.327
747.62	4.587
747.94	10.917
748.25	4.587
748.56	12.444
748.88	11.268
749.19	10.000
749.50	2.913
749.82	0.939
750.13	-2.500
750.44	3.846
750.75	8.118
751.07	7.117
751.38	3.546
751.69	5.405
752.01	5.859
752.32	-1.538
752.63	6.343
752.94	6.800
753.26	6.276
753.57	0.417
753.88	3.239
754.19	0.398
754.51	3.383
754.82	5.128
755.13	2.609
755.44	4.472
755.75	1.600
756.07	1.845
756.38	4.676
756.69	6.826
757.00	7.165
757.31	5.178
757.63	2.469
757.94	5.085
758.25	5.820
758.56	4.891
758.87	5.060
759.18	7.571
759.50	7.071
759.81	8.027
760.12	7.077
760.43	5.655
760.74	1.412
761.05	4.144
761.36	4.871
761.67	0.906
761.99	2.749
762.30	4.015
762.61	5.350
762.92	6.410
763.23	10.656
763.54	5.195
763.85	4.898
764.16	1.626
764.47	1.600
764.78	2.857
765.10	7.213
765.41	6.079
765.72	6.211
766.03	3.960
766.34	6.538
766.65	3.347
766.96	0.939
767.27	12.376
767.58	0.000
767.89	4.321
768.20	7.182
768.51	9.548
768.82	11.058
769.13	4.867
769.44	8.368
769.75	2.137
770.06	3.139
770.37	2.941
770.68	7.767
770.99	1.942
771.30	2.941
771.61	1.633
771.92	8.714
772.23	5.405
772.54	0.552
772.85	4.651
773.16	9.524
773.47	0.000
773.78	5.747
774.09	2.500
774.39	10.559
774.70	3.401
775.01	2.759
775.32	4.286
775.63	0.000
775.94	-3.759
776.25	7.200
776.56	9.091
776.87	7.143
777.18	-8.108
777.48	4.505
777.79	3.150
778.10	1.835
778.41	0.000
778.72	0.840
779.03	6.338
779.34	9.459
779.65	0.000
779.95	7.285
780.26	-2.878
780.57	7.194
780.88	0.704
781.19	0.840
781.50	9.396
781.80	6.433
782.11	1.744
782.42	11.321
782.73	5.882
783.04	4.828
783.34	-2.290
783.65	-0.671
783.96	-0.769
784.27	3.571
784.57	3.546
784.88	-8.654
785.19	8.182
785.50	9.091
785.81	-0.952
786.11	-1.681
786.42	5.310
786.73	1.887
787.04	-11.009
787.34	2.970
787.65	7.500
787.96	1.653
788.26	10.870
788.57	0.794
788.88	4.065
789.19	8.000
789.49	6.107
789.80	6.061
790.11	-5.660
790.41	3.960
790.72	-3.191
791.03	3.261
791.33	0.000
791.64	4.938
791.95	1.087
792.25	3.409
792.56	16.667
792.87	-1.282
793.17	-3.846
793.48	3.571
793.79	-5.000
794.09	14.423
794.40	6.250
794.70	9.009
795.01	2.344
795.32	11.304
795.62	-14.130
795.93	-3.774
796.23	10.101
796.54	-1.220
796.85	8.333
797.15	3.030
797.46	2.899
797.76	-17.105
798.07	2.273
798.37	6.098
798.68	-1.613
798.99	-5.405
799.29	-1.205
799.60	-1.282
799.90	-15.385
800.21	10.606
800.51	10.667
800.82	5.333
801.12	-35.417
801.43	-31.667
801.73	-6.757
802.04	15.714
802.34	-13.115
802.65	5.970
802.95	3.636
803.26	0.000
803.56	9.231
803.87	9.434
804.17	6.452
804.48	2.941
804.78	-26.829
805.09	18.841
805.39	5.882
805.70	-10.638
806.00	-10.526
806.30	5.128
806.61	-6.579
806.91	0.000
807.22	-2.632
807.52	3.409
807.83	-18.644
808.13	-9.091
808.43	-6.667
808.74	-22.414
809.04	3.175
809.35	2.041
809.65	15.000
809.95	-14.286
810.26	11.268
810.56	-4.167
810.86	-6.122
811.17	17.308
811.47	12.766
811.77	-20.833
812.08	-16.981
812.38	-34.375
812.69	1.818
812.99	2.439
813.29	5.405
813.59	-35.135
813.90	9.091
814.20	0.000
814.50	-3.333
814.81	-7.273
815.11	5.263
815.41	20.930
815.72	-12.500
816.02	5.714
816.32	0.000
816.62	0.000
816.93	-11.111
817.23	-8.889
817.53	-36.111
817.84	-10.811
818.14	7.317
818.44	-2.000
818.74	-4.082
819.04	24.390
819.35	0.000
819.65	15.909
819.95	-55.556
820.25	3.030
820.56	-11.905
820.86	-13.889
821.16	-25.000
821.46	-4.348
821.76	-17.241
822.07	6.522
822.37	18.182
822.67	24.390
822.97	8.108
823.27	-34.286
823.57	3.448
823.88	2.941
824.18	-13.889
824.48	8.571
824.78	-38.095
825.08	-35.714
825.38	-22.222
825.69	-6.452
825.99	4.878
826.29	18.519
826.59	-37.500
826.89	-29.032
827.19	-34.783
827.49	-13.889
827.79	-21.739
828.09	-19.355
828.39	20.833
828.70	-34.375
829.00	3.448
829.30	10.811
829.60	-66.667
829.90	-11.111
830.20	-34.375
830.50	-45.455
830.80	-70.588
831.10	-45.455
831.40	-20.588
831.70	-3.846
832.00	18.182
832.30	-14.706
832.60	8.108
832.90	600.000
833.20	7.143
833.50	-70.000
833.80	10.526
834.10	-20.833
834.40	-40.909
834.70	-60.000
835.00	-40.000
835.30	-20.833
835.60	-47.619
835.90	-47.619
836.20	-36.000
836.50	37.500
836.80	10.526
837.10	-2.703
837.40	3.333
837.70	-34.783
838.00	4.167
838.30	26.316
838.60	-120.000
838.90	-140.000
839.19	-125.000
839.49	-92.308
839.79	21.053
840.09	-83.333
840.39	-30.000
840.69	4.545
840.99	19.048
841.29	-16.667
841.59	-92.308
841.88	-106.667
842.18	-42.857
842.48	-23.333
842.78	-300.000
843.08	-100.000
843.38	-100.000
843.68	-62.500
843.97	14.286
844.27	-111.111
844.57	-136.364
844.87	-33.333
845.17	-4.545
845.47	700.000
845.76	-86.667
846.06	-100.000
846.36	-850.000
846.66	-31.579
846.96	-77.273
847.25	-27.778
847.55	-77.778
847.85	0.000
848.15	46.154
848.44	-250.000
848.74	-75.000
849.04	-53.846
849.34	-150.000
849.63	-63.636
849.93	-92.857
850.23	5.000
850.53	-50.000
850.82	44.444
851.12	20.000
851.42	-17.647
851.71	-50.000
852.01	23.529
852.31	-46.154
852.61	500.000
852.90	58.824
853.20	-40.000
853.50	-25.000
853.79	-114.286
854.09	-275.000
854.39	-15.000
854.68	0.000
854.98	14.286
855.28	4.000
855.57	33.333
855.87	-25.000
856.17	-64.000
856.46	-9.375
856.76	5.000
857.05	28.000
857.35	-50.000
857.65	47.059
857.94	0.000
858.24	-58.333
858.53	-10.000
858.83	-81.818
859.13	8.000
859.42	-92.857
859.72	-62.500
860.01	8.333
860.31	-125.000
860.60	-37.500
860.90	-166.667
861.20	-83.333
861.49	-13.333
861.79	-37.500
862.08	125.000
862.38	-41.667
862.67	257.143
862.97	275.000
863.26	45.455
863.56	-63.636
863.85	26.316
864.15	-11.765
864.44	-20.000
864.74	0.000
865.03	-77.778
865.33	-50.000
865.62	214.286
865.92	36.842
866.21	-11.111
866.51	-27.273
866.80	-66.667
867.10	-287.500
867.39	43.750
867.69	-80.000
867.98	-80.000
868.27	0.000
868.57	0.000
868.86	700.000
869.16	-100.000
869.45	-142.857
869.75	400.000
870.04	-20.000
870.33	-600.000
870.63	10.526
870.92	33.333
871.22	-500.000
871.51	-285.714
871.80	-144.444
872.10	-325.000
>>>>>End Processed Spectral Data<<<<<
