SpectraSuite Data File
++++++++++++++++++++++++++++++++++++
Date: Wed May 13 20:59:08 PDT 2015
User: schluterlab
Dark Spectrum Present: Yes
Reference Spectrum Present: Yes
Number of Sampled Component Spectra: 1
Spectrometers: USB2E3373
Integration Time (usec): 3000 (USB2E3373)
Spectra Averaged: 3 (USB2E3373)
Boxcar Smoothing: 0 (USB2E3373)
Correct for Electrical Dark: No (USB2E3373)
Strobe/Lamp Enabled: No (USB2E3373)
Correct for Detector Non-linearity: No (USB2E3373)
Correct for Stray Light: No (USB2E3373)
Number of Pixels in Processed Spectrum: 2048
>>>>>Begin Processed Spectral Data<<<<<
178.53	0.000
178.91	100.000
179.29	108.333
179.67	-200.000
180.04	-133.333
180.42	-180.000
180.80	1000.000
181.18	133.333
181.56	75.000
181.94	-150.000
182.31	127.273
182.69	30.769
183.07	-140.000
183.45	116.667
183.83	133.333
184.20	-14.286
184.58	233.333
184.96	66.667
185.34	28.571
185.72	0.000
186.09	-700.000
186.47	-80.000
186.85	-60.000
187.23	250.000
187.61	250.000
187.98	600.000
188.36	87.500
188.74	0.000
189.12	-18.182
189.49	100.000
189.87	100.000
190.25	240.000
190.63	-500.000
191.00	-20.000
191.38	120.000
191.76	300.000
192.14	33.333
192.51	73.684
192.89	33.333
193.27	-75.000
193.65	100.000
194.02	36.364
194.40	130.000
194.78	500.000
195.15	200.000
195.53	-20.000
195.91	162.500
196.29	333.333
196.66	0.000
197.04	300.000
197.42	0.000
197.79	110.000
198.17	12.500
198.55	66.667
198.92	-25.000
199.30	200.000
199.68	110.000
200.05	450.000
200.43	100.000
200.81	-1000.000
201.18	-40.000
201.56	66.667
201.94	150.000
202.31	60.870
202.69	14.286
203.07	-66.667
203.44	80.000
203.82	100.000
204.19	110.000
204.57	0.000
204.95	0.000
205.32	0.000
205.70	200.000
206.08	200.000
206.45	16.667
206.83	-225.000
207.20	366.667
207.58	70.000
207.96	100.000
208.33	-42.857
208.71	-100.000
209.08	75.000
209.46	275.000
209.84	0.000
210.21	20.000
210.59	1700.000
210.96	40.000
211.34	-800.000
211.71	50.000
212.09	16.667
212.46	-10.000
212.84	366.667
213.22	75.000
213.59	300.000
213.97	200.000
214.34	50.000
214.72	38.462
215.09	75.000
215.47	133.333
215.84	-50.000
216.22	100.000
216.59	50.000
216.97	366.667
217.34	-111.111
217.72	0.000
218.09	-133.333
218.47	800.000
218.84	214.286
219.22	-25.000
219.59	-133.333
219.97	-50.000
220.34	125.000
220.72	140.000
221.09	0.000
221.47	-16.667
221.84	900.000
222.22	0.000
222.59	500.000
222.97	100.000
223.34	-8.333
223.72	-200.000
224.09	-100.000
224.46	-27.273
224.84	100.000
225.21	171.429
225.59	-100.000
225.96	83.333
226.34	80.000
226.71	-85.714
227.08	-100.000
227.46	75.000
227.83	100.000
228.21	0.000
228.58	100.000
228.95	70.588
229.33	81.250
229.70	62.500
230.08	-7.692
230.45	12.500
230.82	8.333
231.20	42.857
231.57	25.000
231.95	-600.000
232.32	116.667
232.69	58.824
233.07	500.000
233.44	21.739
233.81	-250.000
234.19	62.500
234.56	-20.000
234.93	33.333
235.31	68.421
235.68	-38.462
236.05	0.000
236.43	0.000
236.80	33.333
237.17	33.333
237.55	35.294
237.92	20.690
238.29	-3.704
238.67	25.000
239.04	25.806
239.41	23.404
239.79	12.766
240.16	9.302
240.53	23.214
240.91	7.143
241.28	16.071
241.65	12.903
242.02	21.053
242.40	24.638
242.77	18.841
243.14	2.564
243.51	12.766
243.89	10.577
244.26	16.981
244.63	22.115
245.00	14.583
245.38	13.445
245.75	18.033
246.12	12.030
246.49	13.008
246.87	0.000
247.24	20.270
247.61	13.245
247.98	12.179
248.36	14.201
248.73	10.674
249.10	10.101
249.47	11.290
249.84	16.842
250.22	11.443
250.59	13.551
250.96	15.455
251.33	8.612
251.70	14.644
252.08	13.808
252.45	10.288
252.82	14.449
253.19	12.840
253.56	9.712
253.94	13.879
254.31	11.972
254.68	17.450
255.05	12.871
255.42	13.287
255.79	14.724
256.16	14.196
256.54	12.381
256.91	13.924
257.28	13.836
257.65	10.828
258.02	13.490
258.39	14.327
258.76	10.465
259.14	13.636
259.51	12.360
259.88	16.260
260.25	13.056
260.62	12.360
260.99	13.263
261.36	13.472
261.73	10.864
262.10	12.723
262.47	10.864
262.85	13.433
263.22	12.308
263.59	13.766
263.96	12.895
264.33	12.740
264.70	17.907
265.07	12.963
265.44	16.322
265.81	11.899
266.18	15.034
266.55	12.664
266.92	12.076
267.29	12.551
267.66	12.739
268.03	13.992
268.40	13.559
268.77	15.702
269.14	14.082
269.51	15.400
269.88	12.016
270.25	12.288
270.62	13.525
270.99	12.205
271.36	12.103
271.73	13.655
272.10	12.000
272.47	13.244
272.84	15.551
273.21	11.350
273.58	11.680
273.95	11.887
274.32	14.925
274.69	13.479
275.06	14.311
275.43	12.429
275.80	14.362
276.17	12.155
276.54	12.789
276.91	11.847
277.28	13.357
277.65	11.713
278.02	10.536
278.39	12.966
278.76	14.214
279.13	11.149
279.50	12.586
279.87	9.964
280.23	12.072
280.60	11.765
280.97	11.201
281.34	13.249
281.71	11.382
282.08	11.624
282.45	12.623
282.82	12.300
283.19	11.585
283.56	12.656
283.92	12.997
284.29	12.324
284.66	10.049
285.03	12.052
285.40	14.502
285.77	12.763
286.14	11.246
286.51	13.193
286.87	11.538
287.24	13.717
287.61	12.048
287.98	12.500
288.35	11.326
288.72	11.334
289.08	12.108
289.45	10.132
289.82	10.893
290.19	12.623
290.56	9.375
290.93	10.635
291.29	11.628
291.66	10.792
292.03	10.899
292.40	11.978
292.77	12.182
293.13	11.994
293.50	11.765
293.87	11.733
294.24	11.905
294.60	10.403
294.97	12.169
295.34	10.422
295.71	8.804
296.08	11.649
296.44	8.418
296.81	8.892
297.18	12.125
297.55	11.085
297.91	9.814
298.28	10.291
298.65	9.360
299.02	10.745
299.38	9.939
299.75	9.976
300.12	8.256
300.48	8.070
300.85	9.931
301.22	10.221
301.59	9.859
301.95	10.221
302.32	9.102
302.69	9.492
303.05	9.192
303.42	10.795
303.79	10.095
304.15	9.310
304.52	11.183
304.89	8.306
305.25	8.782
305.62	10.412
305.99	10.555
306.35	9.613
306.72	10.275
307.09	9.906
307.45	9.372
307.82	8.316
308.19	8.673
308.55	9.007
308.92	10.707
309.29	9.009
309.65	9.590
310.02	8.847
310.38	9.959
310.75	9.073
311.12	9.815
311.48	9.891
311.85	9.547
312.22	9.188
312.58	8.889
312.95	9.751
313.31	10.560
313.68	9.637
314.05	10.113
314.41	11.239
314.78	11.290
315.14	11.111
315.51	10.561
315.87	10.380
316.24	11.203
316.61	10.959
316.97	12.130
317.34	11.497
317.70	12.756
318.07	12.245
318.43	10.569
318.80	12.042
319.16	11.848
319.53	11.559
319.89	12.376
320.26	12.292
320.62	13.438
320.99	11.628
321.35	11.787
321.72	12.608
322.08	13.376
322.45	14.154
322.81	13.863
323.18	14.311
323.54	13.718
323.91	14.092
324.27	15.212
324.64	14.199
325.00	14.698
325.37	15.956
325.73	13.636
326.10	14.130
326.46	14.298
326.83	15.049
327.19	15.203
327.56	15.874
327.92	16.492
328.29	16.611
328.65	16.039
329.01	15.655
329.38	17.130
329.74	16.137
330.11	14.788
330.47	15.538
330.84	16.426
331.20	17.763
331.56	16.848
331.93	16.451
332.29	18.158
332.66	15.508
333.02	17.463
333.38	16.667
333.75	16.468
334.11	17.882
334.48	17.786
334.84	16.519
335.20	18.611
335.57	16.884
335.93	16.323
336.29	16.813
336.66	16.923
337.02	16.174
337.38	17.406
337.75	16.882
338.11	17.421
338.47	16.524
338.84	17.869
339.20	16.402
339.56	17.321
339.93	17.373
340.29	16.909
340.65	17.707
341.02	17.887
341.38	16.976
341.74	16.471
342.11	17.836
342.47	15.565
342.83	16.667
343.20	16.836
343.56	17.089
343.92	15.841
344.28	18.019
344.65	17.878
345.01	17.272
345.37	18.092
345.73	17.974
346.10	18.058
346.46	16.829
346.82	17.335
347.19	18.750
347.55	18.174
347.91	16.446
348.27	18.218
348.63	17.067
349.00	18.003
349.36	17.818
349.72	17.865
350.08	18.565
350.45	17.698
350.81	18.153
351.17	18.784
351.53	18.225
351.89	17.156
352.26	17.220
352.62	18.295
352.98	17.412
353.34	18.277
353.70	18.069
354.07	18.196
354.43	18.351
354.79	19.311
355.15	19.099
355.51	18.071
355.87	19.077
356.24	17.737
356.60	18.530
356.96	18.342
357.32	19.427
357.68	18.793
358.04	17.688
358.40	19.147
358.77	18.884
359.13	19.222
359.49	18.471
359.85	19.409
360.21	19.661
360.57	18.783
360.93	19.120
361.29	19.541
361.66	18.983
362.02	19.348
362.38	19.719
362.74	19.507
363.10	19.450
363.46	19.524
363.82	20.621
364.18	19.579
364.54	19.402
364.90	18.397
365.26	20.099
365.62	20.241
365.98	20.142
366.35	20.071
366.71	19.401
367.07	20.836
367.43	19.861
367.79	20.361
368.15	21.097
368.51	19.480
368.87	21.005
369.23	20.498
369.59	20.366
369.95	19.739
370.31	20.084
370.67	20.782
371.03	21.455
371.39	21.079
371.75	20.857
372.11	20.655
372.47	21.053
372.83	21.706
373.19	20.935
373.55	21.965
373.91	20.651
374.27	20.954
374.63	21.266
374.99	21.588
375.35	20.616
375.71	20.380
376.07	22.138
376.42	20.922
376.78	21.664
377.14	21.356
377.50	21.252
377.86	21.248
378.22	21.239
378.58	22.446
378.94	22.938
379.30	22.423
379.66	22.010
380.02	21.875
380.38	22.410
380.74	21.937
381.09	21.110
381.45	22.370
381.81	21.811
382.17	22.432
382.53	22.462
382.89	22.316
383.25	22.469
383.61	22.700
383.97	22.500
384.32	21.487
384.68	23.134
385.04	22.236
385.40	22.603
385.76	23.297
386.12	22.208
386.48	22.069
386.83	23.217
387.19	22.825
387.55	22.502
387.91	23.247
388.27	23.736
388.62	22.472
388.98	22.841
389.34	23.308
389.70	21.917
390.06	23.500
390.42	23.260
390.77	23.318
391.13	23.422
391.49	22.328
391.85	22.428
392.20	23.308
392.56	22.857
392.92	23.757
393.28	23.300
393.64	23.609
393.99	22.215
394.35	23.457
394.71	23.141
395.07	21.635
395.42	23.218
395.78	22.651
396.14	23.399
396.50	22.575
396.85	23.964
397.21	22.534
397.57	23.043
397.92	23.054
398.28	22.504
398.64	23.072
399.00	22.991
399.35	23.780
399.71	23.646
400.07	22.349
400.42	21.693
400.78	22.840
401.14	22.747
401.49	22.768
401.85	22.174
402.21	22.663
402.57	22.379
402.92	23.717
403.28	22.452
403.63	23.373
403.99	22.521
404.35	23.130
404.70	22.115
405.06	22.431
405.42	22.362
405.77	22.753
406.13	22.400
406.49	23.128
406.84	22.039
407.20	22.084
407.55	23.442
407.91	23.031
408.27	22.146
408.62	23.327
408.98	21.393
409.34	22.401
409.69	22.872
410.05	22.886
410.40	22.520
410.76	22.623
411.11	22.450
411.47	22.362
411.83	22.084
412.18	21.788
412.54	22.995
412.89	21.254
413.25	22.596
413.60	22.257
413.96	22.659
414.31	22.626
414.67	21.651
415.03	22.124
415.38	23.118
415.74	21.572
416.09	22.868
416.45	22.898
416.80	21.946
417.16	22.874
417.51	22.840
417.87	21.825
418.22	22.689
418.58	21.616
418.93	22.222
419.29	22.376
419.64	22.201
420.00	23.175
420.35	21.877
420.71	22.060
421.06	22.694
421.42	21.837
421.77	21.908
422.12	23.266
422.48	22.410
422.83	22.091
423.19	22.254
423.54	23.145
423.90	21.675
424.25	22.704
424.61	22.304
424.96	21.585
425.31	22.378
425.67	22.399
426.02	22.733
426.38	23.072
426.73	21.503
427.09	22.264
427.44	22.842
427.79	22.328
428.15	23.180
428.50	21.934
428.85	23.124
429.21	22.060
429.56	22.423
429.92	21.551
430.27	21.779
430.62	21.406
430.98	22.898
431.33	21.655
431.68	22.577
432.04	22.479
432.39	21.824
432.74	21.950
433.10	22.313
433.45	21.893
433.80	21.782
434.16	22.119
434.51	21.793
434.86	22.556
435.22	21.279
435.57	22.359
435.92	22.618
436.28	21.982
436.63	22.402
436.98	22.855
437.34	22.894
437.69	22.432
438.04	22.071
438.39	22.790
438.75	22.050
439.10	23.077
439.45	22.397
439.81	23.214
440.16	22.377
440.51	22.533
440.86	23.355
441.22	22.949
441.57	22.343
441.92	22.291
442.27	22.186
442.63	22.228
442.98	21.528
443.33	23.025
443.68	22.246
444.03	22.404
444.39	22.410
444.74	22.198
445.09	22.081
445.44	23.211
445.79	21.786
446.15	23.295
446.50	22.192
446.85	23.036
447.20	22.164
447.55	21.936
447.91	22.640
448.26	22.870
448.61	22.612
448.96	22.722
449.31	22.730
449.66	22.556
450.02	22.456
450.37	23.208
450.72	22.675
451.07	22.445
451.42	22.458
451.77	22.702
452.12	22.460
452.47	23.757
452.83	21.934
453.18	22.661
453.53	21.942
453.88	22.530
454.23	23.486
454.58	23.836
454.93	23.220
455.28	23.121
455.63	22.583
455.98	21.972
456.34	20.979
456.69	22.812
457.04	22.972
457.39	22.910
457.74	22.681
458.09	22.334
458.44	21.563
458.79	22.405
459.14	20.674
459.49	22.317
459.84	22.266
460.19	21.369
460.54	22.445
460.89	22.748
461.24	22.318
461.59	22.826
461.94	23.388
462.29	22.304
462.64	22.493
462.99	23.474
463.34	22.583
463.69	23.260
464.04	21.789
464.39	23.124
464.74	22.482
465.09	21.947
465.44	21.886
465.79	23.174
466.14	22.064
466.49	21.935
466.84	22.355
467.19	21.210
467.54	22.813
467.89	22.879
468.24	22.004
468.59	22.562
468.94	22.797
469.29	22.472
469.64	23.013
469.99	24.345
470.34	23.533
470.68	23.792
471.03	22.849
471.38	23.088
471.73	23.525
472.08	23.093
472.43	24.406
472.78	23.732
473.13	21.834
473.48	22.244
473.83	22.034
474.17	22.656
474.52	21.942
474.87	22.316
475.22	22.343
475.57	22.253
475.92	22.901
476.27	22.669
476.61	23.386
476.96	22.387
477.31	21.575
477.66	22.881
478.01	22.418
478.36	22.507
478.70	22.932
479.05	23.529
479.40	22.777
479.75	22.264
480.10	22.387
480.45	22.315
480.79	22.399
481.14	22.948
481.49	22.644
481.84	22.008
482.19	22.094
482.53	22.952
482.88	22.771
483.23	22.281
483.58	22.543
483.92	22.471
484.27	22.095
484.62	21.660
484.97	21.568
485.31	21.691
485.66	20.709
486.01	19.474
486.36	19.793
486.70	19.978
487.05	21.176
487.40	21.545
487.75	21.878
488.09	21.989
488.44	22.222
488.79	23.354
489.13	22.584
489.48	22.659
489.83	23.448
490.17	22.242
490.52	23.095
490.87	22.207
491.22	23.081
491.56	22.952
491.91	22.228
492.26	22.824
492.60	22.703
492.95	22.886
493.30	23.062
493.64	21.966
493.99	22.609
494.34	21.965
494.68	22.768
495.03	22.925
495.37	22.968
495.72	22.456
496.07	23.429
496.41	22.274
496.76	22.486
497.11	22.535
497.45	22.228
497.80	23.423
498.14	23.375
498.49	23.298
498.84	22.976
499.18	22.698
499.53	22.698
499.87	22.125
500.22	23.196
500.56	23.119
500.91	23.541
501.26	23.103
501.60	22.010
501.95	22.568
502.29	22.961
502.64	23.819
502.98	22.447
503.33	22.579
503.67	22.590
504.02	22.892
504.36	23.081
504.71	22.713
505.06	22.975
505.40	23.041
505.75	23.652
506.09	23.556
506.44	23.034
506.78	22.753
507.13	23.649
507.47	23.542
507.82	23.653
508.16	23.272
508.51	23.295
508.85	22.758
509.19	23.333
509.54	23.646
509.88	23.656
510.23	23.211
510.57	24.523
510.92	24.300
511.26	24.752
511.61	22.942
511.95	23.539
512.30	23.487
512.64	24.745
512.98	24.211
513.33	24.507
513.67	23.964
514.02	24.686
514.36	24.663
514.70	24.654
515.05	25.395
515.39	24.233
515.74	23.801
516.08	23.894
516.42	24.078
516.77	24.605
517.11	24.985
517.46	25.690
517.80	24.818
518.14	25.230
518.49	24.473
518.83	25.298
519.17	24.639
519.52	24.548
519.86	24.165
520.20	25.288
520.55	25.560
520.89	25.490
521.23	25.385
521.58	25.727
521.92	24.827
522.26	25.439
522.61	25.533
522.95	25.777
523.29	26.095
523.64	26.128
523.98	24.714
524.32	25.142
524.66	25.584
525.01	26.671
525.35	26.333
525.69	26.508
526.04	25.928
526.38	25.685
526.72	26.298
527.06	25.403
527.41	25.281
527.75	26.168
528.09	27.093
528.43	27.612
528.78	25.646
529.12	26.455
529.46	26.232
529.80	25.372
530.15	26.384
530.49	26.415
530.83	26.540
531.17	28.151
531.51	25.961
531.86	25.949
532.20	26.533
532.54	26.483
532.88	26.549
533.22	26.397
533.57	26.159
533.91	27.161
534.25	27.279
534.59	26.319
534.93	26.722
535.27	25.732
535.62	26.645
535.96	26.415
536.30	26.862
536.64	26.247
536.98	25.648
537.32	26.263
537.66	27.362
538.01	26.630
538.35	26.036
538.69	26.421
539.03	26.644
539.37	26.425
539.71	27.217
540.05	26.383
540.39	26.497
540.73	26.955
541.07	26.463
541.42	27.542
541.76	26.522
542.10	26.473
542.44	25.780
542.78	27.203
543.12	26.078
543.46	26.469
543.80	25.798
544.14	26.497
544.48	26.078
544.82	26.967
545.16	26.234
545.50	27.144
545.84	27.139
546.18	26.858
546.52	26.888
546.86	25.230
547.20	26.447
547.54	26.233
547.88	26.788
548.22	25.993
548.56	26.284
548.90	26.184
549.24	26.944
549.58	27.046
549.92	28.687
550.26	28.413
550.60	27.177
550.94	26.940
551.28	26.798
551.62	27.970
551.96	27.013
552.30	26.783
552.64	26.412
552.98	26.420
553.32	27.325
553.66	27.293
554.00	25.558
554.34	27.326
554.68	27.144
555.02	26.722
555.36	27.156
555.69	27.458
556.03	26.162
556.37	25.462
556.71	26.769
557.05	27.601
557.39	26.978
557.73	26.399
558.07	26.752
558.41	28.009
558.75	27.637
559.08	26.544
559.42	27.380
559.76	26.911
560.10	26.979
560.44	28.003
560.78	26.763
561.12	27.260
561.45	26.122
561.79	27.442
562.13	26.723
562.47	26.857
562.81	27.850
563.15	27.550
563.48	25.946
563.82	26.607
564.16	26.879
564.50	26.187
564.84	26.554
565.17	26.821
565.51	25.869
565.85	25.783
566.19	26.026
566.52	26.278
566.86	25.158
567.20	25.962
567.54	24.410
567.88	24.244
568.21	24.117
568.55	24.570
568.89	23.180
569.23	24.015
569.56	23.029
569.90	23.160
570.24	22.094
570.57	22.484
570.91	22.204
571.25	21.242
571.59	21.678
571.92	21.737
572.26	21.889
572.60	22.636
572.93	22.430
573.27	22.168
573.61	21.624
573.95	21.549
574.28	21.268
574.62	21.402
574.96	21.826
575.29	21.088
575.63	21.470
575.97	21.957
576.30	21.366
576.64	21.902
576.98	21.973
577.31	21.632
577.65	20.632
577.98	20.381
578.32	20.433
578.66	20.931
578.99	20.869
579.33	21.514
579.67	21.614
580.00	21.292
580.34	21.377
580.67	21.411
581.01	21.292
581.35	20.497
581.68	20.197
582.02	20.414
582.35	20.654
582.69	20.792
583.02	20.418
583.36	20.919
583.70	21.786
584.03	22.028
584.37	21.639
584.70	21.545
585.04	21.379
585.37	20.996
585.71	20.815
586.04	21.053
586.38	21.021
586.72	21.214
587.05	21.884
587.39	20.907
587.72	21.649
588.06	21.313
588.39	21.383
588.73	21.721
589.06	21.791
589.40	22.429
589.73	21.703
590.07	22.567
590.40	21.772
590.73	22.690
591.07	22.315
591.40	22.783
591.74	23.344
592.07	22.912
592.41	22.651
592.74	21.991
593.08	21.265
593.41	21.484
593.75	20.607
594.08	21.623
594.41	21.645
594.75	21.514
595.08	22.778
595.42	21.689
595.75	21.909
596.09	22.017
596.42	22.835
596.75	22.642
597.09	23.385
597.42	23.105
597.75	22.133
598.09	22.723
598.42	22.774
598.76	21.620
599.09	21.769
599.42	21.412
599.76	21.292
600.09	21.235
600.42	21.544
600.76	21.064
601.09	21.733
601.42	21.560
601.76	21.467
602.09	21.970
602.42	22.617
602.76	21.896
603.09	22.710
603.42	21.391
603.76	21.356
604.09	21.897
604.42	22.018
604.76	22.348
605.09	22.429
605.42	22.762
605.75	21.199
606.09	21.358
606.42	21.696
606.75	21.299
607.09	22.562
607.42	22.198
607.75	21.007
608.08	22.272
608.42	22.352
608.75	22.360
609.08	22.391
609.41	23.249
609.75	22.340
610.08	22.929
610.41	22.643
610.74	22.762
611.07	22.495
611.41	22.927
611.74	22.050
612.07	22.251
612.40	23.297
612.73	23.216
613.07	22.173
613.40	23.513
613.73	22.752
614.06	22.609
614.39	22.346
614.72	23.209
615.06	23.167
615.39	23.068
615.72	22.246
616.05	22.410
616.38	22.509
616.71	22.615
617.05	23.219
617.38	22.859
617.71	22.488
618.04	22.913
618.37	23.470
618.70	23.221
619.03	24.192
619.36	24.413
619.69	24.415
620.03	22.686
620.36	23.312
620.69	24.625
621.02	24.308
621.35	24.939
621.68	24.939
622.01	24.434
622.34	24.346
622.67	24.432
623.00	25.380
623.33	23.336
623.66	24.089
623.99	24.756
624.32	24.725
624.65	23.961
624.99	24.761
625.32	23.674
625.65	24.419
625.98	24.487
626.31	25.551
626.64	24.248
626.97	25.087
627.30	25.150
627.63	25.260
627.96	24.589
628.29	26.233
628.62	26.015
628.95	26.453
629.28	26.897
629.61	26.029
629.94	26.306
630.26	27.389
630.59	26.174
630.92	25.904
631.25	25.644
631.58	27.730
631.91	25.875
632.24	26.784
632.57	26.667
632.90	28.938
633.23	27.458
633.56	28.657
633.89	28.349
634.22	29.329
634.55	28.015
634.88	28.431
635.20	30.125
635.53	28.295
635.86	27.179
636.19	29.777
636.52	27.561
636.85	27.141
637.18	26.066
637.51	27.965
637.83	29.243
638.16	28.533
638.49	27.103
638.82	27.320
639.15	28.590
639.48	28.877
639.81	28.194
640.13	29.155
640.46	28.955
640.79	25.468
641.12	28.254
641.45	28.384
641.77	27.541
642.10	29.803
642.43	30.975
642.76	29.495
643.09	30.511
643.41	32.695
643.74	29.564
644.07	29.612
644.40	29.353
644.73	29.492
645.05	28.970
645.38	28.073
645.71	32.143
646.04	29.630
646.36	30.729
646.69	30.070
647.02	31.512
647.35	31.261
647.67	29.575
648.00	30.072
648.33	32.373
648.66	28.715
648.98	26.087
649.31	28.374
649.64	27.700
649.96	29.068
650.29	27.124
650.62	27.512
650.94	26.897
651.27	30.035
651.60	30.769
651.92	32.258
652.25	29.313
652.58	26.733
652.90	27.946
653.23	28.183
653.56	26.942
653.88	25.768
654.21	26.621
654.54	26.578
654.86	27.642
655.19	25.910
655.52	20.696
655.84	15.892
656.17	19.218
656.49	25.772
656.82	26.247
657.15	20.468
657.47	15.512
657.80	11.756
658.13	12.877
658.45	19.960
658.78	20.639
659.10	21.356
659.43	22.509
659.75	22.836
660.08	23.586
660.41	26.673
660.73	27.273
661.06	26.701
661.38	30.814
661.71	31.967
662.03	32.770
662.36	28.761
662.68	29.892
663.01	32.839
663.33	28.726
663.66	29.268
663.98	32.584
664.31	31.868
664.63	25.901
664.96	32.166
665.28	30.043
665.61	26.134
665.93	28.908
666.26	30.380
666.58	26.981
666.91	30.493
667.23	29.954
667.56	32.874
667.88	29.673
668.21	31.696
668.53	30.345
668.86	31.415
669.18	30.024
669.50	29.493
669.83	30.549
670.15	32.381
670.48	26.897
670.80	33.042
671.13	31.579
671.45	31.050
671.77	28.879
672.10	27.290
672.42	28.053
672.75	27.679
673.07	26.545
673.39	28.731
673.72	30.739
674.04	26.230
674.37	29.065
674.69	29.012
675.01	27.564
675.34	29.759
675.66	32.680
675.98	29.867
676.31	29.638
676.63	31.293
676.95	28.000
677.28	31.881
677.60	30.392
677.92	28.825
678.25	30.803
678.57	29.124
678.89	24.094
679.22	29.193
679.54	27.551
679.86	29.297
680.18	30.577
680.51	30.000
680.83	23.782
681.15	27.505
681.48	28.457
681.80	26.585
682.12	27.083
682.44	27.565
682.77	26.105
683.09	25.893
683.41	29.302
683.73	28.571
684.06	28.097
684.38	27.778
684.70	25.662
685.02	28.926
685.34	29.159
685.67	26.079
685.99	25.979
686.31	26.207
686.63	25.735
686.96	28.942
687.28	24.950
687.60	29.868
687.92	27.432
688.24	28.200
688.56	27.193
688.89	27.171
689.21	28.700
689.53	26.351
689.85	27.416
690.17	25.714
690.49	27.295
690.82	27.446
691.14	28.502
691.46	27.146
691.78	24.835
692.10	28.025
692.42	27.033
692.74	27.174
693.06	25.843
693.39	25.761
693.71	27.333
694.03	30.000
694.35	27.477
694.67	28.000
694.99	31.959
695.31	27.390
695.63	27.317
695.95	28.753
696.27	27.945
696.59	28.226
696.91	32.961
697.23	26.904
697.56	26.619
697.88	27.859
698.20	25.486
698.52	24.533
698.84	29.426
699.16	25.296
699.48	27.407
699.80	30.233
700.12	30.295
700.44	27.887
700.76	27.528
701.08	29.909
701.40	28.144
701.72	27.077
702.04	30.189
702.36	26.220
702.68	27.744
703.00	28.070
703.32	26.741
703.64	30.120
703.96	29.326
704.28	28.313
704.60	30.488
704.91	29.467
705.23	28.797
705.55	27.931
705.87	33.099
706.19	33.333
706.51	29.577
706.83	26.752
707.15	26.829
707.47	28.926
707.79	27.157
708.11	26.221
708.43	27.919
708.74	29.521
709.06	25.936
709.38	29.395
709.70	30.931
710.02	28.972
710.34	27.333
710.66	27.687
710.98	31.269
711.29	29.870
711.61	28.065
711.93	28.387
712.25	26.573
712.57	25.263
712.89	29.670
713.20	30.496
713.52	27.737
713.84	28.065
714.16	25.566
714.48	26.582
714.80	25.879
715.11	25.872
715.43	22.671
715.75	31.056
716.07	26.807
716.39	30.303
716.70	31.655
717.02	27.843
717.34	27.273
717.66	29.310
717.97	28.175
718.29	30.709
718.61	28.755
718.93	28.295
719.24	32.103
719.56	26.966
719.88	23.881
720.20	27.668
720.51	29.297
720.83	34.630
721.15	23.577
721.46	29.008
721.78	28.685
722.10	25.896
722.42	25.806
722.73	26.641
723.05	31.429
723.37	29.412
723.68	31.600
724.00	24.681
724.32	31.799
724.63	29.218
724.95	28.632
725.27	30.380
725.58	30.864
725.90	32.636
726.22	27.536
726.53	26.275
726.85	28.102
727.16	28.148
727.48	30.651
727.80	28.516
728.11	22.131
728.43	28.906
728.74	26.984
729.06	27.600
729.38	31.225
729.69	26.690
730.01	26.394
730.32	28.782
730.64	26.136
730.96	27.972
731.27	26.756
731.59	24.762
731.90	24.595
732.22	23.397
732.53	22.297
732.85	23.826
733.16	25.743
733.48	23.986
733.80	25.000
734.11	29.054
734.43	26.006
734.74	25.225
735.06	23.343
735.37	25.228
735.69	22.977
736.00	26.733
736.32	24.823
736.63	24.828
736.95	23.973
737.26	23.448
737.58	25.694
737.89	25.086
738.21	23.843
738.52	26.616
738.83	26.122
739.15	29.536
739.46	18.288
739.78	21.127
740.09	23.973
740.41	20.714
740.72	25.532
741.04	20.400
741.35	27.632
741.66	24.444
741.98	35.096
742.29	32.178
742.61	28.780
742.92	33.333
743.23	25.943
743.55	31.982
743.86	25.561
744.18	20.098
744.49	29.949
744.80	29.592
745.12	28.972
745.43	24.645
745.74	28.829
746.06	29.439
746.37	23.853
746.68	25.481
747.00	27.751
747.31	27.885
747.62	31.193
747.94	27.948
748.25	28.899
748.56	35.556
748.88	30.516
749.19	30.000
749.50	27.184
749.82	26.761
750.13	20.000
750.44	21.154
750.75	25.092
751.07	31.673
751.38	25.887
751.69	24.710
752.01	22.266
752.32	28.077
752.63	26.119
752.94	26.400
753.26	29.707
753.57	25.000
753.88	26.721
754.19	27.092
754.51	24.812
754.82	21.612
755.13	23.043
755.44	22.358
755.75	25.600
756.07	23.247
756.38	26.259
756.69	27.986
757.00	23.988
757.31	21.036
757.63	22.531
757.94	20.339
758.25	23.810
758.56	19.565
758.87	22.619
759.18	19.243
759.50	22.559
759.81	23.411
760.12	23.692
760.43	19.643
760.74	21.186
761.05	18.508
761.36	18.052
761.67	17.523
761.99	20.962
762.30	21.168
762.61	24.280
762.92	29.487
763.23	26.639
763.54	29.004
763.85	24.898
764.16	23.171
764.47	24.800
764.78	21.429
765.10	21.639
765.41	22.492
765.72	19.876
766.03	21.452
766.34	25.769
766.65	24.268
766.96	24.413
767.27	31.683
767.58	15.730
767.89	25.309
768.20	22.652
768.51	25.126
768.82	25.962
769.13	24.779
769.44	28.033
769.75	19.658
770.06	21.525
770.37	21.569
770.68	23.301
770.99	21.845
771.30	23.109
771.61	21.633
771.92	27.386
772.23	23.874
772.54	21.547
772.85	27.326
773.16	27.513
773.47	28.994
773.78	28.736
774.09	32.500
774.39	26.708
774.70	29.932
775.01	23.448
775.32	30.714
775.63	27.820
775.94	26.316
776.25	20.000
776.56	35.537
776.87	32.540
777.18	31.532
777.48	33.333
777.79	26.772
778.10	33.945
778.41	22.807
778.72	24.370
779.03	26.056
779.34	29.054
779.65	29.577
779.95	23.179
780.26	23.741
780.57	24.460
780.88	25.352
781.19	17.647
781.50	22.819
781.80	22.807
782.11	20.349
782.42	28.302
782.73	25.490
783.04	22.069
783.34	15.267
783.65	26.846
783.96	23.077
784.27	25.000
784.57	23.404
784.88	15.385
785.19	34.545
785.50	31.818
785.81	24.762
786.11	23.529
786.42	23.894
786.73	27.358
787.04	22.018
787.34	15.842
787.65	30.833
787.96	20.661
788.26	21.739
788.57	24.603
788.88	18.699
789.19	24.800
789.49	13.740
789.80	31.061
790.11	26.415
790.41	24.752
790.72	39.362
791.03	26.087
791.33	12.941
791.64	23.457
791.95	35.870
792.25	28.409
792.56	48.718
792.87	26.923
793.17	15.385
793.48	21.429
793.79	22.500
794.09	29.808
794.40	22.917
794.70	32.432
795.01	17.188
795.32	23.478
795.62	19.565
795.93	25.472
796.23	19.192
796.54	29.268
796.85	40.476
797.15	34.848
797.46	15.942
797.76	31.579
798.07	20.455
798.37	25.610
798.68	30.645
798.99	18.919
799.29	24.096
799.60	35.897
799.90	23.077
800.21	34.848
800.51	16.000
800.82	45.333
801.12	25.000
801.43	1.667
801.73	24.324
802.04	47.143
802.34	16.393
802.65	40.299
802.95	38.182
803.26	50.000
803.56	26.154
803.87	35.849
804.17	19.355
804.48	19.118
804.78	41.463
805.09	43.478
805.39	22.059
805.70	8.511
806.00	22.807
806.30	23.077
806.61	21.053
806.91	29.730
807.22	31.579
807.52	18.182
807.83	10.169
808.13	16.667
808.43	23.333
808.74	13.793
809.04	36.508
809.35	12.245
809.65	31.667
809.95	22.449
810.26	36.620
810.56	6.250
810.86	10.204
811.17	46.154
811.47	21.277
811.77	27.083
812.08	39.623
812.38	15.625
812.69	16.364
812.99	17.073
813.29	18.919
813.59	40.541
813.90	20.000
814.20	16.364
814.50	28.333
814.81	34.545
815.11	26.316
815.41	48.837
815.72	12.500
816.02	54.286
816.32	-8.108
816.62	35.417
816.93	22.222
817.23	33.333
817.53	38.889
817.84	18.919
818.14	12.195
818.44	46.000
818.74	28.571
819.04	26.829
819.35	16.667
819.65	27.273
819.95	-11.111
820.25	12.121
820.56	14.286
820.86	38.889
821.16	18.182
821.46	30.435
821.76	12.069
822.07	52.174
822.37	54.545
822.67	48.780
822.97	29.730
823.27	-8.571
823.57	37.931
823.88	41.176
824.18	25.000
824.48	20.000
824.78	52.381
825.08	35.714
825.38	40.741
825.69	25.806
825.99	31.707
826.29	14.815
826.59	6.250
826.89	22.581
827.19	4.348
827.49	19.444
827.79	21.739
828.09	32.258
828.39	12.500
828.70	12.500
829.00	31.034
829.30	37.838
829.60	-8.333
829.90	74.074
830.20	37.500
830.50	68.182
830.80	-47.059
831.10	9.091
831.40	5.882
831.70	26.923
832.00	36.364
832.30	52.941
832.60	40.541
832.90	100.000
833.20	35.714
833.50	15.000
833.80	13.158
834.10	12.500
834.40	27.273
834.70	-13.333
835.00	110.000
835.30	12.500
835.60	23.810
835.90	9.524
836.20	48.000
836.50	25.000
836.80	26.316
837.10	48.649
837.40	63.333
837.70	30.435
838.00	16.667
838.30	26.316
838.60	0.000
838.90	-30.000
839.19	0.000
839.49	100.000
839.79	26.316
840.09	-50.000
840.39	160.000
840.69	72.727
840.99	61.905
841.29	25.000
841.59	-46.154
841.88	-26.667
842.18	71.429
842.48	40.000
842.78	-85.714
843.08	-35.714
843.38	75.000
843.68	0.000
843.97	64.286
844.27	33.333
844.57	36.364
844.87	13.333
845.17	68.182
845.47	466.667
845.76	66.667
846.06	0.000
846.36	150.000
846.66	36.842
846.96	9.091
847.25	33.333
847.55	-66.667
847.85	-38.095
848.15	92.308
848.44	-50.000
848.74	33.333
849.04	23.077
849.34	75.000
849.63	118.182
849.93	-14.286
850.23	50.000
850.53	-50.000
850.82	61.111
851.12	40.000
851.42	35.294
851.71	187.500
852.01	88.235
852.31	53.846
852.61	250.000
852.90	5.882
853.20	20.000
853.50	75.000
853.79	-57.143
854.09	225.000
854.39	-20.000
854.68	5.000
854.98	-4.762
855.28	16.000
855.57	41.667
855.87	16.667
856.17	4.000
856.46	28.125
856.76	75.000
857.05	52.000
857.35	8.333
857.65	-11.765
857.94	8.333
858.24	50.000
858.53	30.000
858.83	-27.273
859.13	32.000
859.42	-50.000
859.72	-12.500
860.01	66.667
860.31	-112.500
860.60	25.000
860.90	0.000
861.20	50.000
861.49	66.667
861.79	56.250
862.08	150.000
862.38	-91.667
862.67	142.857
862.97	150.000
863.26	0.000
863.56	54.545
863.85	52.632
864.15	52.941
864.44	140.000
864.74	-30.000
865.03	22.222
865.33	42.857
865.62	-0.000
865.92	84.211
866.21	66.667
866.51	27.273
866.80	22.222
867.10	0.000
867.39	-12.500
867.69	0.000
867.98	70.000
868.27	11.765
868.57	0.000
868.86	550.000
869.16	-125.000
869.45	-128.571
869.75	-150.000
870.04	10.000
870.33	100.000
870.63	36.842
870.92	0.000
871.22	800.000
871.51	85.714
871.80	-11.111
872.10	-200.000
>>>>>End Processed Spectral Data<<<<<
