SpectraSuite Data File
++++++++++++++++++++++++++++++++++++
Date: Wed May 13 20:38:30 PDT 2015
User: schluterlab
Dark Spectrum Present: Yes
Reference Spectrum Present: Yes
Number of Sampled Component Spectra: 1
Spectrometers: USB2E3373
Integration Time (usec): 3000 (USB2E3373)
Spectra Averaged: 3 (USB2E3373)
Boxcar Smoothing: 0 (USB2E3373)
Correct for Electrical Dark: No (USB2E3373)
Strobe/Lamp Enabled: No (USB2E3373)
Correct for Detector Non-linearity: No (USB2E3373)
Correct for Stray Light: No (USB2E3373)
Number of Pixels in Processed Spectrum: 2048
>>>>>Begin Processed Spectral Data<<<<<
178.53	0.000
178.91	-825.000
179.29	-1050.000
179.67	-138.889
180.04	-925.000
180.42	1700.000
180.80	900.000
181.18	-650.000
181.56	557.143
181.94	0.000
182.31	-385.714
182.69	1600.000
183.07	-437.500
183.45	-333.333
183.83	409.091
184.20	-220.000
184.58	1500.000
184.96	2800.000
185.34	-660.000
185.72	-425.000
186.09	-1600.000
186.47	2150.000
186.85	1750.000
187.23	3300.000
187.61	-1200.000
187.98	1075.000
188.36	336.364
188.74	363.636
189.12	-580.000
189.49	420.000
189.87	-3500.000
190.25	-650.000
190.63	300.000
191.00	292.308
191.38	766.667
191.76	-625.000
192.14	1025.000
192.51	587.500
192.89	700.000
193.27	337.500
193.65	-875.000
194.02	360.000
194.40	860.000
194.78	380.000
195.15	441.667
195.53	530.000
195.91	-1750.000
196.29	293.750
196.66	247.368
197.04	-230.000
197.42	0.000
197.79	460.000
198.17	-3300.000
198.55	571.429
198.92	487.500
199.30	640.000
199.68	0.000
200.05	277.778
200.43	614.286
200.81	2500.000
201.18	1000.000
201.56	-1366.667
201.94	433.333
202.31	488.889
202.69	375.000
203.07	410.000
203.44	0.000
203.82	900.000
204.19	700.000
204.57	335.714
204.95	500.000
205.32	1366.667
205.70	336.364
206.08	285.714
206.45	2250.000
206.83	212.500
207.20	783.333
207.58	460.000
207.96	233.333
208.33	625.000
208.71	-633.333
209.08	614.286
209.46	422.222
209.84	236.364
210.21	-1300.000
210.59	1000.000
210.96	-337.500
211.34	2350.000
211.71	490.000
212.09	483.333
212.46	0.000
212.84	1200.000
213.22	950.000
213.59	-4100.000
213.97	750.000
214.34	542.857
214.72	409.091
215.09	620.000
215.47	-800.000
215.84	-1600.000
216.22	1066.667
216.59	250.000
216.97	900.000
217.34	327.273
217.72	-483.333
218.09	0.000
218.47	-3400.000
218.84	511.111
219.22	628.571
219.59	1166.667
219.97	-414.286
220.34	580.000
220.72	-1533.333
221.09	321.429
221.47	1075.000
221.84	-800.000
222.22	0.000
222.59	950.000
222.97	-2000.000
223.34	920.000
223.72	284.615
224.09	900.000
224.46	1350.000
224.84	-3100.000
225.21	-800.000
225.59	-3300.000
225.96	420.000
226.34	235.000
226.71	2050.000
227.08	587.500
227.46	350.000
227.83	-950.000
228.21	-1700.000
228.58	466.667
228.95	-1650.000
229.33	-2000.000
229.70	1333.333
230.08	600.000
230.45	-700.000
230.82	366.667
231.20	583.333
231.57	457.143
231.95	341.667
232.32	209.091
232.69	327.273
233.07	542.857
233.44	307.692
233.81	-1066.667
234.19	247.368
234.56	308.333
234.93	266.667
235.31	409.091
235.68	300.000
236.05	264.286
236.43	145.455
236.80	215.789
237.17	3400.000
237.55	200.000
237.92	196.429
238.29	204.762
238.67	170.968
239.04	162.069
239.41	113.889
239.79	117.391
240.16	126.190
240.53	120.455
240.91	90.196
241.28	76.000
241.65	96.000
242.02	78.261
242.40	85.484
242.77	93.333
243.14	72.043
243.51	73.034
243.89	67.059
244.26	70.000
244.63	66.667
245.00	48.936
245.38	69.307
245.75	62.617
246.12	53.211
246.49	62.044
246.87	56.800
247.24	53.846
247.61	62.857
247.98	50.980
248.36	45.270
248.73	50.955
249.10	55.414
249.47	50.847
249.84	54.545
250.22	51.872
250.59	51.479
250.96	50.000
251.33	49.289
251.70	50.000
252.08	46.190
252.45	42.601
252.82	50.435
253.19	46.809
253.56	43.137
253.94	51.452
254.31	43.359
254.68	42.692
255.05	43.542
255.42	44.715
255.79	42.647
256.16	46.570
256.54	39.576
256.91	40.925
257.28	40.288
257.65	40.594
258.02	39.752
258.39	41.009
258.76	44.147
259.14	43.750
259.51	40.729
259.88	39.441
260.25	38.973
260.62	39.017
260.99	40.683
261.36	41.742
261.73	42.120
262.10	40.698
262.47	39.437
262.85	41.504
263.22	36.752
263.59	39.031
263.96	40.659
264.33	39.948
264.70	40.789
265.07	41.176
265.44	39.394
265.81	39.173
266.18	41.457
266.55	37.073
266.92	37.592
267.29	38.657
267.66	38.991
268.03	37.273
268.40	37.617
268.77	38.663
269.14	36.261
269.51	37.472
269.88	39.860
270.25	34.537
270.62	40.674
270.99	37.634
271.36	39.056
271.73	35.047
272.10	36.087
272.47	40.860
272.84	38.745
273.21	36.688
273.58	36.463
273.95	36.268
274.32	37.190
274.69	37.687
275.06	35.039
275.43	37.447
275.80	37.475
276.17	34.827
276.54	40.125
276.91	38.340
277.28	34.375
277.65	36.750
278.02	34.161
278.39	38.086
278.76	35.091
279.13	36.226
279.50	35.196
279.87	34.661
280.23	35.529
280.60	36.364
280.97	34.750
281.34	35.398
281.71	35.455
282.08	36.660
282.45	34.909
282.82	33.393
283.19	33.333
283.56	34.737
283.92	35.025
284.29	34.744
284.66	34.664
285.03	34.901
285.40	35.387
285.77	32.660
286.14	34.542
286.51	33.833
286.87	32.479
287.24	35.342
287.61	32.584
287.98	33.929
288.35	31.537
288.72	31.153
289.08	31.455
289.45	31.137
289.82	31.870
290.19	31.711
290.56	30.475
290.93	30.060
291.29	30.675
291.66	31.563
292.03	31.250
292.40	31.571
292.77	28.107
293.13	30.746
293.50	29.300
293.87	28.000
294.24	28.593
294.60	28.093
294.97	28.052
295.34	30.465
295.71	29.119
296.08	27.920
296.44	28.886
296.81	26.288
297.18	29.268
297.55	25.594
297.91	26.517
298.28	28.648
298.65	25.718
299.02	25.955
299.38	28.154
299.75	24.259
300.12	26.692
300.48	24.375
300.85	25.647
301.22	26.879
301.59	23.359
301.95	25.441
302.32	26.187
302.69	25.090
303.05	25.818
303.42	25.432
303.79	23.783
304.15	23.427
304.52	22.711
304.89	23.577
305.25	23.550
305.62	23.669
305.99	24.675
306.35	24.720
306.72	23.655
307.09	24.750
307.45	23.536
307.82	23.214
308.19	23.620
308.55	24.272
308.92	23.093
309.29	22.703
309.65	21.739
310.02	22.199
310.38	23.333
310.75	23.654
311.12	23.439
311.48	23.929
311.85	24.423
312.22	23.517
312.58	21.830
312.95	23.865
313.31	22.621
313.68	21.726
314.05	23.767
314.41	22.814
314.78	23.867
315.14	22.840
315.51	23.069
315.87	23.069
316.24	22.542
316.61	22.807
316.97	22.016
317.34	22.994
317.70	23.423
318.07	22.907
318.43	23.679
318.80	23.993
319.16	23.540
319.53	23.265
319.89	24.857
320.26	24.300
320.62	23.810
320.99	24.444
321.35	24.343
321.72	25.257
322.08	26.259
322.45	26.070
322.81	25.194
323.18	25.434
323.54	25.696
323.91	25.472
324.27	26.291
324.64	25.256
325.00	25.609
325.37	27.753
325.73	26.661
326.10	26.125
326.46	27.240
326.83	27.869
327.19	26.388
327.56	27.962
327.92	27.209
328.29	27.684
328.65	28.913
329.01	27.888
329.38	27.290
329.74	27.516
330.11	28.841
330.47	29.109
330.84	29.412
331.20	27.960
331.56	28.991
331.93	28.333
332.29	26.974
332.66	29.027
333.02	29.342
333.38	28.546
333.75	29.412
334.11	30.071
334.48	28.571
334.84	29.504
335.20	30.000
335.57	29.102
335.93	29.464
336.29	28.022
336.66	30.298
337.02	28.235
337.38	29.907
337.75	29.768
338.11	29.275
338.47	30.110
338.84	30.064
339.20	27.890
339.56	30.657
339.93	29.182
340.29	30.254
340.65	30.660
341.02	31.239
341.38	29.715
341.74	29.123
342.11	30.218
342.47	30.308
342.83	30.993
343.20	29.524
343.56	29.907
343.92	31.404
344.28	30.782
344.65	30.353
345.01	30.640
345.37	29.503
345.73	31.641
346.10	30.691
346.46	31.271
346.82	30.313
347.19	30.576
347.55	30.706
347.91	30.744
348.27	31.389
348.63	30.435
349.00	30.825
349.36	30.788
349.72	30.553
350.08	31.199
350.45	31.733
350.81	31.032
351.17	31.199
351.53	31.613
351.89	31.271
352.26	32.281
352.62	32.478
352.98	31.361
353.34	31.471
353.70	31.997
354.07	31.452
354.43	30.079
354.79	31.858
355.15	30.806
355.51	32.374
355.87	30.939
356.24	31.515
356.60	31.435
356.96	32.743
357.32	31.971
357.68	30.709
358.04	30.325
358.40	31.987
358.77	33.099
359.13	32.597
359.49	31.843
359.85	31.746
360.21	32.616
360.57	32.763
360.93	32.692
361.29	31.293
361.66	31.656
362.02	31.866
362.38	32.471
362.74	33.259
363.10	31.754
363.46	31.842
363.82	31.519
364.18	32.893
364.54	33.284
364.90	32.649
365.26	31.397
365.62	32.652
365.98	32.798
366.35	32.092
366.71	32.972
367.07	32.047
367.43	33.019
367.79	33.405
368.15	32.328
368.51	32.195
368.87	32.620
369.23	32.699
369.59	32.295
369.95	32.279
370.31	32.621
370.67	31.667
371.03	33.783
371.39	32.070
371.75	32.941
372.11	32.219
372.47	33.944
372.83	33.573
373.19	33.815
373.55	32.964
373.91	34.831
374.27	33.058
374.63	32.291
374.99	33.545
375.35	32.589
375.71	32.899
376.07	33.951
376.42	33.356
376.78	33.267
377.14	33.786
377.50	33.444
377.86	33.378
378.22	33.818
378.58	32.268
378.94	33.815
379.30	34.224
379.66	34.010
380.02	34.398
380.38	33.333
380.74	33.794
381.09	34.535
381.45	35.587
381.81	33.784
382.17	34.586
382.53	34.151
382.89	34.383
383.25	34.959
383.61	34.882
383.97	34.709
384.32	33.936
384.68	35.006
385.04	34.112
385.40	35.170
385.76	34.029
386.12	34.585
386.48	34.991
386.83	36.305
387.19	33.952
387.55	34.879
387.91	35.006
388.27	35.132
388.62	34.849
388.98	33.845
389.34	35.294
389.70	35.071
390.06	36.122
390.42	35.084
390.77	35.496
391.13	35.801
391.49	34.772
391.85	33.991
392.20	34.385
392.56	35.101
392.92	34.726
393.28	34.911
393.64	34.832
393.99	35.614
394.35	35.422
394.71	35.006
395.07	35.265
395.42	35.970
395.78	35.941
396.14	36.002
396.50	37.093
396.85	37.254
397.21	35.820
397.57	35.896
397.92	37.200
398.28	35.370
398.64	35.783
399.00	36.318
399.35	35.984
399.71	36.458
400.07	36.724
400.42	35.890
400.78	36.852
401.14	36.341
401.49	36.299
401.85	36.177
402.21	35.269
402.57	35.225
402.92	37.074
403.28	38.226
403.63	36.262
403.99	37.771
404.35	36.727
404.70	36.271
405.06	35.935
405.42	37.492
405.77	35.029
406.13	36.907
406.49	36.960
406.84	37.153
407.20	36.111
407.55	37.013
407.91	37.600
408.27	36.950
408.62	36.364
408.98	36.826
409.34	37.823
409.69	36.839
410.05	37.051
410.40	38.226
410.76	37.993
411.11	36.852
411.47	38.339
411.83	37.752
412.18	37.477
412.54	37.733
412.89	37.952
413.25	37.308
413.60	37.925
413.96	37.158
414.31	37.120
414.67	37.389
415.03	38.079
415.38	38.015
415.74	37.363
416.09	38.537
416.45	37.617
416.80	38.599
417.16	39.410
417.51	38.487
417.87	37.829
418.22	37.918
418.58	39.638
418.93	37.899
419.29	38.956
419.64	37.720
420.00	38.110
420.35	37.913
420.71	38.673
421.06	37.888
421.42	37.427
421.77	38.117
422.12	37.563
422.48	38.424
422.83	38.614
423.19	37.901
423.54	38.189
423.90	38.145
424.25	38.414
424.61	38.929
424.96	38.192
425.31	37.763
425.67	36.854
426.02	37.714
426.38	40.415
426.73	38.561
427.09	38.784
427.44	38.930
427.79	38.470
428.15	37.798
428.50	38.970
428.85	38.915
429.21	37.880
429.56	37.532
429.92	37.544
430.27	38.133
430.62	37.737
430.98	37.364
431.33	37.577
431.68	38.534
432.04	37.859
432.39	37.921
432.74	37.283
433.10	38.200
433.45	37.784
433.80	38.248
434.16	38.141
434.51	38.632
434.86	38.883
435.22	38.132
435.57	38.237
435.92	38.034
436.28	39.383
436.63	38.797
436.98	38.237
437.34	38.998
437.69	38.798
438.04	38.505
438.39	37.910
438.75	38.640
439.10	39.553
439.45	38.548
439.81	38.852
440.16	38.227
440.51	37.961
440.86	39.143
441.22	37.875
441.57	38.482
441.92	37.769
442.27	38.482
442.63	37.125
442.98	39.155
443.33	38.641
443.68	37.274
444.03	38.995
444.39	37.829
444.74	38.149
445.09	37.898
445.44	37.069
445.79	38.199
446.15	37.110
446.50	37.857
446.85	38.129
447.20	37.991
447.55	38.079
447.91	38.169
448.26	38.175
448.61	37.309
448.96	38.815
449.31	38.976
449.66	38.154
450.02	38.552
450.37	37.415
450.72	38.240
451.07	36.319
451.42	37.447
451.77	38.696
452.12	37.587
452.47	37.500
452.83	38.928
453.18	36.980
453.53	37.786
453.88	37.566
454.23	37.896
454.58	38.159
454.93	38.080
455.28	37.531
455.63	37.682
455.98	38.810
456.34	37.688
456.69	37.884
457.04	38.080
457.39	37.230
457.74	37.435
458.09	37.148
458.44	37.970
458.79	37.202
459.14	37.867
459.49	36.778
459.84	37.673
460.19	38.067
460.54	36.921
460.89	37.521
461.24	37.098
461.59	37.827
461.94	37.423
462.29	37.685
462.64	37.269
462.99	37.345
463.34	37.533
463.69	36.523
464.04	37.739
464.39	37.101
464.74	36.126
465.09	36.309
465.44	36.510
465.79	36.857
466.14	36.891
466.49	37.152
466.84	37.361
467.19	36.089
467.54	37.875
467.89	36.435
468.24	36.707
468.59	37.790
468.94	36.164
469.29	36.761
469.64	38.822
469.99	37.212
470.34	36.658
470.68	37.356
471.03	36.395
471.38	37.804
471.73	37.242
472.08	37.763
472.43	36.495
472.78	35.879
473.13	36.457
473.48	36.517
473.83	36.646
474.17	36.714
474.52	37.221
474.87	38.004
475.22	36.506
475.57	34.820
475.92	35.953
476.27	35.964
476.61	36.404
476.96	36.339
477.31	36.107
477.66	35.886
478.01	35.076
478.36	35.378
478.70	35.306
479.05	36.209
479.40	36.285
479.75	35.435
480.10	35.835
480.45	35.174
480.79	35.165
481.14	36.106
481.49	36.260
481.84	35.117
482.19	35.847
482.53	35.367
482.88	35.924
483.23	35.374
483.58	35.805
483.92	35.380
484.27	33.900
484.62	35.043
484.97	33.583
485.31	34.555
485.66	33.555
486.01	32.830
486.36	32.823
486.70	33.199
487.05	34.010
487.40	33.427
487.75	33.981
488.09	34.516
488.44	33.823
488.79	35.479
489.13	34.454
489.48	34.054
489.83	33.578
490.17	34.809
490.52	33.658
490.87	34.600
491.22	33.834
491.56	34.396
491.91	34.342
492.26	33.900
492.60	33.779
492.95	33.630
493.30	33.879
493.64	34.111
493.99	33.937
494.34	34.274
494.68	34.432
495.03	34.727
495.37	34.388
495.72	34.064
496.07	35.128
496.41	33.274
496.76	34.345
497.11	33.048
497.45	34.979
497.80	34.789
498.14	33.865
498.49	33.415
498.84	34.660
499.18	33.857
499.53	34.853
499.87	34.157
500.22	34.432
500.56	34.806
500.91	34.038
501.26	33.760
501.60	34.267
501.95	32.722
502.29	34.302
502.64	34.590
502.98	33.801
503.33	33.547
503.67	33.968
504.02	33.863
504.36	33.318
504.71	34.343
505.06	33.108
505.40	33.836
505.75	32.739
506.09	33.528
506.44	33.251
506.78	33.415
507.13	34.427
507.47	35.455
507.82	34.650
508.16	33.384
508.51	34.754
508.85	33.515
509.19	33.980
509.54	34.235
509.88	34.621
510.23	33.779
510.57	34.520
510.92	33.299
511.26	34.224
511.61	33.299
511.95	33.038
512.30	33.245
512.64	33.853
512.98	34.512
513.33	33.887
513.67	33.618
514.02	33.333
514.36	34.407
514.70	34.256
515.05	32.906
515.39	34.773
515.74	34.065
516.08	33.426
516.42	34.184
516.77	34.392
517.11	32.908
517.46	33.409
517.80	34.901
518.14	33.526
518.49	34.189
518.83	33.409
519.17	33.891
519.52	34.465
519.86	33.999
520.20	34.104
520.55	34.231
520.89	34.672
521.23	34.741
521.58	34.154
521.92	34.415
522.26	33.191
522.61	34.455
522.95	33.272
523.29	32.502
523.64	34.756
523.98	34.504
524.32	34.379
524.66	34.336
525.01	34.191
525.35	34.263
525.69	34.483
526.04	33.583
526.38	34.350
526.72	34.110
527.06	33.459
527.41	32.797
527.75	33.891
528.09	34.425
528.43	33.652
528.78	33.251
529.12	33.091
529.46	34.170
529.80	35.272
530.15	34.393
530.49	33.292
530.83	33.608
531.17	33.094
531.51	35.603
531.86	33.677
532.20	34.159
532.54	34.785
532.88	34.211
533.22	33.542
533.57	33.889
533.91	33.474
534.25	33.111
534.59	33.435
534.93	33.432
535.27	34.218
535.62	33.761
535.96	34.087
536.30	33.249
536.64	33.870
536.98	33.245
537.32	33.443
537.66	33.733
538.01	34.760
538.35	33.807
538.69	34.142
539.03	33.398
539.37	33.355
539.71	32.210
540.05	33.529
540.39	33.090
540.73	32.342
541.07	33.550
541.42	33.333
541.76	34.194
542.10	33.312
542.44	33.576
542.78	34.980
543.12	32.694
543.46	33.377
543.80	34.027
544.14	32.927
544.48	34.095
544.82	33.419
545.16	33.767
545.50	31.812
545.84	33.871
546.18	33.805
546.52	34.412
546.86	33.471
547.20	33.378
547.54	34.135
547.88	34.311
548.22	33.375
548.56	32.264
548.90	31.818
549.24	32.189
549.58	33.356
549.92	33.516
550.26	32.884
550.60	31.743
550.94	33.803
551.28	32.553
551.62	33.214
551.96	32.772
552.30	33.720
552.64	33.469
552.98	34.034
553.32	33.783
553.66	32.720
554.00	33.150
554.34	32.436
554.68	33.977
555.02	33.075
555.36	33.473
555.69	33.085
556.03	32.638
556.37	32.128
556.71	31.855
557.05	33.123
557.39	33.380
557.73	32.322
558.07	33.720
558.41	32.272
558.75	33.064
559.08	32.588
559.42	33.485
559.76	33.162
560.10	31.834
560.44	32.495
560.78	32.668
561.12	32.850
561.45	32.660
561.79	31.114
562.13	32.998
562.47	33.197
562.81	33.054
563.15	31.839
563.48	33.156
563.82	32.551
564.16	32.767
564.50	31.771
564.84	31.606
565.17	32.432
565.51	32.013
565.85	32.678
566.19	31.622
566.52	32.616
566.86	31.706
567.20	32.901
567.54	32.306
567.88	30.853
568.21	32.540
568.55	32.204
568.89	32.101
569.23	31.016
569.56	30.324
569.90	30.981
570.24	31.432
570.57	30.840
570.91	30.155
571.25	30.636
571.59	30.191
571.92	30.127
572.26	29.983
572.60	29.820
572.93	29.835
573.27	29.814
573.61	29.816
573.95	30.233
574.28	29.372
574.62	29.519
574.96	29.510
575.29	29.898
575.63	29.751
575.97	29.576
576.30	29.793
576.64	29.239
576.98	29.703
577.31	29.228
577.65	29.772
577.98	29.433
578.32	28.793
578.66	29.308
578.99	29.308
579.33	29.315
579.67	29.214
580.00	29.130
580.34	29.639
580.67	29.095
581.01	29.615
581.35	29.045
581.68	28.678
582.02	29.019
582.35	29.259
582.69	29.183
583.02	29.630
583.36	29.398
583.70	29.720
584.03	29.807
584.37	29.671
584.70	29.728
585.04	29.697
585.37	29.007
585.71	29.323
586.04	29.137
586.38	29.363
586.72	29.550
587.05	29.286
587.39	29.077
587.72	29.400
588.06	29.829
588.39	30.041
588.73	29.833
589.06	29.854
589.40	30.370
589.73	29.461
590.07	29.964
590.40	29.412
590.73	30.484
591.07	30.077
591.40	30.873
591.74	30.996
592.07	30.192
592.41	30.054
592.74	29.588
593.08	29.480
593.41	29.326
593.75	28.638
594.08	29.132
594.41	29.374
594.75	30.129
595.08	29.635
595.42	30.018
595.75	29.843
596.09	29.854
596.42	30.334
596.75	29.970
597.09	29.870
597.42	29.848
597.75	30.099
598.09	30.130
598.42	29.338
598.76	29.185
599.09	29.266
599.42	29.258
599.76	29.575
600.09	29.435
600.42	29.364
600.76	28.536
601.09	29.035
601.42	29.414
601.76	29.222
602.09	29.763
602.42	30.135
602.76	29.343
603.09	29.780
603.42	29.676
603.76	29.154
604.09	29.624
604.42	30.126
604.76	30.367
605.09	29.533
605.42	28.388
605.75	29.553
606.09	29.606
606.42	29.097
606.75	28.909
607.09	29.050
607.42	29.226
607.75	28.776
608.08	28.485
608.42	29.718
608.75	28.810
609.08	29.186
609.41	29.510
609.75	29.109
610.08	30.019
610.41	29.423
610.74	30.416
611.07	29.397
611.41	30.520
611.74	29.814
612.07	30.331
612.40	30.535
612.73	29.684
613.07	29.795
613.40	29.173
613.73	28.264
614.06	30.054
614.39	29.628
614.72	30.000
615.06	28.676
615.39	29.193
615.72	28.783
616.05	29.080
616.38	29.794
616.71	30.285
617.05	29.623
617.38	29.765
617.71	29.249
618.04	30.649
618.37	29.923
618.70	30.367
619.03	29.737
619.36	29.735
619.69	29.577
620.03	30.288
620.36	30.682
620.69	30.548
621.02	30.383
621.35	29.601
621.68	30.062
622.01	29.412
622.34	31.316
622.67	30.038
623.00	30.374
623.33	29.521
623.66	30.093
623.99	29.750
624.32	29.815
624.65	29.449
624.99	29.320
625.32	29.544
625.65	30.278
625.98	30.054
626.31	29.782
626.64	31.347
626.97	30.590
627.30	30.673
627.63	30.845
627.96	30.698
628.29	29.221
628.62	30.741
628.95	31.792
629.28	30.839
629.61	31.164
629.94	31.238
630.26	30.315
630.59	29.743
630.92	30.460
631.25	32.083
631.58	29.730
631.91	30.832
632.24	30.063
632.57	31.899
632.90	32.018
633.23	32.215
633.56	32.203
633.89	31.710
634.22	31.101
634.55	31.834
634.88	30.778
635.20	33.572
635.53	32.771
635.86	31.807
636.19	31.647
636.52	31.603
636.85	30.699
637.18	30.415
637.51	31.206
637.83	28.483
638.16	32.097
638.49	32.116
638.82	32.617
639.15	31.750
639.48	31.421
639.81	32.306
640.13	29.948
640.46	32.886
640.79	31.572
641.12	30.812
641.45	31.006
641.77	33.137
642.10	31.433
642.43	31.381
642.76	31.734
643.09	32.515
643.41	33.080
643.74	35.340
644.07	31.860
644.40	32.362
644.73	34.961
645.05	33.914
645.38	33.333
645.71	32.206
646.04	31.894
646.36	35.893
646.69	33.779
647.02	34.014
647.35	32.474
647.67	32.212
648.00	33.008
648.33	33.498
648.66	32.424
648.98	33.433
649.31	30.942
649.64	35.277
649.96	32.787
650.29	32.701
650.62	33.010
650.94	33.063
651.27	33.108
651.60	33.111
651.92	33.387
652.25	30.619
652.58	32.866
652.90	33.333
653.23	31.125
653.56	31.181
653.88	32.964
654.21	34.439
654.54	33.498
654.86	32.710
655.19	31.081
655.52	24.328
655.84	24.075
656.17	30.492
656.49	40.653
656.82	41.648
657.15	31.360
657.47	23.430
657.80	17.830
658.13	18.226
658.45	26.976
658.78	27.301
659.10	28.805
659.43	29.067
659.75	29.165
660.08	30.443
660.41	31.750
660.73	31.639
661.06	33.758
661.38	34.909
661.71	32.692
662.03	35.503
662.36	29.821
662.68	32.731
663.01	33.737
663.33	31.635
663.66	35.294
663.98	33.693
664.31	34.454
664.63	33.198
664.96	32.193
665.28	35.861
665.61	31.189
665.93	33.400
666.26	33.874
666.58	32.636
666.91	36.152
667.23	36.629
667.56	33.909
667.88	33.333
668.21	34.755
668.53	33.406
668.86	34.632
669.18	34.542
669.50	34.348
669.83	36.601
670.15	33.111
670.48	33.333
670.80	35.776
671.13	34.395
671.45	35.106
671.77	34.012
672.10	34.935
672.42	30.389
672.75	34.494
673.07	32.570
673.39	33.273
673.72	31.641
674.04	32.941
674.37	32.233
674.69	31.902
675.01	32.218
675.34	34.908
675.66	37.895
675.98	34.216
676.31	32.983
676.63	32.696
676.95	32.285
677.28	35.514
677.60	35.604
677.92	35.654
678.25	29.774
678.57	34.462
678.89	34.469
679.22	33.595
679.54	31.298
679.86	33.578
680.18	33.989
680.51	31.028
680.83	32.918
681.15	32.453
681.48	34.783
681.80	34.236
682.12	31.034
682.44	29.981
682.77	33.809
683.09	36.695
683.41	33.038
683.73	34.437
684.06	33.884
684.38	33.855
684.70	34.496
685.02	35.084
685.34	30.586
685.67	30.245
685.99	30.069
686.31	29.693
686.63	30.212
686.96	29.821
687.28	31.047
687.60	29.167
687.92	31.079
688.24	32.700
688.56	32.932
688.89	36.307
689.21	33.624
689.53	31.315
689.85	35.255
690.17	30.021
690.49	34.607
690.82	32.243
691.14	31.250
691.46	32.700
691.78	32.329
692.10	33.264
692.42	33.733
692.74	29.876
693.06	30.851
693.39	32.649
693.71	34.279
694.03	34.526
694.35	33.766
694.67	30.892
694.99	33.659
695.31	33.333
695.63	33.493
695.95	33.985
696.27	32.741
696.59	35.233
696.91	34.456
697.23	30.282
697.56	31.130
697.88	29.448
698.20	32.708
698.52	32.258
698.84	32.071
699.16	32.719
699.48	31.591
699.80	35.266
700.12	39.221
700.44	35.809
700.76	30.939
701.08	35.345
701.40	33.520
701.72	38.776
702.04	36.932
702.36	33.428
702.68	33.994
703.00	37.119
703.32	31.915
703.64	32.172
703.96	37.883
704.28	34.302
704.60	33.724
704.91	35.312
705.23	35.777
705.55	37.542
705.87	39.535
706.19	32.509
706.51	37.072
706.83	37.879
707.15	36.415
707.47	33.333
707.79	35.872
708.11	32.420
708.43	32.143
708.74	30.612
709.06	33.766
709.38	33.071
709.70	35.756
710.02	37.389
710.34	33.636
710.66	33.134
710.98	36.080
711.29	33.140
711.61	36.283
711.93	37.179
712.25	38.585
712.57	37.500
712.89	39.792
713.20	35.562
713.52	34.211
713.84	31.329
714.16	34.756
714.48	34.483
714.80	39.818
715.11	33.429
715.43	33.234
715.75	32.464
716.07	34.185
716.39	33.856
716.70	37.209
717.02	36.691
717.34	35.336
717.66	39.179
717.97	38.247
718.29	36.296
718.61	37.956
718.93	38.235
719.24	37.716
719.56	30.847
719.88	35.254
720.20	35.811
720.51	39.024
720.83	38.290
721.15	32.836
721.46	35.106
721.78	37.634
722.10	36.981
722.42	42.481
722.73	35.206
723.05	38.115
723.37	37.652
723.68	33.977
724.00	40.244
724.32	38.306
724.63	36.585
724.95	40.167
725.27	42.105
725.58	39.453
725.90	41.606
726.22	37.358
726.53	38.194
726.85	36.519
727.16	36.299
727.48	33.688
727.80	39.773
728.11	36.594
728.43	36.538
728.74	30.466
729.06	38.321
729.38	44.118
729.69	36.299
730.01	34.812
730.32	35.764
730.64	34.783
730.96	34.983
731.27	38.079
731.59	35.780
731.90	36.443
732.22	33.540
732.53	34.365
732.85	31.090
733.16	34.727
733.48	36.877
733.80	36.039
734.11	36.306
734.43	37.278
734.74	33.143
735.06	29.513
735.37	36.127
735.69	32.484
736.00	36.601
736.32	38.318
736.63	35.783
736.95	34.824
737.26	29.932
737.58	32.258
737.89	34.783
738.21	35.836
738.52	36.786
738.83	32.075
739.15	36.923
739.46	36.131
739.78	37.847
740.09	35.385
740.41	33.226
740.72	36.237
741.04	36.667
741.35	35.000
741.66	41.778
741.98	37.736
742.29	44.498
742.61	42.241
742.92	35.294
743.23	40.171
743.55	44.000
743.86	33.772
744.18	40.708
744.49	43.062
744.80	44.131
745.12	45.000
745.43	37.004
745.74	44.144
746.06	45.413
746.37	45.740
746.68	42.081
747.00	43.519
747.31	42.381
747.62	39.381
747.94	34.802
748.25	34.468
748.56	39.648
748.88	34.158
749.19	44.500
749.50	38.605
749.82	39.024
750.13	40.000
750.44	37.591
750.75	40.000
751.07	39.550
751.38	35.889
751.69	37.184
752.01	36.466
752.32	33.935
752.63	34.397
752.94	35.246
753.26	37.600
753.57	36.179
753.88	35.156
754.19	37.143
754.51	38.889
754.82	31.047
755.13	37.358
755.44	37.970
755.75	33.942
756.07	32.270
756.38	32.847
756.69	37.919
757.00	34.731
757.31	34.718
757.63	33.626
757.94	31.099
758.25	29.657
758.56	29.877
758.87	29.301
759.18	34.545
759.50	29.154
759.81	34.268
760.12	32.188
760.43	33.811
760.74	33.152
761.05	33.898
761.36	31.818
761.67	37.784
761.99	33.851
762.30	33.681
762.61	37.023
762.92	37.891
763.23	41.176
763.54	39.600
763.85	37.891
764.16	39.231
764.47	37.262
764.78	33.216
765.10	34.177
765.41	34.808
765.72	32.635
766.03	34.483
766.34	35.000
766.65	41.702
766.96	38.034
767.27	50.254
767.58	45.312
767.89	45.263
768.20	41.954
768.51	42.640
768.82	42.202
769.13	35.772
769.44	35.628
769.75	41.631
770.06	35.780
770.37	39.819
770.68	42.130
770.99	37.333
771.30	35.656
771.61	44.395
771.92	39.754
772.23	42.857
772.54	37.436
772.85	45.026
773.16	43.617
773.47	45.652
773.78	44.162
774.09	46.429
774.39	38.596
774.70	38.272
775.01	47.826
775.32	51.634
775.63	44.079
775.94	51.079
776.25	55.118
776.56	52.985
776.87	53.279
777.18	47.656
777.48	54.198
777.79	50.000
778.10	46.667
778.41	46.429
778.72	48.175
779.03	41.611
779.34	43.624
779.65	37.838
779.95	50.307
780.26	50.980
780.57	52.414
780.88	46.875
781.19	45.113
781.50	45.946
781.80	48.428
782.11	38.418
782.42	46.835
782.73	42.945
783.04	50.000
783.34	52.113
783.65	58.219
783.96	55.224
784.27	45.455
784.57	45.324
784.88	52.778
785.19	63.492
785.50	56.604
785.81	61.194
786.11	59.836
786.42	57.364
786.73	56.637
787.04	65.094
787.34	59.821
787.65	59.000
787.96	58.559
788.26	51.240
788.57	56.780
788.88	53.719
789.19	52.083
789.49	50.000
789.80	51.145
790.11	67.619
790.41	50.495
790.72	74.699
791.03	72.826
791.33	65.116
791.64	70.103
791.95	69.307
792.25	80.000
792.56	66.234
792.87	71.795
793.17	73.418
793.48	65.517
793.79	63.218
794.09	61.364
794.40	47.059
794.70	52.206
795.01	45.926
795.32	50.360
795.62	53.543
795.93	50.862
796.23	45.133
796.54	50.588
796.85	66.216
797.15	87.324
797.46	71.212
797.76	72.289
798.07	58.228
798.37	81.538
798.68	69.697
798.99	70.423
799.29	66.234
799.60	67.045
799.90	60.274
800.21	91.045
800.51	79.310
800.82	105.263
801.12	77.049
801.43	89.394
801.73	67.568
802.04	71.429
802.34	76.543
802.65	68.750
802.95	83.051
803.26	92.188
803.56	67.143
803.87	67.692
804.17	64.706
804.48	94.444
804.78	56.897
805.09	86.765
805.39	94.231
805.70	92.857
806.00	68.852
806.30	71.212
806.61	67.073
806.91	58.228
807.22	60.526
807.52	56.716
807.83	77.465
808.13	82.813
808.43	96.667
808.74	48.684
809.04	81.159
809.35	68.657
809.65	71.053
809.95	96.774
810.26	81.356
810.56	73.016
810.86	125.000
811.17	97.619
811.47	81.667
811.77	81.481
812.08	98.182
812.38	92.000
812.69	113.889
812.99	120.455
813.29	77.551
813.59	76.190
813.90	100.000
814.20	87.273
814.50	67.692
814.81	102.941
815.11	102.041
815.41	75.410
815.72	123.810
816.02	87.273
816.32	104.762
816.62	77.500
816.93	90.244
817.23	121.429
817.53	93.182
817.84	145.455
818.14	126.087
818.44	102.222
818.74	144.118
819.04	125.000
819.35	142.857
819.65	147.059
819.95	178.571
820.25	180.000
820.56	128.205
820.86	111.364
821.16	118.605
821.46	97.436
821.76	102.000
822.07	117.143
822.37	135.000
822.67	118.182
822.97	90.196
823.27	196.429
823.57	132.432
823.88	142.500
824.18	103.333
824.48	116.667
824.78	184.000
825.08	137.500
825.38	140.541
825.69	114.634
825.99	187.500
826.29	113.793
826.59	126.316
826.89	128.947
827.19	117.647
827.49	135.484
827.79	122.727
828.09	95.455
828.39	89.362
828.70	97.959
829.00	118.519
829.30	116.129
829.60	110.000
829.90	220.000
830.20	157.143
830.50	134.783
830.80	143.478
831.10	163.333
831.40	156.667
831.70	143.478
832.00	184.615
832.30	140.741
832.60	262.500
832.90	136.667
833.20	364.286
833.50	154.839
833.80	158.621
834.10	165.625
834.40	184.615
834.70	216.667
835.00	276.190
835.30	162.857
835.60	207.692
835.90	162.069
836.20	250.000
836.50	134.483
836.80	148.000
837.10	130.556
837.40	223.810
837.70	217.647
838.00	174.074
838.30	185.714
838.60	190.476
838.90	142.308
839.19	215.000
839.49	278.571
839.79	235.000
840.09	210.000
840.39	247.619
840.69	173.913
840.99	177.778
841.29	340.000
841.59	233.333
841.88	218.750
842.18	155.172
842.48	233.333
842.78	183.333
843.08	169.565
843.38	121.875
843.68	533.333
843.97	153.846
844.27	141.379
844.57	271.429
844.87	300.000
845.17	185.185
845.47	1400.000
845.76	300.000
846.06	241.176
846.36	487.500
846.66	300.000
846.96	181.250
847.25	318.182
847.55	327.273
847.85	243.478
848.15	320.000
848.44	250.000
848.74	177.778
849.04	264.706
849.34	310.000
849.63	194.737
849.93	409.091
850.23	640.000
850.53	285.714
850.82	1700.000
851.12	-4300.000
851.42	3500.000
851.71	210.000
852.01	-933.333
852.31	195.833
852.61	1166.667
852.90	252.381
853.20	176.000
853.50	252.941
853.79	219.048
854.09	200.000
854.39	231.250
854.68	145.946
854.98	129.032
855.28	116.667
855.57	175.862
855.87	155.556
856.17	184.211
856.46	166.667
856.76	211.765
857.05	158.621
857.35	145.833
857.65	226.667
857.94	204.348
858.24	211.538
858.53	190.000
858.83	195.455
859.13	313.333
859.42	0.000
859.72	444.444
860.01	418.182
860.31	209.091
860.60	226.316
860.90	186.957
861.20	522.222
861.49	358.333
861.79	-3400.000
862.08	512.500
862.38	219.048
862.67	200.000
862.97	194.118
863.26	477.778
863.56	183.333
863.85	341.667
864.15	462.500
864.44	240.000
864.74	666.667
865.03	487.500
865.33	205.263
865.62	309.091
865.92	300.000
866.21	308.333
866.51	0.000
866.80	327.273
867.10	700.000
867.39	300.000
867.69	300.000
867.98	157.895
868.27	409.091
868.57	178.947
868.86	-2200.000
869.16	256.250
869.45	1150.000
869.75	-2500.000
870.04	408.333
870.33	571.429
870.63	725.000
870.92	1750.000
871.22	471.429
871.51	294.118
871.80	138.095
872.10	307.143
>>>>>End Processed Spectral Data<<<<<
