SpectraSuite Data File
++++++++++++++++++++++++++++++++++++
Date: Wed May 13 21:00:51 PDT 2015
User: schluterlab
Dark Spectrum Present: Yes
Reference Spectrum Present: Yes
Number of Sampled Component Spectra: 1
Spectrometers: USB2E3373
Integration Time (usec): 3000 (USB2E3373)
Spectra Averaged: 3 (USB2E3373)
Boxcar Smoothing: 0 (USB2E3373)
Correct for Electrical Dark: No (USB2E3373)
Strobe/Lamp Enabled: No (USB2E3373)
Correct for Detector Non-linearity: No (USB2E3373)
Correct for Stray Light: No (USB2E3373)
Number of Pixels in Processed Spectrum: 2048
>>>>>Begin Processed Spectral Data<<<<<
178.53	0.000
178.91	-50.000
179.29	91.667
179.67	-700.000
180.04	66.667
180.42	-40.000
180.80	600.000
181.18	100.000
181.56	-125.000
181.94	-75.000
182.31	54.545
182.69	92.308
183.07	80.000
183.45	216.667
183.83	11.111
184.20	42.857
184.58	66.667
184.96	133.333
185.34	171.429
185.72	0.000
186.09	600.000
186.47	60.000
186.85	60.000
187.23	400.000
187.61	250.000
187.98	-400.000
188.36	125.000
188.74	0.000
189.12	81.818
189.49	120.000
189.87	91.667
190.25	20.000
190.63	400.000
191.00	40.000
191.38	-40.000
191.76	50.000
192.14	83.333
192.51	0.000
192.89	166.667
193.27	225.000
193.65	-100.000
194.02	127.273
194.40	50.000
194.78	100.000
195.15	-80.000
195.53	-120.000
195.91	87.500
196.29	-33.333
196.66	0.000
197.04	250.000
197.42	100.000
197.79	130.000
198.17	-37.500
198.55	-33.333
198.92	-50.000
199.30	33.333
199.68	70.000
200.05	450.000
200.43	-0.000
200.81	-100.000
201.18	20.000
201.56	16.667
201.94	450.000
202.31	30.435
202.69	14.286
203.07	-200.000
203.44	-20.000
203.82	166.667
204.19	150.000
204.57	0.000
204.95	16.667
205.32	0.000
205.70	50.000
206.08	-75.000
206.45	33.333
206.83	-150.000
207.20	100.000
207.58	190.000
207.96	-200.000
208.33	-71.429
208.71	-900.000
209.08	75.000
209.46	175.000
209.84	0.000
210.21	30.000
210.59	500.000
210.96	220.000
211.34	-100.000
211.71	-50.000
212.09	116.667
212.46	-140.000
212.84	366.667
213.22	250.000
213.59	-100.000
213.97	450.000
214.34	-450.000
214.72	15.385
215.09	87.500
215.47	88.889
215.84	450.000
216.22	25.000
216.59	450.000
216.97	533.333
217.34	88.889
217.72	0.000
218.09	-333.333
218.47	700.000
218.84	71.429
219.22	-50.000
219.59	200.000
219.97	-25.000
220.34	50.000
220.72	60.000
221.09	0.000
221.47	116.667
221.84	1000.000
222.22	0.000
222.59	-200.000
222.97	133.333
223.34	-25.000
223.72	400.000
224.09	150.000
224.46	54.545
224.84	50.000
225.21	142.857
225.59	0.000
225.96	166.667
226.34	-40.000
226.71	-71.429
227.08	-0.000
227.46	37.500
227.83	200.000
228.21	12.500
228.58	-200.000
228.95	47.059
229.33	62.500
229.70	37.500
230.08	107.692
230.45	37.500
230.82	-41.667
231.20	100.000
231.57	-275.000
231.95	-0.000
232.32	108.333
232.69	88.235
233.07	200.000
233.44	-8.696
233.81	50.000
234.19	62.500
234.56	-6.667
234.93	26.667
235.31	47.368
235.68	69.231
236.05	30.769
236.43	83.333
236.80	42.424
237.17	46.667
237.55	70.588
237.92	37.931
238.29	55.556
238.67	61.111
239.04	77.419
239.41	29.787
239.79	76.596
240.16	39.535
240.53	30.357
240.91	75.000
241.28	60.714
241.65	56.452
242.02	44.737
242.40	57.971
242.77	55.072
243.14	47.436
243.51	55.319
243.89	50.000
244.26	58.491
244.63	44.231
245.00	60.417
245.38	48.739
245.75	52.459
246.12	45.113
246.49	51.220
246.87	39.496
247.24	57.432
247.61	44.371
247.98	47.436
248.36	46.154
248.73	44.382
249.10	41.414
249.47	45.699
249.84	47.895
250.22	44.776
250.59	42.056
250.96	50.455
251.33	46.890
251.70	45.607
252.08	48.536
252.45	53.909
252.82	48.289
253.19	48.638
253.56	43.885
253.94	51.246
254.31	47.183
254.68	48.658
255.05	46.865
255.42	52.098
255.79	46.319
256.16	51.420
256.54	48.254
256.91	45.886
257.28	48.113
257.65	48.089
258.02	48.974
258.39	48.246
258.76	45.349
259.14	47.159
259.51	52.247
259.88	47.154
260.25	46.667
260.62	47.191
260.99	50.928
261.36	49.482
261.73	45.679
262.10	47.074
262.47	46.667
262.85	47.264
263.22	48.462
263.59	49.091
263.96	49.148
264.33	48.077
264.70	45.349
265.07	50.231
265.44	48.506
265.81	46.911
266.18	48.747
266.55	45.852
266.92	46.398
267.29	48.354
267.66	48.620
268.03	47.531
268.40	47.881
268.77	47.314
269.14	47.551
269.51	50.924
269.88	45.825
270.25	52.119
270.62	46.516
270.99	47.835
271.36	47.421
271.73	48.996
272.10	46.095
272.47	48.752
272.84	48.819
273.21	46.575
273.58	50.000
273.95	47.547
274.32	45.709
274.69	47.359
275.06	45.583
275.43	45.386
275.80	47.518
276.17	49.724
276.54	44.760
276.91	43.728
277.28	46.570
277.65	46.678
278.02	45.536
278.39	43.872
278.76	46.488
279.13	45.455
279.50	46.379
279.87	45.652
280.23	46.486
280.60	46.021
280.97	44.968
281.34	46.530
281.71	41.626
282.08	44.103
282.45	46.557
282.82	45.048
283.19	46.646
283.56	44.219
283.92	45.260
284.29	43.838
284.66	45.140
285.03	41.531
285.40	44.109
285.77	47.297
286.14	44.073
286.51	47.376
286.87	44.615
287.24	42.625
287.61	45.482
287.98	42.353
288.35	42.027
288.72	42.611
289.08	43.875
289.45	41.557
289.82	42.511
290.19	41.795
290.56	40.625
290.93	41.160
291.29	38.851
291.66	40.027
292.03	40.463
292.40	39.031
292.77	40.295
293.13	39.888
293.50	38.301
293.87	40.667
294.24	38.095
294.60	39.012
294.97	37.698
295.34	36.412
295.71	37.845
296.08	36.518
296.44	36.097
296.81	34.957
297.18	37.375
297.55	36.557
297.91	36.522
298.28	36.441
298.65	35.345
299.02	37.363
299.38	36.810
299.75	36.538
300.12	33.488
300.48	33.918
300.85	34.180
301.22	35.308
301.59	34.859
301.95	34.030
302.32	33.956
302.69	33.785
303.05	33.887
303.42	34.545
303.79	35.542
304.15	33.844
304.52	34.731
304.89	33.887
305.25	33.041
305.62	34.273
305.99	33.624
306.35	33.542
306.72	32.960
307.09	33.055
307.45	32.268
307.82	32.632
308.19	32.915
308.55	33.879
308.92	33.301
309.29	31.632
309.65	30.969
310.02	32.903
310.38	32.622
310.75	31.953
311.12	31.098
311.48	32.641
311.85	32.185
312.22	33.946
312.58	31.594
312.95	32.637
313.31	31.772
313.68	31.393
314.05	33.270
314.41	33.718
314.78	34.345
315.14	32.315
315.51	33.968
315.87	32.067
316.24	34.252
316.61	34.338
316.97	32.778
317.34	32.977
317.70	33.720
318.07	33.718
318.43	33.875
318.80	33.246
319.16	34.041
319.53	34.498
319.89	34.056
320.26	35.767
320.62	35.681
320.99	34.690
321.35	35.454
321.72	36.477
322.08	36.900
322.45	36.818
322.81	34.750
323.18	35.957
323.54	37.455
323.91	38.211
324.27	40.414
324.64	38.240
325.00	38.670
325.37	40.358
325.73	40.488
326.10	38.352
326.46	39.716
326.83	40.939
327.19	39.431
327.56	40.532
327.92	39.582
328.29	42.821
328.65	43.032
329.01	42.128
329.38	43.217
329.74	42.060
330.11	42.471
330.47	41.406
330.84	43.863
331.20	43.723
331.56	44.203
331.93	43.928
332.29	44.917
332.66	43.136
333.02	46.394
333.38	45.351
333.75	43.430
334.11	44.705
334.48	44.377
334.84	44.700
335.20	45.798
335.57	44.038
335.93	44.674
336.29	44.658
336.66	44.359
337.02	46.174
337.38	44.299
337.75	45.736
338.11	44.321
338.47	45.719
338.84	43.814
339.20	45.944
339.56	45.819
339.93	44.944
340.29	45.346
340.65	44.825
341.02	47.421
341.38	46.791
341.74	44.790
342.11	46.573
342.47	45.105
342.83	45.425
343.20	45.854
343.56	45.462
343.92	45.491
344.28	46.104
344.65	45.469
345.01	46.812
345.37	47.122
345.73	47.304
346.10	45.746
346.46	46.992
346.82	47.030
347.19	46.282
347.55	46.688
347.91	47.389
348.27	47.397
348.63	47.436
349.00	47.956
349.36	46.232
349.72	47.564
350.08	47.348
350.45	46.985
350.81	47.418
351.17	47.267
351.53	48.154
351.89	45.115
352.26	47.027
352.62	47.984
352.98	47.045
353.34	47.907
353.70	46.573
354.07	46.196
354.43	46.190
354.79	47.756
355.15	48.525
355.51	46.697
355.87	48.632
356.24	49.759
356.60	46.286
356.96	47.813
357.32	48.684
357.68	48.205
358.04	47.479
358.40	47.597
358.77	48.547
359.13	48.249
359.49	46.934
359.85	47.915
360.21	48.651
360.57	48.517
360.93	48.862
361.29	48.779
361.66	48.671
362.02	48.406
362.38	47.710
362.74	47.281
363.10	49.530
363.46	49.280
363.82	46.859
364.18	48.658
364.54	48.359
364.90	48.362
365.26	48.832
365.62	48.082
365.98	48.683
366.35	49.078
366.71	49.215
367.07	48.051
367.43	48.432
367.79	48.645
368.15	49.226
368.51	47.961
368.87	48.988
369.23	49.110
369.59	50.035
369.95	49.274
370.31	47.211
370.67	48.660
371.03	50.186
371.39	48.190
371.75	48.786
372.11	48.575
372.47	50.324
372.83	49.307
373.19	48.777
373.55	49.855
373.91	48.444
374.27	49.032
374.63	48.720
374.99	47.981
375.35	49.315
375.71	49.389
376.07	49.417
376.42	49.198
376.78	49.802
377.14	50.441
377.50	48.827
377.86	49.137
378.22	47.977
378.58	49.306
378.94	49.875
379.30	49.719
379.66	49.383
380.02	49.081
380.38	48.735
380.74	50.389
381.09	49.397
381.45	49.093
381.81	49.230
382.17	48.960
382.53	48.246
382.89	48.613
383.25	49.074
383.61	49.334
383.97	49.500
384.32	48.582
384.68	48.118
385.04	47.404
385.40	48.755
385.76	49.331
386.12	48.612
386.48	48.401
386.83	48.123
387.19	48.057
387.55	48.314
387.91	49.631
388.27	47.965
388.62	48.065
388.98	48.310
389.34	48.120
389.70	47.619
390.06	48.625
390.42	48.582
390.77	47.662
391.13	48.043
391.49	48.261
391.85	48.626
392.20	48.308
392.56	49.524
392.92	48.332
393.28	47.821
393.64	47.645
393.99	47.430
394.35	47.901
394.71	48.782
395.07	47.484
395.42	48.751
395.78	47.362
396.14	48.129
396.50	48.763
396.85	48.630
397.21	47.566
397.57	47.702
397.92	47.605
398.28	47.772
398.64	47.602
399.00	47.991
399.35	46.879
399.71	47.001
400.07	46.928
400.42	48.150
400.78	46.647
401.14	47.088
401.49	47.274
401.85	47.359
402.21	47.430
402.57	47.456
402.92	47.872
403.28	48.155
403.63	46.683
403.99	48.049
404.35	48.254
404.70	46.647
405.06	47.798
405.42	46.545
405.77	47.350
406.13	46.229
406.49	46.435
406.84	47.131
407.20	47.128
407.55	47.468
407.91	45.334
408.27	45.789
408.62	46.777
408.98	45.808
409.34	47.030
409.69	47.563
410.05	45.896
410.40	44.674
410.76	44.765
411.11	46.331
411.47	46.118
411.83	45.727
412.18	45.466
412.54	46.178
412.89	45.141
413.25	44.720
413.60	46.646
413.96	44.444
414.31	45.684
414.67	45.270
415.03	45.535
415.38	44.716
415.74	46.199
416.09	46.266
416.45	45.865
416.80	46.443
417.16	45.479
417.51	46.149
417.87	45.040
418.22	45.895
418.58	45.401
418.93	46.453
419.29	46.469
419.64	45.356
420.00	46.095
420.35	44.172
420.71	45.460
421.06	45.510
421.42	45.377
421.77	45.549
422.12	45.043
422.48	44.329
422.83	44.418
423.19	44.853
423.54	45.878
423.90	44.359
424.25	46.043
424.61	44.486
424.96	44.412
425.31	43.522
425.67	44.621
426.02	45.583
426.38	44.838
426.73	44.777
427.09	43.902
427.44	44.686
427.79	44.715
428.15	45.260
428.50	45.076
428.85	44.096
429.21	43.838
429.56	44.846
429.92	45.497
430.27	44.427
430.62	44.596
430.98	44.368
431.33	44.009
431.68	44.089
432.04	43.887
432.39	42.898
432.74	44.083
433.10	44.451
433.45	43.314
433.80	43.563
434.16	44.129
434.51	44.837
434.86	44.876
435.22	44.199
435.57	44.656
435.92	44.391
436.28	44.084
436.63	43.533
436.98	43.713
437.34	44.505
437.69	44.510
438.04	44.143
438.39	44.022
438.75	43.564
439.10	45.055
439.45	44.310
439.81	43.658
440.16	44.290
440.51	43.876
440.86	42.976
441.22	44.119
441.57	43.438
441.92	43.339
442.27	43.344
442.63	43.541
442.98	43.519
443.33	43.002
443.68	43.068
444.03	43.368
444.39	43.580
444.74	43.181
445.09	42.731
445.44	44.169
445.79	43.573
446.15	44.093
446.50	42.236
446.85	43.560
447.20	44.015
447.55	43.705
447.91	42.584
448.26	44.483
448.61	43.383
448.96	43.565
449.31	43.918
449.66	42.337
450.02	43.036
450.37	43.772
450.72	43.054
451.07	42.571
451.42	41.859
451.77	44.187
452.12	42.246
452.47	44.416
452.83	41.627
453.18	43.794
453.53	41.992
453.88	43.012
454.23	42.398
454.58	42.034
454.93	41.886
455.28	41.811
455.63	41.298
455.98	42.848
456.34	41.513
456.69	42.939
457.04	40.805
457.39	42.995
457.74	42.071
458.09	41.469
458.44	42.068
458.79	41.406
459.14	42.191
459.49	43.171
459.84	40.530
460.19	41.116
460.54	41.910
460.89	41.329
461.24	41.615
461.59	42.089
461.94	42.162
462.29	41.115
462.64	40.963
462.99	40.577
463.34	41.160
463.69	42.010
464.04	39.916
464.39	42.038
464.74	40.663
465.09	39.802
465.44	40.909
465.79	41.576
466.14	40.023
466.49	41.056
466.84	40.586
467.19	40.510
467.54	42.061
467.89	41.798
468.24	39.766
468.59	38.942
468.94	39.783
469.29	39.392
469.64	41.004
469.99	40.552
470.34	39.447
470.68	40.223
471.03	39.986
471.38	38.873
471.73	39.438
472.08	40.687
472.43	42.150
472.78	39.824
473.13	38.654
473.48	40.052
473.83	39.674
474.17	39.974
474.52	39.676
474.87	39.204
475.22	39.795
475.57	38.929
475.92	39.477
476.27	39.394
476.61	38.052
476.96	39.349
477.31	38.781
477.66	39.379
478.01	38.901
478.36	39.455
478.70	38.668
479.05	40.067
479.40	39.730
479.75	38.789
480.10	38.654
480.45	38.303
480.79	38.726
481.14	39.210
481.49	40.109
481.84	38.454
482.19	38.027
482.53	38.143
482.88	38.495
483.23	37.344
483.58	37.571
483.92	37.305
484.27	37.832
484.62	37.772
484.97	38.034
485.31	37.603
485.66	37.421
486.01	37.951
486.36	37.891
486.70	37.742
487.05	37.069
487.40	36.968
487.75	36.922
488.09	36.065
488.44	35.927
488.79	37.017
489.13	36.938
489.48	36.511
489.83	36.445
490.17	36.223
490.52	37.447
490.87	36.579
491.22	36.458
491.56	37.614
491.91	37.398
492.26	37.137
492.60	36.893
492.95	36.686
493.30	35.514
493.64	36.067
493.99	36.377
494.34	36.561
494.68	36.134
495.03	36.709
495.37	36.691
495.72	36.842
496.07	37.944
496.41	37.015
496.76	36.106
497.11	36.150
497.45	36.576
497.80	37.506
498.14	37.280
498.49	35.956
498.84	36.336
499.18	35.839
499.53	35.549
499.87	35.905
500.22	36.585
500.56	35.657
500.91	35.966
501.26	35.961
501.60	35.588
501.95	34.883
502.29	35.583
502.64	36.307
502.98	35.694
503.33	35.815
503.67	36.125
504.02	35.735
504.36	35.315
504.71	35.163
505.06	36.067
505.40	36.649
505.75	35.809
506.09	35.922
506.44	35.484
506.78	36.008
507.13	35.655
507.47	34.889
507.82	33.595
508.16	36.042
508.51	35.227
508.85	34.733
509.19	35.450
509.54	35.496
509.88	34.785
510.23	34.737
510.57	34.958
510.92	35.183
511.26	36.579
511.61	35.620
511.95	34.509
512.30	34.592
512.64	34.620
512.98	34.903
513.33	34.535
513.67	34.980
514.02	35.918
514.36	34.607
514.70	34.642
515.05	34.933
515.39	34.375
515.74	34.754
516.08	34.513
516.42	33.583
516.77	34.329
517.11	35.215
517.46	34.634
517.80	34.746
518.14	34.048
518.49	33.574
518.83	33.532
519.17	34.337
519.52	35.344
519.86	35.033
520.20	33.050
520.55	34.080
520.89	34.156
521.23	35.064
521.58	33.944
521.92	33.752
522.26	32.791
522.61	34.777
522.95	33.744
523.29	33.905
523.64	33.821
523.98	34.117
524.32	33.207
524.66	33.961
525.01	34.535
525.35	34.167
525.69	33.863
526.04	33.550
526.38	33.015
526.72	34.320
527.06	33.785
527.41	32.826
527.75	32.777
528.09	34.241
528.43	34.261
528.78	32.494
529.12	34.023
529.46	32.949
529.80	33.981
530.15	32.497
530.49	34.299
530.83	33.649
531.17	33.562
531.51	32.637
531.86	32.724
532.20	33.425
532.54	33.448
532.88	32.403
533.22	32.795
533.57	33.974
533.91	34.194
534.25	33.659
534.59	32.625
534.93	32.844
535.27	33.248
535.62	32.961
535.96	33.637
536.30	33.777
536.64	32.126
536.98	33.357
537.32	32.527
537.66	32.934
538.01	31.276
538.35	32.044
538.69	32.308
539.03	33.423
539.37	31.992
539.71	32.606
540.05	31.579
540.39	32.416
540.73	32.123
541.07	32.109
541.42	32.189
541.76	32.815
542.10	32.498
542.44	32.225
542.78	32.894
543.12	32.345
543.46	32.412
543.80	31.568
544.14	32.553
544.48	31.586
544.82	32.683
545.16	32.522
545.50	32.478
545.84	31.697
546.18	31.417
546.52	31.757
546.86	31.166
547.20	31.523
547.54	32.809
547.88	32.726
548.22	31.401
548.56	31.021
548.90	31.732
549.24	31.944
549.58	31.957
549.92	31.768
550.26	33.358
550.60	31.607
550.94	31.716
551.28	30.431
551.62	31.955
551.96	32.357
552.30	31.951
552.64	30.720
552.98	32.315
553.32	31.291
553.66	31.475
554.00	30.814
554.34	31.062
554.68	31.544
555.02	31.512
555.36	32.905
555.69	30.736
556.03	29.736
556.37	30.156
556.71	30.764
557.05	30.480
557.39	30.595
557.73	31.089
558.07	31.198
558.41	30.810
558.75	31.332
559.08	30.714
559.42	31.786
559.76	31.498
560.10	32.129
560.44	31.982
560.78	30.791
561.12	31.324
561.45	30.816
561.79	31.293
562.13	31.013
562.47	31.143
562.81	31.457
563.15	30.312
563.48	29.800
563.82	30.096
564.16	30.535
564.50	30.461
564.84	30.878
565.17	31.722
565.51	30.749
565.85	30.247
566.19	30.596
566.52	30.537
566.86	30.278
567.20	30.177
567.54	29.937
567.88	29.675
568.21	30.690
568.55	30.882
568.89	29.561
569.23	30.614
569.56	30.038
569.90	29.908
570.24	29.567
570.57	30.058
570.91	30.526
571.25	30.223
571.59	29.525
571.92	30.097
572.26	29.967
572.60	29.566
572.93	29.272
573.27	29.396
573.61	29.801
573.95	29.535
574.28	29.569
574.62	29.375
574.96	30.167
575.29	29.714
575.63	29.057
575.97	29.375
576.30	29.240
576.64	29.866
576.98	29.844
577.31	29.771
577.65	28.827
577.98	29.774
578.32	29.117
578.66	29.015
578.99	29.390
579.33	28.511
579.67	29.048
580.00	28.422
580.34	28.841
580.67	29.397
581.01	29.058
581.35	29.388
581.68	29.434
582.02	30.108
582.35	29.640
582.69	29.295
583.02	28.665
583.36	28.952
583.70	29.048
584.03	28.390
584.37	28.306
584.70	28.682
585.04	28.917
585.37	28.700
585.71	28.751
586.04	28.772
586.38	28.466
586.72	28.323
587.05	29.047
587.39	28.862
587.72	28.670
588.06	29.029
588.39	28.435
588.73	28.159
589.06	28.516
589.40	28.139
589.73	28.243
590.07	28.363
590.40	28.853
590.73	29.133
591.07	28.918
591.40	28.652
591.74	27.701
592.07	28.982
592.41	28.614
592.74	29.205
593.08	28.991
593.41	29.062
593.75	28.327
594.08	28.636
594.41	28.483
594.75	28.336
595.08	29.201
595.42	28.669
595.75	28.706
596.09	27.752
596.42	27.982
596.75	28.126
597.09	28.708
597.42	28.937
597.75	28.133
598.09	27.778
598.42	29.083
598.76	28.128
599.09	29.292
599.42	28.852
599.76	28.990
600.09	28.502
600.42	27.872
600.76	27.938
601.09	28.475
601.42	28.812
601.76	27.452
602.09	27.969
602.42	28.931
602.76	27.097
603.09	29.281
603.42	28.189
603.76	27.825
604.09	27.747
604.42	27.752
604.76	28.503
605.09	28.591
605.42	28.565
605.75	27.837
606.09	27.235
606.42	28.387
606.75	27.922
607.09	27.793
607.42	28.809
607.75	27.046
608.08	28.584
608.42	27.601
608.75	28.476
609.08	28.270
609.41	28.018
609.75	28.543
610.08	27.465
610.41	28.231
610.74	27.382
611.07	27.906
611.41	28.454
611.74	27.692
612.07	27.410
612.40	28.486
612.73	27.058
613.07	27.661
613.40	27.808
613.73	27.844
614.06	28.192
614.39	27.126
614.72	28.706
615.06	27.722
615.39	27.594
615.72	27.592
616.05	28.322
616.38	27.491
616.71	26.755
617.05	28.378
617.38	27.973
617.71	27.390
618.04	27.422
618.37	28.644
618.70	26.843
619.03	26.667
619.36	27.829
619.69	27.047
620.03	27.845
620.36	27.697
620.69	25.839
621.02	27.462
621.35	27.392
621.68	26.976
622.01	27.265
622.34	27.121
622.67	27.565
623.00	27.964
623.33	27.450
623.66	27.286
623.99	27.232
624.32	26.853
624.65	27.819
624.99	27.112
625.32	28.379
625.65	26.357
625.98	27.883
626.31	28.000
626.64	26.483
626.97	27.682
627.30	26.861
627.63	27.336
627.96	26.926
628.29	26.512
628.62	27.466
628.95	27.655
629.28	26.700
629.61	26.890
629.94	27.563
630.26	27.586
630.59	25.774
630.92	26.205
631.25	26.571
631.58	28.158
631.91	26.511
632.24	27.552
632.57	25.556
632.90	26.954
633.23	26.739
633.56	27.938
633.89	27.273
634.22	29.682
634.55	26.188
634.88	26.348
635.20	28.500
635.53	23.902
635.86	26.923
636.19	27.792
636.52	27.317
636.85	25.573
637.18	25.822
637.51	27.840
637.83	25.718
638.16	24.933
638.49	26.168
638.82	26.928
639.15	26.197
639.48	27.540
639.81	26.806
640.13	27.465
640.46	29.379
640.79	26.331
641.12	26.331
641.45	26.638
641.77	27.688
642.10	27.534
642.43	28.616
642.76	25.394
643.09	26.198
643.41	27.113
643.74	28.433
644.07	25.890
644.40	25.871
644.73	25.254
645.05	25.305
645.38	25.914
645.71	27.211
646.04	25.589
646.36	26.042
646.69	23.601
647.02	26.594
647.35	26.874
647.67	26.063
648.00	25.725
648.33	26.610
648.66	26.210
648.98	26.398
649.31	26.380
649.64	27.387
649.96	25.908
650.29	25.000
650.62	25.206
650.94	24.483
651.27	24.558
651.60	25.350
651.92	27.240
652.25	27.973
652.58	27.558
652.90	26.431
653.23	24.618
653.56	25.620
653.88	22.696
654.21	25.597
654.54	25.415
654.86	25.366
655.19	27.171
655.52	28.240
655.84	29.140
656.17	35.623
656.49	46.252
656.82	43.940
657.15	31.791
657.47	22.762
657.80	16.715
658.13	17.061
658.45	24.044
658.78	23.344
659.10	22.859
659.43	23.395
659.75	23.863
660.08	23.931
660.41	22.312
660.73	23.691
661.06	22.619
661.38	23.256
661.71	25.205
662.03	24.947
662.36	25.000
662.68	24.946
663.01	28.178
663.33	26.134
663.66	21.951
663.98	24.719
664.31	27.253
664.63	23.423
664.96	25.164
665.28	27.039
665.61	25.054
665.93	26.338
666.26	28.270
666.58	22.484
666.91	27.803
667.23	25.576
667.56	27.126
667.88	25.467
668.21	26.116
668.53	24.138
668.86	28.777
669.18	21.513
669.50	25.806
669.83	26.014
670.15	26.667
670.48	22.759
670.80	28.446
671.13	26.773
671.45	26.027
671.77	26.940
672.10	25.536
672.42	24.427
672.75	26.786
673.07	25.455
673.39	26.679
673.72	26.347
674.04	25.205
674.37	26.016
674.69	24.486
675.01	25.855
675.34	27.352
675.66	25.708
675.98	21.460
676.31	24.661
676.63	26.984
676.95	25.176
677.28	22.477
677.60	27.451
677.92	25.277
678.25	29.284
678.57	26.069
678.89	23.881
679.22	26.501
679.54	28.163
679.86	26.562
680.18	24.231
680.51	23.846
680.83	21.442
681.15	26.130
681.48	25.651
681.80	24.744
682.12	26.042
682.44	22.535
682.77	21.684
683.09	22.768
683.41	25.116
683.73	25.223
684.06	25.000
684.38	26.496
684.70	24.236
685.02	26.653
685.34	27.006
685.67	25.328
685.99	26.512
686.31	26.724
686.63	26.654
686.96	26.716
687.28	25.349
687.60	28.355
687.92	25.486
688.24	25.400
688.56	26.754
688.89	24.499
689.21	23.991
689.53	24.099
689.85	25.843
690.17	23.956
690.49	27.053
690.82	24.344
691.14	26.570
691.46	24.362
691.78	24.615
692.10	25.902
692.42	24.615
692.74	26.087
693.06	24.719
693.39	24.122
693.71	24.444
694.03	27.727
694.35	26.802
694.67	27.250
694.99	27.835
695.31	23.256
695.63	23.902
695.95	24.173
696.27	25.753
696.59	25.000
696.91	21.788
697.23	25.888
697.56	25.420
697.88	25.572
698.20	26.350
698.52	22.664
698.84	25.837
699.16	26.005
699.48	23.210
699.80	26.357
700.12	28.150
700.44	27.887
700.76	24.719
701.08	24.773
701.40	24.850
701.72	28.923
702.04	25.472
702.36	22.256
702.68	25.305
703.00	29.532
703.32	23.398
703.64	23.193
703.96	28.152
704.28	25.602
704.60	25.610
704.91	22.884
705.23	24.367
705.55	24.828
705.87	27.113
706.19	22.344
706.51	22.887
706.83	24.522
707.15	28.963
707.47	25.895
707.79	25.888
708.11	26.221
708.43	25.888
708.74	25.532
709.06	23.797
709.38	25.072
709.70	22.823
710.02	28.037
710.34	21.667
710.66	25.081
710.98	26.316
711.29	25.974
711.61	23.548
711.93	23.548
712.25	18.531
712.57	21.053
712.89	28.571
713.20	28.369
713.52	24.453
713.84	26.129
714.16	23.625
714.48	25.000
714.80	25.879
715.11	27.616
715.43	24.534
715.75	26.087
716.07	23.193
716.39	27.609
716.70	29.137
717.02	20.784
717.34	28.409
717.66	23.276
717.97	23.413
718.29	22.835
718.61	28.326
718.93	20.930
719.24	27.675
719.56	28.464
719.88	27.985
720.20	27.273
720.51	25.000
720.83	24.514
721.15	20.732
721.46	23.664
721.78	24.303
722.10	19.920
722.42	22.581
722.73	26.255
723.05	24.082
723.37	24.370
723.68	19.600
724.00	22.979
724.32	26.360
724.63	27.160
724.95	19.658
725.27	24.895
725.58	24.691
725.90	20.084
726.22	28.261
726.53	21.176
726.85	31.387
727.16	22.963
727.48	26.820
727.80	25.391
728.11	26.230
728.43	26.172
728.74	23.810
729.06	22.400
729.38	26.482
729.69	27.046
730.01	23.420
730.32	27.675
730.64	21.591
730.96	27.273
731.27	26.756
731.59	28.254
731.90	23.625
732.22	24.038
732.53	26.014
732.85	21.812
733.16	24.752
733.48	26.351
733.80	26.351
734.11	28.716
734.43	23.529
734.74	28.829
735.06	22.767
735.37	26.444
735.69	22.977
736.00	25.083
736.32	31.560
736.63	26.552
736.95	29.110
737.26	20.690
737.58	26.736
737.89	22.680
738.21	22.064
738.52	21.673
738.83	26.531
739.15	24.473
739.46	19.844
739.78	18.662
740.09	26.027
740.41	22.500
740.72	21.277
741.04	24.000
741.35	22.368
741.66	28.444
741.98	28.846
742.29	30.693
742.61	30.244
742.92	25.439
743.23	26.415
743.55	26.126
743.86	26.457
744.18	24.020
744.49	26.904
744.80	29.592
745.12	25.701
745.43	26.066
745.74	26.126
746.06	20.561
746.37	21.101
746.68	27.404
747.00	30.144
747.31	22.115
747.62	26.147
747.94	28.384
748.25	27.064
748.56	28.444
748.88	24.413
749.19	27.143
749.50	25.728
749.82	23.944
750.13	22.917
750.44	25.000
750.75	23.985
751.07	29.893
751.38	24.823
751.69	24.710
752.01	22.266
752.32	24.615
752.63	26.119
752.94	28.400
753.26	23.013
753.57	27.083
753.88	25.506
754.19	21.116
754.51	25.940
754.82	24.176
755.13	23.478
755.44	23.984
755.75	22.000
756.07	27.675
756.38	28.058
756.69	26.962
757.00	23.364
757.31	25.890
757.63	22.222
757.94	26.554
758.25	25.132
758.56	25.543
758.87	29.167
759.18	23.659
759.50	23.906
759.81	29.097
760.12	26.462
760.43	26.190
760.74	28.249
761.05	23.204
761.36	23.496
761.67	25.076
761.99	21.993
762.30	24.453
762.61	25.514
762.92	27.778
763.23	27.869
763.54	31.602
763.85	27.755
764.16	26.016
764.47	21.600
764.78	26.071
765.10	25.574
765.41	24.012
765.72	30.435
766.03	24.092
766.34	30.000
766.65	25.105
766.96	24.413
767.27	27.723
767.58	20.225
767.89	37.037
768.20	19.890
768.51	29.648
768.82	27.404
769.13	29.646
769.44	23.849
769.75	22.222
770.06	22.870
770.37	22.549
770.68	26.699
770.99	24.272
771.30	26.471
771.61	24.898
771.92	28.631
772.23	25.676
772.54	23.204
772.85	24.419
773.16	23.280
773.47	20.710
773.78	23.563
774.09	17.500
774.39	24.224
774.70	25.170
775.01	20.000
775.32	31.429
775.63	15.038
775.94	23.308
776.25	20.000
776.56	26.446
776.87	26.190
777.18	21.622
777.48	21.622
777.79	28.346
778.10	20.183
778.41	21.930
778.72	17.647
779.03	27.465
779.34	31.757
779.65	17.606
779.95	27.815
780.26	21.583
780.57	30.216
780.88	26.056
781.19	15.966
781.50	30.872
781.80	29.825
782.11	23.256
782.42	28.302
782.73	24.183
783.04	26.207
783.34	25.954
783.65	21.477
783.96	25.385
784.27	28.571
784.57	21.277
784.88	23.077
785.19	29.091
785.50	27.273
785.81	20.952
786.11	31.092
786.42	21.239
786.73	20.755
787.04	18.349
787.34	14.851
787.65	25.833
787.96	24.793
788.26	26.087
788.57	19.841
788.88	25.203
789.19	24.000
789.49	22.137
789.80	30.303
790.11	8.491
790.41	23.762
790.72	24.468
791.03	27.174
791.33	12.941
791.64	27.160
791.95	27.174
792.25	32.955
792.56	35.897
792.87	12.821
793.17	6.410
793.48	9.524
793.79	10.000
794.09	29.808
794.40	34.375
794.70	21.622
795.01	17.969
795.32	33.043
795.62	21.739
795.93	25.472
796.23	21.212
796.54	17.073
796.85	32.143
797.15	21.212
797.46	24.638
797.76	18.421
798.07	28.409
798.37	9.756
798.68	20.968
798.99	22.973
799.29	37.349
799.60	26.923
799.90	35.385
800.21	15.152
800.51	34.667
800.82	41.333
801.12	-4.167
801.43	16.667
801.73	21.622
802.04	35.714
802.34	13.115
802.65	20.896
802.95	23.636
803.26	17.241
803.56	16.923
803.87	47.170
804.17	33.871
804.48	26.471
804.78	-19.512
805.09	34.783
805.39	32.353
805.70	2.128
806.00	36.842
806.30	20.513
806.61	22.368
806.91	35.135
807.22	23.684
807.52	36.364
807.83	20.339
808.13	0.000
808.43	16.667
808.74	-5.172
809.04	25.397
809.35	6.122
809.65	23.333
809.95	18.367
810.26	29.577
810.56	29.167
810.86	0.000
811.17	34.615
811.47	29.787
811.77	25.000
812.08	37.736
812.38	3.125
812.69	16.364
812.99	31.707
813.29	35.135
813.59	-2.703
813.90	21.818
814.20	21.818
814.50	11.667
814.81	23.636
815.11	24.561
815.41	62.791
815.72	32.500
816.02	20.000
816.32	27.027
816.62	14.583
816.93	17.778
817.23	-4.444
817.53	8.333
817.84	5.405
818.14	34.146
818.44	26.000
818.74	8.163
819.04	24.390
819.35	16.667
819.65	18.182
819.95	38.889
820.25	33.333
820.56	21.429
820.86	16.667
821.16	15.909
821.46	10.870
821.76	34.483
822.07	19.565
822.37	30.303
822.67	60.976
822.97	32.432
823.27	22.857
823.57	58.621
823.88	41.176
824.18	25.000
824.48	8.571
824.78	33.333
825.08	10.714
825.38	33.333
825.69	32.258
825.99	26.829
826.29	14.815
826.59	6.250
826.89	9.677
827.19	-8.696
827.49	-30.556
827.79	39.130
828.09	38.710
828.39	16.667
828.70	31.250
829.00	44.828
829.30	24.324
829.60	-33.333
829.90	37.037
830.20	0.000
830.50	59.091
830.80	-11.765
831.10	4.545
831.40	14.706
831.70	15.385
832.00	3.030
832.30	14.706
832.60	35.135
832.90	700.000
833.20	50.000
833.50	40.000
833.80	10.526
834.10	-4.167
834.40	9.091
834.70	-40.000
835.00	10.000
835.30	29.167
835.60	-47.619
835.90	66.667
836.20	8.000
836.50	-4.167
836.80	-5.263
837.10	59.459
837.40	16.667
837.70	47.826
838.00	33.333
838.30	10.526
838.60	-30.000
838.90	-110.000
839.19	-41.667
839.49	-15.385
839.79	21.053
840.09	-183.333
840.39	20.000
840.69	-4.545
840.99	14.286
841.29	12.500
841.59	15.385
841.88	33.333
842.18	57.143
842.48	26.667
842.78	-85.714
843.08	-21.429
843.38	-12.500
843.68	-18.750
843.97	142.857
844.27	-100.000
844.57	-54.545
844.87	-46.667
845.17	18.182
845.47	566.667
845.76	-13.333
846.06	-8.333
846.36	-250.000
846.66	-15.789
846.96	13.636
847.25	-33.333
847.55	111.111
847.85	-14.286
848.15	23.077
848.44	-166.667
848.74	-8.333
849.04	-7.692
849.34	-475.000
849.63	-27.273
849.93	21.429
850.23	20.000
850.53	-87.500
850.82	44.444
851.12	26.667
851.42	-35.294
851.71	12.500
852.01	70.588
852.31	76.923
852.61	450.000
852.90	64.706
853.20	33.333
853.50	50.000
853.79	-14.286
854.09	-100.000
854.39	-65.000
854.68	25.000
854.98	4.762
855.28	52.000
855.57	33.333
855.87	25.000
856.17	32.000
856.46	12.500
856.76	55.000
857.05	52.000
857.35	-8.333
857.65	70.588
857.94	-33.333
858.24	33.333
858.53	-20.000
858.83	-45.455
859.13	52.000
859.42	42.857
859.72	12.500
860.01	25.000
860.31	-125.000
860.60	-12.500
860.90	-100.000
861.20	150.000
861.49	66.667
861.79	-6.250
862.08	200.000
862.38	-91.667
862.67	100.000
862.97	375.000
863.26	-27.273
863.56	-9.091
863.85	68.421
864.15	70.588
864.44	-60.000
864.74	-30.000
865.03	11.111
865.33	7.143
865.62	64.286
865.92	26.316
866.21	0.000
866.51	54.545
866.80	-44.444
867.10	-25.000
867.39	-18.750
867.69	0.000
867.98	20.000
868.27	41.176
868.57	0.000
868.86	-150.000
869.16	125.000
869.45	-128.571
869.75	400.000
870.04	20.000
870.33	-1300.000
870.63	-5.263
870.92	-58.333
871.22	-100.000
871.51	42.857
871.80	-100.000
872.10	-200.000
>>>>>End Processed Spectral Data<<<<<
