SpectraSuite Data File
++++++++++++++++++++++++++++++++++++
Date: Wed May 13 20:22:58 PDT 2015
User: schluterlab
Dark Spectrum Present: Yes
Reference Spectrum Present: Yes
Number of Sampled Component Spectra: 1
Spectrometers: USB2E3373
Integration Time (usec): 3000 (USB2E3373)
Spectra Averaged: 3 (USB2E3373)
Boxcar Smoothing: 0 (USB2E3373)
Correct for Electrical Dark: No (USB2E3373)
Strobe/Lamp Enabled: No (USB2E3373)
Correct for Detector Non-linearity: No (USB2E3373)
Correct for Stray Light: No (USB2E3373)
Number of Pixels in Processed Spectrum: 2048
>>>>>Begin Processed Spectral Data<<<<<
178.53	0.000
178.91	-1300.000
179.29	-1175.000
179.67	-250.000
180.04	-1475.000
180.42	2650.000
180.80	1140.000
181.18	-1125.000
181.56	771.429
181.94	0.000
182.31	-700.000
182.69	1933.333
183.07	-612.500
183.45	-466.667
183.83	481.818
184.20	-460.000
184.58	2000.000
184.96	5400.000
185.34	-760.000
185.72	-725.000
186.09	-2150.000
186.47	2550.000
186.85	2650.000
187.23	4400.000
187.61	-1700.000
187.98	1450.000
188.36	509.091
188.74	518.182
189.12	-800.000
189.49	540.000
189.87	-4200.000
190.25	-1225.000
190.63	471.429
191.00	330.769
191.38	850.000
191.76	-1000.000
192.14	1300.000
192.51	812.500
192.89	1050.000
193.27	612.500
193.65	-1175.000
194.02	450.000
194.40	780.000
194.78	460.000
195.15	458.333
195.53	580.000
195.91	-2300.000
196.29	356.250
196.66	347.368
197.04	-330.000
197.42	0.000
197.79	580.000
198.17	-3700.000
198.55	714.286
198.92	625.000
199.30	740.000
199.68	0.000
200.05	316.667
200.43	714.286
200.81	4800.000
201.18	1900.000
201.56	-1466.667
201.94	533.333
202.31	511.111
202.69	441.667
203.07	520.000
203.44	0.000
203.82	1000.000
204.19	914.286
204.57	421.429
204.95	587.500
205.32	1666.667
205.70	563.636
206.08	378.571
206.45	2400.000
206.83	368.750
207.20	916.667
207.58	760.000
207.96	283.333
208.33	675.000
208.71	-633.333
209.08	714.286
209.46	555.556
209.84	481.818
210.21	-1466.667
210.59	1250.000
210.96	-387.500
211.34	2250.000
211.71	520.000
212.09	833.333
212.46	0.000
212.84	1866.667
213.22	1450.000
213.59	-4300.000
213.97	833.333
214.34	714.286
214.72	481.818
215.09	960.000
215.47	-2450.000
215.84	-2450.000
216.22	1700.000
216.59	414.286
216.97	1375.000
217.34	463.636
217.72	-683.333
218.09	0.000
218.47	-4200.000
218.84	622.222
219.22	700.000
219.59	1800.000
219.97	-600.000
220.34	940.000
220.72	-1733.333
221.09	407.143
221.47	1300.000
221.84	-833.333
222.22	0.000
222.59	1100.000
222.97	-2400.000
223.34	1180.000
223.72	500.000
224.09	1000.000
224.46	2400.000
224.84	-4800.000
225.21	-1000.000
225.59	-5400.000
225.96	560.000
226.34	265.000
226.71	2700.000
227.08	550.000
227.46	520.000
227.83	-1025.000
228.21	-2200.000
228.58	622.222
228.95	-2300.000
229.33	-2300.000
229.70	1533.333
230.08	728.571
230.45	-820.000
230.82	400.000
231.20	966.667
231.57	714.286
231.95	450.000
232.32	254.545
232.69	472.727
233.07	542.857
233.44	415.385
233.81	-1733.333
234.19	268.421
234.56	558.333
234.93	350.000
235.31	381.818
235.68	376.923
236.05	321.429
236.43	172.727
236.80	268.421
237.17	4400.000
237.55	223.810
237.92	200.000
238.29	257.143
238.67	209.677
239.04	206.897
239.41	125.000
239.79	108.696
240.16	133.333
240.53	131.818
240.91	115.686
241.28	106.000
241.65	106.000
242.02	94.203
242.40	75.806
242.77	86.667
243.14	65.591
243.51	83.146
243.89	69.412
244.26	65.556
244.63	58.065
245.00	53.191
245.38	56.436
245.75	57.009
246.12	45.872
246.49	54.745
246.87	56.000
247.24	50.000
247.61	47.857
247.98	41.830
248.36	41.892
248.73	42.038
249.10	35.032
249.47	42.373
249.84	42.246
250.22	35.294
250.59	36.686
250.96	38.889
251.33	36.967
251.70	41.089
252.08	33.333
252.45	30.493
252.82	31.739
253.19	33.617
253.56	34.510
253.94	31.535
254.31	32.422
254.68	31.538
255.05	30.996
255.42	28.455
255.79	28.676
256.16	26.715
256.54	26.148
256.91	28.470
257.28	29.137
257.65	28.053
258.02	30.124
258.39	27.760
258.76	28.763
259.14	24.107
259.51	28.267
259.88	24.224
260.25	27.492
260.62	28.902
260.99	25.155
261.36	26.727
261.73	27.221
262.10	26.453
262.47	26.761
262.85	25.070
263.22	24.217
263.59	29.630
263.96	24.176
264.33	23.760
264.70	27.632
265.07	24.552
265.44	23.990
265.81	22.871
266.18	26.382
266.55	23.415
266.92	21.130
267.29	24.074
267.66	20.642
268.03	21.818
268.40	24.533
268.77	21.957
269.14	24.324
269.51	22.799
269.88	23.310
270.25	22.573
270.62	21.798
270.99	24.086
271.36	22.318
271.73	21.963
272.10	21.304
272.47	21.935
272.84	22.511
273.21	22.851
273.58	20.306
273.95	19.916
274.32	20.248
274.69	22.270
275.06	20.079
275.43	21.702
275.80	21.643
276.17	22.200
276.54	20.374
276.91	19.763
277.28	17.773
277.65	23.598
278.02	20.911
278.39	22.070
278.76	20.182
279.13	21.509
279.50	20.298
279.87	18.725
280.23	19.960
280.60	21.083
280.97	19.409
281.34	21.947
281.71	22.909
282.08	22.841
282.45	19.091
282.82	20.071
283.19	18.360
283.56	21.053
283.92	19.966
284.29	17.637
284.66	19.419
285.03	19.349
285.40	17.958
285.77	19.529
286.14	19.344
286.51	18.000
286.87	17.607
287.24	17.915
287.61	16.693
287.98	19.481
288.35	16.482
288.72	19.782
289.08	17.371
289.45	17.792
289.82	17.561
290.19	15.385
290.56	15.926
290.93	15.710
291.29	18.712
291.66	17.552
292.03	19.767
292.40	18.649
292.77	16.124
293.13	17.313
293.50	15.598
293.87	14.519
294.24	17.037
294.60	13.974
294.97	16.424
295.34	16.361
295.71	14.631
296.08	14.815
296.44	14.718
296.81	14.135
297.18	15.989
297.55	12.401
297.91	13.852
298.28	14.859
298.65	14.883
299.02	14.756
299.38	13.944
299.75	12.399
300.12	14.432
300.48	15.375
300.85	14.057
301.22	14.268
301.59	12.753
301.95	13.602
302.32	14.121
302.69	13.859
303.05	13.697
303.42	13.457
303.79	12.797
304.15	12.005
304.52	14.021
304.89	11.847
305.25	12.413
305.62	14.043
305.99	13.695
306.35	12.416
306.72	13.901
307.09	13.762
307.45	13.063
307.82	13.393
308.19	12.583
308.55	13.592
308.92	13.104
309.29	11.193
309.65	12.089
310.02	12.262
310.38	12.903
310.75	12.883
311.12	12.590
311.48	13.375
311.85	12.998
312.22	12.487
312.58	12.162
312.95	13.094
313.31	11.650
313.68	11.642
314.05	13.807
314.41	12.563
314.78	12.588
315.14	11.519
315.51	11.535
315.87	13.267
316.24	10.725
316.61	11.209
316.97	10.470
317.34	10.763
317.70	11.568
318.07	12.223
318.43	12.427
318.80	12.652
319.16	11.770
319.53	13.039
319.89	11.810
320.26	11.700
320.62	11.409
320.99	12.828
321.35	11.515
321.72	12.218
322.08	11.451
322.45	13.234
322.81	12.112
323.18	12.235
323.54	12.245
323.91	12.453
324.27	12.141
324.64	10.997
325.00	10.640
325.37	12.284
325.73	13.196
326.10	12.004
326.46	11.470
326.83	12.856
327.19	12.383
327.56	12.108
327.92	11.286
328.29	11.979
328.65	12.247
329.01	11.733
329.38	11.933
329.74	12.281
330.11	10.933
330.47	11.846
330.84	13.695
331.20	12.113
331.56	12.752
331.93	12.130
332.29	12.422
332.66	13.097
333.02	13.346
333.38	12.827
333.75	13.725
334.11	12.100
334.48	11.269
334.84	12.500
335.20	11.909
335.57	10.698
335.93	11.607
336.29	11.905
336.66	11.903
337.02	10.407
337.38	12.870
337.75	11.141
338.11	11.817
338.47	11.510
338.84	11.457
339.20	11.376
339.56	13.412
339.93	10.182
340.29	11.594
340.65	11.052
341.02	11.955
341.38	12.278
341.74	10.614
342.11	11.616
342.47	11.013
342.83	11.045
343.20	11.515
343.56	10.783
343.92	10.877
344.28	12.330
344.65	12.468
345.01	12.542
345.37	10.206
345.73	12.352
346.10	11.594
346.46	11.610
346.82	10.791
347.19	12.114
347.55	10.509
347.91	11.246
348.27	12.079
348.63	11.873
349.00	10.680
349.36	10.345
349.72	11.227
350.08	11.264
350.45	11.229
350.81	11.048
351.17	11.264
351.53	10.238
351.89	10.479
352.26	12.076
352.62	11.628
352.98	10.616
353.34	10.929
353.70	10.638
354.07	12.339
354.43	10.714
354.79	10.298
355.15	10.136
355.51	11.351
355.87	9.959
356.24	10.423
356.60	10.265
356.96	9.735
357.32	10.711
357.68	11.654
358.04	11.243
358.40	11.164
358.77	11.189
359.13	9.787
359.49	10.980
359.85	8.810
360.21	10.048
360.57	10.584
360.93	11.077
361.29	10.582
361.66	9.211
362.02	10.821
362.38	11.331
362.74	10.714
363.10	10.141
363.46	10.125
363.82	9.448
364.18	10.352
364.54	10.550
364.90	10.907
365.26	10.000
365.62	10.665
365.98	9.058
366.35	8.954
366.71	10.195
367.07	10.415
367.43	9.724
367.79	10.707
368.15	11.710
368.51	9.666
368.87	10.992
369.23	10.680
369.59	10.427
369.95	11.103
370.31	10.043
370.67	10.507
371.03	10.936
371.39	10.058
371.75	10.221
372.11	9.531
372.47	11.144
372.83	10.303
373.19	9.465
373.55	10.791
373.91	10.383
374.27	9.966
374.63	9.091
374.99	10.381
375.35	8.932
375.71	9.596
376.07	10.905
376.42	10.041
376.78	10.338
377.14	9.837
377.50	10.265
377.86	9.242
378.22	9.798
378.58	8.145
378.94	10.182
379.30	9.288
379.66	9.645
380.02	9.951
380.38	8.743
380.74	9.484
381.09	10.330
381.45	9.896
381.81	9.644
382.17	10.064
382.53	8.994
382.89	9.691
383.25	9.631
383.61	9.480
383.97	9.318
384.32	9.482
384.68	8.922
385.04	9.896
385.40	9.412
385.76	9.644
386.12	9.067
386.48	9.629
386.83	9.750
387.19	9.709
387.55	9.709
387.91	8.102
388.27	8.829
388.62	10.141
388.98	8.722
389.34	9.762
389.70	9.933
390.06	9.823
390.42	9.792
390.77	9.351
391.13	8.615
391.49	9.645
391.85	8.912
392.20	8.391
392.56	9.028
392.92	9.300
393.28	8.225
393.64	10.012
393.99	10.446
394.35	9.491
394.71	9.849
395.07	8.287
395.42	9.085
395.78	9.606
396.14	9.187
396.50	10.025
396.85	10.108
397.21	9.618
397.57	9.051
397.92	8.594
398.28	8.184
398.64	10.633
399.00	9.121
399.35	8.968
399.71	8.681
400.07	9.698
400.42	9.571
400.78	9.168
401.14	9.207
401.49	9.672
401.85	9.135
402.21	8.683
402.57	9.192
402.92	9.332
403.28	9.931
403.63	8.973
403.99	8.854
404.35	10.121
404.70	8.873
405.06	9.260
405.42	9.857
405.77	8.857
406.13	9.424
406.49	9.344
406.84	9.923
407.20	8.038
407.55	9.636
407.91	9.600
408.27	9.126
408.62	9.392
408.98	8.762
409.34	8.549
409.69	8.839
410.05	9.294
410.40	9.541
410.76	9.438
411.11	10.253
411.47	9.393
411.83	9.163
412.18	9.586
412.54	9.215
412.89	9.699
413.25	8.914
413.60	9.389
413.96	9.168
414.31	9.295
414.67	9.632
415.03	9.272
415.38	9.536
415.74	9.518
416.09	10.124
416.45	9.304
416.80	8.592
417.16	9.316
417.51	9.555
417.87	8.927
418.22	9.779
418.58	9.748
418.93	9.767
419.29	9.166
419.64	9.698
420.00	9.695
420.35	9.681
420.71	9.803
421.06	9.010
421.42	9.532
421.77	9.585
422.12	9.096
422.48	8.527
422.83	9.027
423.19	9.448
423.54	9.286
423.90	9.797
424.25	8.822
424.61	9.107
424.96	9.271
425.31	9.690
425.67	9.270
426.02	9.143
426.38	9.768
426.73	9.128
427.09	8.693
427.44	8.971
427.79	8.051
428.15	9.940
428.50	9.538
428.85	10.012
429.21	8.504
429.56	8.761
429.92	9.260
430.27	8.540
430.62	8.346
430.98	9.237
431.33	9.175
431.68	9.005
432.04	8.573
432.39	9.023
432.74	9.216
433.10	9.960
433.45	9.096
433.80	9.202
434.16	8.868
434.51	9.737
434.86	9.350
435.22	8.894
435.57	9.909
435.92	9.713
436.28	9.431
436.63	9.327
436.98	9.616
437.34	10.197
437.69	9.218
438.04	9.331
438.39	9.910
438.75	9.646
439.10	9.553
439.45	9.917
439.81	9.305
440.16	8.639
440.51	9.432
440.86	9.380
441.22	8.843
441.57	9.448
441.92	8.444
442.27	8.934
442.63	9.057
442.98	9.746
443.33	9.620
443.68	8.983
444.03	8.882
444.39	8.569
444.74	9.253
445.09	9.704
445.44	9.349
445.79	9.005
446.15	9.158
446.50	9.155
446.85	9.301
447.20	8.771
447.55	9.436
447.91	9.377
448.26	8.403
448.61	8.762
448.96	10.188
449.31	9.561
449.66	9.961
450.02	8.914
450.37	9.014
450.72	9.363
451.07	8.288
451.42	9.544
451.77	9.513
452.12	9.469
452.47	9.888
452.83	9.266
453.18	9.841
453.53	10.266
453.88	9.155
454.23	9.743
454.58	9.752
454.93	10.108
455.28	9.352
455.63	9.891
455.98	9.286
456.34	9.359
456.69	9.580
457.04	9.845
457.39	9.176
457.74	9.576
458.09	10.121
458.44	9.236
458.79	8.894
459.14	10.045
459.49	9.982
459.84	9.474
460.19	9.193
460.54	8.970
460.89	9.490
461.24	9.168
461.59	10.691
461.94	9.371
462.29	10.979
462.64	10.211
462.99	9.434
463.34	10.867
463.69	9.318
464.04	10.725
464.39	9.913
464.74	9.863
465.09	9.349
465.44	9.584
465.79	8.781
466.14	9.579
466.49	9.399
466.84	9.982
467.19	10.078
467.54	10.375
467.89	9.424
468.24	10.122
468.59	10.989
468.94	9.530
469.29	10.219
469.64	10.308
469.99	10.149
470.34	9.643
470.68	10.560
471.03	9.388
471.38	10.354
471.73	11.059
472.08	10.461
472.43	9.862
472.78	10.007
473.13	10.719
473.48	10.487
473.83	10.122
474.17	9.521
474.52	10.360
474.87	9.749
475.22	9.925
475.57	9.887
475.92	9.028
476.27	9.301
476.61	9.377
476.96	9.566
477.31	9.628
477.66	9.409
478.01	9.984
478.36	9.889
478.70	8.515
479.05	9.798
479.40	9.161
479.75	9.304
480.10	9.195
480.45	9.472
480.79	8.552
481.14	9.589
481.49	9.492
481.84	9.282
482.19	8.769
482.53	9.541
482.88	9.865
483.23	9.159
483.58	9.600
483.92	9.419
484.27	8.889
484.62	8.922
484.97	8.632
485.31	8.356
485.66	7.375
486.01	7.369
486.36	6.977
486.70	7.485
487.05	7.939
487.40	8.223
487.75	8.187
488.09	8.826
488.44	8.572
488.79	8.752
489.13	9.206
489.48	8.809
489.83	8.675
490.17	9.513
490.52	9.655
490.87	8.729
491.22	9.550
491.56	8.838
491.91	9.632
492.26	8.911
492.60	9.032
492.95	9.167
493.30	9.346
493.64	8.959
493.99	9.192
494.34	9.713
494.68	9.478
495.03	9.305
495.37	9.446
495.72	9.600
496.07	9.327
496.41	8.894
496.76	9.411
497.11	9.230
497.45	9.455
497.80	9.501
498.14	9.807
498.49	9.463
498.84	9.827
499.18	9.524
499.53	9.449
499.87	8.900
500.22	9.515
500.56	9.660
500.91	9.087
501.26	9.531
501.60	9.207
501.95	9.533
502.29	10.028
502.64	9.358
502.98	9.210
503.33	9.461
503.67	8.863
504.02	9.214
504.36	9.546
504.71	9.819
505.06	9.928
505.40	9.431
505.75	9.161
506.09	9.815
506.44	9.176
506.78	10.132
507.13	9.692
507.47	9.949
507.82	11.044
508.16	9.574
508.51	9.691
508.85	9.434
509.19	9.898
509.54	9.439
509.88	9.531
510.23	9.614
510.57	10.165
510.92	10.202
511.26	9.866
511.61	10.477
511.95	8.873
512.30	9.226
512.64	9.887
512.98	10.182
513.33	10.332
513.67	9.872
514.02	9.903
514.36	10.595
514.70	9.740
515.05	9.593
515.39	10.488
515.74	10.417
516.08	10.565
516.42	10.100
516.77	10.479
517.11	10.488
517.46	11.005
517.80	10.337
518.14	9.670
518.49	11.085
518.83	10.625
519.17	10.681
519.52	10.187
519.86	11.010
520.20	10.694
520.55	11.370
520.89	11.740
521.23	11.399
521.58	10.384
521.92	11.329
522.26	10.921
522.61	11.215
522.95	11.172
523.29	11.016
523.64	10.549
523.98	11.399
524.32	11.279
524.66	10.764
525.01	11.336
525.35	10.719
525.69	11.022
526.04	10.467
526.38	11.592
526.72	11.227
527.06	10.923
527.41	9.963
527.75	10.868
528.09	11.432
528.43	11.026
528.78	11.371
529.12	10.970
529.46	11.880
529.80	10.891
530.15	11.713
530.49	11.323
530.83	11.772
531.17	11.554
531.51	12.516
531.86	11.355
532.20	11.864
532.54	13.133
532.88	12.195
533.22	10.806
533.57	11.420
533.91	11.017
534.25	11.968
534.59	11.592
534.93	11.719
535.27	10.863
535.62	11.355
535.96	11.739
536.30	11.062
536.64	12.170
536.98	12.342
537.32	12.113
537.66	11.067
538.01	12.574
538.35	11.054
538.69	11.678
539.03	11.761
539.37	10.799
539.71	10.693
540.05	11.569
540.39	11.628
540.73	11.384
541.07	12.070
541.42	11.872
541.76	12.258
542.10	11.902
542.44	10.596
542.78	12.121
543.12	11.452
543.46	12.590
543.80	11.386
544.14	11.104
544.48	11.556
544.82	11.867
545.16	11.971
545.50	11.375
545.84	11.492
546.18	11.919
546.52	12.113
546.86	10.928
547.20	12.340
547.54	12.024
547.88	12.755
548.22	11.582
548.56	11.447
548.90	11.460
549.24	10.909
549.58	11.596
549.92	12.500
550.26	12.997
550.60	12.172
550.94	12.042
551.28	11.924
551.62	12.006
551.96	12.281
552.30	12.491
552.64	12.711
552.98	12.814
553.32	12.138
553.66	13.088
554.00	11.942
554.34	12.836
554.68	12.446
555.02	12.130
555.36	12.109
555.69	12.111
556.03	11.777
556.37	11.664
556.71	12.551
557.05	12.675
557.39	12.596
557.73	12.209
558.07	12.908
558.41	12.880
558.75	11.903
559.08	12.304
559.42	12.623
559.76	13.015
560.10	12.206
560.44	12.788
560.78	12.109
561.12	11.675
561.45	13.233
561.79	11.536
562.13	11.938
562.47	12.568
562.81	12.204
563.15	12.308
563.48	12.732
563.82	11.742
564.16	11.838
564.50	10.872
564.84	10.430
565.17	12.227
565.51	12.268
565.85	12.183
566.19	11.209
566.52	12.666
566.86	11.573
567.20	12.618
567.54	11.473
567.88	10.538
568.21	11.270
568.55	10.465
568.89	10.992
569.23	10.829
569.56	10.000
569.90	10.151
570.24	9.975
570.57	10.133
570.91	9.955
571.25	9.358
571.59	10.015
571.92	9.562
572.26	10.052
572.60	10.180
572.93	9.745
573.27	10.056
573.61	9.715
573.95	9.819
574.28	9.472
574.62	9.475
574.96	9.630
575.29	9.287
575.63	9.654
575.97	9.477
576.30	9.851
576.64	9.249
576.98	9.431
577.31	9.265
577.65	9.164
577.98	9.188
578.32	9.114
578.66	9.686
578.99	9.359
579.33	9.538
579.67	9.341
580.00	9.446
580.34	9.587
580.67	9.407
581.01	9.310
581.35	9.184
581.68	9.280
582.02	9.131
582.35	9.060
582.69	9.134
583.02	9.019
583.36	9.546
583.70	9.565
584.03	9.483
584.37	9.908
584.70	9.326
585.04	10.078
585.37	9.483
585.71	9.469
586.04	9.568
586.38	9.901
586.72	10.356
587.05	9.590
587.39	9.288
587.72	10.023
588.06	9.552
588.39	9.657
588.73	9.768
589.06	10.284
589.40	10.404
589.73	9.926
590.07	10.178
590.40	10.449
590.73	10.031
591.07	10.989
591.40	10.713
591.74	11.126
592.07	10.602
592.41	10.542
592.74	10.337
593.08	10.626
593.41	10.282
593.75	9.557
594.08	10.124
594.41	10.534
594.75	10.573
595.08	10.451
595.42	9.877
595.75	10.755
596.09	10.477
596.42	11.238
596.75	11.017
597.09	11.558
597.42	10.708
597.75	10.392
598.09	10.739
598.42	10.696
598.76	10.499
599.09	10.262
599.42	10.371
599.76	10.139
600.09	10.091
600.42	10.592
600.76	9.750
601.09	10.492
601.42	10.578
601.76	11.423
602.09	10.435
602.42	10.629
602.76	11.044
603.09	10.700
603.42	10.465
603.76	10.633
604.09	10.818
604.42	10.640
604.76	11.598
605.09	10.965
605.42	10.688
605.75	10.844
606.09	10.451
606.42	10.666
606.75	10.950
607.09	11.344
607.42	11.211
607.75	10.506
608.08	11.290
608.42	11.116
608.75	11.407
609.08	11.055
609.41	11.042
609.75	10.910
610.08	11.310
610.41	10.102
610.74	11.022
611.07	11.364
611.41	11.335
611.74	11.413
612.07	11.905
612.40	11.910
612.73	11.316
613.07	12.123
613.40	11.374
613.73	10.855
614.06	11.828
614.39	11.589
614.72	11.947
615.06	11.607
615.39	10.881
615.72	11.503
616.05	11.802
616.38	12.062
616.71	12.589
617.05	11.543
617.38	11.786
617.71	11.471
618.04	12.079
618.37	11.709
618.70	12.321
619.03	12.961
619.36	12.559
619.69	12.535
620.03	12.706
620.36	12.701
620.69	12.945
621.02	12.611
621.35	11.746
621.68	13.474
622.01	12.539
622.34	13.162
622.67	12.243
623.00	12.472
623.33	11.651
623.66	12.652
623.99	13.255
624.32	12.625
624.65	12.712
624.99	11.898
625.32	11.731
625.65	12.547
625.98	12.375
626.31	13.219
626.64	13.796
626.97	13.466
627.30	12.968
627.63	13.618
627.96	13.036
628.29	13.473
628.62	14.364
628.95	14.906
629.28	13.412
629.61	13.749
629.94	14.095
630.26	12.393
630.59	14.967
630.92	13.985
631.25	13.524
631.58	14.715
631.91	15.010
632.24	14.662
632.57	13.641
632.90	14.145
633.23	14.877
633.56	16.610
633.89	14.496
634.22	15.551
634.55	15.148
634.88	14.611
635.20	15.173
635.53	14.458
635.86	15.965
636.19	14.235
636.52	14.418
636.85	15.578
637.18	13.710
637.51	15.721
637.83	12.454
638.16	14.834
638.49	15.995
638.82	16.814
639.15	15.750
639.48	16.209
639.81	17.158
640.13	16.536
640.46	16.510
640.79	16.909
641.12	14.718
641.45	16.061
641.77	17.378
642.10	17.105
642.43	14.414
642.76	16.099
643.09	16.871
643.41	16.540
643.74	17.901
644.07	16.311
644.40	18.558
644.73	17.638
645.05	17.908
645.38	16.114
645.71	16.425
646.04	17.940
646.36	19.866
646.69	19.565
647.02	17.347
647.35	19.759
647.67	16.283
648.00	18.211
648.33	17.327
648.66	18.333
648.98	16.042
649.31	16.143
649.64	15.097
649.96	18.182
650.29	17.694
650.62	17.476
650.94	17.666
651.27	19.088
651.60	18.968
651.92	17.412
652.25	16.450
652.58	17.290
652.90	18.483
653.23	15.716
653.56	17.323
653.88	16.957
654.21	18.009
654.54	16.007
654.86	15.576
655.19	14.730
655.52	9.085
655.84	7.182
656.17	9.349
656.49	13.042
656.82	13.546
657.15	10.490
657.47	7.875
657.80	6.243
658.13	6.585
658.45	10.087
658.78	9.993
659.10	10.571
659.43	11.504
659.75	12.372
660.08	13.038
660.41	13.966
660.73	16.773
661.06	16.083
661.38	17.273
661.71	20.962
662.03	20.316
662.36	17.694
662.68	20.281
663.01	18.182
663.33	19.108
663.66	19.118
663.98	17.279
664.31	18.487
664.63	19.231
664.96	17.304
665.28	20.697
665.61	17.934
665.93	18.913
666.26	17.647
666.58	19.665
666.91	21.353
667.23	20.449
667.56	19.006
667.88	17.094
668.21	21.962
668.53	18.872
668.86	18.831
669.18	21.962
669.50	22.391
669.83	21.786
670.15	20.667
670.48	19.608
670.80	19.828
671.13	19.958
671.45	19.362
671.77	17.108
672.10	18.299
672.42	16.961
672.75	17.579
673.07	18.486
673.39	18.626
673.72	15.820
674.04	19.216
674.37	18.252
674.69	17.791
675.01	19.247
675.34	21.971
675.66	20.842
675.98	19.348
676.31	18.908
676.63	19.745
676.95	21.174
677.28	19.626
677.60	19.341
677.92	21.308
678.25	19.097
678.57	20.518
678.89	18.036
679.22	19.843
679.54	18.511
679.86	19.083
680.18	18.784
680.51	18.440
680.83	18.861
681.15	18.868
681.48	19.471
681.80	19.342
682.12	17.433
682.44	18.182
682.77	19.959
683.09	20.386
683.41	19.512
683.73	19.647
684.06	20.661
684.38	20.744
684.70	18.023
685.02	19.137
685.34	18.132
685.67	15.909
685.99	16.495
686.31	17.406
686.63	15.194
686.96	16.429
687.28	18.051
687.60	17.029
687.92	17.185
688.24	17.681
688.56	18.876
688.89	20.124
689.21	21.179
689.53	19.833
689.85	18.182
690.17	17.598
690.49	21.868
690.82	20.794
691.14	20.089
691.46	17.089
691.78	19.880
692.10	16.942
692.42	21.357
692.74	19.087
693.06	19.787
693.39	20.534
693.71	19.651
694.03	20.632
694.35	21.212
694.67	18.764
694.99	22.439
695.31	18.382
695.63	20.813
695.95	19.804
696.27	18.782
696.59	23.316
696.91	20.984
697.23	18.779
697.56	20.896
697.88	17.791
698.20	20.625
698.52	21.075
698.84	17.149
699.16	21.198
699.48	19.477
699.80	21.981
700.12	20.779
700.44	22.016
700.76	20.442
701.08	23.276
701.40	18.994
701.72	26.239
702.04	28.977
702.36	21.813
702.68	23.229
703.00	23.269
703.32	18.351
703.64	25.201
703.96	22.841
704.28	22.384
704.60	21.994
704.91	22.255
705.23	24.340
705.55	26.246
705.87	29.236
706.19	27.208
706.51	25.857
706.83	26.970
707.15	24.370
707.47	21.970
707.79	21.622
708.11	20.548
708.43	21.190
708.74	21.173
709.06	23.636
709.38	22.047
709.70	25.000
710.02	23.145
710.34	25.152
710.66	24.179
710.98	25.284
711.29	24.419
711.61	25.369
711.93	22.756
712.25	27.010
712.57	25.368
712.89	23.183
713.20	23.708
713.52	23.355
713.84	25.000
714.16	20.427
714.48	24.138
714.80	27.660
715.11	22.478
715.43	21.662
715.75	20.290
716.07	26.198
716.39	23.824
716.70	23.588
717.02	26.259
717.34	24.735
717.66	30.970
717.97	31.873
718.29	26.667
718.61	22.628
718.93	26.471
719.24	25.606
719.56	24.068
719.88	24.068
720.20	26.351
720.51	27.178
720.83	28.996
721.15	28.731
721.46	26.950
721.78	30.824
722.10	29.057
722.42	28.195
722.73	25.843
723.05	27.049
723.37	25.101
723.68	27.799
724.00	26.423
724.32	26.210
724.63	25.203
724.95	26.778
725.27	29.960
725.58	26.562
725.90	28.102
726.22	24.151
726.53	23.611
726.85	28.669
727.16	23.843
727.48	25.532
727.80	24.242
728.11	21.739
728.43	25.769
728.74	29.032
729.06	31.387
729.38	30.147
729.69	30.605
730.01	26.280
730.32	22.222
730.64	26.756
730.96	23.432
731.27	25.497
731.59	22.018
731.90	27.405
732.22	22.981
732.53	24.768
732.85	25.641
733.16	22.830
733.48	26.246
733.80	22.078
734.11	24.204
734.43	24.556
734.74	20.000
735.06	21.203
735.37	25.723
735.69	17.834
736.00	28.758
736.32	26.168
736.63	22.045
736.95	26.837
737.26	19.048
737.58	21.613
737.89	27.425
738.21	25.597
738.52	22.857
738.83	26.415
739.15	26.923
739.46	28.832
739.78	27.778
740.09	24.000
740.41	26.452
740.72	22.300
741.04	26.667
741.35	30.000
741.66	31.556
741.98	27.830
742.29	33.493
742.61	32.328
742.92	28.054
743.23	27.350
743.55	34.800
743.86	28.509
744.18	30.531
744.49	33.493
744.80	35.211
745.12	37.727
745.43	28.634
745.74	35.586
746.06	33.945
746.37	31.390
746.68	30.769
747.00	32.870
747.31	34.286
747.62	27.434
747.94	25.991
748.25	25.957
748.56	29.075
748.88	28.713
749.19	36.000
749.50	27.907
749.82	24.390
750.13	26.531
750.44	27.007
750.75	24.912
751.07	25.402
751.38	26.829
751.69	25.271
752.01	23.308
752.32	27.437
752.63	27.305
752.94	29.098
753.26	30.400
753.57	28.455
753.88	33.203
754.19	26.786
754.51	27.431
754.82	21.661
755.13	32.453
755.44	30.827
755.75	28.467
756.07	23.759
756.38	20.073
756.69	28.523
757.00	22.754
757.31	20.475
757.63	23.977
757.94	21.716
758.25	22.304
758.56	18.272
758.87	20.430
759.18	22.727
759.50	23.824
759.81	22.741
760.12	22.187
760.43	23.209
760.74	19.022
761.05	23.164
761.36	21.658
761.67	25.000
761.99	24.534
762.30	25.347
762.61	26.336
762.92	26.953
763.23	30.672
763.54	29.200
763.85	25.000
764.16	29.231
764.47	29.658
764.78	24.382
765.10	24.684
765.41	23.894
765.72	21.557
766.03	25.705
766.34	23.000
766.65	31.064
766.96	29.915
767.27	32.487
767.58	36.979
767.89	39.474
768.20	35.057
768.51	32.995
768.82	33.028
769.13	22.764
769.44	29.150
769.75	28.326
770.06	22.477
770.37	35.294
770.68	33.333
770.99	27.111
771.30	22.541
771.61	29.148
771.92	33.607
772.23	33.193
772.54	37.436
772.85	34.555
773.16	36.170
773.47	36.957
773.78	34.010
774.09	33.333
774.39	37.427
774.70	39.506
775.01	41.304
775.32	39.869
775.63	46.053
775.94	36.691
776.25	47.244
776.56	50.000
776.87	49.180
777.18	42.969
777.48	52.672
777.79	44.697
778.10	45.926
778.41	46.429
778.72	36.496
779.03	36.242
779.34	37.584
779.65	36.486
779.95	45.399
780.26	50.980
780.57	44.138
780.88	49.219
781.19	39.098
781.50	45.270
781.80	39.623
782.11	37.288
782.42	32.911
782.73	36.810
783.04	49.324
783.34	46.479
783.65	41.781
783.96	50.746
784.27	44.056
784.57	35.252
784.88	42.593
785.19	49.206
785.50	51.887
785.81	44.776
786.11	53.279
786.42	45.736
786.73	50.442
787.04	48.113
787.34	58.036
787.65	56.000
787.96	54.054
788.26	51.240
788.57	50.000
788.88	52.893
789.19	47.917
789.49	50.000
789.80	50.382
790.11	64.762
790.41	65.347
790.72	60.241
791.03	54.348
791.33	62.791
791.64	59.794
791.95	73.267
792.25	67.778
792.56	63.636
792.87	87.179
793.17	73.418
793.48	82.759
793.79	68.966
794.09	62.500
794.40	50.420
794.70	47.059
795.01	41.481
795.32	41.007
795.62	45.669
795.93	52.586
796.23	59.292
796.54	61.176
796.85	67.568
797.15	100.000
797.46	81.818
797.76	71.084
798.07	60.759
798.37	83.077
798.68	77.273
798.99	74.648
799.29	75.325
799.60	59.091
799.90	90.411
800.21	100.000
800.51	86.207
800.82	100.000
801.12	95.082
801.43	84.848
801.73	71.622
802.04	87.302
802.34	74.074
802.65	76.563
802.95	98.305
803.26	84.375
803.56	68.571
803.87	84.615
804.17	76.471
804.48	105.556
804.78	70.690
805.09	75.000
805.39	101.923
805.70	82.143
806.00	86.885
806.30	83.333
806.61	74.390
806.91	64.557
807.22	68.421
807.52	74.627
807.83	91.549
808.13	98.437
808.43	96.667
808.74	71.053
809.04	82.609
809.35	97.015
809.65	84.211
809.95	111.290
810.26	76.271
810.56	93.651
810.86	136.364
811.17	126.190
811.47	115.000
811.77	101.852
812.08	101.818
812.38	128.000
812.69	147.222
812.99	156.818
813.29	116.327
813.59	80.952
813.90	122.449
814.20	116.364
814.50	70.769
814.81	91.176
815.11	100.000
815.41	90.164
815.72	111.905
816.02	107.273
816.32	126.190
816.62	97.500
816.93	146.341
817.23	130.952
817.53	109.091
817.84	169.697
818.14	113.043
818.44	122.222
818.74	132.353
819.04	132.500
819.35	134.286
819.65	179.412
819.95	185.714
820.25	220.000
820.56	138.462
820.86	145.455
821.16	106.977
821.46	128.205
821.76	92.000
822.07	145.714
822.37	120.000
822.67	142.424
822.97	96.078
823.27	164.286
823.57	129.730
823.88	145.000
824.18	190.000
824.48	152.381
824.78	180.000
825.08	175.000
825.38	151.351
825.69	114.634
825.99	233.333
826.29	172.414
826.59	150.000
826.89	150.000
827.19	179.412
827.49	154.839
827.79	120.455
828.09	134.091
828.39	110.638
828.70	108.163
829.00	140.741
829.30	141.935
829.60	125.000
829.90	306.667
830.20	153.571
830.50	204.348
830.80	226.087
831.10	186.667
831.40	190.000
831.70	182.609
832.00	207.692
832.30	222.222
832.60	262.500
832.90	200.000
833.20	371.429
833.50	151.613
833.80	186.207
834.10	187.500
834.40	203.846
834.70	244.444
835.00	261.905
835.30	131.429
835.60	276.923
835.90	182.759
836.20	321.429
836.50	179.310
836.80	192.000
837.10	166.667
837.40	271.429
837.70	264.706
838.00	203.704
838.30	238.095
838.60	271.429
838.90	200.000
839.19	265.000
839.49	421.429
839.79	380.000
840.09	310.000
840.39	257.143
840.69	269.565
840.99	266.667
841.29	450.000
841.59	291.667
841.88	281.250
842.18	206.897
842.48	252.381
842.78	203.333
843.08	239.130
843.38	178.125
843.68	916.667
843.97	215.385
844.27	224.138
844.57	280.952
844.87	331.250
845.17	177.778
845.47	1566.667
845.76	466.667
846.06	282.353
846.36	562.500
846.66	371.429
846.96	237.500
847.25	427.273
847.55	309.091
847.85	230.435
848.15	380.000
848.44	321.429
848.74	311.111
849.04	335.294
849.34	510.000
849.63	263.158
849.93	418.182
850.23	900.000
850.53	392.857
850.82	1800.000
851.12	-4300.000
851.42	4300.000
851.71	245.000
852.01	-1200.000
852.31	216.667
852.61	1366.667
852.90	242.857
853.20	188.000
853.50	305.882
853.79	223.810
854.09	183.333
854.39	300.000
854.68	175.676
854.98	170.968
855.28	170.000
855.57	217.241
855.87	229.630
856.17	273.684
856.46	260.000
856.76	252.941
857.05	179.310
857.35	254.167
857.65	373.333
857.94	252.174
858.24	246.154
858.53	295.000
858.83	227.273
859.13	306.667
859.42	0.000
859.72	555.556
860.01	390.909
860.31	268.182
860.60	268.421
860.90	243.478
861.20	488.889
861.49	533.333
861.79	-5300.000
862.08	525.000
862.38	300.000
862.67	361.538
862.97	305.882
863.26	533.333
863.56	266.667
863.85	325.000
864.15	487.500
864.44	333.333
864.74	850.000
865.03	700.000
865.33	273.684
865.62	490.909
865.92	423.077
866.21	391.667
866.51	0.000
866.80	418.182
867.10	1100.000
867.39	446.154
867.69	481.818
867.98	252.632
868.27	481.818
868.57	284.211
868.86	-3900.000
869.16	325.000
869.45	2450.000
869.75	-4100.000
870.04	483.333
870.33	657.143
870.63	975.000
870.92	2600.000
871.22	771.429
871.51	341.176
871.80	261.905
872.10	321.429
>>>>>End Processed Spectral Data<<<<<
