SpectraSuite Data File
++++++++++++++++++++++++++++++++++++
Date: Wed May 13 20:23:14 PDT 2015
User: schluterlab
Dark Spectrum Present: Yes
Reference Spectrum Present: Yes
Number of Sampled Component Spectra: 1
Spectrometers: USB2E3373
Integration Time (usec): 3000 (USB2E3373)
Spectra Averaged: 3 (USB2E3373)
Boxcar Smoothing: 0 (USB2E3373)
Correct for Electrical Dark: No (USB2E3373)
Strobe/Lamp Enabled: No (USB2E3373)
Correct for Detector Non-linearity: No (USB2E3373)
Correct for Stray Light: No (USB2E3373)
Number of Pixels in Processed Spectrum: 2048
>>>>>Begin Processed Spectral Data<<<<<
178.53	0.000
178.91	-1275.000
179.29	-1275.000
179.67	-205.556
180.04	-1425.000
180.42	2350.000
180.80	1020.000
181.18	-1050.000
181.56	742.857
181.94	0.000
182.31	-657.143
182.69	1633.333
183.07	-562.500
183.45	-566.667
183.83	554.545
184.20	-430.000
184.58	2300.000
184.96	5600.000
185.34	-980.000
185.72	-512.500
186.09	-2200.000
186.47	2400.000
186.85	2600.000
187.23	4100.000
187.61	-1566.667
187.98	1325.000
188.36	590.909
188.74	609.091
189.12	-820.000
189.49	540.000
189.87	-5100.000
190.25	-1375.000
190.63	442.857
191.00	476.923
191.38	916.667
191.76	-1325.000
192.14	1550.000
192.51	600.000
192.89	850.000
193.27	600.000
193.65	-1325.000
194.02	490.000
194.40	1160.000
194.78	530.000
195.15	541.667
195.53	610.000
195.91	-2350.000
196.29	381.250
196.66	300.000
197.04	-340.000
197.42	0.000
197.79	570.000
198.17	-5000.000
198.55	714.286
198.92	637.500
199.30	880.000
199.68	0.000
200.05	288.889
200.43	757.143
200.81	4500.000
201.18	1766.667
201.56	-1866.667
201.94	533.333
202.31	588.889
202.69	550.000
203.07	570.000
203.44	0.000
203.82	1375.000
204.19	842.857
204.57	492.857
204.95	650.000
205.32	1566.667
205.70	518.182
206.08	414.286
206.45	2350.000
206.83	281.250
207.20	866.667
207.58	800.000
207.96	311.111
208.33	687.500
208.71	-800.000
209.08	742.857
209.46	566.667
209.84	518.182
210.21	-1600.000
210.59	1425.000
210.96	-525.000
211.34	2150.000
211.71	600.000
212.09	700.000
212.46	0.000
212.84	1533.333
213.22	1425.000
213.59	-5700.000
213.97	766.667
214.34	814.286
214.72	618.182
215.09	1000.000
215.47	-1950.000
215.84	-2550.000
216.22	1800.000
216.59	435.714
216.97	1275.000
217.34	527.273
217.72	-833.333
218.09	0.000
218.47	-4800.000
218.84	700.000
219.22	714.286
219.59	1666.667
219.97	-528.571
220.34	820.000
220.72	-1600.000
221.09	464.286
221.47	1200.000
221.84	-833.333
222.22	0.000
222.59	1525.000
222.97	-2500.000
223.34	1060.000
223.72	446.154
224.09	1100.000
224.46	2000.000
224.84	-4700.000
225.21	-1000.000
225.59	-4700.000
225.96	560.000
226.34	295.000
226.71	2950.000
227.08	612.500
227.46	520.000
227.83	-1025.000
228.21	-2250.000
228.58	600.000
228.95	-2150.000
229.33	-2600.000
229.70	2000.000
230.08	700.000
230.45	-900.000
230.82	433.333
231.20	966.667
231.57	542.857
231.95	433.333
232.32	231.818
232.69	381.818
233.07	757.143
233.44	369.231
233.81	-1700.000
234.19	336.842
234.56	475.000
234.93	341.667
235.31	536.364
235.68	469.231
236.05	392.857
236.43	196.970
236.80	326.316
237.17	5200.000
237.55	252.381
237.92	232.143
238.29	319.048
238.67	219.355
239.04	244.828
239.41	211.111
239.79	163.043
240.16	150.000
240.53	156.818
240.91	158.824
241.28	134.000
241.65	146.000
242.02	128.986
242.40	135.484
242.77	133.333
243.14	110.753
243.51	114.607
243.89	118.824
244.26	92.222
244.63	105.376
245.00	98.936
245.38	100.000
245.75	105.607
246.12	97.248
246.49	84.672
246.87	98.400
247.24	99.231
247.61	83.571
247.98	81.046
248.36	81.757
248.73	82.166
249.10	87.898
249.47	85.311
249.84	79.679
250.22	82.888
250.59	82.840
250.96	77.273
251.33	74.882
251.70	78.218
252.08	76.667
252.45	70.852
252.82	75.652
253.19	71.915
253.56	73.333
253.94	78.008
254.31	71.875
254.68	71.154
255.05	71.956
255.42	71.545
255.79	77.206
256.16	67.148
256.54	66.078
256.91	69.039
257.28	69.424
257.65	69.307
258.02	63.354
258.39	65.300
258.76	66.555
259.14	67.262
259.51	67.173
259.88	67.702
260.25	69.789
260.62	63.295
260.99	69.565
261.36	70.571
261.73	67.908
262.10	69.767
262.47	69.296
262.85	65.460
263.22	63.818
263.59	67.806
263.96	66.484
264.33	67.102
264.70	66.316
265.07	65.217
265.44	61.616
265.81	62.774
266.18	68.090
266.55	63.171
266.92	63.636
267.29	65.046
267.66	63.303
268.03	60.909
268.40	65.888
268.77	60.859
269.14	62.613
269.51	61.851
269.88	66.200
270.25	64.786
270.62	61.573
270.99	63.656
271.36	61.803
271.73	65.654
272.10	63.913
272.47	61.075
272.84	59.957
273.21	61.845
273.58	61.354
273.95	58.910
274.32	60.950
274.69	62.955
275.06	59.252
275.43	62.340
275.80	60.321
276.17	61.914
276.54	62.994
276.91	60.474
277.28	57.031
277.65	60.155
278.02	60.455
278.39	60.156
278.76	58.182
279.13	60.189
279.50	58.659
279.87	60.359
280.23	61.277
280.60	58.994
280.97	59.704
281.34	60.354
281.71	57.636
282.08	60.077
282.45	56.364
282.82	56.838
283.19	59.180
283.56	56.842
283.92	58.376
284.29	56.790
284.66	59.710
285.03	56.058
285.40	57.746
285.77	56.566
286.14	55.095
286.51	56.333
286.87	56.068
287.24	57.655
287.61	55.859
287.98	54.708
288.35	54.517
288.72	52.960
289.08	54.304
289.45	54.201
289.82	50.894
290.19	53.061
290.56	51.914
290.93	49.094
291.29	50.767
291.66	49.853
292.03	50.291
292.40	50.220
292.77	48.373
293.13	48.060
293.50	52.041
293.87	48.444
294.24	49.481
294.60	46.870
294.97	48.110
295.34	48.378
295.71	48.011
296.08	46.154
296.44	46.080
296.81	45.575
297.18	46.477
297.55	42.744
297.91	45.778
298.28	46.988
298.65	45.692
299.02	45.191
299.38	45.286
299.75	41.375
300.12	43.423
300.48	43.375
300.85	44.143
301.22	43.949
301.59	41.540
301.95	43.451
302.32	42.234
302.69	43.250
303.05	42.182
303.42	43.457
303.79	41.336
304.15	39.977
304.52	41.947
304.89	41.347
305.25	38.979
305.62	39.864
305.99	42.385
306.35	39.262
306.72	41.143
307.09	40.178
307.45	40.766
307.82	38.170
308.19	39.183
308.55	40.237
308.92	39.850
309.29	38.648
309.65	39.236
310.02	38.266
310.38	41.398
310.75	40.971
311.12	38.690
311.48	39.916
311.85	39.203
312.22	39.542
312.58	38.877
312.95	40.232
313.31	37.184
313.68	42.204
314.05	42.012
314.41	40.201
314.78	38.268
315.14	39.325
315.51	39.547
315.87	40.000
316.24	39.623
316.61	38.986
316.97	38.356
317.34	39.237
317.70	40.057
318.07	39.076
318.43	40.607
318.80	40.769
319.16	40.207
319.53	39.118
319.89	40.190
320.26	41.000
320.62	42.163
320.99	40.606
321.35	39.899
321.72	39.938
322.08	40.967
322.45	43.582
322.81	42.636
323.18	42.678
323.54	41.651
323.91	44.151
324.27	41.587
324.64	43.150
325.00	42.922
325.37	44.040
325.73	42.280
326.10	43.778
326.46	43.100
326.83	43.831
327.19	43.467
327.56	44.774
327.92	44.357
328.29	45.519
328.65	45.580
329.01	45.397
329.38	46.531
329.74	45.337
330.11	45.712
330.47	45.638
330.84	47.794
331.20	47.632
331.56	46.055
331.93	47.963
332.29	46.673
332.66	46.372
333.02	46.069
333.38	45.528
333.75	45.276
334.11	46.797
334.48	46.051
334.84	47.335
335.20	47.273
335.57	47.688
335.93	45.089
336.29	47.436
336.66	48.061
337.02	45.611
337.38	47.222
337.75	46.257
338.11	46.553
338.47	47.330
338.84	48.396
339.20	46.697
339.56	47.719
339.93	47.636
340.29	48.007
340.65	46.613
341.02	47.993
341.38	47.064
341.74	47.193
342.11	46.201
342.47	47.841
342.83	46.747
343.20	47.619
343.56	46.335
343.92	48.333
344.28	45.578
344.65	46.862
345.01	47.222
345.37	45.969
345.73	47.293
346.10	47.229
346.46	48.051
346.82	46.705
347.19	47.285
347.55	46.962
347.91	47.654
348.27	47.494
348.63	46.990
349.00	47.573
349.36	45.731
349.72	46.351
350.08	46.515
350.45	47.356
350.81	46.872
351.17	47.407
351.53	46.765
351.89	46.370
352.26	46.646
352.62	46.752
352.98	44.814
353.34	46.015
353.70	45.172
354.07	47.177
354.43	46.270
354.79	46.340
355.15	46.129
355.51	48.201
355.87	47.918
356.24	46.824
356.60	46.191
356.96	47.064
357.32	47.833
357.68	48.819
358.04	46.952
358.40	47.189
358.77	46.244
359.13	46.882
359.49	47.373
359.85	46.429
360.21	47.209
360.57	48.482
360.93	47.462
361.29	46.788
361.66	46.130
362.02	45.821
362.38	47.681
362.74	47.545
363.10	47.372
363.46	47.616
363.82	47.317
364.18	48.678
364.54	49.480
364.90	47.592
365.26	48.456
365.62	48.210
365.98	47.480
366.35	47.493
366.71	47.722
367.07	49.308
367.43	48.258
367.79	49.893
368.15	50.431
368.51	48.401
368.87	48.037
369.23	48.281
369.59	50.036
369.95	49.118
370.31	47.222
370.67	48.913
371.03	49.513
371.39	49.198
371.75	49.265
372.11	48.151
372.47	50.440
372.83	50.072
373.19	49.566
373.55	51.367
373.91	49.926
374.27	47.835
374.63	49.309
374.99	49.435
375.35	49.058
375.71	49.554
376.07	50.480
376.42	50.206
376.78	49.901
377.14	49.389
377.50	50.000
377.86	49.801
378.22	49.558
378.58	48.622
378.94	49.969
379.30	50.064
379.66	50.381
380.02	51.044
380.38	51.123
380.74	51.741
381.09	51.528
381.45	50.215
381.81	50.369
382.17	50.955
382.53	51.384
382.89	50.494
383.25	51.407
383.61	52.292
383.97	51.845
384.32	52.027
384.68	51.363
385.04	50.830
385.40	51.641
385.76	51.106
386.12	52.591
386.48	52.360
386.83	53.560
387.19	52.505
387.55	52.257
387.91	52.116
388.27	51.441
388.62	53.104
388.98	52.211
389.34	52.003
389.70	52.177
390.06	53.359
390.42	53.178
390.77	53.499
391.13	53.287
391.49	52.411
391.85	51.432
392.20	52.555
392.56	52.462
392.92	53.679
393.28	53.018
393.64	52.878
393.99	52.657
394.35	53.412
394.71	53.011
395.07	51.963
395.42	53.646
395.78	53.435
396.14	51.893
396.50	53.759
396.85	53.719
397.21	52.343
397.57	53.813
397.92	53.726
398.28	53.587
398.64	52.867
399.00	52.994
399.35	53.412
399.71	53.472
400.07	53.696
400.42	53.313
400.78	54.041
401.14	52.866
401.49	53.493
401.85	52.208
402.21	52.216
402.57	53.794
402.92	53.909
403.28	54.903
403.63	53.713
403.99	54.268
404.35	52.485
404.70	53.118
405.06	53.698
405.42	54.148
405.77	52.914
406.13	52.765
406.49	52.868
406.84	53.514
407.20	53.014
407.55	54.052
407.91	54.933
408.27	54.435
408.62	53.402
408.98	53.493
409.34	53.752
409.69	54.968
410.05	54.337
410.40	52.783
410.76	53.345
411.11	52.171
411.47	52.460
411.83	54.123
412.18	54.298
412.54	54.047
412.89	53.795
413.25	54.073
413.60	54.231
413.96	52.520
414.31	53.220
414.67	54.753
415.03	53.311
415.38	53.415
415.74	54.019
416.09	53.886
416.45	53.414
416.80	53.866
417.16	54.223
417.51	54.147
417.87	54.592
418.22	54.826
418.58	52.485
418.93	53.010
419.29	54.424
419.64	53.967
420.00	53.902
420.35	53.275
420.71	53.258
421.06	52.685
421.42	53.275
421.77	53.531
422.12	52.892
422.48	54.236
422.83	54.688
423.19	54.033
423.54	53.453
423.90	53.739
424.25	53.155
424.61	53.214
424.96	54.169
425.31	53.710
425.67	51.685
426.02	53.029
426.38	53.358
426.73	53.423
427.09	53.070
427.44	53.306
427.79	52.559
428.15	54.464
428.50	52.370
428.85	53.278
429.21	52.457
429.56	52.670
429.92	52.089
430.27	52.830
430.62	52.125
430.98	53.036
431.33	52.990
431.68	53.508
432.04	52.556
432.39	53.341
432.74	53.980
433.10	52.292
433.45	53.994
433.80	53.991
434.16	52.190
434.51	52.211
434.86	53.763
435.22	52.307
435.57	53.009
435.92	53.189
436.28	53.440
436.63	53.256
436.98	52.547
437.34	53.071
437.69	54.142
438.04	52.726
438.39	52.478
438.75	53.457
439.10	53.575
439.45	53.129
439.81	53.293
440.16	52.287
440.51	53.720
440.86	53.677
441.22	53.560
441.57	52.335
441.92	53.019
442.27	53.283
442.63	52.712
442.98	54.535
443.33	53.967
443.68	53.743
444.03	52.660
444.39	53.165
444.74	53.571
445.09	53.261
445.44	52.597
445.79	51.658
446.15	52.991
446.50	53.635
446.85	53.289
447.20	52.677
447.55	53.713
447.91	53.668
448.26	52.977
448.61	53.929
448.96	54.153
449.31	53.262
449.66	53.855
450.02	52.368
450.37	51.927
450.72	53.130
451.07	52.407
451.42	51.854
451.77	52.672
452.12	51.212
452.47	52.488
452.83	54.021
453.18	52.506
453.53	54.793
453.88	52.451
454.23	53.736
454.58	51.908
454.93	54.482
455.28	52.930
455.63	52.852
455.98	53.810
456.34	52.827
456.69	53.225
457.04	53.498
457.39	52.250
457.74	50.900
458.09	52.214
458.44	51.710
458.79	51.735
459.14	54.007
459.49	53.882
459.84	52.188
460.19	52.387
460.54	51.505
460.89	51.838
461.24	52.702
461.59	52.992
461.94	53.329
462.29	53.175
462.64	53.350
462.99	52.310
463.34	54.333
463.69	52.783
464.04	52.580
464.39	51.536
464.74	52.525
465.09	52.232
465.44	52.133
465.79	51.846
466.14	51.013
466.49	51.557
466.84	52.539
467.19	52.384
467.54	54.188
467.89	51.621
468.24	52.123
468.59	54.151
468.94	51.924
469.29	53.599
469.64	54.284
469.99	54.398
470.34	53.369
470.68	52.874
471.03	52.177
471.38	54.899
471.73	53.298
472.08	53.750
472.43	52.764
472.78	53.259
473.13	52.054
473.48	52.622
473.83	53.537
474.17	52.085
474.52	53.722
474.87	53.590
475.22	53.337
475.57	52.445
475.92	52.841
476.27	52.875
476.61	52.730
476.96	52.886
477.31	52.643
477.66	51.805
478.01	50.915
478.36	53.146
478.70	52.752
479.05	52.343
479.40	51.996
479.75	51.601
480.10	51.590
480.45	51.166
480.79	50.645
481.14	51.859
481.49	52.444
481.84	51.486
482.19	51.658
482.53	51.055
482.88	51.326
483.23	52.150
483.58	52.184
483.92	51.218
484.27	49.586
484.62	51.724
484.97	51.084
485.31	51.849
485.66	50.147
486.01	49.410
486.36	48.969
486.70	49.213
487.05	49.459
487.40	50.306
487.75	50.904
488.09	51.835
488.44	51.134
488.79	52.405
489.13	52.330
489.48	51.550
489.83	51.230
490.17	52.652
490.52	49.380
490.87	51.515
491.22	51.296
491.56	51.207
491.91	51.187
492.26	49.655
492.60	50.968
492.95	51.123
493.30	50.561
493.64	51.890
493.99	50.186
494.34	51.018
494.68	51.969
495.03	51.081
495.37	50.721
495.72	51.413
496.07	52.390
496.41	50.354
496.76	51.011
497.11	50.338
497.45	51.327
497.80	51.823
498.14	51.643
498.49	51.610
498.84	52.109
499.18	50.905
499.53	51.852
499.87	51.212
500.22	50.871
500.56	52.330
500.91	51.538
501.26	51.636
501.60	52.159
501.95	51.512
502.29	51.781
502.64	51.955
502.98	51.379
503.33	50.320
503.67	50.951
504.02	52.713
504.36	51.802
504.71	52.711
505.06	51.759
505.40	52.212
505.75	51.205
506.09	52.138
506.44	52.639
506.78	52.655
507.13	53.054
507.47	53.232
507.82	53.141
508.16	53.546
508.51	54.287
508.85	52.582
509.19	53.469
509.54	53.112
509.88	52.447
510.23	54.756
510.57	54.696
510.92	54.531
511.26	53.186
511.61	54.668
511.95	53.027
512.30	54.613
512.64	53.735
512.98	54.448
513.33	53.961
513.67	54.055
514.02	54.437
514.36	55.216
514.70	55.285
515.05	53.820
515.39	55.300
515.74	53.941
516.08	54.947
516.42	55.438
516.77	55.964
517.11	54.162
517.46	56.095
517.80	56.678
518.14	56.688
518.49	57.293
518.83	55.455
519.17	55.658
519.52	55.857
519.86	55.448
520.20	57.514
520.55	57.451
520.89	57.847
521.23	57.419
521.58	56.242
521.92	57.134
522.26	57.108
522.61	57.819
522.95	56.783
523.29	56.665
523.64	57.195
523.98	57.979
524.32	56.755
524.66	57.005
525.01	57.782
525.35	57.807
525.69	56.650
526.04	57.508
526.38	57.718
526.72	56.012
527.06	56.434
527.41	56.436
527.75	58.778
528.09	59.152
528.43	57.170
528.78	57.529
529.12	56.727
529.46	57.502
529.80	58.168
530.15	58.380
530.49	57.477
530.83	58.544
531.17	59.138
531.51	59.857
531.86	57.290
532.20	58.018
532.54	57.655
532.88	57.638
533.22	56.277
533.57	56.728
533.91	56.893
534.25	58.202
534.59	58.145
534.93	57.406
535.27	58.358
535.62	58.608
535.96	58.506
536.30	58.106
536.64	58.081
536.98	58.527
537.32	58.130
537.66	58.933
538.01	58.460
538.35	57.854
538.69	58.456
539.03	57.830
539.37	57.125
539.71	56.384
540.05	59.216
540.39	57.807
540.73	57.309
541.07	58.663
541.42	58.447
541.76	58.258
542.10	58.473
542.44	58.411
542.78	58.498
543.12	56.494
543.46	58.623
543.80	57.580
544.14	57.189
544.48	57.460
544.82	57.922
545.16	57.450
545.50	57.584
545.84	59.073
546.18	57.441
546.52	57.536
546.86	57.663
547.20	58.800
547.54	58.450
547.88	59.184
548.22	56.227
548.56	57.358
548.90	56.786
549.24	57.710
549.58	57.367
549.92	57.005
550.26	59.588
550.60	57.054
550.94	57.676
551.28	57.937
551.62	58.735
551.96	57.333
552.30	58.157
552.64	58.553
552.98	58.305
553.32	57.721
553.66	57.192
554.00	58.682
554.34	57.074
554.68	59.227
555.02	57.616
555.36	57.342
555.69	56.631
556.03	57.604
556.37	57.162
556.71	57.299
557.05	57.633
557.39	57.873
557.73	57.728
558.07	58.666
558.41	57.887
558.75	58.780
559.08	58.240
559.42	57.974
559.76	58.015
560.10	56.174
560.44	57.792
560.78	56.753
561.12	56.662
561.45	58.279
561.79	56.757
562.13	56.808
562.47	58.470
562.81	57.671
563.15	56.120
563.48	56.300
563.82	57.404
564.16	56.965
564.50	56.315
564.84	55.499
565.17	56.242
565.51	55.783
565.85	55.330
566.19	55.855
566.52	56.175
566.86	54.611
567.20	56.309
567.54	56.050
567.88	54.807
568.21	54.762
568.55	54.853
568.89	53.794
569.23	53.610
569.56	53.401
569.90	52.981
570.24	53.068
570.57	52.091
570.91	51.681
571.25	52.502
571.59	52.695
571.92	52.535
572.26	53.004
572.60	52.823
572.93	53.133
573.27	53.120
573.61	52.624
573.95	52.248
574.28	52.638
574.62	52.284
574.96	52.401
575.29	51.940
575.63	52.998
575.97	52.695
576.30	52.868
576.64	52.944
576.98	52.212
577.31	52.426
577.65	52.139
577.98	52.332
578.32	51.430
578.66	52.243
578.99	52.865
579.33	51.900
579.67	52.128
580.00	52.338
580.34	53.299
580.67	52.044
581.01	51.855
581.35	52.526
581.68	51.683
582.02	51.443
582.35	51.736
582.69	51.715
583.02	52.082
583.36	52.755
583.70	53.247
584.03	53.030
584.37	53.307
584.70	52.534
585.04	52.593
585.37	52.097
585.71	52.021
586.04	52.017
586.38	52.456
586.72	52.334
587.05	51.725
587.39	51.108
587.72	52.229
588.06	52.588
588.39	52.346
588.73	52.479
589.06	53.256
589.40	53.064
589.73	52.235
590.07	52.811
590.40	52.832
590.73	52.654
591.07	53.846
591.40	52.847
591.74	53.290
592.07	52.880
592.41	53.493
592.74	51.423
593.08	51.599
593.41	52.294
593.75	51.062
594.08	52.062
594.41	52.704
594.75	52.754
595.08	52.398
595.42	53.030
595.75	52.350
596.09	53.023
596.42	53.242
596.75	52.680
597.09	53.377
597.42	51.349
597.75	54.032
598.09	52.652
598.42	53.265
598.76	52.615
599.09	51.919
599.42	51.528
599.76	52.269
600.09	52.022
600.42	51.461
600.76	51.714
601.09	51.949
601.42	51.826
601.76	52.220
602.09	52.688
602.42	52.508
602.76	53.083
603.09	52.596
603.42	51.425
603.76	51.601
604.09	52.385
604.42	52.303
604.76	52.889
605.09	52.294
605.42	52.416
605.75	51.159
606.09	51.688
606.42	52.636
606.75	51.224
607.09	52.491
607.42	52.418
607.75	51.139
608.08	52.236
608.42	52.488
608.75	51.894
609.08	51.110
609.41	52.166
609.75	52.406
610.08	51.791
610.41	50.885
610.74	51.987
611.07	53.360
611.41	52.208
611.74	51.181
612.07	52.174
612.40	52.728
612.73	52.158
613.07	53.448
613.40	52.765
613.73	50.708
614.06	52.366
614.39	51.180
614.72	51.579
615.06	51.733
615.39	52.017
615.72	52.045
616.05	50.452
616.38	53.696
616.71	53.504
617.05	53.062
617.38	53.037
617.71	52.492
618.04	51.683
618.37	52.277
618.70	51.836
619.03	54.079
619.36	53.496
619.69	53.803
620.03	53.709
620.36	52.807
620.69	53.288
621.02	53.835
621.35	51.449
621.68	52.181
622.01	51.935
622.34	52.950
622.67	54.449
623.00	52.458
623.33	52.252
623.66	52.895
623.99	53.976
624.32	52.211
624.65	51.907
624.99	52.337
625.32	53.005
625.65	53.794
625.98	53.728
626.31	53.033
626.64	53.633
626.97	53.782
627.30	53.283
627.63	53.733
627.96	54.584
628.29	53.281
628.62	51.967
628.95	55.094
629.28	54.106
629.61	53.896
629.94	55.619
630.26	54.337
630.59	53.480
630.92	53.161
631.25	53.011
631.58	52.152
631.91	52.434
632.24	52.848
632.57	54.040
632.90	54.496
633.23	54.698
633.56	54.124
633.89	54.247
634.22	55.619
634.55	56.568
634.88	55.329
635.20	54.480
635.53	54.337
635.86	57.302
636.19	54.353
636.52	54.556
636.85	56.014
637.18	52.535
637.51	54.492
637.83	52.035
638.16	56.394
638.49	56.297
638.82	57.775
639.15	56.500
639.48	53.616
639.81	55.094
640.13	54.557
640.46	54.228
640.79	55.746
641.12	52.270
641.45	55.587
641.77	57.585
642.10	56.140
642.43	55.405
642.76	56.037
643.09	54.755
643.41	54.325
643.74	56.944
644.07	53.659
644.40	57.515
644.73	56.063
645.05	56.260
645.38	54.660
645.71	56.039
646.04	57.309
646.36	57.429
646.69	57.023
647.02	56.293
647.35	57.732
647.67	56.283
648.00	55.447
648.33	54.290
648.66	53.182
648.98	55.472
649.31	55.904
649.64	55.007
649.96	54.694
650.29	56.398
650.62	55.178
650.94	55.429
651.27	56.081
651.60	58.403
651.92	55.112
652.25	53.746
652.58	54.984
652.90	56.872
653.23	52.851
653.56	54.961
653.88	56.735
654.21	54.186
654.54	56.931
654.86	54.050
655.19	52.703
655.52	41.423
655.84	40.064
656.17	51.906
656.49	70.887
656.82	73.892
657.15	56.767
657.47	42.855
657.80	33.099
658.13	34.479
658.45	51.368
658.78	51.702
659.10	52.881
659.43	54.663
659.75	54.310
660.08	57.532
660.41	59.032
660.73	61.245
661.06	57.484
661.38	58.000
661.71	59.038
662.03	59.369
662.36	53.479
662.68	56.426
663.01	55.556
663.33	57.325
663.66	56.723
663.98	56.803
664.31	57.563
664.63	53.644
664.96	55.131
665.28	59.016
665.61	56.140
665.93	55.131
666.26	56.389
666.58	56.485
666.91	57.928
667.23	58.202
667.56	53.780
667.88	54.487
668.21	57.783
668.53	53.579
668.86	56.061
669.18	56.716
669.50	55.870
669.83	58.824
670.15	58.444
670.48	57.081
670.80	54.741
671.13	58.174
671.45	55.319
671.77	55.397
672.10	53.974
672.42	54.240
672.75	52.902
673.07	52.289
673.39	55.335
673.72	55.469
674.04	54.902
674.37	54.757
674.69	54.806
675.01	58.577
675.34	59.754
675.66	57.053
675.98	55.193
676.31	57.983
676.63	56.688
676.95	54.298
677.28	58.411
677.60	57.802
677.92	56.751
678.25	57.495
678.57	57.171
678.89	55.912
679.22	56.189
679.54	55.153
679.86	54.312
680.18	54.383
680.51	55.142
680.83	52.135
681.15	56.038
681.48	56.522
681.80	53.191
682.12	56.130
682.44	54.159
682.77	55.601
683.09	60.300
683.41	56.763
683.73	57.395
684.06	53.926
684.38	54.599
684.70	54.457
685.02	56.285
685.34	54.762
685.67	51.573
685.99	52.405
686.31	52.901
686.63	53.357
686.96	53.571
687.28	53.610
687.60	52.717
687.92	51.554
688.24	55.894
688.56	53.815
688.89	57.469
689.21	56.550
689.53	52.610
689.85	56.763
690.17	55.280
690.49	53.079
690.82	58.178
691.14	53.571
691.46	54.219
691.78	52.811
692.10	56.612
692.42	55.489
692.74	52.905
693.06	54.894
693.39	53.388
693.71	55.022
694.03	53.895
694.35	53.680
694.67	54.462
694.99	58.049
695.31	51.961
695.63	57.416
695.95	58.924
696.27	55.076
696.59	56.736
696.91	55.440
697.23	53.052
697.56	54.584
697.88	52.352
698.20	53.333
698.52	55.484
698.84	53.452
699.16	52.074
699.48	54.869
699.80	55.072
700.12	59.481
700.44	60.212
700.76	57.459
701.08	57.471
701.40	56.425
701.72	56.560
702.04	63.068
702.36	51.275
702.68	58.074
703.00	54.848
703.32	54.255
703.64	56.300
703.96	56.825
704.28	55.523
704.60	59.238
704.91	59.347
705.23	56.305
705.55	62.126
705.87	64.784
706.19	61.484
706.51	58.567
706.83	60.000
707.15	55.742
707.47	57.323
707.79	55.283
708.11	52.968
708.43	54.286
708.74	53.316
709.06	60.260
709.38	53.543
709.70	58.430
710.02	59.644
710.34	53.939
710.66	54.328
710.98	53.977
711.29	56.395
711.61	57.817
711.93	56.090
712.25	60.129
712.57	63.235
712.89	57.785
713.20	57.751
713.52	59.211
713.84	57.278
714.16	56.707
714.48	56.609
714.80	63.526
715.11	56.772
715.43	58.754
715.75	55.942
716.07	60.383
716.39	58.307
716.70	54.817
717.02	62.590
717.34	59.364
717.66	55.597
717.97	58.167
718.29	58.519
718.61	60.584
718.93	61.029
719.24	55.709
719.56	57.627
719.88	59.322
720.20	59.122
720.51	57.143
720.83	63.569
721.15	62.313
721.46	59.574
721.78	62.724
722.10	61.509
722.42	60.902
722.73	59.176
723.05	59.426
723.37	63.968
723.68	57.143
724.00	60.569
724.32	62.097
724.63	58.943
724.95	59.414
725.27	59.109
725.58	60.547
725.90	56.569
726.22	62.642
726.53	59.375
726.85	61.092
727.16	59.075
727.48	56.028
727.80	60.606
728.11	57.971
728.43	55.000
728.74	59.140
729.06	59.489
729.38	62.132
729.69	56.584
730.01	54.949
730.32	57.986
730.64	55.184
730.96	55.446
731.27	59.603
731.59	57.187
731.90	56.268
732.22	57.453
732.53	55.108
732.85	57.692
733.16	54.662
733.48	55.814
733.80	57.792
734.11	55.096
734.43	56.805
734.74	54.857
735.06	51.576
735.37	56.936
735.69	57.006
736.00	61.111
736.32	55.763
736.63	55.911
736.95	53.035
737.26	53.401
737.58	52.258
737.89	55.518
738.21	57.338
738.52	56.071
738.83	55.094
739.15	55.769
739.46	52.920
739.78	56.597
740.09	56.000
740.41	52.581
740.72	56.098
741.04	58.148
741.35	62.083
741.66	61.778
741.98	59.906
742.29	68.421
742.61	61.638
742.92	60.633
743.23	66.667
743.55	62.000
743.86	59.649
744.18	68.584
744.49	63.636
744.80	66.197
745.12	63.182
745.43	64.317
745.74	61.261
746.06	60.092
746.37	57.848
746.68	57.919
747.00	67.593
747.31	67.619
747.62	61.504
747.94	59.471
748.25	59.149
748.56	64.317
748.88	64.851
749.19	64.500
749.50	63.721
749.82	52.439
750.13	55.918
750.44	55.109
750.75	58.596
751.07	56.592
751.38	57.143
751.69	57.401
752.01	57.895
752.32	55.957
752.63	55.674
752.94	61.475
753.26	65.200
753.57	55.285
753.88	63.672
754.19	53.214
754.51	57.639
754.82	53.069
755.13	61.132
755.44	51.504
755.75	54.745
756.07	57.092
756.38	57.664
756.69	56.711
757.00	50.898
757.31	51.632
757.63	52.339
757.94	52.011
758.25	48.529
758.56	52.099
758.87	51.882
759.18	55.758
759.50	52.038
759.81	54.829
760.12	52.812
760.43	53.868
760.74	48.913
761.05	55.650
761.36	51.872
761.67	55.114
761.99	55.901
762.30	56.944
762.61	58.397
762.92	57.422
763.23	57.983
763.54	59.600
763.85	54.297
764.16	60.385
764.47	58.935
764.78	57.244
765.10	52.532
765.41	51.917
765.72	55.988
766.03	57.053
766.34	54.667
766.65	61.702
766.96	53.419
767.27	62.944
767.58	63.021
767.89	66.316
768.20	69.540
768.51	59.391
768.82	64.220
769.13	60.976
769.44	57.895
769.75	60.515
770.06	56.422
770.37	65.158
770.68	61.574
770.99	58.667
771.30	51.639
771.61	63.229
771.92	56.967
772.23	58.824
772.54	64.103
772.85	60.209
773.16	64.362
773.47	62.500
773.78	62.944
774.09	61.905
774.39	64.327
774.70	70.370
775.01	68.116
775.32	75.817
775.63	70.395
775.94	67.626
776.25	80.315
776.56	75.373
776.87	77.869
777.18	70.313
777.48	72.519
777.79	75.000
778.10	71.111
778.41	79.464
778.72	70.073
779.03	73.154
779.34	74.497
779.65	70.270
779.95	65.644
780.26	71.895
780.57	73.103
780.88	82.031
781.19	64.662
781.50	74.324
781.80	69.182
782.11	59.887
782.42	70.253
782.73	65.031
783.04	70.946
783.34	76.761
783.65	79.452
783.96	70.896
784.27	69.231
784.57	64.748
784.88	68.519
785.19	72.222
785.50	82.075
785.81	73.134
786.11	91.803
786.42	71.318
786.73	75.221
787.04	84.906
787.34	83.929
787.65	94.000
787.96	77.477
788.26	80.165
788.57	86.441
788.88	75.207
789.19	74.306
789.49	82.576
789.80	72.519
790.11	92.381
790.41	89.109
790.72	89.157
791.03	92.391
791.33	90.698
791.64	88.660
791.95	82.178
792.25	97.778
792.56	110.390
792.87	100.000
793.17	101.266
793.48	95.402
793.79	88.506
794.09	93.182
794.40	78.151
794.70	82.353
795.01	66.667
795.32	70.504
795.62	70.079
795.93	73.276
796.23	72.566
796.54	91.765
796.85	108.108
797.15	129.577
797.46	115.152
797.76	107.229
798.07	91.139
798.37	96.923
798.68	122.727
798.99	81.690
799.29	87.013
799.60	89.773
799.90	106.849
800.21	128.358
800.51	132.759
800.82	112.281
801.12	108.197
801.43	110.606
801.73	91.892
802.04	122.222
802.34	101.235
802.65	95.312
802.95	113.559
803.26	112.500
803.56	91.429
803.87	104.615
804.17	100.000
804.48	125.926
804.78	108.621
805.09	89.706
805.39	119.231
805.70	133.929
806.00	113.115
806.30	116.667
806.61	97.561
806.91	91.139
807.22	103.947
807.52	91.045
807.83	104.225
808.13	112.500
808.43	111.667
808.74	100.000
809.04	118.841
809.35	111.940
809.65	92.105
809.95	154.839
810.26	115.254
810.56	106.349
810.86	136.364
811.17	183.333
811.47	120.000
811.77	105.556
812.08	110.909
812.38	120.000
812.69	150.000
812.99	161.364
813.29	114.286
813.59	114.286
813.90	161.224
814.20	121.818
814.50	104.615
814.81	114.706
815.11	148.980
815.41	96.721
815.72	159.524
816.02	120.000
816.32	152.381
816.62	145.000
816.93	139.024
817.23	169.048
817.53	159.091
817.84	206.061
818.14	143.478
818.44	124.444
818.74	200.000
819.04	145.000
819.35	177.143
819.65	182.353
819.95	221.429
820.25	205.000
820.56	153.846
820.86	159.091
821.16	162.791
821.46	148.718
821.76	152.000
822.07	154.286
822.37	162.500
822.67	172.727
822.97	98.039
823.27	214.286
823.57	164.865
823.88	195.000
824.18	206.667
824.48	164.286
824.78	228.000
825.08	200.000
825.38	162.162
825.69	156.098
825.99	233.333
826.29	175.862
826.59	171.053
826.89	176.316
827.19	167.647
827.49	183.871
827.79	143.182
828.09	143.182
828.39	127.660
828.70	134.694
829.00	237.037
829.30	164.516
829.60	157.500
829.90	313.333
830.20	203.571
830.50	200.000
830.80	230.435
831.10	210.000
831.40	180.000
831.70	221.739
832.00	211.538
832.30	214.815
832.60	281.250
832.90	220.000
833.20	342.857
833.50	216.129
833.80	168.966
834.10	215.625
834.40	246.154
834.70	338.889
835.00	285.714
835.30	205.714
835.60	369.231
835.90	172.414
836.20	328.571
836.50	203.448
836.80	224.000
837.10	177.778
837.40	300.000
837.70	258.824
838.00	211.111
838.30	271.429
838.60	276.190
838.90	261.538
839.19	305.000
839.49	435.714
839.79	340.000
840.09	265.000
840.39	247.619
840.69	230.435
840.99	283.333
841.29	430.000
841.59	291.667
841.88	306.250
842.18	220.690
842.48	257.143
842.78	203.333
843.08	252.174
843.38	221.875
843.68	866.667
843.97	226.923
844.27	213.793
844.57	285.714
844.87	387.500
845.17	211.111
845.47	1866.667
845.76	455.556
846.06	329.412
846.36	562.500
846.66	350.000
846.96	306.250
847.25	445.455
847.55	372.727
847.85	217.391
848.15	600.000
848.44	371.429
848.74	216.667
849.04	335.294
849.34	440.000
849.63	210.526
849.93	463.636
850.23	1140.000
850.53	414.286
850.82	1950.000
851.12	-3700.000
851.42	4900.000
851.71	270.000
852.01	-1466.667
852.31	245.833
852.61	1566.667
852.90	309.524
853.20	228.000
853.50	288.235
853.79	276.190
854.09	241.667
854.39	356.250
854.68	156.757
854.98	183.871
855.28	163.333
855.57	220.690
855.87	196.296
856.17	242.105
856.46	320.000
856.76	329.412
857.05	213.793
857.35	212.500
857.65	340.000
857.94	243.478
858.24	230.769
858.53	285.000
858.83	295.455
859.13	340.000
859.42	0.000
859.72	555.556
860.01	409.091
860.31	236.364
860.60	294.737
860.90	208.696
861.20	533.333
861.49	533.333
861.79	-4800.000
862.08	625.000
862.38	247.619
862.67	369.231
862.97	352.941
863.26	600.000
863.56	255.556
863.85	383.333
864.15	575.000
864.44	366.667
864.74	900.000
865.03	775.000
865.33	321.053
865.62	472.727
865.92	369.231
866.21	408.333
866.51	0.000
866.80	409.091
867.10	1140.000
867.39	415.385
867.69	472.727
867.98	247.368
868.27	418.182
868.57	284.211
868.86	-4200.000
869.16	331.250
869.45	2450.000
869.75	-4700.000
870.04	500.000
870.33	642.857
870.63	1150.000
870.92	2800.000
871.22	714.286
871.51	317.647
871.80	252.381
872.10	321.429
>>>>>End Processed Spectral Data<<<<<
