SpectraSuite Data File
++++++++++++++++++++++++++++++++++++
Date: Wed May 13 20:38:17 PDT 2015
User: schluterlab
Dark Spectrum Present: Yes
Reference Spectrum Present: Yes
Number of Sampled Component Spectra: 1
Spectrometers: USB2E3373
Integration Time (usec): 3000 (USB2E3373)
Spectra Averaged: 3 (USB2E3373)
Boxcar Smoothing: 0 (USB2E3373)
Correct for Electrical Dark: No (USB2E3373)
Strobe/Lamp Enabled: No (USB2E3373)
Correct for Detector Non-linearity: No (USB2E3373)
Correct for Stray Light: No (USB2E3373)
Number of Pixels in Processed Spectrum: 2048
>>>>>Begin Processed Spectral Data<<<<<
178.53	0.000
178.91	-975.000
179.29	-775.000
179.67	-188.889
180.04	-925.000
180.42	1850.000
180.80	860.000
181.18	-725.000
181.56	342.857
181.94	0.000
182.31	-457.143
182.69	1233.333
183.07	-362.500
183.45	-422.222
183.83	463.636
184.20	-250.000
184.58	1250.000
184.96	3800.000
185.34	-600.000
185.72	-500.000
186.09	-1850.000
186.47	2200.000
186.85	1750.000
187.23	3200.000
187.61	-1233.333
187.98	1075.000
188.36	409.091
188.74	309.091
189.12	-600.000
189.49	440.000
189.87	-2800.000
190.25	-925.000
190.63	328.571
191.00	253.846
191.38	600.000
191.76	-525.000
192.14	825.000
192.51	425.000
192.89	700.000
193.27	475.000
193.65	-1000.000
194.02	340.000
194.40	720.000
194.78	490.000
195.15	316.667
195.53	450.000
195.91	-1200.000
196.29	300.000
196.66	231.579
197.04	-200.000
197.42	0.000
197.79	510.000
198.17	-2200.000
198.55	414.286
198.92	537.500
199.30	780.000
199.68	0.000
200.05	327.778
200.43	614.286
200.81	3200.000
201.18	1233.333
201.56	-900.000
201.94	377.778
202.31	344.444
202.69	366.667
203.07	390.000
203.44	0.000
203.82	1075.000
204.19	714.286
204.57	357.143
204.95	562.500
205.32	1100.000
205.70	381.818
206.08	357.143
206.45	1950.000
206.83	300.000
207.20	500.000
207.58	500.000
207.96	222.222
208.33	550.000
208.71	-533.333
209.08	628.571
209.46	466.667
209.84	400.000
210.21	-1233.333
210.59	1025.000
210.96	-312.500
211.34	1300.000
211.71	390.000
212.09	700.000
212.46	0.000
212.84	1533.333
213.22	975.000
213.59	-3100.000
213.97	650.000
214.34	457.143
214.72	463.636
215.09	760.000
215.47	-1900.000
215.84	-2050.000
216.22	1100.000
216.59	278.571
216.97	725.000
217.34	290.909
217.72	-600.000
218.09	0.000
218.47	-3500.000
218.84	511.111
219.22	528.571
219.59	1433.333
219.97	-400.000
220.34	760.000
220.72	-1200.000
221.09	285.714
221.47	925.000
221.84	-566.667
222.22	0.000
222.59	875.000
222.97	-1750.000
223.34	800.000
223.72	353.846
224.09	840.000
224.46	1450.000
224.84	-3400.000
225.21	-740.000
225.59	-2800.000
225.96	440.000
226.34	225.000
226.71	1850.000
227.08	425.000
227.46	390.000
227.83	-675.000
228.21	-1500.000
228.58	466.667
228.95	-1600.000
229.33	-1100.000
229.70	1433.333
230.08	471.429
230.45	-380.000
230.82	275.000
231.20	583.333
231.57	371.429
231.95	300.000
232.32	140.909
232.69	300.000
233.07	371.429
233.44	238.462
233.81	-1433.333
234.19	200.000
234.56	341.667
234.93	250.000
235.31	327.273
235.68	223.077
236.05	285.714
236.43	124.242
236.80	157.895
237.17	2500.000
237.55	161.905
237.92	157.143
238.29	157.143
238.67	109.677
239.04	96.552
239.41	105.556
239.79	71.739
240.16	85.714
240.53	81.818
240.91	56.863
241.28	76.000
241.65	56.000
242.02	52.174
242.40	48.387
242.77	56.667
243.14	38.710
243.51	48.315
243.89	30.588
244.26	38.889
244.63	40.860
245.00	42.553
245.38	24.752
245.75	22.430
246.12	22.936
246.49	34.307
246.87	38.400
247.24	38.462
247.61	19.286
247.98	24.837
248.36	17.568
248.73	21.019
249.10	22.293
249.47	19.209
249.84	15.508
250.22	16.043
250.59	17.160
250.96	18.687
251.33	23.697
251.70	21.782
252.08	14.286
252.45	16.143
252.82	14.783
253.19	14.468
253.56	16.078
253.94	17.012
254.31	14.453
254.68	14.615
255.05	16.974
255.42	13.008
255.79	10.294
256.16	14.801
256.54	9.541
256.91	11.032
257.28	9.353
257.65	11.551
258.02	12.733
258.39	12.934
258.76	9.365
259.14	14.583
259.51	10.942
259.88	9.627
260.25	12.085
260.62	11.561
260.99	8.696
261.36	9.910
261.73	8.883
262.10	9.593
262.47	10.704
262.85	6.964
263.22	5.413
263.59	10.541
263.96	10.714
264.33	11.227
264.70	8.684
265.07	10.486
265.44	10.101
265.81	7.299
266.18	7.286
266.55	9.756
266.92	7.371
267.29	8.796
267.66	9.174
268.03	10.227
268.40	9.813
268.77	5.489
269.14	5.631
269.51	9.029
269.88	7.692
270.25	6.095
270.62	8.764
270.99	10.968
271.36	9.013
271.73	7.009
272.10	8.478
272.47	8.817
272.84	8.442
273.21	8.805
273.58	3.493
273.95	5.660
274.32	7.438
274.69	9.208
275.06	5.315
275.43	8.298
275.80	8.617
276.17	7.536
276.54	9.148
276.91	6.324
277.28	8.594
277.65	8.897
278.02	6.625
278.39	5.664
278.76	6.545
279.13	7.547
279.50	8.939
279.87	7.171
280.23	6.387
280.60	5.029
280.97	6.654
281.34	7.611
281.71	7.818
282.08	6.142
282.45	7.273
282.82	6.750
283.19	3.209
283.56	6.491
283.92	6.599
284.29	6.878
284.66	6.534
285.03	5.063
285.40	5.458
285.77	4.040
286.14	5.527
286.51	6.833
286.87	7.179
287.24	5.375
287.61	5.778
287.98	5.357
288.35	5.388
288.72	7.009
289.08	7.355
289.45	5.601
289.82	6.829
290.19	5.024
290.56	5.207
290.93	5.438
291.29	4.755
291.66	5.900
292.03	6.105
292.40	7.195
292.77	4.882
293.13	5.373
293.50	5.394
293.87	5.630
294.24	4.148
294.60	2.475
294.97	6.250
295.34	5.783
295.71	5.682
296.08	4.274
296.44	4.814
296.81	3.831
297.18	6.233
297.55	3.694
297.91	5.013
298.28	5.355
298.65	7.050
299.02	6.456
299.38	4.781
299.75	2.156
300.12	3.576
300.48	3.500
300.85	5.055
301.22	5.096
301.59	3.030
301.95	3.904
302.32	4.236
302.69	3.943
303.05	5.333
303.42	4.074
303.79	3.851
304.15	3.846
304.52	3.824
304.89	3.600
305.25	4.640
305.62	5.889
305.99	3.778
306.35	3.356
306.72	2.915
307.09	4.883
307.45	4.842
307.82	3.237
308.19	3.532
308.55	5.070
308.92	3.759
309.29	3.379
309.65	3.181
310.02	3.911
310.38	5.054
310.75	3.907
311.12	4.094
311.48	3.866
311.85	4.717
312.22	3.746
312.58	4.054
312.95	4.013
313.31	2.913
313.68	3.430
314.05	5.523
314.41	3.116
314.78	2.920
315.14	3.972
315.51	3.708
315.87	4.950
316.24	3.277
316.61	2.924
316.97	3.523
317.34	3.033
317.70	3.920
318.07	4.427
318.43	3.033
318.80	4.217
319.16	3.390
319.53	3.283
319.89	4.000
320.26	4.600
320.62	4.167
320.99	3.838
321.35	4.242
321.72	3.799
322.08	3.356
322.45	3.582
322.81	3.876
323.18	3.757
323.54	4.360
323.91	4.623
324.27	2.772
324.64	2.423
325.00	2.705
325.37	3.367
325.73	4.129
326.10	3.795
326.46	3.315
326.83	3.883
327.19	3.757
327.56	3.310
327.92	3.325
328.29	4.082
328.65	2.947
329.01	3.520
329.38	2.498
329.74	3.047
330.11	2.639
330.47	3.214
330.84	5.055
331.20	3.097
331.56	3.303
331.93	2.685
332.29	4.170
332.66	3.805
333.02	4.113
333.38	3.884
333.75	4.100
334.11	3.648
334.48	3.194
334.84	3.768
335.20	2.727
335.57	2.539
335.93	2.143
336.29	2.747
336.66	4.148
337.02	2.624
337.38	3.426
337.75	2.941
338.11	2.686
338.47	2.578
338.84	3.300
339.20	3.303
339.56	3.467
339.93	2.727
340.29	2.083
340.65	3.565
341.02	3.839
341.38	2.936
341.74	3.070
342.11	4.192
342.47	2.907
342.83	3.168
343.20	4.416
343.56	3.201
343.92	3.333
344.28	2.976
344.65	2.837
345.01	3.367
345.37	1.715
345.73	2.707
346.10	3.666
346.46	3.559
346.82	2.636
347.19	2.673
347.55	3.120
347.91	2.832
348.27	3.451
348.63	3.428
349.00	2.670
349.36	2.299
349.72	3.769
350.08	2.107
350.45	3.011
350.81	3.656
351.17	3.485
351.53	3.112
351.89	2.063
352.26	3.394
352.62	3.368
352.98	3.485
353.34	2.629
353.70	2.128
354.07	2.339
354.43	2.778
354.79	2.414
355.15	2.793
355.51	3.038
355.87	2.531
356.24	3.176
356.60	3.128
356.96	3.138
357.32	2.862
357.68	2.913
358.04	2.692
358.40	2.930
358.77	3.052
359.13	2.841
359.49	2.745
359.85	1.508
360.21	1.675
360.57	3.502
360.93	2.538
361.29	2.192
361.66	2.632
362.02	2.910
362.38	2.510
362.74	2.753
363.10	2.591
363.46	2.715
363.82	2.797
364.18	3.084
364.54	3.195
364.90	3.116
365.26	2.500
365.62	2.337
365.98	2.045
366.35	2.006
366.71	3.181
367.07	2.258
367.43	1.959
367.79	2.712
368.15	3.592
368.51	2.035
368.87	3.283
369.23	1.683
369.59	2.824
369.95	2.574
370.31	2.707
370.67	2.319
371.03	3.521
371.39	3.061
371.75	2.500
372.11	2.632
372.47	3.079
372.83	3.602
373.19	2.095
373.55	2.735
373.91	3.314
374.27	2.680
374.63	1.673
374.99	2.613
375.35	1.884
375.71	2.262
376.07	3.018
376.42	1.857
376.78	3.645
377.14	1.900
377.50	2.649
377.86	1.729
378.22	3.097
378.58	1.692
378.94	1.760
379.30	1.463
379.66	1.777
380.02	2.396
380.38	2.125
380.74	2.581
381.09	1.956
381.45	2.397
381.81	2.580
382.17	2.484
382.53	2.704
382.89	2.469
383.25	1.751
383.61	2.664
383.97	2.376
384.32	2.121
384.68	1.859
385.04	1.598
385.40	2.415
385.76	1.966
386.12	1.878
386.48	2.266
386.83	2.245
387.19	2.536
387.55	2.474
387.91	2.297
388.27	1.962
388.62	2.459
388.98	1.536
389.34	3.254
389.70	2.207
390.06	2.345
390.42	2.399
390.77	2.545
391.13	1.723
391.49	3.299
391.85	2.101
392.20	0.883
392.56	1.515
392.92	1.707
393.28	1.420
393.64	2.818
393.99	2.932
394.35	2.233
394.71	2.008
395.07	1.745
395.42	2.163
395.78	2.481
396.14	2.359
396.50	2.506
396.85	2.861
397.21	1.726
397.57	1.860
397.92	2.704
398.28	1.345
398.64	2.330
399.00	2.238
399.35	2.200
399.71	2.546
400.07	3.016
400.42	2.086
400.78	2.111
401.14	2.134
401.49	1.970
401.85	1.633
402.21	1.796
402.57	2.529
402.92	2.081
403.28	2.498
403.63	1.980
403.99	1.720
404.35	2.364
404.70	1.499
405.06	2.038
405.42	1.622
405.77	1.943
406.13	2.483
406.49	2.425
406.84	1.654
407.20	1.714
407.55	2.170
407.91	2.067
408.27	1.276
408.62	2.167
408.98	2.451
409.34	2.153
409.69	2.194
410.05	2.354
410.40	1.896
410.76	1.852
411.11	2.352
411.47	2.556
411.83	2.443
412.18	1.670
412.54	2.179
412.89	2.711
413.25	2.066
413.60	2.409
413.96	2.489
414.31	2.552
414.67	2.535
415.03	1.854
415.38	2.835
415.74	1.994
416.09	2.221
416.45	2.544
416.80	2.115
417.16	2.413
417.51	2.455
417.87	1.991
418.22	2.650
418.58	2.518
418.93	2.088
419.29	2.037
419.64	2.645
420.00	1.890
420.35	2.203
420.71	3.467
421.06	2.148
421.42	2.573
421.77	2.915
422.12	1.684
422.48	1.079
422.83	1.980
423.19	2.431
423.54	1.915
423.90	2.667
424.25	2.233
424.61	2.202
424.96	2.507
425.31	2.381
425.67	1.854
426.02	2.000
426.38	2.930
426.73	2.224
427.09	1.884
427.44	2.645
427.79	2.933
428.15	2.440
428.50	2.224
428.85	2.324
429.21	1.767
429.56	1.192
429.92	1.409
430.27	1.589
430.62	1.434
430.98	2.076
431.33	2.113
431.68	1.990
432.04	2.396
432.39	1.599
432.74	2.274
433.10	1.981
433.45	1.458
433.80	1.386
434.16	2.350
434.51	2.158
434.86	1.767
435.22	2.001
435.57	1.945
435.92	1.989
436.28	2.313
436.63	2.980
436.98	1.431
437.34	2.326
437.69	2.100
438.04	1.967
438.39	1.970
438.75	2.382
439.10	2.123
439.45	2.479
439.81	1.692
440.16	2.202
440.51	1.992
440.86	2.490
441.22	1.835
441.57	2.070
441.92	2.098
442.27	1.938
442.63	1.790
442.98	2.085
443.33	2.500
443.68	2.065
444.03	1.367
444.39	1.607
444.74	2.706
445.09	2.156
445.44	2.078
445.79	2.128
446.15	2.647
446.50	1.454
446.85	1.850
447.20	1.734
447.55	1.843
447.91	1.875
448.26	2.393
448.61	1.922
448.96	2.159
449.31	1.912
449.66	2.476
450.02	1.337
450.37	1.757
450.72	1.918
451.07	1.280
451.42	1.641
451.77	2.408
452.12	2.483
452.47	2.301
452.83	2.098
453.18	2.017
453.53	2.412
453.88	1.536
454.23	2.152
454.58	2.241
454.93	2.670
455.28	1.808
455.63	2.731
455.98	2.560
456.34	1.759
456.69	2.254
457.04	2.415
457.39	2.338
457.74	1.509
458.09	1.553
458.44	2.223
458.79	1.627
459.14	1.806
459.49	1.810
459.84	1.994
460.19	1.296
460.54	1.562
460.89	2.194
461.24	2.125
461.59	3.196
461.94	2.281
462.29	2.671
462.64	2.489
462.99	1.496
463.34	2.533
463.69	2.689
464.04	2.609
464.39	2.319
464.74	2.852
465.09	1.689
465.44	1.939
465.79	1.957
466.14	2.025
466.49	1.780
466.84	2.043
467.19	2.112
467.54	2.625
467.89	2.041
468.24	2.269
468.59	2.625
468.94	1.772
469.29	1.864
469.64	3.146
469.99	1.962
470.34	2.312
470.68	1.580
471.03	2.313
471.38	2.154
471.73	2.532
472.08	2.566
472.43	2.450
472.78	2.172
473.13	3.017
473.48	1.873
473.83	2.073
474.17	1.493
474.52	2.667
474.87	2.335
475.22	2.322
475.57	1.558
475.92	1.859
476.27	1.973
476.61	1.765
476.96	1.704
477.31	1.465
477.66	1.860
478.01	1.725
478.36	2.327
478.70	1.090
479.05	1.597
479.40	2.354
479.75	1.983
480.10	1.441
480.45	1.904
480.79	1.672
481.14	2.397
481.49	2.373
481.84	1.783
482.19	1.318
482.53	1.514
482.88	1.768
483.23	1.963
483.58	1.956
483.92	1.968
484.27	1.656
484.62	1.724
484.97	1.419
485.31	1.062
485.66	0.836
486.01	0.424
486.36	0.435
486.70	0.476
487.05	0.722
487.40	0.894
487.75	0.904
488.09	1.244
488.44	1.201
488.79	1.483
489.13	1.566
489.48	1.305
489.83	1.252
490.17	1.797
490.52	1.904
490.87	1.945
491.22	1.955
491.56	1.549
491.91	1.489
492.26	1.516
492.60	1.567
492.95	1.497
493.30	1.589
493.64	1.680
493.99	1.346
494.34	1.758
494.68	1.969
495.03	1.269
495.37	1.349
495.72	1.462
496.07	1.624
496.41	1.195
496.76	2.111
497.11	1.891
497.45	1.770
497.80	2.015
498.14	1.836
498.49	1.268
498.84	1.678
499.18	1.857
499.53	1.614
499.87	2.237
500.22	1.460
500.56	1.942
500.91	1.394
501.26	1.517
501.60	1.993
501.95	1.650
502.29	1.968
502.64	2.095
502.98	1.964
503.33	1.691
503.67	1.531
504.02	1.543
504.36	2.059
504.71	1.368
505.06	2.120
505.40	1.896
505.75	1.736
506.09	1.409
506.44	1.381
506.78	1.266
507.13	1.413
507.47	2.424
507.82	2.381
508.16	2.178
508.51	1.522
508.85	1.589
509.19	1.429
509.54	1.939
509.88	1.494
510.23	1.131
510.57	2.683
510.92	2.227
511.26	1.953
511.61	2.178
511.95	1.931
512.30	1.909
512.64	2.042
512.98	2.144
513.33	1.606
513.67	1.814
514.02	1.894
514.36	2.021
514.70	2.048
515.05	2.008
515.39	2.356
515.74	2.703
516.08	2.627
516.42	2.664
516.77	2.787
517.11	1.665
517.46	2.427
517.80	2.033
518.14	1.274
518.49	1.867
518.83	1.932
519.17	1.848
519.52	2.037
519.86	1.997
520.20	2.601
520.55	2.274
520.89	2.190
521.23	2.171
521.58	1.741
521.92	2.388
522.26	1.830
522.61	1.682
522.95	1.964
523.29	2.374
523.64	2.073
523.98	2.711
524.32	2.232
524.66	2.225
525.01	1.900
525.35	1.611
525.69	2.032
526.04	2.305
526.38	2.379
526.72	2.270
527.06	1.444
527.41	1.733
527.75	2.251
528.09	2.119
528.43	1.848
528.78	2.336
529.12	1.818
529.46	2.143
529.80	1.980
530.15	2.305
530.49	2.154
530.83	2.215
531.17	2.546
531.51	2.983
531.86	2.581
532.20	2.477
532.54	3.075
532.88	2.953
533.22	2.249
533.57	2.963
533.91	2.709
534.25	1.701
534.59	2.013
534.93	2.082
535.27	2.293
535.62	1.954
535.96	1.695
536.30	1.716
536.64	2.189
536.98	2.654
537.32	2.238
537.66	1.667
538.01	2.831
538.35	2.069
538.69	2.680
539.03	2.209
539.37	2.173
539.71	1.685
540.05	2.680
540.39	2.525
540.73	2.135
541.07	3.374
541.42	2.674
541.76	2.710
542.10	3.169
542.44	1.722
542.78	3.360
543.12	2.431
543.46	2.951
543.80	3.253
544.14	2.375
544.48	3.111
544.82	2.373
545.16	2.733
545.50	2.571
545.84	2.554
546.18	2.559
546.52	2.684
546.86	2.062
547.20	2.697
547.54	2.605
547.88	3.125
548.22	2.802
548.56	2.327
548.90	1.985
549.24	1.818
549.58	2.524
549.92	2.747
550.26	2.628
550.60	2.213
550.94	2.746
551.28	1.097
551.62	2.301
551.96	2.316
552.30	2.867
552.64	2.569
552.98	3.119
553.32	2.630
553.66	3.204
554.00	2.814
554.34	2.761
554.68	2.647
555.02	2.186
555.36	2.018
555.69	2.233
556.03	2.423
556.37	2.524
556.71	2.524
557.05	2.801
557.39	3.429
557.73	2.541
558.07	1.813
558.41	2.171
558.75	1.763
559.08	2.685
559.42	2.570
559.76	2.500
560.10	2.141
560.44	2.306
560.78	2.329
561.12	2.045
561.45	3.259
561.79	1.912
562.13	2.616
562.47	2.664
562.81	2.232
563.15	2.876
563.48	2.454
563.82	1.826
564.16	2.224
564.50	1.367
564.84	2.402
565.17	2.317
565.51	2.428
565.85	2.348
566.19	1.252
566.52	2.343
566.86	1.688
567.20	2.771
567.54	1.941
567.88	1.467
568.21	2.116
568.55	1.567
568.89	1.362
569.23	1.693
569.56	1.457
569.90	1.434
570.24	1.220
570.57	1.122
570.91	0.711
571.25	1.204
571.59	1.149
571.92	1.094
572.26	1.011
572.60	1.411
572.93	1.319
573.27	1.065
573.61	1.256
573.95	1.034
574.28	0.729
574.62	0.850
574.96	0.932
575.29	0.849
575.63	1.067
575.97	1.250
576.30	1.221
576.64	0.733
576.98	0.705
577.31	0.531
577.65	0.630
577.98	0.543
578.32	0.814
578.66	0.797
578.99	0.776
579.33	0.871
579.67	0.535
580.00	0.791
580.34	0.807
580.67	0.922
581.01	1.124
581.35	0.716
581.68	0.781
582.02	0.490
582.35	0.542
582.69	0.758
583.02	0.774
583.36	0.761
583.70	0.974
584.03	0.993
584.37	0.870
584.70	0.758
585.04	1.174
585.37	1.142
585.71	1.292
586.04	1.063
586.38	0.888
586.72	1.353
587.05	0.869
587.39	1.055
587.72	0.979
588.06	1.014
588.39	1.043
588.73	1.085
589.06	1.402
589.40	0.842
589.73	1.126
590.07	1.495
590.40	0.986
590.73	1.171
591.07	1.343
591.40	1.771
591.74	1.948
592.07	1.396
592.41	1.778
592.74	1.086
593.08	1.466
593.41	0.949
593.75	1.437
594.08	1.341
594.41	1.273
594.75	1.109
595.08	1.288
595.42	1.156
595.75	1.282
596.09	1.765
596.42	1.650
596.75	1.688
597.09	2.208
597.42	1.096
597.75	1.552
598.09	1.478
598.42	1.503
598.76	1.135
599.09	1.368
599.42	1.528
599.76	1.428
600.09	1.129
600.42	1.059
600.76	1.071
601.09	1.020
601.42	1.712
601.76	1.822
602.09	1.146
602.42	1.632
602.76	2.015
603.09	1.338
603.42	1.679
603.76	1.067
604.09	1.086
604.42	1.427
604.76	2.024
605.09	1.616
605.42	1.411
605.75	1.490
606.09	0.691
606.42	1.144
606.75	2.074
607.09	1.884
607.42	1.412
607.75	1.392
608.08	1.650
608.42	1.972
608.75	1.894
609.08	1.573
609.41	1.618
609.75	1.334
610.08	1.791
610.41	1.071
610.74	1.277
611.07	2.075
611.41	2.012
611.74	2.112
612.07	2.226
612.40	2.256
612.73	1.211
613.07	2.047
613.40	2.159
613.73	1.259
614.06	1.828
614.39	2.569
614.72	2.263
615.06	2.258
615.39	1.752
615.72	1.892
616.05	1.223
616.38	2.057
616.71	2.316
617.05	2.356
617.38	2.105
617.71	1.562
618.04	2.224
618.37	1.952
618.70	2.427
619.03	2.895
619.36	2.919
619.69	2.324
620.03	2.610
620.36	2.741
620.69	2.877
621.02	2.434
621.35	2.662
621.68	2.882
622.01	3.096
622.34	3.480
622.67	2.586
623.00	2.201
623.33	1.787
623.66	2.931
623.99	2.283
624.32	2.068
624.65	2.966
624.99	2.408
625.32	2.100
625.65	2.930
625.98	2.537
626.31	3.888
626.64	3.510
626.97	3.242
627.30	2.494
627.63	3.610
627.96	2.775
628.29	2.450
628.62	4.026
628.95	4.434
629.28	3.102
629.61	4.216
629.94	2.571
630.26	2.574
630.59	4.766
630.92	2.586
631.25	2.073
631.58	3.704
631.91	3.245
632.24	2.743
632.57	4.617
632.90	3.180
633.23	4.027
633.56	4.972
633.89	4.870
634.22	4.200
634.55	4.497
634.88	3.353
635.20	4.062
635.53	4.699
635.86	3.713
636.19	3.765
636.52	4.498
636.85	4.467
637.18	3.802
637.51	4.610
637.83	2.589
638.16	4.476
638.49	5.416
638.82	5.436
639.15	4.000
639.48	5.237
639.81	5.362
640.13	5.078
640.46	6.040
640.79	5.416
641.12	4.264
641.45	4.609
641.77	6.186
642.10	3.655
642.43	3.604
642.76	5.573
643.09	4.448
643.41	3.035
643.74	6.944
644.07	5.945
644.40	6.135
644.73	7.717
645.05	6.656
645.38	6.635
645.71	5.958
646.04	5.482
646.36	5.509
646.69	5.853
647.02	5.102
647.35	5.842
647.67	5.841
648.00	7.317
648.33	4.950
648.66	5.909
648.98	6.297
649.31	2.990
649.64	5.082
649.96	5.514
650.29	4.423
650.62	4.045
650.94	6.159
651.27	8.277
651.60	6.489
651.92	7.668
652.25	3.583
652.58	5.607
652.90	6.003
653.23	4.777
653.56	4.252
653.88	5.388
654.21	5.213
654.54	5.941
654.86	5.296
655.19	2.432
655.52	1.195
655.84	0.374
656.17	0.212
656.49	0.331
656.82	0.289
657.15	0.339
657.47	0.263
657.80	0.288
658.13	0.366
658.45	0.513
658.78	0.659
659.10	0.951
659.43	1.361
659.75	1.385
660.08	1.329
660.41	2.886
660.73	4.956
661.06	5.255
661.38	6.364
661.71	7.692
662.03	7.692
662.36	4.573
662.68	7.430
663.01	9.293
663.33	4.671
663.66	9.034
663.98	7.127
664.31	5.882
664.63	5.466
664.96	5.835
665.28	7.787
665.61	7.992
665.93	4.829
666.26	7.708
666.58	6.485
666.91	9.514
667.23	4.719
667.56	5.832
667.88	7.265
668.21	7.463
668.53	8.894
668.86	7.792
669.18	11.087
669.50	8.696
669.83	8.715
670.15	6.222
670.48	6.318
670.80	6.897
671.13	9.130
671.45	5.106
671.77	7.332
672.10	7.948
672.42	6.360
672.75	7.629
673.07	4.577
673.39	4.521
673.72	3.516
674.04	6.275
674.37	7.767
674.69	4.090
675.01	5.858
675.34	7.598
675.66	9.684
675.98	6.721
676.31	6.723
676.63	7.856
676.95	7.128
677.28	6.542
677.60	7.253
677.92	9.494
678.25	6.776
678.57	9.363
678.89	5.010
679.22	6.090
679.54	7.634
679.86	8.440
680.18	6.261
680.51	6.028
680.83	6.940
681.15	7.925
681.48	8.696
681.80	5.222
682.12	6.130
682.44	5.416
682.77	7.536
683.09	8.584
683.41	8.869
683.73	7.947
684.06	9.298
684.38	8.415
684.70	6.783
685.02	8.068
685.34	5.678
685.67	5.070
685.99	5.670
686.31	5.973
686.63	3.887
686.96	5.357
687.28	6.498
687.60	5.616
687.92	6.764
688.24	6.464
688.56	7.229
688.89	8.506
689.21	8.079
689.53	8.351
689.85	7.095
690.17	7.039
690.49	8.917
690.82	7.009
691.14	3.125
691.46	3.376
691.78	8.032
692.10	8.471
692.42	9.980
692.74	6.846
693.06	6.383
693.39	9.240
693.71	7.205
694.03	8.632
694.35	6.494
694.67	5.263
694.99	8.537
695.31	8.088
695.63	7.416
695.95	8.313
696.27	4.822
696.59	8.031
696.91	10.104
697.23	6.338
697.56	8.529
697.88	6.135
698.20	6.875
698.52	7.312
698.84	9.354
699.16	8.756
699.48	6.888
699.80	8.454
700.12	13.247
700.44	10.080
700.76	10.773
701.08	9.770
701.40	8.101
701.72	13.994
702.04	15.057
702.36	7.649
702.68	7.649
703.00	9.418
703.32	7.713
703.64	10.456
703.96	9.471
704.28	11.047
704.60	11.730
704.91	12.760
705.23	12.023
705.55	11.628
705.87	13.621
706.19	8.127
706.51	10.903
706.83	14.848
707.15	8.964
707.47	8.081
707.79	10.811
708.11	7.763
708.43	6.667
708.74	3.571
709.06	11.429
709.38	10.761
709.70	9.884
710.02	12.463
710.34	9.697
710.66	11.642
710.98	11.364
711.29	11.628
711.61	13.569
711.93	9.615
712.25	12.219
712.57	7.353
712.89	14.187
713.20	11.854
713.52	11.184
713.84	9.494
714.16	10.366
714.48	9.195
714.80	11.550
715.11	8.646
715.43	8.902
715.75	10.435
716.07	12.460
716.39	10.972
716.70	14.618
717.02	12.590
717.34	10.247
717.66	14.179
717.97	15.538
718.29	13.333
718.61	12.774
718.93	15.809
719.24	10.381
719.56	11.864
719.88	14.576
720.20	14.189
720.51	14.286
720.83	14.126
721.15	10.075
721.46	14.894
721.78	14.695
722.10	13.585
722.42	12.782
722.73	16.479
723.05	5.738
723.37	13.360
723.68	13.127
724.00	13.008
724.32	14.516
724.63	12.602
724.95	14.644
725.27	18.623
725.58	16.797
725.90	16.788
726.22	10.189
726.53	10.417
726.85	11.263
727.16	12.456
727.48	13.830
727.80	14.773
728.11	13.768
728.43	10.000
728.74	12.545
729.06	15.693
729.38	15.441
729.69	14.947
730.01	12.969
730.32	12.847
730.64	12.375
730.96	6.931
731.27	12.914
731.59	13.150
731.90	11.953
732.22	8.075
732.53	11.146
732.85	10.256
733.16	12.540
733.48	11.960
733.80	13.961
734.11	13.694
734.43	12.130
734.74	9.429
735.06	9.456
735.37	12.717
735.69	8.599
736.00	10.784
736.32	12.773
736.63	10.543
736.95	11.182
737.26	9.864
737.58	11.290
737.89	11.371
738.21	13.311
738.52	14.286
738.83	11.321
739.15	13.077
739.46	14.964
739.78	11.111
740.09	12.615
740.41	13.871
740.72	8.362
741.04	13.704
741.35	13.750
741.66	23.556
741.98	12.736
742.29	20.574
742.61	24.569
742.92	11.312
743.23	10.256
743.55	16.400
743.86	14.912
744.18	16.814
744.49	16.268
744.80	19.718
745.12	22.727
745.43	18.943
745.74	14.865
746.06	15.596
746.37	16.143
746.68	14.932
747.00	14.815
747.31	13.810
747.62	10.619
747.94	12.335
748.25	12.766
748.56	18.502
748.88	13.366
749.19	17.500
749.50	16.279
749.82	11.789
750.13	13.061
750.44	15.693
750.75	14.035
751.07	16.399
751.38	14.634
751.69	14.079
752.01	13.158
752.32	13.718
752.63	14.539
752.94	9.836
753.26	17.200
753.57	11.382
753.88	14.453
754.19	14.286
754.51	14.236
754.82	9.386
755.13	12.075
755.44	15.038
755.75	10.219
756.07	7.801
756.38	10.219
756.69	12.416
757.00	9.880
757.31	9.792
757.63	9.649
757.94	10.456
758.25	9.069
758.56	7.160
758.87	11.559
759.18	10.303
759.50	7.837
759.81	11.215
760.12	5.625
760.43	7.450
760.74	9.239
761.05	9.887
761.36	8.556
761.67	11.364
761.99	10.870
762.30	14.583
762.61	12.214
762.92	12.500
763.23	13.445
763.54	14.800
763.85	11.328
764.16	12.308
764.47	15.589
764.78	8.127
765.10	9.810
765.41	10.619
765.72	13.772
766.03	15.674
766.34	14.333
766.65	17.872
766.96	13.675
767.27	16.751
767.58	21.875
767.89	24.737
768.20	17.241
768.51	15.736
768.82	19.266
769.13	14.634
769.44	11.741
769.75	13.305
770.06	9.174
770.37	18.100
770.68	16.204
770.99	15.556
771.30	13.934
771.61	13.901
771.92	16.393
772.23	20.168
772.54	18.974
772.85	15.183
773.16	21.277
773.47	20.109
773.78	25.381
774.09	22.024
774.39	21.637
774.70	17.901
775.01	27.536
775.32	35.294
775.63	22.368
775.94	17.266
776.25	29.921
776.56	31.343
776.87	27.869
777.18	29.687
777.48	29.008
777.79	34.848
778.10	31.852
778.41	25.000
778.72	20.438
779.03	24.161
779.34	20.134
779.65	20.270
779.95	23.313
780.26	30.065
780.57	26.207
780.88	40.625
781.19	22.556
781.50	22.973
781.80	20.126
782.11	18.644
782.42	20.886
782.73	24.540
783.04	16.216
783.34	28.169
783.65	30.822
783.96	23.134
784.27	25.874
784.57	28.058
784.88	16.667
785.19	34.921
785.50	27.358
785.81	38.806
786.11	36.885
786.42	18.605
786.73	27.434
787.04	37.736
787.34	30.357
787.65	30.000
787.96	33.333
788.26	28.099
788.57	43.220
788.88	33.884
789.19	29.861
789.49	30.303
789.80	22.137
790.11	39.048
790.41	40.594
790.72	30.120
791.03	38.043
791.33	37.209
791.64	29.897
791.95	37.624
792.25	38.889
792.56	40.260
792.87	58.974
793.17	63.291
793.48	43.678
793.79	40.230
794.09	30.682
794.40	23.529
794.70	35.294
795.01	26.667
795.32	22.302
795.62	25.197
795.93	32.759
796.23	34.513
796.54	38.824
796.85	55.405
797.15	57.746
797.46	46.970
797.76	40.964
798.07	40.506
798.37	47.692
798.68	42.424
798.99	23.944
799.29	44.156
799.60	29.545
799.90	54.795
800.21	56.716
800.51	53.448
800.82	54.386
801.12	52.459
801.43	54.545
801.73	47.297
802.04	61.905
802.34	48.148
802.65	57.813
802.95	79.661
803.26	62.500
803.56	52.857
803.87	47.692
804.17	55.882
804.48	75.926
804.78	60.345
805.09	58.824
805.39	59.615
805.70	48.214
806.00	52.459
806.30	40.909
806.61	46.341
806.91	41.772
807.22	42.105
807.52	37.313
807.83	59.155
808.13	64.063
808.43	66.667
808.74	30.263
809.04	43.478
809.35	47.761
809.65	50.000
809.95	69.355
810.26	50.847
810.56	57.143
810.86	77.273
811.17	61.905
811.47	65.000
811.77	74.074
812.08	69.091
812.38	62.000
812.69	88.889
812.99	93.182
813.29	59.184
813.59	57.143
813.90	71.429
814.20	69.091
814.50	44.615
814.81	80.882
815.11	63.265
815.41	63.934
815.72	78.571
816.02	89.091
816.32	69.048
816.62	67.500
816.93	87.805
817.23	92.857
817.53	70.455
817.84	106.061
818.14	82.609
818.44	95.556
818.74	141.176
819.04	77.500
819.35	88.571
819.65	114.706
819.95	100.000
820.25	110.000
820.56	107.692
820.86	97.727
821.16	95.349
821.46	92.308
821.76	88.000
822.07	102.857
822.37	75.000
822.67	66.667
822.97	72.549
823.27	157.143
823.57	100.000
823.88	110.000
824.18	106.667
824.48	83.333
824.78	116.000
825.08	150.000
825.38	81.081
825.69	85.366
825.99	145.833
826.29	82.759
826.59	107.895
826.89	73.684
827.19	100.000
827.49	87.097
827.79	111.364
828.09	88.636
828.39	65.957
828.70	87.755
829.00	85.185
829.30	106.452
829.60	75.000
829.90	126.667
830.20	146.429
830.50	108.696
830.80	126.087
831.10	100.000
831.40	113.333
831.70	143.478
832.00	126.923
832.30	122.222
832.60	206.250
832.90	153.333
833.20	285.714
833.50	119.355
833.80	131.034
834.10	137.500
834.40	173.077
834.70	211.111
835.00	209.524
835.30	137.143
835.60	323.077
835.90	131.034
836.20	185.714
836.50	89.655
836.80	108.000
837.10	116.667
837.40	157.143
837.70	200.000
838.00	118.519
838.30	166.667
838.60	219.048
838.90	173.077
839.19	155.000
839.49	242.857
839.79	225.000
840.09	165.000
840.39	152.381
840.69	213.043
840.99	177.778
841.29	260.000
841.59	216.667
841.88	193.750
842.18	110.345
842.48	190.476
842.78	150.000
843.08	186.957
843.38	125.000
843.68	500.000
843.97	180.769
844.27	120.690
844.57	204.762
844.87	200.000
845.17	170.370
845.47	966.667
845.76	211.111
846.06	211.765
846.36	400.000
846.66	250.000
846.96	212.500
847.25	227.273
847.55	272.727
847.85	186.957
848.15	330.000
848.44	257.143
848.74	172.222
849.04	205.882
849.34	350.000
849.63	173.684
849.93	327.273
850.23	680.000
850.53	271.429
850.82	1650.000
851.12	-4000.000
851.42	3900.000
851.71	165.000
852.01	-700.000
852.31	204.167
852.61	1133.333
852.90	176.190
853.20	160.000
853.50	188.235
853.79	161.905
854.09	154.167
854.39	193.750
854.68	118.919
854.98	119.355
855.28	103.333
855.57	158.621
855.87	129.630
856.17	131.579
856.46	206.667
856.76	200.000
857.05	155.172
857.35	175.000
857.65	246.667
857.94	186.957
858.24	161.538
858.53	205.000
858.83	163.636
859.13	233.333
859.42	0.000
859.72	377.778
860.01	309.091
860.31	190.909
860.60	178.947
860.90	156.522
861.20	333.333
861.49	408.333
861.79	-1900.000
862.08	462.500
862.38	171.429
862.67	161.538
862.97	205.882
863.26	466.667
863.56	166.667
863.85	233.333
864.15	412.500
864.44	286.667
864.74	533.333
865.03	500.000
865.33	189.474
865.62	336.364
865.92	307.692
866.21	225.000
866.51	0.000
866.80	254.545
867.10	740.000
867.39	338.462
867.69	327.273
867.98	178.947
868.27	300.000
868.57	215.789
868.86	-2500.000
869.16	231.250
869.45	1300.000
869.75	-1500.000
870.04	341.667
870.33	414.286
870.63	675.000
870.92	1800.000
871.22	442.857
871.51	229.412
871.80	176.190
872.10	257.143
>>>>>End Processed Spectral Data<<<<<
