SpectraSuite Data File
++++++++++++++++++++++++++++++++++++
Date: Wed May 13 20:38:09 PDT 2015
User: schluterlab
Dark Spectrum Present: Yes
Reference Spectrum Present: Yes
Number of Sampled Component Spectra: 1
Spectrometers: USB2E3373
Integration Time (usec): 3000 (USB2E3373)
Spectra Averaged: 3 (USB2E3373)
Boxcar Smoothing: 0 (USB2E3373)
Correct for Electrical Dark: No (USB2E3373)
Strobe/Lamp Enabled: No (USB2E3373)
Correct for Detector Non-linearity: No (USB2E3373)
Correct for Stray Light: No (USB2E3373)
Number of Pixels in Processed Spectrum: 2048
>>>>>Begin Processed Spectral Data<<<<<
178.53	0.000
178.91	-1025.000
179.29	-825.000
179.67	-155.556
180.04	-975.000
180.42	2400.000
180.80	700.000
181.18	-800.000
181.56	428.571
181.94	0.000
182.31	-485.714
182.69	1200.000
183.07	-325.000
183.45	-388.889
183.83	445.455
184.20	-250.000
184.58	1900.000
184.96	3400.000
185.34	-620.000
185.72	-350.000
186.09	-1850.000
186.47	2050.000
186.85	2300.000
187.23	3400.000
187.61	-1100.000
187.98	850.000
188.36	500.000
188.74	381.818
189.12	-600.000
189.49	390.000
189.87	-3400.000
190.25	-1050.000
190.63	321.429
191.00	307.692
191.38	666.667
191.76	-875.000
192.14	975.000
192.51	462.500
192.89	716.667
193.27	425.000
193.65	-675.000
194.02	400.000
194.40	820.000
194.78	410.000
195.15	425.000
195.53	570.000
195.91	-1350.000
196.29	312.500
196.66	236.842
197.04	-260.000
197.42	0.000
197.79	520.000
198.17	-3000.000
198.55	528.571
198.92	475.000
199.30	900.000
199.68	0.000
200.05	238.889
200.43	628.571
200.81	4100.000
201.18	1100.000
201.56	-1266.667
201.94	388.889
202.31	433.333
202.69	250.000
203.07	420.000
203.44	0.000
203.82	775.000
204.19	557.143
204.57	307.143
204.95	462.500
205.32	1400.000
205.70	400.000
206.08	335.714
206.45	1700.000
206.83	287.500
207.20	600.000
207.58	380.000
207.96	277.778
208.33	512.500
208.71	-566.667
209.08	600.000
209.46	566.667
209.84	390.909
210.21	-1066.667
210.59	1150.000
210.96	-250.000
211.34	2150.000
211.71	420.000
212.09	483.333
212.46	0.000
212.84	1433.333
213.22	1000.000
213.59	-3600.000
213.97	666.667
214.34	428.571
214.72	418.182
215.09	720.000
215.47	-1500.000
215.84	-1300.000
216.22	1133.333
216.59	292.857
216.97	825.000
217.34	245.455
217.72	-516.667
218.09	0.000
218.47	-3900.000
218.84	533.333
219.22	614.286
219.59	1266.667
219.97	-414.286
220.34	660.000
220.72	-1233.333
221.09	314.286
221.47	925.000
221.84	-716.667
222.22	0.000
222.59	950.000
222.97	-2200.000
223.34	820.000
223.72	269.231
224.09	720.000
224.46	2000.000
224.84	-3900.000
225.21	-840.000
225.59	-3500.000
225.96	460.000
226.34	250.000
226.71	2350.000
227.08	587.500
227.46	480.000
227.83	-925.000
228.21	-1700.000
228.58	433.333
228.95	-1950.000
229.33	-2100.000
229.70	1166.667
230.08	514.286
230.45	-680.000
230.82	241.667
231.20	483.333
231.57	457.143
231.95	316.667
232.32	204.545
232.69	336.364
233.07	557.143
233.44	253.846
233.81	-1100.000
234.19	215.789
234.56	325.000
234.93	225.000
235.31	427.273
235.68	176.923
236.05	250.000
236.43	163.636
236.80	194.737
237.17	2600.000
237.55	180.952
237.92	150.000
238.29	171.429
238.67	116.129
239.04	148.276
239.41	108.333
239.79	106.522
240.16	107.143
240.53	113.636
240.91	70.588
241.28	112.000
241.65	72.000
242.02	85.507
242.40	64.516
242.77	70.000
243.14	61.290
243.51	70.787
243.89	51.765
244.26	68.889
244.63	58.065
245.00	45.745
245.38	44.554
245.75	44.860
246.12	47.706
246.49	55.474
246.87	60.000
247.24	48.462
247.61	41.429
247.98	45.098
248.36	37.162
248.73	45.223
249.10	44.586
249.47	41.808
249.84	47.059
250.22	36.364
250.59	37.278
250.96	37.374
251.33	39.810
251.70	40.099
252.08	32.381
252.45	33.184
252.82	33.913
253.19	34.043
253.56	39.608
253.94	37.344
254.31	35.937
254.68	38.077
255.05	35.424
255.42	32.927
255.79	38.235
256.16	31.769
256.54	31.095
256.91	32.028
257.28	30.216
257.65	32.013
258.02	31.056
258.39	29.968
258.76	28.763
259.14	27.381
259.51	29.179
259.88	26.087
260.25	34.743
260.62	31.792
260.99	30.435
261.36	30.030
261.73	29.799
262.10	32.267
262.47	28.451
262.85	28.691
263.22	26.781
263.59	33.048
263.96	26.099
264.33	28.198
264.70	27.368
265.07	29.412
265.44	25.000
265.81	27.737
266.18	31.407
266.55	28.293
266.92	32.924
267.29	27.546
267.66	27.294
268.03	27.045
268.40	25.935
268.77	23.628
269.14	28.153
269.51	28.894
269.88	26.573
270.25	25.282
270.62	29.888
270.99	29.677
271.36	27.897
271.73	28.271
272.10	27.174
272.47	27.312
272.84	26.840
273.21	28.302
273.58	27.074
273.95	25.786
274.32	25.000
274.69	27.623
275.06	27.165
275.43	27.660
275.80	25.451
276.17	24.644
276.54	25.988
276.91	25.889
277.28	24.609
277.65	27.466
278.02	25.259
278.39	26.758
278.76	25.455
279.13	25.094
279.50	24.395
279.87	25.100
280.23	27.745
280.60	26.112
280.97	25.508
281.34	26.372
281.71	24.909
282.08	26.296
282.45	23.273
282.82	23.979
283.19	22.103
283.56	23.509
283.92	25.042
284.29	25.220
284.66	24.501
285.03	25.136
285.40	25.880
285.77	24.411
286.14	23.834
286.51	23.667
286.87	23.419
287.24	25.407
287.61	23.917
287.98	22.890
288.35	22.187
288.72	21.807
289.08	22.379
289.45	23.394
289.82	24.065
290.19	20.722
290.56	21.133
290.93	19.940
291.29	21.012
291.66	20.354
292.03	23.256
292.40	23.495
292.77	18.639
293.13	20.299
293.50	20.262
293.87	21.778
294.24	20.593
294.60	19.068
294.97	20.494
295.34	21.157
295.71	19.602
296.08	19.231
296.44	19.257
296.81	17.701
297.18	20.867
297.55	17.282
297.91	19.789
298.28	19.545
298.65	20.366
299.02	21.344
299.38	18.858
299.75	17.790
300.12	18.519
300.48	18.125
300.85	19.236
301.22	18.217
301.59	17.929
301.95	17.380
302.32	17.715
302.69	17.563
303.05	16.848
303.42	17.037
303.79	16.874
304.15	18.531
304.52	16.918
304.89	16.260
305.25	17.053
305.62	18.573
305.99	17.828
306.35	17.785
306.72	19.170
307.09	18.202
307.45	18.581
307.82	16.518
308.19	16.667
308.55	18.015
308.92	17.401
309.29	16.367
309.65	14.316
310.02	17.125
310.38	17.527
310.75	16.262
311.12	16.786
311.48	17.555
311.85	16.981
312.22	16.857
312.58	16.528
312.95	16.684
313.31	15.437
313.68	16.424
314.05	17.357
314.41	15.477
314.78	15.206
315.14	16.485
315.51	15.963
315.87	16.337
316.24	15.789
316.61	15.497
316.97	15.166
317.34	14.579
317.70	15.583
318.07	16.554
318.43	17.025
318.80	17.338
319.16	15.443
319.53	14.447
319.89	15.333
320.26	16.700
320.62	16.071
320.99	15.859
321.35	16.566
321.72	16.530
322.08	16.979
322.45	17.313
322.81	16.279
323.18	16.667
323.54	15.677
323.91	16.415
324.27	17.208
324.64	14.818
325.00	14.337
325.37	15.196
325.73	16.517
326.10	16.328
326.46	15.681
326.83	15.186
327.19	16.482
327.56	15.244
327.92	15.398
328.29	16.859
328.65	15.746
329.01	15.975
329.38	16.281
329.74	15.789
330.11	14.986
330.47	15.519
330.84	17.279
331.20	14.663
331.56	15.413
331.93	15.463
332.29	14.818
332.66	16.991
333.02	16.362
333.38	15.086
333.75	16.221
334.11	15.836
334.48	15.705
334.84	15.717
335.20	15.182
335.57	15.322
335.93	14.286
336.29	15.018
336.66	15.419
337.02	14.661
337.38	15.926
337.75	14.171
338.11	14.235
338.47	14.088
338.84	15.215
339.20	14.679
339.56	16.880
339.93	14.182
340.29	14.946
340.65	14.439
341.02	15.707
341.38	15.302
341.74	15.000
342.11	15.371
342.47	14.890
342.83	15.068
343.20	15.671
343.56	14.743
343.92	14.912
344.28	14.796
344.65	15.133
345.01	14.562
345.37	13.894
345.73	15.059
346.10	15.601
346.46	13.898
346.82	14.168
347.19	13.283
347.55	14.450
347.91	14.968
348.27	15.612
348.63	14.883
349.00	14.320
349.36	14.450
349.72	14.515
350.08	14.019
350.45	15.053
350.81	14.135
351.17	14.668
351.53	14.414
351.89	14.026
352.26	14.996
352.62	14.515
352.98	14.182
353.34	15.530
353.70	13.666
354.07	13.871
354.43	13.889
354.79	13.998
355.15	14.046
355.51	14.868
355.87	14.449
356.24	14.007
356.60	14.354
356.96	14.240
357.32	13.410
357.68	14.567
358.04	13.222
358.40	13.856
358.77	15.102
359.13	13.891
359.49	13.569
359.85	12.619
360.21	13.716
360.57	14.864
360.93	13.231
361.29	13.379
361.66	13.313
362.02	14.104
362.38	13.992
362.74	14.211
363.10	13.101
363.46	13.720
363.82	13.983
364.18	12.702
364.54	14.487
364.90	14.589
365.26	13.603
365.62	14.098
365.98	13.514
366.35	13.037
366.71	14.027
367.07	13.765
367.43	12.700
367.79	13.490
368.15	14.943
368.51	13.081
368.87	13.562
369.23	13.606
369.59	13.469
369.95	12.059
370.31	13.818
370.67	13.841
371.03	13.783
371.39	13.557
371.75	13.088
372.11	13.798
372.47	14.150
372.83	13.401
373.19	13.150
373.55	12.934
373.91	13.844
374.27	13.265
374.63	12.582
374.99	13.842
375.35	12.491
375.71	12.817
376.07	13.923
376.42	13.686
376.78	13.718
377.14	12.958
377.50	12.781
377.86	12.434
378.22	13.211
378.58	12.719
378.94	12.822
379.30	11.959
379.66	12.881
380.02	13.514
380.38	12.872
380.74	13.205
381.09	12.714
381.45	13.522
381.81	12.715
382.17	13.121
382.53	12.704
382.89	13.457
383.25	11.945
383.61	13.259
383.97	12.633
384.32	12.539
384.68	12.639
385.04	12.354
385.40	12.632
385.76	12.715
386.12	13.148
386.48	12.335
386.83	12.316
387.19	13.111
387.55	13.111
387.91	11.427
388.27	12.814
388.62	13.460
388.98	11.425
389.34	12.641
389.70	12.937
390.06	13.054
390.42	13.165
390.77	13.740
391.13	12.508
391.49	12.437
391.85	12.858
392.20	11.483
392.56	12.689
392.92	12.301
393.28	11.479
393.64	12.830
393.99	12.767
394.35	11.849
394.71	13.300
395.07	12.399
395.42	12.855
395.78	12.405
396.14	12.601
396.50	12.970
396.85	12.651
397.21	12.824
397.57	12.895
397.92	12.320
398.28	11.883
398.64	12.545
399.00	12.479
399.35	12.408
399.71	12.558
400.07	13.128
400.42	12.331
400.78	12.847
401.14	12.622
401.49	12.299
401.85	12.402
402.21	11.976
402.57	11.289
402.92	12.736
403.28	11.930
403.63	11.757
403.99	12.739
404.35	12.182
404.70	11.511
405.06	11.648
405.42	12.789
405.77	12.057
406.13	12.246
406.49	12.300
406.84	13.113
407.20	12.057
407.55	12.763
407.91	12.667
408.27	12.636
408.62	12.462
408.98	12.439
409.34	12.177
409.69	12.968
410.05	11.276
410.40	12.355
410.76	12.485
411.11	12.606
411.47	11.949
411.83	12.828
412.18	12.616
412.54	13.076
412.89	13.434
413.25	12.456
413.60	12.600
413.96	12.508
414.31	12.029
414.67	13.245
415.03	12.980
415.38	12.629
415.74	13.055
416.09	12.541
416.45	12.651
416.80	12.426
417.16	12.534
417.51	12.541
417.87	12.717
418.22	12.492
418.58	13.170
418.93	13.084
419.29	13.240
419.64	12.972
420.00	12.988
420.35	13.159
420.71	12.732
421.06	12.351
421.42	12.807
421.77	12.500
422.12	12.409
422.48	11.819
422.83	12.638
423.19	13.315
423.54	12.885
423.90	13.101
424.25	12.563
424.61	11.369
424.96	12.420
425.31	12.292
425.67	12.022
426.02	13.143
426.38	12.576
426.73	12.697
427.09	11.793
427.44	12.536
427.79	12.363
428.15	13.095
428.50	12.639
428.85	13.111
429.21	12.590
429.56	11.871
429.92	12.330
430.27	11.768
430.62	11.418
430.98	12.403
431.33	11.495
431.68	12.461
432.04	11.928
432.39	12.678
432.74	12.448
433.10	11.771
433.45	12.303
433.80	11.807
434.16	12.927
434.51	12.579
434.86	12.657
435.22	12.285
435.57	12.280
435.92	12.346
436.28	13.049
436.63	13.300
436.98	12.135
437.34	13.178
437.69	12.952
438.04	12.985
438.39	13.075
438.75	12.899
439.10	13.240
439.45	12.810
439.81	12.266
440.16	12.592
440.51	12.361
440.86	12.218
441.22	11.624
441.57	12.367
441.92	12.743
442.27	12.809
442.63	12.270
442.98	13.070
443.33	13.207
443.68	12.494
444.03	13.080
444.39	11.977
444.74	12.608
445.09	12.507
445.44	12.521
445.79	12.618
446.15	12.970
446.50	12.763
446.85	12.950
447.20	12.596
447.55	13.345
447.91	12.190
448.26	12.187
448.61	12.945
448.96	13.178
449.31	12.936
449.66	12.324
450.02	12.145
450.37	11.905
450.72	12.578
451.07	13.102
451.42	11.976
451.77	12.331
452.12	13.568
452.47	13.433
452.83	13.054
453.18	13.020
453.53	13.482
453.88	12.817
454.23	13.628
454.58	13.628
454.93	13.795
455.28	12.718
455.63	13.289
455.98	14.107
456.34	13.379
456.69	13.024
457.04	13.437
457.39	13.209
457.74	12.652
458.09	13.111
458.44	13.056
458.79	12.419
459.14	13.036
459.49	13.135
459.84	13.019
460.19	13.141
460.54	12.095
460.89	13.494
461.24	12.750
461.59	14.410
461.94	13.194
462.29	14.303
462.64	12.636
462.99	12.947
463.34	14.067
463.69	13.634
464.04	13.971
464.39	13.101
464.74	13.725
465.09	12.304
465.44	13.407
465.79	12.752
466.14	12.863
466.49	13.237
466.84	13.076
467.19	12.734
467.54	14.125
467.89	13.385
468.24	13.264
468.59	14.469
468.94	13.378
469.29	12.532
469.64	13.722
469.99	13.735
470.34	13.474
470.68	12.428
471.03	14.286
471.38	14.038
471.73	14.390
472.08	15.263
472.43	13.882
472.78	13.298
473.13	13.928
473.48	13.920
473.83	14.085
474.17	13.130
474.52	13.648
474.87	13.777
475.22	13.929
475.57	13.111
475.92	13.914
476.27	13.867
476.61	13.293
476.96	11.875
477.31	13.658
477.66	13.621
478.01	12.598
478.36	13.379
478.70	13.240
479.05	13.259
479.40	13.101
479.75	13.930
480.10	13.320
480.45	12.803
480.79	12.805
481.14	13.748
481.49	13.004
481.84	12.986
482.19	12.812
482.53	12.936
482.88	13.588
483.23	12.944
483.58	13.740
483.92	12.699
484.27	12.462
484.62	13.103
484.97	12.692
485.31	12.397
485.66	11.480
486.01	11.017
486.36	10.780
486.70	10.761
487.05	11.840
487.40	11.670
487.75	11.501
488.09	12.284
488.44	12.008
488.79	12.224
489.13	12.796
489.48	12.928
489.83	12.905
490.17	13.503
490.52	13.685
490.87	13.976
491.22	13.142
491.56	12.984
491.91	13.309
492.26	13.413
492.60	13.594
492.95	12.769
493.30	13.505
493.64	12.832
493.99	13.370
494.34	13.691
494.68	13.828
495.03	14.286
495.37	13.681
495.72	13.645
496.07	14.014
496.41	12.788
496.76	13.984
497.11	13.778
497.45	13.414
497.80	12.860
498.14	13.333
498.49	13.366
498.84	14.046
499.18	13.524
499.53	14.292
499.87	13.700
500.22	13.943
500.56	14.417
500.91	13.365
501.26	13.893
501.60	14.048
501.95	13.566
502.29	14.480
502.64	13.734
502.98	13.511
503.33	13.163
503.67	14.060
504.02	13.985
504.36	14.038
504.71	13.923
505.06	14.410
505.40	13.418
505.75	13.211
506.09	13.946
506.44	13.271
506.78	14.126
507.13	13.831
507.47	14.646
507.82	14.792
508.16	14.032
508.51	14.460
508.85	14.002
509.19	14.796
509.54	13.520
509.88	13.756
510.23	13.830
510.57	14.861
510.92	14.397
511.26	14.132
511.61	14.419
511.95	13.727
512.30	14.316
512.64	14.347
512.98	15.059
513.33	14.347
513.67	14.995
514.02	13.961
514.36	15.401
514.70	15.385
515.05	14.445
515.39	15.423
515.74	14.865
516.08	15.316
516.42	14.928
516.77	15.440
517.11	14.595
517.46	14.955
517.80	15.331
518.14	14.708
518.49	15.636
518.83	15.398
519.17	15.416
519.52	14.601
519.86	14.661
520.20	15.549
520.55	16.278
520.89	15.572
521.23	15.923
521.58	15.246
521.92	16.105
522.26	15.436
522.61	15.327
522.95	16.882
523.29	15.703
523.64	16.037
523.98	15.712
524.32	15.621
524.66	15.995
525.01	15.686
525.35	15.118
525.69	15.456
526.04	16.760
526.38	15.192
526.72	15.828
527.06	17.137
527.41	14.728
527.75	16.077
528.09	15.735
528.43	16.125
528.78	16.103
529.12	15.818
529.46	15.554
529.80	16.089
530.15	16.199
530.49	15.938
530.83	16.709
531.17	16.841
531.51	17.510
531.86	15.742
532.20	16.167
532.54	15.887
532.88	15.918
533.22	16.177
533.57	15.123
533.91	15.834
534.25	15.978
534.59	15.619
534.93	15.526
535.27	15.570
535.62	15.873
535.96	15.819
536.30	15.257
536.64	15.518
536.98	15.660
537.32	14.812
537.66	16.067
538.01	15.405
538.35	16.354
538.69	16.847
539.03	15.984
539.37	14.696
539.71	14.258
540.05	15.817
540.39	15.880
540.73	15.783
541.07	16.288
541.42	15.721
541.76	16.774
542.10	15.524
542.44	15.430
542.78	16.798
543.12	15.931
543.46	15.869
543.80	16.721
544.14	15.854
544.48	16.635
544.82	14.753
545.16	16.200
545.50	16.003
545.84	15.860
546.18	16.162
546.52	16.242
546.86	16.151
547.20	16.183
547.54	16.500
547.88	16.199
548.22	15.629
548.56	16.289
548.90	16.005
549.24	15.556
549.58	16.098
549.92	16.552
550.26	16.193
550.60	16.044
550.94	15.845
551.28	15.362
551.62	16.751
551.96	15.719
552.30	16.997
552.64	16.430
552.98	17.966
553.32	16.251
553.66	16.905
554.00	16.678
554.34	16.149
554.68	16.667
555.02	16.291
555.36	15.936
555.69	15.765
556.03	16.555
556.37	16.439
556.71	15.825
557.05	16.387
557.39	16.795
557.73	16.020
558.07	16.461
558.41	15.991
558.75	17.120
559.08	17.226
559.42	16.100
559.76	16.691
560.10	16.560
560.44	16.632
560.78	16.035
561.12	16.029
561.45	16.362
561.79	15.689
562.13	16.097
562.47	16.189
562.81	16.946
563.15	16.054
563.48	15.782
563.82	15.982
564.16	15.370
564.50	14.909
564.84	15.171
565.17	15.894
565.51	16.230
565.85	15.292
566.19	15.028
566.52	16.023
566.86	15.130
567.20	15.920
567.54	15.354
567.88	14.612
568.21	15.979
568.55	14.459
568.89	14.640
569.23	14.483
569.56	14.049
569.90	12.981
570.24	13.204
570.57	13.499
570.91	12.250
571.25	12.384
571.59	12.577
571.92	12.298
572.26	12.507
572.60	12.222
572.93	12.114
573.27	12.777
573.61	12.284
573.95	12.016
574.28	12.085
574.62	11.735
574.96	11.470
575.29	11.760
575.63	11.941
575.97	11.690
576.30	12.347
576.64	11.473
576.98	11.667
577.31	11.553
577.65	11.640
577.98	11.178
578.32	10.961
578.66	11.384
578.99	11.596
579.33	11.595
579.67	11.627
580.00	11.676
580.34	11.936
580.67	11.558
581.01	11.851
581.35	11.352
581.68	11.307
582.02	11.107
582.35	10.958
582.69	11.143
583.02	11.279
583.36	11.667
583.70	11.688
584.03	12.226
584.37	12.227
584.70	12.017
585.04	11.668
585.37	11.766
585.71	11.725
586.04	11.863
586.38	12.487
586.72	11.903
587.05	11.464
587.39	11.398
587.72	11.878
588.06	11.740
588.39	12.236
588.73	12.086
589.06	12.278
589.40	12.525
589.73	12.953
590.07	13.060
590.40	12.861
590.73	13.271
591.07	13.675
591.40	13.032
591.74	14.242
592.07	13.962
592.41	13.270
592.74	12.434
593.08	12.791
593.41	12.085
593.75	11.993
594.08	12.739
594.41	13.008
594.75	12.643
595.08	12.813
595.42	12.715
595.75	12.571
596.09	12.993
596.42	13.517
596.75	13.128
597.09	13.290
597.42	12.690
597.75	12.893
598.09	13.348
598.42	13.058
598.76	13.052
599.09	12.695
599.42	12.373
599.76	12.628
600.09	12.277
600.42	12.893
600.76	12.607
601.09	12.350
601.42	13.090
601.76	12.789
602.09	12.609
602.42	12.858
602.76	13.865
603.09	13.139
603.42	13.276
603.76	12.576
604.09	13.145
604.42	13.290
604.76	13.707
605.09	12.844
605.42	12.869
605.75	13.038
606.09	12.891
606.42	13.077
606.75	13.314
607.09	13.813
607.42	12.709
607.75	12.489
608.08	12.505
608.42	13.761
608.75	13.165
609.08	13.414
609.41	13.089
609.75	13.149
610.08	13.996
610.41	13.641
610.74	13.576
611.07	13.933
611.41	14.082
611.74	14.128
612.07	13.975
612.40	15.058
612.73	13.737
613.07	14.817
613.40	14.376
613.73	13.634
614.06	14.086
614.39	14.001
614.72	14.263
615.06	13.918
615.39	14.119
615.72	14.673
616.05	13.450
616.38	14.452
616.71	15.499
617.05	15.253
617.38	13.891
617.71	14.354
618.04	15.325
618.37	15.257
618.70	15.059
619.03	15.658
619.36	15.411
619.69	15.915
620.03	16.003
620.36	16.644
620.69	16.164
621.02	16.150
621.35	15.740
621.68	16.044
622.01	16.873
622.34	15.809
622.67	16.198
623.00	15.554
623.33	15.154
623.66	15.583
623.99	16.053
624.32	15.906
624.65	15.749
624.99	14.943
625.32	15.496
625.65	15.477
625.98	17.525
626.31	17.030
626.64	16.816
626.97	17.041
627.30	15.960
627.63	17.309
627.96	17.998
628.29	18.110
628.62	18.481
628.95	19.623
629.28	17.792
629.61	18.240
629.94	18.190
630.26	19.352
630.59	19.066
630.92	16.762
631.25	17.670
631.58	19.019
631.91	18.966
632.24	18.038
632.57	19.517
632.90	19.298
633.23	19.239
633.56	19.209
633.89	18.913
634.22	18.729
634.55	20.592
634.88	19.641
635.20	20.908
635.53	21.446
635.86	19.802
636.19	20.353
636.52	19.954
636.85	19.359
637.18	18.779
637.51	21.158
637.83	18.249
638.16	19.949
638.49	21.285
638.82	21.365
639.15	20.375
639.48	20.324
639.81	19.303
640.13	22.135
640.46	22.013
640.79	21.664
641.12	19.257
641.45	21.788
641.77	21.649
642.10	22.515
642.43	19.670
642.76	22.601
643.09	22.393
643.41	21.700
643.74	23.457
644.07	23.171
644.40	21.166
644.73	23.937
645.05	24.089
645.38	22.117
645.71	22.866
646.04	23.422
646.36	23.372
646.69	24.247
647.02	22.619
647.35	23.540
647.67	24.248
648.00	23.740
648.33	23.102
648.66	22.121
648.98	20.690
649.31	20.927
649.64	22.720
649.96	21.311
650.29	21.959
650.62	20.874
650.94	22.853
651.27	23.818
651.60	23.295
651.92	23.003
652.25	22.150
652.58	22.430
652.90	21.801
653.23	19.877
653.56	22.362
653.88	22.345
654.21	23.381
654.54	22.112
654.86	20.872
655.19	18.649
655.52	12.851
655.84	9.632
656.17	11.497
656.49	15.588
656.82	15.490
657.15	11.889
657.47	8.902
657.80	6.990
658.13	7.114
658.45	10.752
658.78	10.586
659.10	11.575
659.43	12.049
659.75	12.908
660.08	14.114
660.41	16.108
660.73	19.568
661.06	19.108
661.38	26.000
661.71	24.423
662.03	24.260
662.36	22.863
662.68	24.297
663.01	23.232
663.33	24.416
663.66	23.950
663.98	24.190
664.31	24.370
664.63	23.684
664.96	24.346
665.28	25.000
665.61	22.612
665.93	23.541
666.26	24.746
666.58	23.013
666.91	27.484
667.23	25.169
667.56	23.542
667.88	25.214
668.21	27.079
668.53	26.681
668.86	24.675
669.18	26.226
669.50	24.565
669.83	27.233
670.15	25.556
670.48	22.658
670.80	24.353
671.13	25.902
671.45	27.021
671.77	28.106
672.10	24.954
672.42	24.558
672.75	21.061
673.07	22.359
673.39	22.785
673.72	22.266
674.04	24.314
674.37	23.883
674.69	24.335
675.01	20.711
675.34	27.310
675.66	28.211
675.98	25.866
676.31	25.420
676.63	24.841
676.95	26.415
677.28	23.832
677.60	23.956
677.92	25.738
678.25	25.051
678.57	24.303
678.89	24.649
679.22	24.165
679.54	22.328
679.86	23.670
680.18	23.435
680.51	23.050
680.83	23.132
681.15	24.717
681.48	23.062
681.80	23.404
682.12	21.839
682.44	19.729
682.77	24.847
683.09	25.966
683.41	26.386
683.73	23.620
684.06	24.793
684.38	23.092
684.70	24.612
685.02	24.203
685.34	21.062
685.67	21.329
685.99	20.103
686.31	19.454
686.63	21.908
686.96	21.607
687.28	23.827
687.60	22.283
687.92	22.669
688.24	21.863
688.56	24.900
688.89	24.274
689.21	27.511
689.53	27.557
689.85	25.942
690.17	21.739
690.49	26.115
690.82	24.299
691.14	22.321
691.46	21.308
691.78	26.305
692.10	22.521
692.42	24.551
692.74	21.369
693.06	24.043
693.39	23.203
693.71	24.236
694.03	27.579
694.35	21.861
694.67	25.629
694.99	28.049
695.31	23.529
695.63	23.206
695.95	25.917
696.27	23.858
696.59	24.352
696.91	27.979
697.23	23.474
697.56	24.733
697.88	21.677
698.20	22.708
698.52	21.720
698.84	21.604
699.16	23.963
699.48	23.278
699.80	26.087
700.12	27.532
700.44	29.178
700.76	25.691
701.08	23.851
701.40	25.419
701.72	25.073
702.04	32.386
702.36	25.496
702.68	29.462
703.00	27.147
703.32	24.202
703.64	25.737
703.96	27.298
704.28	29.942
704.60	27.859
704.91	32.344
705.23	30.792
705.55	29.236
705.87	34.551
706.19	28.975
706.51	27.726
706.83	28.485
707.15	26.050
707.47	23.990
707.79	25.307
708.11	25.114
708.43	21.667
708.74	25.255
709.06	26.234
709.38	25.197
709.70	27.907
710.02	29.377
710.34	25.455
710.66	30.448
710.98	26.989
711.29	26.163
711.61	28.614
711.93	29.487
712.25	30.547
712.57	30.147
712.89	30.796
713.20	34.347
713.52	33.224
713.84	28.165
714.16	29.268
714.48	27.586
714.80	33.131
715.11	25.360
715.43	28.190
715.75	28.696
716.07	30.351
716.39	26.959
716.70	32.890
717.02	29.137
717.34	28.622
717.66	32.090
717.97	31.474
718.29	32.963
718.61	31.022
718.93	32.721
719.24	28.374
719.56	30.169
719.88	29.831
720.20	32.770
720.51	33.101
720.83	34.572
721.15	30.970
721.46	28.723
721.78	28.674
722.10	30.566
722.42	28.571
722.73	34.457
723.05	29.098
723.37	29.150
723.68	33.205
724.00	31.707
724.32	33.065
724.63	34.553
724.95	35.565
725.27	36.437
725.58	29.297
725.90	33.577
726.22	29.811
726.53	25.000
726.85	29.010
727.16	26.335
727.48	29.078
727.80	28.788
728.11	27.899
728.43	27.308
728.74	27.957
729.06	32.847
729.38	31.618
729.69	28.826
730.01	25.939
730.32	27.778
730.64	30.435
730.96	22.772
731.27	27.815
731.59	26.606
731.90	26.239
732.22	23.913
732.53	21.672
732.85	26.282
733.16	28.939
733.48	26.246
733.80	28.247
734.11	28.662
734.43	27.515
734.74	21.714
735.06	23.496
735.37	28.902
735.69	25.159
736.00	28.105
736.32	28.660
736.63	24.601
736.95	29.712
737.26	21.769
737.58	25.484
737.89	27.090
738.21	29.352
738.52	25.714
738.83	26.792
739.15	27.692
739.46	27.737
739.78	29.861
740.09	26.154
740.41	27.419
740.72	27.526
741.04	28.148
741.35	27.917
741.66	35.111
741.98	29.717
742.29	36.364
742.61	35.345
742.92	29.864
743.23	34.615
743.55	35.600
743.86	32.018
744.18	34.956
744.49	33.014
744.80	37.089
745.12	38.182
745.43	32.599
745.74	33.333
746.06	29.817
746.37	36.771
746.68	33.937
747.00	34.722
747.31	37.143
747.62	34.956
747.94	31.718
748.25	28.085
748.56	34.361
748.88	35.149
749.19	35.500
749.50	33.023
749.82	30.894
750.13	26.531
750.44	28.832
750.75	24.912
751.07	29.582
751.38	29.268
751.69	29.242
752.01	28.947
752.32	27.076
752.63	32.624
752.94	28.279
753.26	30.400
753.57	24.797
753.88	30.859
754.19	26.071
754.51	30.208
754.82	28.520
755.13	30.943
755.44	31.203
755.75	28.832
756.07	26.596
756.38	24.818
756.69	27.517
757.00	25.449
757.31	23.145
757.63	24.854
757.94	24.129
758.25	20.588
758.56	22.469
758.87	18.280
759.18	25.152
759.50	26.646
759.81	24.299
760.12	23.750
760.43	27.507
760.74	23.913
761.05	25.141
761.36	20.856
761.67	26.420
761.99	22.671
762.30	25.347
762.61	26.718
762.92	32.422
763.23	29.832
763.54	34.800
763.85	33.203
764.16	32.692
764.47	28.897
764.78	25.088
765.10	24.051
765.41	27.139
765.72	24.251
766.03	25.078
766.34	27.000
766.65	34.043
766.96	31.624
767.27	41.624
767.58	35.417
767.89	38.947
768.20	39.080
768.51	34.518
768.82	34.404
769.13	28.455
769.44	26.316
769.75	30.472
770.06	23.394
770.37	32.579
770.68	32.407
770.99	28.889
771.30	28.689
771.61	28.700
771.92	30.328
772.23	40.336
772.54	35.897
772.85	37.696
773.16	33.511
773.47	39.674
773.78	37.056
774.09	33.929
774.39	35.673
774.70	33.951
775.01	42.754
775.32	40.523
775.63	41.447
775.94	30.935
776.25	47.244
776.56	44.776
776.87	40.164
777.18	39.062
777.48	51.908
777.79	43.182
778.10	48.148
778.41	49.107
778.72	41.606
779.03	40.940
779.34	42.282
779.65	38.514
779.95	34.969
780.26	45.752
780.57	44.828
780.88	51.562
781.19	36.842
781.50	41.892
781.80	35.849
782.11	34.463
782.42	34.177
782.73	29.448
783.04	43.243
783.34	43.662
783.65	43.836
783.96	47.761
784.27	37.762
784.57	38.849
784.88	41.667
785.19	50.794
785.50	47.170
785.81	52.239
786.11	51.639
786.42	49.612
786.73	39.823
787.04	50.000
787.34	53.571
787.65	46.000
787.96	43.243
788.26	41.322
788.57	51.695
788.88	51.240
789.19	43.056
789.49	50.000
789.80	38.168
790.11	58.095
790.41	58.416
790.72	54.217
791.03	51.087
791.33	60.465
791.64	58.763
791.95	65.347
792.25	56.667
792.56	68.831
792.87	70.513
793.17	59.494
793.48	54.023
793.79	58.621
794.09	60.227
794.40	44.538
794.70	47.794
795.01	49.630
795.32	38.849
795.62	43.307
795.93	39.655
796.23	49.558
796.54	52.941
796.85	56.757
797.15	85.915
797.46	63.636
797.76	71.084
798.07	67.089
798.37	60.000
798.68	66.667
798.99	43.662
799.29	59.740
799.60	70.455
799.90	79.452
800.21	67.164
800.51	74.138
800.82	78.947
801.12	68.852
801.43	56.061
801.73	55.405
802.04	79.365
802.34	66.667
802.65	81.250
802.95	81.356
803.26	92.188
803.56	57.143
803.87	70.769
804.17	69.118
804.48	87.037
804.78	79.310
805.09	76.471
805.39	86.538
805.70	98.214
806.00	78.689
806.30	63.636
806.61	63.415
806.91	64.557
807.22	46.053
807.52	61.194
807.83	67.606
808.13	67.188
808.43	90.000
808.74	63.158
809.04	66.667
809.35	74.627
809.65	69.737
809.95	88.710
810.26	64.407
810.56	84.127
810.86	90.909
811.17	90.476
811.47	68.333
811.77	83.333
812.08	100.000
812.38	88.000
812.69	130.556
812.99	125.000
813.29	79.592
813.59	90.476
813.90	120.408
814.20	81.818
814.50	53.846
814.81	89.706
815.11	87.755
815.41	77.049
815.72	102.381
816.02	101.818
816.32	95.238
816.62	125.000
816.93	80.488
817.23	114.286
817.53	104.545
817.84	115.152
818.14	108.696
818.44	102.222
818.74	123.529
819.04	127.500
819.35	122.857
819.65	105.882
819.95	103.571
820.25	200.000
820.56	123.077
820.86	113.636
821.16	123.256
821.46	94.872
821.76	88.000
822.07	142.857
822.37	115.000
822.67	136.364
822.97	66.667
823.27	153.571
823.57	102.703
823.88	100.000
824.18	146.667
824.48	119.048
824.78	156.000
825.08	112.500
825.38	118.919
825.69	109.756
825.99	112.500
826.29	151.724
826.59	110.526
826.89	86.842
827.19	126.471
827.49	138.710
827.79	118.182
828.09	100.000
828.39	102.128
828.70	75.510
829.00	114.815
829.30	116.129
829.60	105.000
829.90	213.333
830.20	153.571
830.50	134.783
830.80	178.261
831.10	133.333
831.40	160.000
831.70	139.130
832.00	157.692
832.30	151.852
832.60	231.250
832.90	153.333
833.20	335.714
833.50	167.742
833.80	162.069
834.10	109.375
834.40	184.615
834.70	250.000
835.00	257.143
835.30	100.000
835.60	161.538
835.90	134.483
836.20	257.143
836.50	162.069
836.80	132.000
837.10	130.556
837.40	180.952
837.70	247.059
838.00	125.926
838.30	214.286
838.60	228.571
838.90	192.308
839.19	165.000
839.49	300.000
839.79	255.000
840.09	195.000
840.39	233.333
840.69	204.348
840.99	238.889
841.29	390.000
841.59	166.667
841.88	243.750
842.18	127.586
842.48	190.476
842.78	140.000
843.08	186.957
843.38	137.500
843.68	783.333
843.97	157.692
844.27	151.724
844.57	223.810
844.87	262.500
845.17	133.333
845.47	1633.333
845.76	322.222
846.06	300.000
846.36	375.000
846.66	278.571
846.96	231.250
847.25	345.455
847.55	272.727
847.85	165.217
848.15	300.000
848.44	264.286
848.74	188.889
849.04	229.412
849.34	410.000
849.63	200.000
849.93	254.545
850.23	720.000
850.53	314.286
850.82	1300.000
851.12	-2300.000
851.42	4300.000
851.71	190.000
852.01	-566.667
852.31	195.833
852.61	1433.333
852.90	185.714
853.20	196.000
853.50	217.647
853.79	200.000
854.09	162.500
854.39	262.500
854.68	151.351
854.98	109.677
855.28	123.333
855.57	158.621
855.87	118.519
856.17	136.842
856.46	166.667
856.76	223.529
857.05	134.483
857.35	183.333
857.65	266.667
857.94	178.261
858.24	165.385
858.53	205.000
858.83	209.091
859.13	260.000
859.42	0.000
859.72	455.556
860.01	254.545
860.31	227.273
860.60	242.105
860.90	126.087
861.20	366.667
861.49	441.667
861.79	-3200.000
862.08	387.500
862.38	200.000
862.67	284.615
862.97	252.941
863.26	377.778
863.56	161.111
863.85	325.000
864.15	487.500
864.44	306.667
864.74	350.000
865.03	475.000
865.33	242.105
865.62	354.545
865.92	376.923
866.21	233.333
866.51	0.000
866.80	390.909
867.10	880.000
867.39	353.846
867.69	309.091
867.98	215.789
868.27	327.273
868.57	215.789
868.86	-2400.000
869.16	206.250
869.45	1550.000
869.75	-2300.000
870.04	408.333
870.33	485.714
870.63	850.000
870.92	1600.000
871.22	485.714
871.51	294.118
871.80	166.667
872.10	328.571
>>>>>End Processed Spectral Data<<<<<
