SpectraSuite Data File
++++++++++++++++++++++++++++++++++++
Date: Wed May 13 20:48:47 PDT 2015
User: schluterlab
Dark Spectrum Present: Yes
Reference Spectrum Present: Yes
Number of Sampled Component Spectra: 1
Spectrometers: USB2E3373
Integration Time (usec): 3000 (USB2E3373)
Spectra Averaged: 3 (USB2E3373)
Boxcar Smoothing: 0 (USB2E3373)
Correct for Electrical Dark: No (USB2E3373)
Strobe/Lamp Enabled: No (USB2E3373)
Correct for Detector Non-linearity: No (USB2E3373)
Correct for Stray Light: No (USB2E3373)
Number of Pixels in Processed Spectrum: 2048
>>>>>Begin Processed Spectral Data<<<<<
178.53	0.000
178.91	-850.000
179.29	-1025.000
179.67	-72.222
180.04	-775.000
180.42	1200.000
180.80	480.000
181.18	-675.000
181.56	271.429
181.94	0.000
182.31	-271.429
182.69	1100.000
183.07	-100.000
183.45	-233.333
183.83	290.909
184.20	-170.000
184.58	1050.000
184.96	3900.000
185.34	-240.000
185.72	-325.000
186.09	-650.000
186.47	1250.000
186.85	1200.000
187.23	2500.000
187.61	-666.667
187.98	675.000
188.36	281.818
188.74	290.909
189.12	-380.000
189.49	390.000
189.87	-2600.000
190.25	-600.000
190.63	214.286
191.00	253.846
191.38	416.667
191.76	-675.000
192.14	925.000
192.51	362.500
192.89	483.333
193.27	300.000
193.65	-525.000
194.02	290.000
194.40	480.000
194.78	350.000
195.15	283.333
195.53	460.000
195.91	-850.000
196.29	262.500
196.66	200.000
197.04	-140.000
197.42	0.000
197.79	440.000
198.17	-1700.000
198.55	342.857
198.92	350.000
199.30	500.000
199.68	0.000
200.05	188.889
200.43	471.429
200.81	1700.000
201.18	733.333
201.56	-733.333
201.94	288.889
202.31	288.889
202.69	183.333
203.07	320.000
203.44	0.000
203.82	875.000
204.19	485.714
204.57	271.429
204.95	350.000
205.32	900.000
205.70	345.455
206.08	221.429
206.45	1350.000
206.83	206.250
207.20	633.333
207.58	400.000
207.96	194.444
208.33	337.500
208.71	-416.667
209.08	585.714
209.46	288.889
209.84	263.636
210.21	-766.667
210.59	700.000
210.96	-75.000
211.34	1750.000
211.71	380.000
212.09	516.667
212.46	0.000
212.84	1000.000
213.22	800.000
213.59	-2900.000
213.97	483.333
214.34	628.571
214.72	336.364
215.09	500.000
215.47	-1750.000
215.84	-1200.000
216.22	766.667
216.59	242.857
216.97	700.000
217.34	281.818
217.72	-366.667
218.09	0.000
218.47	-2800.000
218.84	366.667
219.22	342.857
219.59	866.667
219.97	-242.857
220.34	460.000
220.72	-800.000
221.09	214.286
221.47	575.000
221.84	-533.333
222.22	0.000
222.59	750.000
222.97	-1500.000
223.34	640.000
223.72	253.846
224.09	620.000
224.46	800.000
224.84	-2300.000
225.21	-680.000
225.59	-3300.000
225.96	480.000
226.34	175.000
226.71	1650.000
227.08	275.000
227.46	350.000
227.83	-800.000
228.21	-1050.000
228.58	377.778
228.95	-1050.000
229.33	-850.000
229.70	866.667
230.08	428.571
230.45	-440.000
230.82	208.333
231.20	483.333
231.57	328.571
231.95	308.333
232.32	136.364
232.69	245.455
233.07	314.286
233.44	176.923
233.81	-966.667
234.19	205.263
234.56	241.667
234.93	158.333
235.31	263.636
235.68	223.077
236.05	228.571
236.43	72.727
236.80	115.789
237.17	2100.000
237.55	100.000
237.92	153.571
238.29	152.381
238.67	90.323
239.04	96.552
239.41	80.556
239.79	89.130
240.16	85.714
240.53	65.909
240.91	70.588
241.28	62.000
241.65	50.000
242.02	50.725
242.40	35.484
242.77	45.000
243.14	44.086
243.51	38.202
243.89	40.000
244.26	31.111
244.63	43.011
245.00	39.362
245.38	30.693
245.75	29.907
246.12	28.440
246.49	45.255
246.87	41.600
247.24	30.769
247.61	27.857
247.98	28.105
248.36	21.622
248.73	27.389
249.10	29.299
249.47	25.424
249.84	29.412
250.22	21.925
250.59	23.077
250.96	25.253
251.33	24.645
251.70	29.208
252.08	23.810
252.45	27.803
252.82	22.609
253.19	22.128
253.56	19.608
253.94	19.502
254.31	21.094
254.68	21.923
255.05	20.664
255.42	19.919
255.79	20.588
256.16	24.910
256.54	18.021
256.91	18.861
257.28	14.748
257.65	20.462
258.02	26.398
258.39	19.558
258.76	17.057
259.14	21.429
259.51	21.581
259.88	14.596
260.25	19.335
260.62	21.965
260.99	18.944
261.36	18.919
261.73	18.625
262.10	18.023
262.47	15.493
262.85	20.613
263.22	16.239
263.59	17.379
263.96	17.308
264.33	19.582
264.70	16.579
265.07	19.693
265.44	15.152
265.81	16.788
266.18	16.583
266.55	16.829
266.92	16.953
267.29	18.056
267.66	15.596
268.03	16.591
268.40	14.252
268.77	15.513
269.14	14.865
269.51	20.090
269.88	16.084
270.25	16.027
270.62	16.180
270.99	18.280
271.36	15.665
271.73	17.523
272.10	16.087
272.47	17.419
272.84	16.017
273.21	15.723
273.58	16.157
273.95	14.465
274.32	13.636
274.69	12.848
275.06	15.945
275.43	13.617
275.80	14.228
276.17	13.849
276.54	17.464
276.91	14.625
277.28	15.039
277.65	14.313
278.02	14.286
278.39	16.797
278.76	15.091
279.13	13.585
279.50	14.711
279.87	15.139
280.23	16.966
280.60	12.766
280.97	14.048
281.34	15.044
281.71	15.636
282.08	15.739
282.45	14.182
282.82	13.677
283.19	11.765
283.56	13.509
283.92	14.721
284.29	13.228
284.66	14.156
285.03	13.020
285.40	12.148
285.77	13.636
286.14	14.853
286.51	14.167
286.87	13.504
287.24	15.961
287.61	14.607
287.98	13.636
288.35	13.788
288.72	14.174
289.08	14.397
289.45	12.026
289.82	14.797
290.19	11.774
290.56	13.629
290.93	13.142
291.29	12.117
291.66	13.274
292.03	14.826
292.40	12.335
292.77	12.574
293.13	11.940
293.50	13.411
293.87	11.704
294.24	13.926
294.60	10.917
294.97	14.390
295.34	14.104
295.71	13.636
296.08	12.108
296.44	12.792
296.81	13.078
297.18	14.228
297.55	10.158
297.91	11.214
298.28	13.521
298.65	12.794
299.02	12.912
299.38	11.952
299.75	10.512
300.12	12.388
300.48	11.250
300.85	13.070
301.22	11.465
301.59	10.354
301.95	12.217
302.32	12.837
302.69	11.828
303.05	13.455
303.42	10.988
303.79	12.797
304.15	10.606
304.52	11.819
304.89	13.124
305.25	12.993
305.62	13.137
305.99	13.223
306.35	11.857
306.72	13.341
307.09	14.428
307.45	14.640
307.82	12.054
308.19	14.680
308.55	13.808
308.92	13.319
309.29	14.361
309.65	15.270
310.02	15.011
310.38	16.452
310.75	15.734
311.12	15.763
311.48	16.092
311.85	17.191
312.22	16.753
312.58	16.736
312.95	18.585
313.31	17.961
313.68	19.439
314.05	20.513
314.41	20.402
314.78	19.839
315.14	20.854
315.51	22.348
315.87	22.178
316.24	23.237
316.61	21.832
316.97	23.581
317.34	23.875
317.70	24.761
318.07	26.564
318.43	26.027
318.80	28.116
319.16	28.814
319.53	29.174
319.89	29.333
320.26	31.300
320.62	30.258
320.99	31.414
321.35	30.707
321.72	32.444
322.08	32.971
322.45	34.925
322.81	35.853
323.18	36.031
323.54	36.549
323.91	36.604
324.27	38.528
324.64	38.770
325.00	39.044
325.37	39.763
325.73	40.305
326.10	41.659
326.46	43.280
326.83	42.882
327.19	43.211
327.56	45.906
327.92	45.232
328.29	47.205
328.65	48.895
329.01	47.473
329.38	48.474
329.74	47.645
330.11	50.707
330.47	50.138
330.84	52.022
331.20	51.548
331.56	52.385
331.93	52.963
332.29	51.730
332.66	54.159
333.02	52.925
333.38	55.194
333.75	54.902
334.11	53.737
334.48	54.392
334.84	55.607
335.20	56.273
335.57	55.576
335.93	54.018
336.29	55.769
336.66	56.447
337.02	55.837
337.38	56.944
337.75	56.506
338.11	54.969
338.47	56.814
338.84	56.462
339.20	57.615
339.56	59.124
339.93	57.636
340.29	57.518
340.65	56.595
341.02	59.075
341.38	57.117
341.74	57.982
342.11	57.031
342.47	57.797
342.83	58.647
343.20	59.481
343.56	58.045
343.92	57.807
344.28	58.844
344.65	58.813
345.01	57.239
345.37	58.491
345.73	58.376
346.10	58.824
346.46	57.881
346.82	57.743
347.19	58.312
347.55	58.210
347.91	59.466
348.27	58.998
348.63	58.528
349.00	58.091
349.36	58.703
349.72	58.220
350.08	58.428
350.45	60.944
350.81	59.545
351.17	59.157
351.53	59.378
351.89	60.314
352.26	60.221
352.62	59.503
352.98	58.428
353.34	59.655
353.70	59.165
354.07	59.194
354.43	58.254
354.79	59.212
355.15	59.298
355.51	60.831
355.87	62.041
356.24	58.469
356.60	58.701
356.96	60.901
357.32	60.670
357.68	59.921
358.04	59.620
358.40	58.987
358.77	60.094
359.13	58.327
359.49	60.784
359.85	59.524
360.21	61.962
360.57	61.401
360.93	60.923
361.29	59.637
361.66	61.455
362.02	62.015
362.38	61.065
362.74	61.086
363.10	60.696
363.46	61.849
363.82	61.602
364.18	59.325
364.54	61.813
364.90	61.190
365.26	61.691
365.62	60.847
365.98	60.701
366.35	59.814
366.71	61.244
367.07	62.272
367.43	62.046
367.79	62.527
368.15	61.710
368.51	61.555
368.87	63.169
369.23	63.277
369.59	63.577
369.95	63.015
370.31	62.892
370.67	61.594
371.03	63.446
371.39	62.901
371.75	64.118
372.11	62.020
372.47	62.610
372.83	63.977
373.19	61.850
373.55	63.267
373.91	64.138
374.27	61.924
374.63	64.291
374.99	63.559
375.35	62.666
375.71	62.851
376.07	63.443
376.42	64.374
376.78	63.685
377.14	64.450
377.50	63.841
377.86	63.098
378.22	62.958
378.58	62.970
378.94	63.985
379.30	65.267
379.66	63.579
380.02	65.295
380.38	64.420
380.74	64.766
381.09	65.526
381.45	65.519
381.81	65.479
382.17	64.713
382.53	63.522
382.89	65.432
383.25	65.103
383.61	66.171
383.97	63.852
384.32	64.379
384.68	64.994
385.04	64.966
385.40	64.954
385.76	64.373
386.12	65.544
386.48	66.079
386.83	66.068
387.19	67.038
387.55	66.481
387.91	65.901
388.27	65.849
388.62	66.503
388.98	65.786
389.34	66.270
389.70	66.217
390.06	67.490
390.42	67.510
390.77	66.412
391.13	66.879
391.49	65.736
391.85	65.818
392.20	65.994
392.56	66.793
392.92	67.334
393.28	65.858
393.64	66.787
393.99	66.402
394.35	66.005
394.71	66.437
395.07	65.047
395.42	67.553
395.78	66.603
396.14	67.784
396.50	67.669
396.85	69.358
397.21	66.831
397.57	67.514
397.92	67.488
398.28	66.480
398.64	66.308
399.00	67.208
399.35	66.554
399.71	66.956
400.07	68.185
400.42	67.117
400.78	68.034
401.14	67.500
401.49	68.896
401.85	67.816
402.21	66.168
402.57	68.044
402.92	69.042
403.28	68.832
403.63	67.265
403.99	68.217
404.35	67.273
404.70	67.926
405.06	68.026
405.42	69.058
405.77	67.543
406.13	68.341
406.49	68.539
406.84	67.100
407.20	67.908
407.55	69.177
407.91	70.600
408.27	70.262
408.62	68.694
408.98	67.953
409.34	69.065
409.69	70.194
410.05	69.331
410.40	69.664
410.76	69.654
411.11	68.938
411.47	69.073
411.83	71.045
412.18	69.882
412.54	70.859
412.89	67.892
413.25	69.421
413.60	69.734
413.96	68.670
414.31	69.198
414.67	68.504
415.03	70.331
415.38	69.394
415.74	69.582
416.09	71.065
416.45	70.147
416.80	71.315
417.16	70.241
417.51	70.869
417.87	69.685
418.22	71.293
418.58	69.852
418.93	70.147
419.29	70.019
419.64	72.481
420.00	71.463
420.35	70.319
420.71	70.472
421.06	70.346
421.42	68.772
421.77	70.291
422.12	70.129
422.48	70.588
422.83	70.705
423.19	70.387
423.54	71.677
423.90	71.362
424.25	70.687
424.61	69.702
424.96	71.195
425.31	71.096
425.67	69.719
426.02	70.971
426.38	71.551
426.73	70.977
427.09	71.915
427.44	71.995
427.79	71.995
428.15	70.595
428.50	70.509
428.85	72.050
429.21	71.839
429.56	70.399
429.92	70.106
430.27	70.506
430.62	71.173
430.98	71.406
431.33	71.289
431.68	72.880
432.04	70.181
432.39	72.701
432.74	71.275
433.10	71.986
433.45	72.128
433.80	70.676
434.16	71.848
434.51	71.526
434.86	71.779
435.22	73.374
435.57	72.036
435.92	72.382
436.28	73.310
436.63	70.916
436.98	72.696
437.34	73.047
437.69	74.037
438.04	72.513
438.39	72.776
438.75	72.923
439.10	72.346
439.45	72.845
439.81	73.716
440.16	72.558
440.51	72.056
440.86	71.859
441.22	74.138
441.57	71.868
441.92	73.439
442.27	73.681
442.63	72.775
442.98	73.803
443.33	72.880
443.68	72.483
444.03	73.206
444.39	73.028
444.74	73.214
445.09	72.938
445.44	72.389
445.79	71.153
446.15	71.784
446.50	73.290
446.85	72.045
447.20	73.075
447.55	73.981
447.91	72.642
448.26	73.178
448.61	72.923
448.96	73.920
449.31	73.566
449.66	73.157
450.02	73.426
450.37	73.243
450.72	73.209
451.07	72.821
451.42	72.827
451.77	72.989
452.12	72.575
452.47	72.886
452.83	74.126
453.18	72.188
453.53	74.706
453.88	73.597
454.23	73.222
454.58	73.834
454.93	75.143
455.28	72.818
455.63	73.180
455.98	75.357
456.34	76.382
456.69	74.828
457.04	74.427
457.39	73.992
457.74	73.302
458.09	74.583
458.44	74.059
458.79	72.668
459.14	74.323
459.49	73.322
459.84	73.019
460.19	73.070
460.54	71.933
460.89	73.889
461.24	74.924
461.59	73.911
461.94	73.305
462.29	75.312
462.64	72.176
462.99	72.544
463.34	73.133
463.69	75.047
464.04	73.449
464.39	72.754
464.74	72.787
465.09	73.221
465.44	72.410
465.79	72.819
466.14	72.687
466.49	71.413
466.84	72.680
467.19	72.480
467.54	74.062
467.89	72.089
468.24	71.844
468.59	73.138
468.94	72.999
469.29	73.843
469.64	74.699
469.99	74.696
470.34	73.778
470.68	75.000
471.03	73.810
471.38	75.469
471.73	74.017
472.08	73.289
472.43	73.618
472.78	73.009
473.13	72.529
473.48	73.658
473.83	73.293
474.17	73.304
474.52	74.442
474.87	74.081
475.22	73.535
475.57	71.252
475.92	72.703
476.27	72.886
476.61	72.863
476.96	72.292
477.31	72.109
477.66	74.070
478.01	70.936
478.36	73.982
478.70	72.066
479.05	73.269
479.40	73.439
479.75	72.547
480.10	73.708
480.45	71.347
480.79	71.620
481.14	72.652
481.49	73.185
481.84	71.696
482.19	72.603
482.53	71.972
482.88	72.127
483.23	73.224
483.58	72.157
483.92	72.493
484.27	71.155
484.62	71.767
484.97	70.635
485.31	69.863
485.66	66.642
486.01	66.765
486.36	66.935
486.70	69.070
487.05	69.147
487.40	69.637
487.75	68.921
488.09	70.155
488.44	69.480
488.79	69.512
489.13	69.862
489.48	70.065
489.83	70.263
490.17	71.986
490.52	72.276
490.87	72.230
491.22	71.623
491.56	71.116
491.91	72.964
492.26	70.280
492.60	70.507
492.95	70.346
493.30	69.486
493.64	71.162
493.99	70.845
494.34	70.907
494.68	71.429
495.03	71.523
495.37	71.010
495.72	72.125
496.07	71.090
496.41	69.912
496.76	69.921
497.11	69.788
497.45	70.750
497.80	71.353
498.14	71.304
498.49	70.732
498.84	70.614
499.18	69.571
499.53	71.178
499.87	70.736
500.22	70.137
500.56	71.650
500.91	69.279
501.26	70.365
501.60	72.520
501.95	69.707
502.29	70.150
502.64	70.484
502.98	69.892
503.33	70.018
503.67	69.930
504.02	69.645
504.36	69.818
504.71	70.249
505.06	69.783
505.40	70.588
505.75	68.949
506.09	69.728
506.44	69.117
506.78	68.875
507.13	71.126
507.47	69.040
507.82	71.074
508.16	69.200
508.51	71.487
508.85	69.215
509.19	70.204
509.54	69.847
509.88	69.140
510.23	70.077
510.57	71.207
510.92	69.394
511.26	69.836
511.61	69.917
511.95	67.432
512.30	68.611
512.64	69.694
512.98	70.150
513.33	70.182
513.67	68.890
514.02	68.669
514.36	69.143
514.70	69.397
515.05	69.046
515.39	69.994
515.74	68.694
516.08	70.095
516.42	70.810
516.77	69.287
517.11	68.868
517.46	69.413
517.80	71.603
518.14	68.269
518.49	68.553
518.83	68.693
519.17	69.400
519.52	69.213
519.86	69.766
520.20	70.289
520.55	69.958
520.89	69.586
521.23	69.421
521.58	69.328
521.92	70.545
522.26	67.663
522.61	69.283
522.95	69.490
523.29	68.837
523.64	69.390
523.98	69.809
524.32	68.275
524.66	69.393
525.01	68.505
525.35	68.649
525.69	66.810
526.04	68.037
526.38	67.114
526.72	67.178
527.06	68.927
527.41	65.842
527.75	69.968
528.09	68.593
528.43	68.388
528.78	67.732
529.12	67.091
529.46	67.055
529.80	67.389
530.15	69.221
530.49	67.015
530.83	68.228
531.17	69.778
531.51	69.585
531.86	68.452
532.20	67.797
532.54	67.457
532.88	65.854
533.22	64.647
533.57	66.481
533.91	65.262
534.25	65.492
534.59	65.162
534.93	64.128
535.27	64.575
535.62	64.957
535.96	65.599
536.30	65.925
536.64	64.134
536.98	65.096
537.32	65.372
537.66	64.200
538.01	66.557
538.35	65.029
538.69	65.795
539.03	64.847
539.37	64.920
539.71	64.679
540.05	65.294
540.39	65.249
540.73	62.872
541.07	65.088
541.42	64.775
541.76	64.065
542.10	64.295
542.44	64.570
542.78	65.415
543.12	63.084
543.46	64.590
543.80	63.696
544.14	62.323
544.48	64.127
544.82	63.117
545.16	63.761
545.50	63.303
545.84	65.255
546.18	64.377
546.52	63.661
546.86	63.505
547.20	62.306
547.54	63.126
547.88	62.500
548.22	62.204
548.56	61.006
548.90	61.332
549.24	61.347
549.58	60.914
549.92	62.431
550.26	63.494
550.60	62.794
550.94	62.535
551.28	62.326
551.62	62.042
551.96	60.632
552.30	61.911
552.64	61.460
552.98	60.542
553.32	60.283
553.66	61.963
554.00	62.320
554.34	61.491
554.68	61.731
555.02	61.283
555.36	62.004
555.69	59.946
556.03	59.085
556.37	60.437
556.71	59.072
557.05	60.574
557.39	60.182
557.73	59.068
558.07	60.986
558.41	59.479
558.75	61.425
559.08	60.254
559.42	61.376
559.76	60.588
560.10	59.029
560.44	60.377
560.78	57.884
561.12	58.905
561.45	58.605
561.79	57.086
562.13	58.484
562.47	59.290
562.81	59.205
563.15	56.054
563.48	58.289
563.82	57.860
564.16	58.143
564.50	58.529
564.84	55.436
565.17	57.658
565.51	57.252
565.85	56.789
566.19	56.794
566.52	57.695
566.86	54.792
567.20	56.958
567.54	56.849
567.88	55.513
568.21	55.185
568.55	53.842
568.89	54.912
569.23	52.807
569.56	51.984
569.90	52.075
570.24	51.525
570.57	50.663
570.91	50.679
571.25	50.185
571.59	49.956
571.92	50.058
572.26	50.087
572.60	50.000
572.93	49.745
573.27	49.009
573.61	49.274
573.95	49.173
574.28	48.317
574.62	47.570
574.96	47.455
575.29	47.454
575.63	47.739
575.97	47.800
576.30	47.637
576.64	47.081
576.98	46.621
577.31	46.927
577.65	46.775
577.98	46.462
578.32	46.346
578.66	47.149
578.99	47.158
579.33	46.066
579.67	46.315
580.00	46.584
580.34	46.179
580.67	46.136
581.01	46.548
581.35	45.694
581.68	44.746
582.02	44.726
582.35	45.967
582.69	45.954
583.02	45.512
583.36	45.907
583.70	46.029
584.03	46.290
584.37	46.219
584.70	45.690
585.04	44.936
585.37	44.501
585.71	45.254
586.04	44.576
586.38	46.264
586.72	45.595
587.05	45.205
587.39	44.406
587.72	44.988
588.06	44.824
588.39	45.542
588.73	44.676
589.06	45.715
589.40	45.286
589.73	45.090
590.07	44.840
590.40	44.867
590.73	46.526
591.07	46.520
591.40	46.647
591.74	46.840
592.07	45.026
592.41	45.639
592.74	44.719
593.08	43.971
593.41	44.005
593.75	43.129
594.08	44.552
594.41	44.928
594.75	44.695
595.08	43.593
595.42	44.623
595.75	44.444
596.09	45.024
596.42	45.422
596.75	44.154
597.09	45.195
597.42	43.718
597.75	44.674
598.09	44.478
598.42	43.686
598.76	43.818
599.09	43.596
599.42	42.431
599.76	43.741
600.09	43.461
600.42	43.024
600.76	42.536
601.09	42.441
601.42	43.531
601.76	42.998
602.09	43.597
602.42	42.635
602.76	41.878
603.09	42.801
603.42	43.499
603.76	42.378
604.09	42.536
604.42	43.294
604.76	43.484
605.09	42.682
605.42	42.369
605.75	42.301
606.09	42.375
606.42	42.787
606.75	42.348
607.09	41.900
607.42	42.105
607.75	41.477
608.08	42.076
608.42	41.999
608.75	41.659
609.08	41.813
609.41	41.123
609.75	42.687
610.08	41.847
610.41	41.713
610.74	41.864
611.07	43.478
611.41	42.198
611.74	42.886
612.07	43.685
612.40	42.917
612.73	42.211
613.07	42.349
613.40	43.549
613.73	41.531
614.06	42.204
614.39	41.689
614.72	42.053
615.06	41.754
615.39	41.030
615.72	41.360
616.05	42.212
616.38	41.690
616.71	43.587
617.05	42.992
617.38	41.732
617.71	41.862
618.04	43.750
618.37	40.863
618.70	42.999
619.03	42.303
619.36	42.974
619.69	43.310
620.03	42.857
620.36	41.711
620.69	43.630
621.02	44.174
621.35	44.714
621.68	43.146
622.01	43.963
622.34	42.814
622.67	43.422
623.00	43.287
623.33	41.673
623.66	43.174
623.99	42.784
624.32	42.582
624.65	42.938
624.99	41.714
625.32	42.288
625.65	43.050
625.98	44.043
626.31	43.779
626.64	43.592
626.97	43.973
627.30	42.062
627.63	44.053
627.96	43.902
628.29	43.395
628.62	44.099
628.95	45.660
629.28	44.799
629.61	44.638
629.94	45.238
630.26	43.851
630.59	44.614
630.92	43.295
631.25	43.731
631.58	44.244
631.91	43.915
632.24	45.253
632.57	44.911
632.90	46.820
633.23	44.295
633.56	44.859
633.89	46.206
634.22	45.970
634.55	45.207
634.88	46.946
635.20	46.714
635.53	45.181
635.86	45.792
636.19	44.588
636.52	45.098
636.85	44.215
637.18	44.700
637.51	45.863
637.83	43.280
638.16	45.013
638.49	45.844
638.82	47.155
639.15	45.250
639.48	45.511
639.81	48.257
640.13	45.703
640.46	45.503
640.79	44.650
641.12	44.429
641.45	46.508
641.77	47.717
642.10	46.199
642.43	44.294
642.76	48.297
643.09	46.779
643.41	46.282
643.74	47.222
644.07	44.207
644.40	45.859
644.73	47.244
645.05	48.811
645.38	47.077
645.71	45.250
646.04	48.505
646.36	45.910
646.69	48.997
647.02	47.449
647.35	47.595
647.67	48.850
648.00	47.154
648.33	45.875
648.66	43.636
648.98	45.727
649.31	44.843
649.64	46.039
649.96	45.604
650.29	46.445
650.62	47.087
650.94	45.057
651.27	48.142
651.60	47.255
651.92	44.409
652.25	44.951
652.58	44.548
652.90	45.340
653.23	40.062
653.56	44.094
653.88	44.691
654.21	44.866
654.54	45.215
654.86	44.704
655.19	42.162
655.52	31.978
655.84	29.362
656.17	36.019
656.49	47.620
656.82	47.802
657.15	36.431
657.47	26.943
657.80	20.477
658.13	21.147
658.45	30.699
658.78	30.639
659.10	30.523
659.43	31.007
659.75	31.264
660.08	33.734
660.41	37.709
660.73	38.119
661.06	41.879
661.38	45.636
661.71	47.500
662.03	45.957
662.36	44.533
662.68	43.775
663.01	46.667
663.33	46.072
663.66	47.479
663.98	44.708
664.31	42.227
664.63	43.522
664.96	43.662
665.28	43.238
665.61	44.055
665.93	45.674
666.26	46.856
666.58	45.397
666.91	43.975
667.23	49.663
667.56	46.220
667.88	43.590
668.21	46.908
668.53	44.035
668.86	45.238
669.18	45.203
669.50	46.522
669.83	49.673
670.15	43.333
670.48	45.534
670.80	48.060
671.13	43.737
671.45	44.043
671.77	44.807
672.10	44.917
672.42	41.166
672.75	40.962
673.07	42.958
673.39	42.857
673.72	41.602
674.04	42.353
674.37	44.078
674.69	42.127
675.01	40.377
675.34	42.710
675.66	45.895
675.98	41.752
676.31	44.748
676.63	46.497
676.95	44.654
677.28	45.794
677.60	46.154
677.92	44.515
678.25	42.094
678.57	43.825
678.89	44.088
679.22	42.240
679.54	42.176
679.86	39.633
680.18	41.503
680.51	40.603
680.83	40.214
681.15	41.887
681.48	42.911
681.80	39.265
682.12	40.421
682.44	38.104
682.77	42.770
683.09	41.845
683.41	44.346
683.73	43.488
684.06	45.868
684.38	38.356
684.70	42.829
685.02	41.651
685.34	41.941
685.67	38.462
685.99	39.863
686.31	37.884
686.63	38.516
686.96	40.714
687.28	39.531
687.60	40.399
687.92	40.219
688.24	38.403
688.56	41.968
688.89	42.116
689.21	42.140
689.53	40.710
689.85	42.794
690.17	37.474
690.49	41.826
690.82	41.822
691.14	41.741
691.46	41.772
691.78	39.157
692.10	42.149
692.42	39.920
692.74	39.004
693.06	39.149
693.39	40.452
693.71	38.428
694.03	40.421
694.35	40.043
694.67	42.105
694.99	40.488
695.31	41.667
695.63	43.301
695.95	42.543
696.27	41.117
696.59	40.933
696.91	39.378
697.23	38.498
697.56	36.887
697.88	33.129
698.20	38.750
698.52	36.774
698.84	40.757
699.16	40.323
699.48	38.480
699.80	40.821
700.12	44.675
700.44	43.501
700.76	43.370
701.08	41.379
701.40	44.134
701.72	39.942
702.04	48.864
702.36	40.510
702.68	40.227
703.00	40.997
703.32	37.500
703.64	43.164
703.96	44.011
704.28	40.116
704.60	44.868
704.91	42.433
705.23	41.935
705.55	48.505
705.87	44.518
706.19	44.523
706.51	45.483
706.83	44.242
707.15	45.658
707.47	40.909
707.79	41.523
708.11	41.096
708.43	37.143
708.74	36.735
709.06	39.221
709.38	40.682
709.70	41.570
710.02	43.027
710.34	37.879
710.66	42.388
710.98	43.182
711.29	41.860
711.61	43.068
711.93	42.628
712.25	45.981
712.57	45.221
712.89	42.907
713.20	36.170
713.52	40.461
713.84	39.241
714.16	39.939
714.48	40.805
714.80	45.289
715.11	40.058
715.43	38.872
715.75	39.420
716.07	43.450
716.39	45.768
716.70	40.864
717.02	43.165
717.34	39.929
717.66	45.149
717.97	47.809
718.29	42.222
718.61	40.876
718.93	44.485
719.24	39.446
719.56	38.644
719.88	41.356
720.20	41.216
720.51	42.857
720.83	37.546
721.15	43.657
721.46	40.780
721.78	40.143
722.10	43.396
722.42	43.609
722.73	41.573
723.05	46.721
723.37	44.534
723.68	41.313
724.00	41.870
724.32	41.935
724.63	44.309
724.95	42.678
725.27	42.510
725.58	46.875
725.90	39.781
726.22	44.528
726.53	39.931
726.85	40.956
727.16	40.569
727.48	37.943
727.80	40.909
728.11	38.768
728.43	39.615
728.74	45.161
729.06	46.715
729.38	41.544
729.69	41.637
730.01	34.130
730.32	38.889
730.64	37.124
730.96	38.944
731.27	41.722
731.59	40.367
731.90	37.026
732.22	36.646
732.53	40.248
732.85	37.821
733.16	37.299
733.48	38.538
733.80	39.935
734.11	35.987
734.43	39.053
734.74	33.429
735.06	36.676
735.37	37.861
735.69	36.943
736.00	40.196
736.32	37.072
736.63	40.575
736.95	37.061
737.26	35.034
737.58	34.839
737.89	36.789
738.21	40.614
738.52	35.357
738.83	37.736
739.15	35.385
739.46	42.336
739.78	38.194
740.09	39.692
740.41	40.645
740.72	37.282
741.04	38.889
741.35	38.750
741.66	49.333
741.98	38.679
742.29	46.411
742.61	47.414
742.92	42.986
743.23	39.316
743.55	47.200
743.86	42.982
744.18	46.460
744.49	45.455
744.80	48.826
745.12	49.091
745.43	40.969
745.74	46.396
746.06	42.202
746.37	46.188
746.68	42.534
747.00	44.444
747.31	48.571
747.62	38.938
747.94	40.088
748.25	44.681
748.56	44.053
748.88	36.634
749.19	49.500
749.50	43.721
749.82	39.431
750.13	38.367
750.44	36.496
750.75	39.298
751.07	39.228
751.38	37.979
751.69	34.296
752.01	38.346
752.32	34.657
752.63	41.135
752.94	44.262
753.26	37.600
753.57	41.057
753.88	44.531
754.19	36.071
754.51	39.583
754.82	35.379
755.13	38.113
755.44	35.338
755.75	32.482
756.07	34.752
756.38	34.307
756.69	37.248
757.00	31.138
757.31	35.015
757.63	35.673
757.94	36.729
758.25	31.618
758.56	31.852
758.87	30.914
759.18	31.515
759.50	32.915
759.81	36.449
760.12	32.188
760.43	33.238
760.74	30.978
761.05	33.898
761.36	34.225
761.67	32.102
761.99	31.677
762.30	36.458
762.61	36.641
762.92	40.625
763.23	40.756
763.54	39.200
763.85	35.937
764.16	38.462
764.47	42.586
764.78	34.276
765.10	33.544
765.41	32.743
765.72	34.431
766.03	33.542
766.34	35.667
766.65	36.596
766.96	39.744
767.27	45.178
767.58	36.458
767.89	46.316
768.20	44.828
768.51	44.162
768.82	40.367
769.13	38.618
769.44	37.247
769.75	35.622
770.06	30.734
770.37	37.104
770.68	37.963
770.99	36.889
771.30	34.016
771.61	40.807
771.92	39.344
772.23	44.118
772.54	49.231
772.85	35.602
773.16	44.149
773.47	45.109
773.78	40.102
774.09	42.857
774.39	45.614
774.70	43.210
775.01	44.203
775.32	49.673
775.63	51.974
775.94	51.079
776.25	49.606
776.56	51.493
776.87	57.377
777.18	44.531
777.48	48.855
777.79	51.515
778.10	42.963
778.41	47.321
778.72	37.956
779.03	44.966
779.34	46.980
779.65	36.486
779.95	43.558
780.26	46.405
780.57	48.966
780.88	55.469
781.19	57.143
781.50	46.622
781.80	47.799
782.11	40.113
782.42	43.038
782.73	38.037
783.04	45.270
783.34	46.479
783.65	47.945
783.96	49.254
784.27	42.657
784.57	42.446
784.88	48.148
785.19	57.143
785.50	50.943
785.81	53.731
786.11	57.377
786.42	43.411
786.73	45.133
787.04	57.547
787.34	49.107
787.65	50.000
787.96	54.054
788.26	55.372
788.57	59.322
788.88	58.678
789.19	40.278
789.49	44.697
789.80	45.802
790.11	43.810
790.41	58.416
790.72	59.036
791.03	70.652
791.33	54.651
791.64	64.948
791.95	54.455
792.25	54.444
792.56	61.039
792.87	64.103
793.17	68.354
793.48	63.218
793.79	59.770
794.09	67.045
794.40	49.580
794.70	51.471
795.01	48.148
795.32	50.360
795.62	41.732
795.93	50.000
796.23	46.903
796.54	49.412
796.85	50.000
797.15	85.915
797.46	60.606
797.76	73.494
798.07	50.633
798.37	66.154
798.68	71.212
798.99	49.296
799.29	54.545
799.60	56.818
799.90	78.082
800.21	64.179
800.51	67.241
800.82	71.930
801.12	67.213
801.43	80.303
801.73	63.514
802.04	76.190
802.34	65.432
802.65	60.937
802.95	74.576
803.26	70.313
803.56	40.000
803.87	58.462
804.17	64.706
804.48	92.593
804.78	62.069
805.09	73.529
805.39	65.385
805.70	58.929
806.00	78.689
806.30	74.242
806.61	63.415
806.91	60.759
807.22	59.211
807.52	38.806
807.83	60.563
808.13	56.250
808.43	66.667
808.74	64.474
809.04	78.261
809.35	71.642
809.65	68.421
809.95	82.258
810.26	71.186
810.56	60.317
810.86	109.091
811.17	83.333
811.47	88.333
811.77	96.296
812.08	92.727
812.38	78.000
812.69	119.444
812.99	102.273
813.29	79.592
813.59	52.381
813.90	77.551
814.20	61.818
814.50	67.692
814.81	79.412
815.11	73.469
815.41	68.852
815.72	90.476
816.02	76.364
816.32	64.286
816.62	85.000
816.93	87.805
817.23	95.238
817.53	109.091
817.84	139.394
818.14	84.783
818.44	86.667
818.74	129.412
819.04	90.000
819.35	108.571
819.65	97.059
819.95	132.143
820.25	155.000
820.56	102.564
820.86	79.545
821.16	111.628
821.46	97.436
821.76	102.000
822.07	117.143
822.37	115.000
822.67	118.182
822.97	80.392
823.27	167.857
823.57	89.189
823.88	115.000
824.18	106.667
824.48	107.143
824.78	144.000
825.08	129.167
825.38	83.784
825.69	95.122
825.99	162.500
826.29	82.759
826.59	121.053
826.89	92.105
827.19	117.647
827.49	112.903
827.79	90.909
828.09	111.364
828.39	91.489
828.70	93.878
829.00	103.704
829.30	74.194
829.60	95.000
829.90	173.333
830.20	96.429
830.50	134.783
830.80	117.391
831.10	120.000
831.40	100.000
831.70	95.652
832.00	142.308
832.30	144.444
832.60	181.250
832.90	146.667
833.20	214.286
833.50	138.710
833.80	127.586
834.10	140.625
834.40	138.462
834.70	194.444
835.00	228.571
835.30	108.571
835.60	192.308
835.90	106.897
836.20	214.286
836.50	127.586
836.80	92.000
837.10	111.111
837.40	119.048
837.70	223.529
838.00	137.037
838.30	109.524
838.60	214.286
838.90	153.846
839.19	140.000
839.49	285.714
839.79	165.000
840.09	140.000
840.39	161.905
840.69	160.870
840.99	122.222
841.29	250.000
841.59	158.333
841.88	268.750
842.18	117.241
842.48	185.714
842.78	126.667
843.08	160.870
843.38	112.500
843.68	550.000
843.97	142.308
844.27	134.483
844.57	223.810
844.87	275.000
845.17	122.222
845.47	900.000
845.76	255.556
846.06	147.059
846.36	300.000
846.66	264.286
846.96	218.750
847.25	281.818
847.55	209.091
847.85	147.826
848.15	310.000
848.44	214.286
848.74	150.000
849.04	147.059
849.34	320.000
849.63	147.368
849.93	181.818
850.23	380.000
850.53	264.286
850.82	1100.000
851.12	-2600.000
851.42	1900.000
851.71	175.000
852.01	-633.333
852.31	162.500
852.61	733.333
852.90	123.810
853.20	116.000
853.50	194.118
853.79	176.190
854.09	133.333
854.39	237.500
854.68	116.216
854.98	112.903
855.28	106.667
855.57	148.276
855.87	137.037
856.17	115.789
856.46	86.667
856.76	117.647
857.05	113.793
857.35	108.333
857.65	166.667
857.94	152.174
858.24	146.154
858.53	195.000
858.83	177.273
859.13	213.333
859.42	0.000
859.72	300.000
860.01	209.091
860.31	181.818
860.60	142.105
860.90	160.870
861.20	388.889
861.49	325.000
861.79	-1600.000
862.08	350.000
862.38	176.190
862.67	115.385
862.97	164.706
863.26	277.778
863.56	161.111
863.85	308.333
864.15	300.000
864.44	253.333
864.74	500.000
865.03	400.000
865.33	194.737
865.62	290.909
865.92	330.769
866.21	208.333
866.51	0.000
866.80	236.364
867.10	540.000
867.39	338.462
867.69	300.000
867.98	168.421
868.27	218.182
868.57	205.263
868.86	-1800.000
869.16	250.000
869.45	900.000
869.75	-2200.000
870.04	233.333
870.33	342.857
870.63	500.000
870.92	1500.000
871.22	400.000
871.51	188.235
871.80	114.286
872.10	171.429
>>>>>End Processed Spectral Data<<<<<
