SpectraSuite Data File
++++++++++++++++++++++++++++++++++++
Date: Wed May 13 20:38:06 PDT 2015
User: schluterlab
Dark Spectrum Present: Yes
Reference Spectrum Present: Yes
Number of Sampled Component Spectra: 1
Spectrometers: USB2E3373
Integration Time (usec): 3000 (USB2E3373)
Spectra Averaged: 3 (USB2E3373)
Boxcar Smoothing: 0 (USB2E3373)
Correct for Electrical Dark: No (USB2E3373)
Strobe/Lamp Enabled: No (USB2E3373)
Correct for Detector Non-linearity: No (USB2E3373)
Correct for Stray Light: No (USB2E3373)
Number of Pixels in Processed Spectrum: 2048
>>>>>Begin Processed Spectral Data<<<<<
178.53	0.000
178.91	-1250.000
179.29	-1025.000
179.67	-122.222
180.04	-775.000
180.42	2200.000
180.80	820.000
181.18	-700.000
181.56	557.143
181.94	0.000
182.31	-471.429
182.69	1166.667
183.07	-350.000
183.45	-333.333
183.83	363.636
184.20	-340.000
184.58	2200.000
184.96	4900.000
185.34	-780.000
185.72	-462.500
186.09	-1650.000
186.47	2050.000
186.85	1700.000
187.23	2900.000
187.61	-1000.000
187.98	850.000
188.36	390.909
188.74	400.000
189.12	-560.000
189.49	480.000
189.87	-4200.000
190.25	-800.000
190.63	335.714
191.00	361.538
191.38	483.333
191.76	-925.000
192.14	1175.000
192.51	400.000
192.89	783.333
193.27	350.000
193.65	-1075.000
194.02	380.000
194.40	740.000
194.78	410.000
195.15	358.333
195.53	380.000
195.91	-1250.000
196.29	268.750
196.66	221.053
197.04	-180.000
197.42	0.000
197.79	480.000
198.17	-3800.000
198.55	600.000
198.92	412.500
199.30	720.000
199.68	0.000
200.05	244.444
200.43	514.286
200.81	2900.000
201.18	1266.667
201.56	-1500.000
201.94	422.222
202.31	488.889
202.69	308.333
203.07	420.000
203.44	0.000
203.82	925.000
204.19	614.286
204.57	335.714
204.95	437.500
205.32	1133.333
205.70	300.000
206.08	328.571
206.45	2300.000
206.83	250.000
207.20	783.333
207.58	560.000
207.96	194.444
208.33	612.500
208.71	-733.333
209.08	714.286
209.46	477.778
209.84	354.545
210.21	-1233.333
210.59	950.000
210.96	-312.500
211.34	2350.000
211.71	500.000
212.09	550.000
212.46	0.000
212.84	1133.333
213.22	975.000
213.59	-2800.000
213.97	616.667
214.34	571.429
214.72	563.636
215.09	880.000
215.47	-1750.000
215.84	-1650.000
216.22	1266.667
216.59	321.429
216.97	800.000
217.34	372.727
217.72	-450.000
218.09	0.000
218.47	-3400.000
218.84	466.667
219.22	571.429
219.59	833.333
219.97	-285.714
220.34	740.000
220.72	-1266.667
221.09	400.000
221.47	875.000
221.84	-750.000
222.22	0.000
222.59	850.000
222.97	-1550.000
223.34	760.000
223.72	315.385
224.09	660.000
224.46	1700.000
224.84	-3500.000
225.21	-940.000
225.59	-3100.000
225.96	550.000
226.34	230.000
226.71	1850.000
227.08	537.500
227.46	390.000
227.83	-925.000
228.21	-1400.000
228.58	522.222
228.95	-2150.000
229.33	-2100.000
229.70	1400.000
230.08	742.857
230.45	-600.000
230.82	358.333
231.20	583.333
231.57	371.429
231.95	466.667
232.32	163.636
232.69	290.909
233.07	400.000
233.44	276.923
233.81	-1366.667
234.19	242.105
234.56	266.667
234.93	308.333
235.31	281.818
235.68	276.923
236.05	271.429
236.43	139.394
236.80	210.526
237.17	4200.000
237.55	147.619
237.92	207.143
238.29	161.905
238.67	154.839
239.04	165.517
239.41	144.444
239.79	117.391
240.16	107.143
240.53	113.636
240.91	96.078
241.28	82.000
241.65	86.000
242.02	79.710
242.40	75.806
242.77	78.333
243.14	60.215
243.51	66.292
243.89	72.941
244.26	66.667
244.63	74.194
245.00	64.894
245.38	62.376
245.75	62.617
246.12	59.633
246.49	64.234
246.87	66.400
247.24	63.077
247.61	55.714
247.98	52.941
248.36	53.378
248.73	50.955
249.10	59.236
249.47	49.718
249.84	49.733
250.22	47.059
250.59	52.663
250.96	53.535
251.33	52.133
251.70	46.535
252.08	48.095
252.45	47.534
252.82	42.174
253.19	51.064
253.56	47.843
253.94	49.378
254.31	48.047
254.68	45.000
255.05	48.708
255.42	45.528
255.79	48.162
256.16	46.209
256.54	44.523
256.91	44.840
257.28	43.165
257.65	41.584
258.02	45.031
258.39	41.956
258.76	41.137
259.14	45.238
259.51	42.857
259.88	39.752
260.25	40.181
260.62	42.197
260.99	45.031
261.36	39.940
261.73	42.693
262.10	40.116
262.47	43.099
262.85	38.997
263.22	39.031
263.59	42.735
263.96	40.659
264.33	38.642
264.70	41.053
265.07	42.711
265.44	41.667
265.81	37.226
266.18	40.201
266.55	36.585
266.92	40.541
267.29	42.593
267.66	36.239
268.03	37.273
268.40	39.019
268.77	37.709
269.14	37.162
269.51	42.664
269.88	37.762
270.25	37.698
270.62	38.202
270.99	40.860
271.36	39.270
271.73	40.187
272.10	39.565
272.47	39.140
272.84	39.827
273.21	39.623
273.58	37.118
273.95	35.639
274.32	36.570
274.69	37.045
275.06	36.220
275.43	41.277
275.80	38.477
276.17	37.271
276.54	38.046
276.91	37.154
277.28	34.961
277.65	37.524
278.02	39.130
278.39	37.305
278.76	37.818
279.13	37.358
279.50	34.451
279.87	38.446
280.23	38.723
280.60	35.010
280.97	35.120
281.34	37.168
281.71	38.182
282.08	37.620
282.45	37.455
282.82	36.590
283.19	33.868
283.56	36.667
283.92	35.871
284.29	35.273
284.66	33.757
285.03	33.816
285.40	33.275
285.77	33.502
286.14	34.715
286.51	34.167
286.87	34.701
287.24	34.039
287.61	33.708
287.98	33.279
288.35	32.647
288.72	31.620
289.08	31.768
289.45	34.102
289.82	31.545
290.19	31.868
290.56	30.168
290.93	30.211
291.29	32.822
291.66	30.531
292.03	32.703
292.40	31.865
292.77	29.734
293.13	30.149
293.50	31.341
293.87	32.148
294.24	28.296
294.60	28.821
294.97	29.215
295.34	30.748
295.71	29.830
296.08	28.490
296.44	26.960
296.81	26.552
297.18	26.829
297.55	27.441
297.91	28.628
298.28	28.112
298.65	29.504
299.02	27.668
299.38	26.959
299.75	26.415
300.12	25.798
300.48	26.000
300.85	25.894
301.22	26.242
301.59	25.758
301.95	26.448
302.32	25.546
302.69	25.090
303.05	25.333
303.42	26.173
303.79	25.368
304.15	24.476
304.52	25.608
304.89	25.319
305.25	24.130
305.62	25.481
305.99	25.856
306.35	25.615
306.72	25.336
307.09	24.528
307.45	25.450
307.82	23.549
308.19	25.607
308.55	25.243
308.92	24.382
309.29	23.020
309.65	23.754
310.02	23.573
310.38	23.118
310.75	23.865
311.12	24.770
311.48	24.033
311.85	24.319
312.22	23.205
312.58	23.181
312.95	24.076
313.31	22.913
313.68	23.701
314.05	25.937
314.41	23.819
314.78	22.558
315.14	23.039
315.51	23.481
315.87	23.960
316.24	22.642
316.61	23.782
316.97	22.798
317.34	23.092
317.70	23.614
318.07	23.869
318.43	22.896
318.80	23.524
319.16	22.505
319.53	23.358
319.89	23.905
320.26	22.900
320.62	24.008
320.99	23.131
321.35	23.434
321.72	23.306
322.08	23.889
322.45	23.383
322.81	23.353
323.18	22.736
323.54	22.171
323.91	23.585
324.27	22.180
324.64	21.435
325.00	22.453
325.37	22.657
325.73	23.429
326.10	23.036
326.46	23.208
326.83	23.382
327.19	22.630
327.56	21.777
327.92	22.135
328.29	22.715
328.65	21.915
329.01	22.383
329.38	22.202
329.74	21.976
330.11	22.432
330.47	22.222
330.84	23.254
331.20	21.949
331.56	21.468
331.93	21.759
332.29	23.159
332.66	23.009
333.02	21.755
333.38	22.764
333.75	23.351
334.11	21.797
334.48	22.183
334.84	23.346
335.20	23.000
335.57	21.396
335.93	21.071
336.29	22.253
336.66	21.641
337.02	21.176
337.38	22.963
337.75	21.123
338.11	21.934
338.47	20.810
338.84	20.898
339.20	20.734
339.56	22.993
339.93	21.000
340.29	22.283
340.65	20.945
341.02	21.728
341.38	22.242
341.74	20.088
342.11	21.834
342.47	21.938
342.83	20.719
343.20	22.338
343.56	20.809
343.92	21.491
344.28	21.769
344.65	21.066
345.01	21.380
345.37	20.926
345.73	21.574
346.10	21.057
346.46	22.542
346.82	21.746
347.19	20.301
347.55	21.675
347.91	21.197
348.27	22.514
348.63	21.154
349.00	20.307
349.36	21.018
349.72	21.572
350.08	20.259
350.45	21.155
350.81	20.877
351.17	21.394
351.53	21.130
351.89	21.370
352.26	20.521
352.62	21.812
352.98	20.583
353.34	21.611
353.70	18.576
354.07	20.242
354.43	19.762
354.79	20.354
355.15	21.389
355.51	20.943
355.87	20.898
356.24	19.951
356.60	20.369
356.96	20.113
357.32	20.196
357.68	20.630
358.04	20.823
358.40	20.269
358.77	19.718
359.13	20.047
359.49	19.765
359.85	18.413
360.21	20.574
360.57	20.467
360.93	21.077
361.29	19.350
361.66	18.808
362.02	20.299
362.38	19.468
362.74	20.610
363.10	19.097
363.46	19.956
363.82	19.803
364.18	20.411
364.54	20.877
364.90	20.326
365.26	19.853
365.62	20.161
365.98	19.430
366.35	18.840
366.71	20.174
367.07	19.665
367.43	19.303
367.79	19.700
368.15	20.618
368.51	19.331
368.87	20.057
369.23	19.093
369.59	19.913
369.95	19.044
370.31	19.017
370.67	18.696
371.03	20.150
371.39	19.388
371.75	19.044
372.11	19.132
372.47	20.894
372.83	20.101
373.19	19.870
373.55	19.217
373.91	19.146
374.27	19.175
374.63	18.982
374.99	19.633
375.35	18.772
375.71	19.397
376.07	19.136
376.42	19.257
376.78	19.152
377.14	17.639
377.50	18.742
377.86	19.082
378.22	18.458
378.58	18.358
378.94	19.233
379.30	18.448
379.66	19.099
380.02	19.226
380.38	17.972
380.74	19.328
381.09	18.826
381.45	19.361
381.81	19.103
382.17	19.045
382.53	18.553
382.89	19.568
383.25	18.699
383.61	19.269
383.97	17.511
384.32	18.964
384.68	19.145
385.04	18.132
385.40	18.452
385.76	18.612
386.12	18.588
386.48	19.069
386.83	18.858
387.19	19.728
387.55	18.120
387.91	17.775
388.27	18.455
388.62	18.316
388.98	18.305
389.34	19.274
389.70	18.639
390.06	18.758
390.42	19.261
390.77	18.957
391.13	18.507
391.49	18.591
391.85	18.905
392.20	18.423
392.56	17.929
392.92	17.775
393.28	17.396
393.64	18.705
393.99	18.143
394.35	18.548
394.71	17.817
395.07	17.944
395.42	18.480
395.78	19.020
396.14	17.939
396.50	18.860
396.85	19.008
397.21	18.064
397.57	18.909
397.92	18.389
398.28	17.545
398.64	18.757
399.00	18.075
399.35	17.766
399.71	18.576
400.07	17.623
400.42	17.914
400.78	18.577
401.14	18.049
401.49	17.910
401.85	17.544
402.21	17.725
402.57	17.458
402.92	18.096
403.28	18.988
403.63	18.750
403.99	17.643
404.35	16.909
404.70	18.225
405.06	18.579
405.42	17.966
405.77	17.486
406.13	17.043
406.49	18.155
406.84	17.602
407.20	17.730
407.55	18.124
407.91	18.467
408.27	18.443
408.62	17.700
408.98	18.015
409.34	18.327
409.69	18.387
410.05	17.410
410.40	17.615
410.76	18.220
411.11	18.034
411.47	17.508
411.83	18.448
412.18	18.924
412.54	18.369
412.89	18.253
413.25	18.359
413.60	17.542
413.96	18.458
414.31	17.801
414.67	18.124
415.03	18.079
415.38	18.106
415.74	18.328
416.09	18.223
416.45	18.675
416.80	18.969
417.16	18.901
417.51	18.514
417.87	17.726
418.22	18.549
418.58	18.722
418.93	18.612
419.29	19.223
419.64	18.703
420.00	18.659
420.35	18.319
420.71	18.290
421.06	17.900
421.42	17.836
421.77	18.049
422.12	17.799
422.48	18.241
422.83	18.113
423.19	18.287
423.54	17.586
423.90	18.087
424.25	18.537
424.61	17.500
424.96	18.134
425.31	17.885
425.67	17.079
426.02	18.114
426.38	18.437
426.73	17.554
427.09	18.967
427.44	18.056
427.79	18.114
428.15	18.452
428.50	18.666
428.85	18.534
429.21	17.670
429.56	17.833
429.92	18.269
430.27	17.925
430.62	17.409
430.98	18.578
431.33	18.351
431.68	17.801
432.04	18.317
432.39	17.933
432.74	18.911
433.10	18.336
433.45	18.134
433.80	17.295
434.16	17.949
434.51	18.000
434.86	18.187
435.22	18.344
435.57	18.176
435.92	17.379
436.28	18.861
436.63	19.095
436.98	17.687
437.34	18.784
437.69	18.320
438.04	18.269
438.39	17.791
438.75	18.710
439.10	18.212
439.45	18.005
439.81	17.946
440.16	17.787
440.51	18.336
440.86	18.356
441.22	18.242
441.57	18.684
441.92	18.270
442.27	18.084
442.63	17.746
442.98	18.592
443.33	17.717
443.68	17.398
444.03	17.716
444.39	17.575
444.74	18.615
445.09	18.005
445.44	17.769
445.79	17.763
446.15	18.211
446.50	18.094
446.85	18.037
447.20	17.797
447.55	18.425
447.91	18.533
448.26	18.086
448.61	17.807
448.96	18.494
449.31	18.560
449.66	18.514
450.02	17.660
450.37	17.971
450.72	18.105
451.07	17.855
451.42	17.508
451.77	17.616
452.12	17.436
452.47	18.346
452.83	18.298
453.18	17.604
453.53	18.677
453.88	18.252
454.23	17.753
454.58	19.261
454.93	19.517
455.28	18.017
455.63	18.447
455.98	19.583
456.34	18.970
456.69	18.910
457.04	17.833
457.39	18.878
457.74	17.411
458.09	18.689
458.44	18.871
458.79	17.299
459.14	18.905
459.49	18.973
459.84	18.061
460.19	18.621
460.54	18.056
460.89	19.089
461.24	18.154
461.59	18.942
461.94	18.311
462.29	20.000
462.64	18.571
462.99	18.217
463.34	19.533
463.69	18.449
464.04	18.899
464.39	18.551
464.74	18.122
465.09	18.335
465.44	18.837
465.79	19.183
466.14	18.719
466.49	18.187
466.84	19.089
467.19	18.527
467.54	18.812
467.89	18.067
468.24	18.906
468.59	18.987
468.94	18.509
469.29	18.959
469.64	19.076
469.99	19.215
470.34	18.626
470.68	20.259
471.03	19.252
471.38	20.083
471.73	19.654
472.08	20.066
472.43	19.284
472.78	19.816
473.13	19.512
473.48	19.600
473.83	19.451
474.17	18.793
474.52	19.417
474.87	19.264
475.22	19.385
475.57	18.377
475.92	18.587
476.27	18.095
476.61	18.533
476.96	19.021
477.31	18.106
477.66	19.201
478.01	18.505
478.36	18.985
478.70	18.484
479.05	18.211
479.40	19.703
479.75	19.065
480.10	18.588
480.45	18.087
480.79	18.681
481.14	18.738
481.49	18.510
481.84	18.381
482.19	18.719
482.53	18.716
482.88	18.334
483.23	18.458
483.58	18.881
483.92	18.463
484.27	17.516
484.62	18.405
484.97	17.816
485.31	18.185
485.66	17.478
486.01	16.525
486.36	16.194
486.70	16.252
487.05	16.554
487.40	16.369
487.75	16.375
488.09	17.319
488.44	16.678
488.79	17.975
489.13	17.380
489.48	17.251
489.83	17.782
490.17	18.764
490.52	17.848
490.87	18.815
491.22	19.281
491.56	17.768
491.91	18.520
492.26	18.466
492.60	18.756
492.95	18.522
493.30	18.084
493.64	18.572
493.99	18.524
494.34	19.658
494.68	18.590
495.03	18.797
495.37	18.753
495.72	18.811
496.07	19.397
496.41	18.584
496.76	18.821
497.11	18.415
497.45	19.655
497.80	19.386
498.14	18.454
498.49	18.293
498.84	19.511
499.18	19.524
499.53	17.901
499.87	18.360
500.22	18.464
500.56	19.029
500.91	18.750
501.26	18.729
501.60	19.649
501.95	18.882
502.29	18.932
502.64	18.994
502.98	19.402
503.33	18.327
503.67	18.422
504.02	18.148
504.36	18.437
504.71	18.808
505.06	18.651
505.40	19.300
505.75	18.852
506.09	18.805
506.44	18.698
506.78	18.997
507.13	18.829
507.47	19.545
507.82	19.504
508.16	19.250
508.51	19.838
508.85	19.265
509.19	19.745
509.54	19.337
509.88	18.959
510.23	19.794
510.57	19.092
510.92	19.368
511.26	19.270
511.61	19.398
511.95	18.946
512.30	19.353
512.64	19.936
512.98	19.989
513.33	19.754
513.67	19.477
514.02	19.643
514.36	19.716
514.70	19.369
515.05	20.190
515.39	19.910
515.74	19.257
516.08	20.458
516.42	20.533
516.77	20.736
517.11	19.867
517.46	20.598
517.80	19.686
518.14	19.919
518.49	20.595
518.83	20.511
519.17	20.035
519.52	20.204
519.86	20.308
520.20	20.694
520.55	21.245
520.89	20.499
521.23	20.989
521.58	20.408
521.92	21.004
522.26	19.951
522.61	20.374
522.95	20.135
523.29	20.268
523.64	20.122
523.98	20.641
524.32	20.627
524.66	20.505
525.01	21.140
525.35	19.950
525.69	20.874
526.04	20.312
526.38	21.110
526.72	20.000
527.06	20.465
527.41	20.111
527.75	21.093
528.09	21.901
528.43	20.650
528.78	20.652
529.12	20.606
529.46	20.943
529.80	20.235
530.15	21.246
530.49	20.431
530.83	20.696
531.17	21.671
531.51	21.790
531.86	20.581
532.20	21.578
532.54	21.140
532.88	21.117
533.22	20.175
533.57	19.938
533.91	20.470
534.25	20.231
534.59	20.805
534.93	20.405
535.27	19.976
535.62	21.368
535.96	20.716
536.30	21.869
536.64	20.863
536.98	20.703
537.32	20.079
537.66	19.733
538.01	20.803
538.35	21.138
538.69	20.740
539.03	20.468
539.37	20.064
539.71	19.896
540.05	20.588
540.39	20.864
540.73	20.246
541.07	20.896
541.42	21.787
541.76	21.226
542.10	20.828
542.44	20.596
542.78	21.344
543.12	20.921
543.46	20.984
543.80	20.820
544.14	20.090
544.48	19.619
544.82	20.462
545.16	20.755
545.50	20.501
545.84	21.035
546.18	20.067
546.52	21.404
546.86	20.962
547.20	21.848
547.54	20.107
547.88	21.173
548.22	20.237
548.56	20.377
548.90	20.230
549.24	20.606
549.58	20.737
549.92	20.673
550.26	21.236
550.60	20.678
550.94	20.493
551.28	20.410
551.62	21.280
551.96	20.982
552.30	21.638
552.64	21.501
552.98	21.898
553.32	20.432
553.66	21.541
554.00	21.551
554.34	20.497
554.68	21.674
555.02	20.381
555.36	21.294
555.69	20.230
556.03	20.256
556.37	20.464
556.71	21.146
557.05	20.798
557.39	21.134
557.73	21.313
558.07	20.450
558.41	20.984
558.75	21.234
559.08	21.327
559.42	21.013
559.76	22.279
560.10	21.128
560.44	20.894
560.78	19.960
561.12	21.570
561.45	20.991
561.79	20.303
562.13	21.060
562.47	20.355
562.81	21.339
563.15	21.739
563.48	20.889
563.82	21.135
564.16	21.256
564.50	20.312
564.84	21.113
565.17	20.335
565.51	20.639
565.85	20.558
566.19	20.038
566.52	20.583
566.86	19.952
567.20	19.988
567.54	20.833
567.88	19.555
568.21	20.159
568.55	19.717
568.89	19.261
569.23	19.563
569.56	18.623
569.90	18.302
570.24	18.371
570.57	18.531
570.91	17.292
571.25	17.820
571.59	17.526
571.92	17.396
572.26	17.649
572.60	17.087
572.93	17.391
573.27	17.391
573.61	17.113
573.95	17.106
574.28	17.387
574.62	17.007
574.96	16.726
575.29	17.144
575.63	16.794
575.97	16.194
576.30	17.207
576.64	16.705
576.98	16.650
577.31	16.867
577.65	16.938
577.98	16.747
578.32	16.144
578.66	16.730
578.99	16.845
579.33	16.170
579.67	16.152
580.00	16.615
580.34	16.706
580.67	16.545
581.01	16.775
581.35	16.281
581.68	16.161
582.02	16.145
582.35	16.293
582.69	16.562
583.02	16.468
583.36	16.417
583.70	16.384
584.03	16.327
584.37	16.812
584.70	16.641
585.04	16.805
585.37	16.705
585.71	16.541
586.04	16.840
586.38	16.850
586.72	17.343
587.05	17.006
587.39	16.306
587.72	17.444
588.06	16.782
588.39	17.723
588.73	16.720
589.06	17.326
589.40	17.475
589.73	17.423
590.07	17.438
590.40	16.697
590.73	17.486
591.07	18.600
591.40	18.009
591.74	18.355
592.07	17.234
592.41	18.107
592.74	17.678
593.08	17.921
593.41	17.494
593.75	17.052
594.08	17.197
594.41	17.568
594.75	17.264
595.08	17.466
595.42	17.758
595.75	17.379
596.09	17.799
596.42	17.839
596.75	17.560
597.09	18.615
597.42	17.580
597.75	18.068
598.09	18.261
598.42	17.784
598.76	17.876
599.09	18.092
599.42	17.140
599.76	17.496
600.09	17.231
600.42	17.348
600.76	16.857
601.09	17.231
601.42	17.123
601.76	17.306
602.09	17.984
602.42	17.954
602.76	18.178
603.09	17.703
603.42	18.274
603.76	17.416
604.09	17.487
604.42	17.733
604.76	17.798
605.09	18.654
605.42	17.828
605.75	18.046
606.09	17.853
606.42	17.736
606.75	18.084
607.09	17.874
607.42	18.186
607.75	17.637
608.08	17.455
608.42	18.557
608.75	17.899
609.08	18.039
609.41	18.372
609.75	18.104
610.08	18.332
610.41	17.644
610.74	18.070
611.07	18.478
611.41	17.812
611.74	18.854
612.07	18.582
612.40	19.150
612.73	19.158
613.07	18.534
613.40	18.536
613.73	18.039
614.06	18.548
614.39	18.668
614.72	18.632
615.06	18.908
615.39	17.622
615.72	18.814
616.05	18.394
616.38	18.733
616.71	19.121
617.05	18.963
617.38	19.242
617.71	19.399
618.04	19.651
618.37	18.805
618.70	19.788
619.03	21.316
619.36	20.502
619.69	20.070
620.03	20.192
620.36	21.056
620.69	20.205
621.02	20.944
621.35	20.595
621.68	20.483
622.01	20.820
622.34	21.558
622.67	20.000
623.00	20.983
623.33	20.515
623.66	20.872
623.99	20.987
624.32	20.613
624.65	19.633
624.99	19.830
625.32	19.623
625.65	20.511
625.98	20.676
626.31	21.073
626.64	20.980
626.97	20.532
627.30	22.195
627.63	21.739
627.96	21.615
628.29	21.172
628.62	21.500
628.95	23.679
629.28	21.898
629.61	23.465
629.94	24.000
630.26	21.735
630.59	23.737
630.92	22.318
631.25	22.113
631.58	22.823
631.91	21.197
632.24	23.101
632.57	23.715
632.90	22.368
633.23	23.602
633.56	23.277
633.89	25.368
634.22	22.815
634.55	24.142
634.88	23.114
635.20	25.329
635.53	24.458
635.86	23.020
636.19	23.765
636.52	24.221
636.85	23.253
637.18	22.581
637.51	25.650
637.83	20.715
638.16	22.634
638.49	24.433
638.82	25.032
639.15	25.000
639.48	24.564
639.81	25.201
640.13	24.740
640.46	25.101
640.79	23.118
641.12	22.008
641.45	25.559
641.77	27.541
642.10	25.000
642.43	25.676
642.76	24.149
643.09	24.847
643.41	24.583
643.74	27.623
644.07	26.372
644.40	27.147
644.73	26.929
645.05	28.209
645.38	25.908
645.71	25.443
646.04	26.080
646.36	27.212
646.69	26.421
647.02	26.701
647.35	27.491
647.67	26.195
648.00	26.179
648.33	26.733
648.66	24.091
648.98	26.087
649.31	23.767
649.64	25.262
649.96	27.422
650.29	25.750
650.62	25.728
650.94	29.011
651.27	26.351
651.60	29.118
651.92	24.281
652.25	23.616
652.58	24.611
652.90	28.120
653.23	23.421
653.56	24.567
653.88	24.881
654.21	25.750
654.54	25.083
654.86	21.963
655.19	24.730
655.52	16.975
655.84	15.525
656.17	19.547
656.49	25.354
656.82	24.470
657.15	17.893
657.47	13.111
657.80	9.712
658.13	9.830
658.45	14.058
658.78	14.188
659.10	14.350
659.43	14.670
659.75	15.587
660.08	17.025
660.41	18.901
660.73	22.999
661.06	25.478
661.38	26.182
661.71	29.231
662.03	25.444
662.36	25.249
662.68	25.904
663.01	28.283
663.33	28.238
663.66	27.311
663.98	27.862
664.31	27.731
664.63	27.733
664.96	26.761
665.28	27.664
665.61	26.121
665.93	25.956
666.26	26.775
666.58	25.523
666.91	29.810
667.23	31.011
667.56	27.214
667.88	29.701
668.21	31.130
668.53	27.766
668.86	26.840
669.18	30.277
669.50	28.043
669.83	28.540
670.15	29.778
670.48	25.708
670.80	29.741
671.13	27.601
671.45	26.596
671.77	28.310
672.10	26.248
672.42	25.795
672.75	25.373
673.07	26.408
673.39	25.316
673.72	24.219
674.04	24.902
674.37	25.631
674.69	26.176
675.01	25.732
675.34	27.926
675.66	28.211
675.98	28.513
676.31	29.622
676.63	28.450
676.95	27.673
677.28	27.336
677.60	29.890
677.92	26.582
678.25	26.078
678.57	26.295
678.89	26.653
679.22	27.308
679.54	26.145
679.86	26.055
680.18	25.403
680.51	26.596
680.83	26.512
681.15	27.925
681.48	30.246
681.80	24.952
682.12	26.054
682.44	24.565
682.77	26.477
683.09	29.828
683.41	24.390
683.73	28.698
684.06	28.099
684.38	26.027
684.70	27.132
685.02	28.330
685.34	27.106
685.67	23.427
685.99	24.742
686.31	23.720
686.63	22.968
686.96	25.000
687.28	24.368
687.60	24.638
687.92	25.777
688.24	25.095
688.56	29.317
688.89	29.461
689.21	26.638
689.53	26.305
689.85	30.377
690.17	25.259
690.49	28.450
690.82	26.869
691.14	26.786
691.46	26.371
691.78	27.912
692.10	25.207
692.42	28.942
692.74	26.763
693.06	26.170
693.39	26.489
693.71	27.948
694.03	29.263
694.35	27.489
694.67	26.545
694.99	29.756
695.31	26.471
695.63	28.469
695.95	26.895
696.27	27.411
696.59	28.497
696.91	28.238
697.23	25.352
697.56	26.652
697.88	22.495
698.20	25.833
698.52	26.237
698.84	27.394
699.16	27.650
699.48	29.216
699.80	28.019
700.12	32.468
700.44	28.117
700.76	29.834
701.08	31.897
701.40	29.888
701.72	32.362
702.04	32.955
702.36	26.346
702.68	30.595
703.00	30.471
703.32	28.723
703.64	25.737
703.96	29.248
704.28	30.814
704.60	34.018
704.91	30.564
705.23	27.273
705.55	30.233
705.87	35.880
706.19	32.862
706.51	32.399
706.83	30.303
707.15	29.132
707.47	29.798
707.79	27.027
708.11	26.941
708.43	27.143
708.74	25.255
709.06	29.091
709.38	26.509
709.70	30.523
710.02	32.344
710.34	28.485
710.66	32.836
710.98	30.398
711.29	33.721
711.61	31.858
711.93	29.808
712.25	30.547
712.57	36.397
712.89	32.180
713.20	33.131
713.52	30.263
713.84	31.646
714.16	30.793
714.48	27.874
714.80	32.523
715.11	28.818
715.43	29.970
715.75	28.406
716.07	29.073
716.39	31.348
716.70	25.581
717.02	29.137
717.34	32.862
717.66	37.687
717.97	33.068
718.29	33.704
718.61	34.672
718.93	33.088
719.24	33.564
719.56	32.881
719.88	31.864
720.20	32.095
720.51	31.359
720.83	34.572
721.15	29.104
721.46	32.624
721.78	31.900
722.10	35.849
722.42	32.331
722.73	33.333
723.05	34.836
723.37	29.555
723.68	33.591
724.00	30.081
724.32	35.887
724.63	28.862
724.95	32.636
725.27	34.008
725.58	32.813
725.90	32.847
726.22	28.302
726.53	30.208
726.85	32.423
727.16	31.317
727.48	31.560
727.80	31.439
728.11	33.333
728.43	32.308
728.74	32.258
729.06	33.942
729.38	34.559
729.69	32.028
730.01	34.130
730.32	30.556
730.64	33.779
730.96	27.393
731.27	30.795
731.59	29.969
731.90	30.321
732.22	31.677
732.53	26.316
732.85	26.923
733.16	29.904
733.48	33.555
733.80	29.221
734.11	32.803
734.43	29.882
734.74	30.000
735.06	29.513
735.37	32.948
735.69	29.618
736.00	32.026
736.32	28.660
736.63	27.476
736.95	33.227
737.26	26.190
737.58	25.806
737.89	31.773
738.21	33.106
738.52	33.571
738.83	30.189
739.15	31.923
739.46	32.482
739.78	32.986
740.09	28.308
740.41	32.581
740.72	30.314
741.04	32.963
741.35	26.667
741.66	36.444
741.98	38.208
742.29	33.971
742.61	38.793
742.92	35.747
743.23	36.752
743.55	32.000
743.86	34.649
744.18	37.168
744.49	38.756
744.80	38.498
745.12	40.455
745.43	37.445
745.74	40.090
746.06	35.780
746.37	37.668
746.68	34.842
747.00	32.870
747.31	38.095
747.62	31.416
747.94	35.242
748.25	29.787
748.56	32.159
748.88	38.119
749.19	39.000
749.50	35.814
749.82	30.894
750.13	28.163
750.44	33.942
750.75	31.930
751.07	35.370
751.38	33.449
751.69	31.769
752.01	33.083
752.32	32.491
752.63	31.915
752.94	31.148
753.26	40.000
753.57	33.333
753.88	29.297
754.19	35.714
754.51	34.375
754.82	28.881
755.13	33.962
755.44	34.962
755.75	32.482
756.07	33.688
756.38	31.387
756.69	29.195
757.00	28.443
757.31	28.487
757.63	26.316
757.94	26.542
758.25	28.186
758.56	25.679
758.87	26.613
759.18	32.424
759.50	23.511
759.81	27.414
760.12	30.937
760.43	30.086
760.74	28.804
761.05	27.684
761.36	27.005
761.67	29.545
761.99	26.398
762.30	29.514
762.61	30.916
762.92	30.078
763.23	32.353
763.54	38.400
763.85	38.672
764.16	38.462
764.47	33.080
764.78	24.735
765.10	26.899
765.41	29.499
765.72	28.443
766.03	28.527
766.34	25.333
766.65	36.170
766.96	36.325
767.27	37.563
767.58	40.625
767.89	42.105
768.20	43.103
768.51	44.162
768.82	37.615
769.13	32.927
769.44	31.579
769.75	31.760
770.06	36.239
770.37	33.937
770.68	37.037
770.99	35.556
771.30	34.426
771.61	36.771
771.92	33.607
772.23	42.017
772.54	36.410
772.85	40.838
773.16	42.021
773.47	45.109
773.78	42.640
774.09	35.119
774.39	35.673
774.70	42.593
775.01	47.826
775.32	40.523
775.63	44.737
775.94	43.885
776.25	46.457
776.56	42.537
776.87	43.443
777.18	52.344
777.48	54.198
777.79	50.758
778.10	39.259
778.41	46.429
778.72	41.606
779.03	47.651
779.34	38.926
779.65	45.946
779.95	43.558
780.26	40.523
780.57	44.138
780.88	61.719
781.19	49.624
781.50	52.027
781.80	43.396
782.11	36.158
782.42	40.506
782.73	31.288
783.04	41.216
783.34	48.592
783.65	54.110
783.96	50.000
784.27	40.559
784.57	38.849
784.88	36.111
785.19	51.587
785.50	50.000
785.81	56.716
786.11	55.738
786.42	59.690
786.73	41.593
787.04	55.660
787.34	55.357
787.65	57.000
787.96	45.946
788.26	42.975
788.57	64.407
788.88	52.893
789.19	50.000
789.49	45.455
789.80	57.252
790.11	66.667
790.41	60.396
790.72	59.036
791.03	52.174
791.33	53.488
791.64	49.485
791.95	55.446
792.25	62.222
792.56	58.442
792.87	73.077
793.17	79.747
793.48	71.264
793.79	59.770
794.09	64.773
794.40	57.143
794.70	44.118
795.01	45.926
795.32	43.165
795.62	45.669
795.93	50.862
796.23	52.212
796.54	60.000
796.85	54.054
797.15	87.324
797.46	69.697
797.76	77.108
798.07	54.430
798.37	69.231
798.68	65.152
798.99	67.606
799.29	66.234
799.60	62.500
799.90	80.822
800.21	80.597
800.51	65.517
800.82	73.684
801.12	88.525
801.43	81.818
801.73	56.757
802.04	77.778
802.34	56.790
802.65	81.250
802.95	91.525
803.26	89.063
803.56	64.286
803.87	83.077
804.17	69.118
804.48	94.444
804.78	74.138
805.09	66.176
805.39	82.692
805.70	78.571
806.00	90.164
806.30	62.121
806.61	54.878
806.91	68.354
807.22	67.105
807.52	65.672
807.83	74.648
808.13	82.813
808.43	71.667
808.74	63.158
809.04	66.667
809.35	83.582
809.65	63.158
809.95	83.871
810.26	66.102
810.56	61.905
810.86	120.455
811.17	97.619
811.47	96.667
811.77	105.556
812.08	92.727
812.38	80.000
812.69	108.333
812.99	115.909
813.29	114.286
813.59	78.571
813.90	106.122
814.20	83.636
814.50	73.846
814.81	83.824
815.11	81.633
815.41	73.770
815.72	126.190
816.02	109.091
816.32	97.619
816.62	90.000
816.93	97.561
817.23	104.762
817.53	100.000
817.84	160.606
818.14	115.217
818.44	100.000
818.74	120.588
819.04	127.500
819.35	105.714
819.65	126.471
819.95	157.143
820.25	185.000
820.56	138.462
820.86	115.909
821.16	113.953
821.46	94.872
821.76	102.000
822.07	114.286
822.37	122.500
822.67	127.273
822.97	98.039
823.27	142.857
823.57	145.946
823.88	127.500
824.18	156.667
824.48	119.048
824.78	172.000
825.08	137.500
825.38	129.730
825.69	97.561
825.99	145.833
826.29	103.448
826.59	97.368
826.89	89.474
827.19	117.647
827.49	132.258
827.79	115.909
828.09	86.364
828.39	95.745
828.70	114.286
829.00	122.222
829.30	132.258
829.60	122.500
829.90	220.000
830.20	125.000
830.50	143.478
830.80	143.478
831.10	140.000
831.40	176.667
831.70	152.174
832.00	146.154
832.30	148.148
832.60	218.750
832.90	153.333
833.20	335.714
833.50	138.710
833.80	151.724
834.10	125.000
834.40	184.615
834.70	222.222
835.00	295.238
835.30	120.000
835.60	230.769
835.90	148.276
836.20	285.714
836.50	155.172
836.80	148.000
837.10	161.111
837.40	209.524
837.70	205.882
838.00	188.889
838.30	180.952
838.60	209.524
838.90	192.308
839.19	220.000
839.49	285.714
839.79	255.000
840.09	210.000
840.39	180.952
840.69	182.609
840.99	211.111
841.29	210.000
841.59	175.000
841.88	206.250
842.18	134.483
842.48	214.286
842.78	166.667
843.08	186.957
843.38	128.125
843.68	600.000
843.97	165.385
844.27	168.966
844.57	257.143
844.87	256.250
845.17	159.259
845.47	1066.667
845.76	344.444
846.06	241.176
846.36	387.500
846.66	292.857
846.96	250.000
847.25	263.636
847.55	390.909
847.85	213.043
848.15	380.000
848.44	335.714
848.74	138.889
849.04	205.882
849.34	420.000
849.63	194.737
849.93	336.364
850.23	460.000
850.53	328.571
850.82	1600.000
851.12	-3100.000
851.42	2600.000
851.71	200.000
852.01	-1033.333
852.31	162.500
852.61	1233.333
852.90	219.048
853.20	212.000
853.50	264.706
853.79	185.714
854.09	175.000
854.39	218.750
854.68	132.432
854.98	141.935
855.28	140.000
855.57	144.828
855.87	151.852
856.17	152.632
856.46	213.333
856.76	217.647
857.05	148.276
857.35	158.333
857.65	246.667
857.94	213.043
858.24	200.000
858.53	230.000
858.83	181.818
859.13	266.667
859.42	0.000
859.72	433.333
860.01	209.091
860.31	204.545
860.60	221.053
860.90	191.304
861.20	322.222
861.49	383.333
861.79	-3900.000
862.08	500.000
862.38	214.286
862.67	284.615
862.97	247.059
863.26	322.222
863.56	188.889
863.85	341.667
864.15	475.000
864.44	293.333
864.74	550.000
865.03	475.000
865.33	210.526
865.62	490.909
865.92	246.154
866.21	291.667
866.51	0.000
866.80	327.273
867.10	580.000
867.39	300.000
867.69	272.727
867.98	221.053
868.27	381.818
868.57	215.789
868.86	-3200.000
869.16	256.250
869.45	1650.000
869.75	-3100.000
870.04	308.333
870.33	500.000
870.63	700.000
870.92	1500.000
871.22	528.571
871.51	305.882
871.80	133.333
872.10	321.429
>>>>>End Processed Spectral Data<<<<<
