SpectraSuite Data File
++++++++++++++++++++++++++++++++++++
Date: Wed May 13 20:46:50 PDT 2015
User: schluterlab
Dark Spectrum Present: Yes
Reference Spectrum Present: Yes
Number of Sampled Component Spectra: 1
Spectrometers: USB2E3373
Integration Time (usec): 3000 (USB2E3373)
Spectra Averaged: 3 (USB2E3373)
Boxcar Smoothing: 0 (USB2E3373)
Correct for Electrical Dark: No (USB2E3373)
Strobe/Lamp Enabled: No (USB2E3373)
Correct for Detector Non-linearity: No (USB2E3373)
Correct for Stray Light: No (USB2E3373)
Number of Pixels in Processed Spectrum: 2048
>>>>>Begin Processed Spectral Data<<<<<
178.53	0.000
178.91	-1025.000
179.29	-925.000
179.67	-111.111
180.04	-775.000
180.42	1650.000
180.80	840.000
181.18	-675.000
181.56	385.714
181.94	0.000
182.31	-414.286
182.69	1033.333
183.07	-312.500
183.45	-355.556
183.83	354.545
184.20	-200.000
184.58	1200.000
184.96	3700.000
185.34	-420.000
185.72	-300.000
186.09	-950.000
186.47	1300.000
186.85	1450.000
187.23	2600.000
187.61	-1000.000
187.98	775.000
188.36	327.273
188.74	345.455
189.12	-620.000
189.49	330.000
189.87	-2500.000
190.25	-650.000
190.63	250.000
191.00	223.077
191.38	400.000
191.76	-750.000
192.14	925.000
192.51	437.500
192.89	683.333
193.27	362.500
193.65	-750.000
194.02	440.000
194.40	540.000
194.78	410.000
195.15	316.667
195.53	450.000
195.91	-850.000
196.29	237.500
196.66	221.053
197.04	-180.000
197.42	0.000
197.79	350.000
198.17	-2400.000
198.55	328.571
198.92	550.000
199.30	520.000
199.68	0.000
200.05	200.000
200.43	400.000
200.81	2500.000
201.18	1066.667
201.56	-933.333
201.94	300.000
202.31	388.889
202.69	291.667
203.07	370.000
203.44	0.000
203.82	600.000
204.19	414.286
204.57	285.714
204.95	325.000
205.32	1333.333
205.70	372.727
206.08	271.429
206.45	1700.000
206.83	181.250
207.20	566.667
207.58	340.000
207.96	205.556
208.33	375.000
208.71	-533.333
209.08	528.571
209.46	377.778
209.84	254.545
210.21	-1000.000
210.59	975.000
210.96	-200.000
211.34	1700.000
211.71	300.000
212.09	283.333
212.46	0.000
212.84	866.667
213.22	700.000
213.59	-2500.000
213.97	566.667
214.34	742.857
214.72	372.727
215.09	520.000
215.47	-1500.000
215.84	-1750.000
216.22	866.667
216.59	214.286
216.97	1000.000
217.34	327.273
217.72	-483.333
218.09	0.000
218.47	-2200.000
218.84	366.667
219.22	471.429
219.59	1000.000
219.97	-300.000
220.34	520.000
220.72	-966.667
221.09	235.714
221.47	750.000
221.84	-566.667
222.22	0.000
222.59	975.000
222.97	-1850.000
223.34	740.000
223.72	276.923
224.09	740.000
224.46	1550.000
224.84	-2600.000
225.21	-780.000
225.59	-3000.000
225.96	390.000
226.34	200.000
226.71	2050.000
227.08	387.500
227.46	410.000
227.83	-525.000
228.21	-1000.000
228.58	355.556
228.95	-1300.000
229.33	-1300.000
229.70	1333.333
230.08	471.429
230.45	-620.000
230.82	266.667
231.20	533.333
231.57	457.143
231.95	241.667
232.32	136.364
232.69	209.091
233.07	385.714
233.44	169.231
233.81	-933.333
234.19	194.737
234.56	308.333
234.93	208.333
235.31	345.455
235.68	223.077
236.05	207.143
236.43	139.394
236.80	147.368
237.17	3100.000
237.55	152.381
237.92	146.429
238.29	152.381
238.67	148.387
239.04	172.414
239.41	113.889
239.79	106.522
240.16	109.524
240.53	111.364
240.91	88.235
241.28	108.000
241.65	102.000
242.02	85.507
242.40	79.032
242.77	81.667
243.14	74.194
243.51	74.157
243.89	62.353
244.26	72.222
244.63	66.667
245.00	64.894
245.38	69.307
245.75	58.879
246.12	65.138
246.49	62.774
246.87	72.000
247.24	71.538
247.61	65.000
247.98	58.824
248.36	60.811
248.73	62.420
249.10	61.783
249.47	57.627
249.84	56.684
250.22	56.150
250.59	56.805
250.96	60.101
251.33	59.242
251.70	65.842
252.08	63.810
252.45	56.054
252.82	56.957
253.19	57.447
253.56	52.157
253.94	60.581
254.31	59.375
254.68	55.000
255.05	56.089
255.42	57.724
255.79	55.147
256.16	54.513
256.54	52.650
256.91	53.381
257.28	52.518
257.65	49.175
258.02	52.484
258.39	49.842
258.76	53.177
259.14	49.405
259.51	50.760
259.88	52.795
260.25	54.985
260.62	51.156
260.99	54.037
261.36	54.354
261.73	53.582
262.10	52.616
262.47	51.831
262.85	50.696
263.22	48.718
263.59	53.846
263.96	49.725
264.33	50.653
264.70	51.842
265.07	52.174
265.44	51.515
265.81	48.418
266.18	49.246
266.55	49.512
266.92	51.597
267.29	51.852
267.66	47.706
268.03	47.727
268.40	47.664
268.77	47.255
269.14	46.847
269.51	48.307
269.88	50.117
270.25	48.307
270.62	50.337
270.99	52.043
271.36	49.785
271.73	50.701
272.10	52.174
272.47	51.398
272.84	49.351
273.21	50.943
273.58	46.288
273.95	46.541
274.32	45.041
274.69	49.251
275.06	49.409
275.43	52.128
275.80	46.293
276.17	47.454
276.54	50.728
276.91	48.221
277.28	45.117
277.65	47.002
278.02	48.033
278.39	50.781
278.76	46.364
279.13	47.358
279.50	48.045
279.87	44.024
280.23	45.709
280.60	47.195
280.97	46.580
281.34	46.903
281.71	45.818
282.08	47.217
282.45	46.182
282.82	45.293
283.19	45.989
283.56	46.842
283.92	43.655
284.29	44.621
284.66	44.828
285.03	45.389
285.40	44.542
285.77	44.781
286.14	44.387
286.51	44.667
286.87	43.248
287.24	44.463
287.61	43.178
287.98	43.344
288.35	40.887
288.72	40.810
289.08	43.036
289.45	40.033
289.82	40.976
290.19	41.601
290.56	39.816
290.93	38.520
291.29	42.791
291.66	40.855
292.03	40.407
292.40	39.354
292.77	39.793
293.13	40.299
293.50	39.213
293.87	37.926
294.24	36.889
294.60	36.972
294.97	36.047
295.34	37.941
295.71	38.636
296.08	37.037
296.44	37.276
296.81	35.799
297.18	37.805
297.55	34.960
297.91	34.960
298.28	36.948
298.65	36.423
299.02	35.441
299.38	35.857
299.75	33.154
300.12	32.312
300.48	34.750
300.85	34.155
301.22	33.376
301.59	33.838
301.95	35.013
302.32	32.221
302.69	34.289
303.05	33.333
303.42	33.086
303.79	33.862
304.15	32.634
304.52	30.939
304.89	31.823
305.25	32.483
305.62	31.597
305.99	33.766
306.35	32.327
306.72	33.296
307.09	32.075
307.45	34.234
307.82	30.692
308.19	31.015
308.55	34.088
308.92	33.083
309.29	32.418
309.65	32.131
310.02	32.241
310.38	31.935
310.75	31.468
311.12	31.525
311.48	31.557
311.85	33.019
312.22	31.217
312.58	32.225
312.95	32.313
313.31	30.291
313.68	33.160
314.05	33.333
314.41	33.065
314.78	32.628
315.14	31.480
315.51	32.647
315.87	32.871
316.24	32.572
316.61	32.749
316.97	32.877
317.34	33.757
317.70	33.556
318.07	34.167
318.43	33.855
318.80	33.646
319.16	34.275
319.53	32.458
319.89	34.571
320.26	35.600
320.62	34.226
320.99	35.253
321.35	36.162
321.72	36.858
322.08	36.032
322.45	36.915
322.81	38.178
323.18	37.283
323.54	36.364
323.91	37.547
324.27	38.337
324.64	37.185
325.00	37.601
325.37	39.490
325.73	39.497
326.10	38.129
326.46	38.710
326.83	40.466
327.19	40.137
327.56	39.895
327.92	40.945
328.29	42.325
328.65	41.252
329.01	42.329
329.38	41.258
329.74	41.367
330.11	42.130
330.47	42.883
330.84	42.096
331.20	41.530
331.56	42.294
331.93	43.056
332.29	41.615
332.66	42.301
333.02	40.951
333.38	42.999
333.75	42.513
334.11	41.726
334.48	40.905
334.84	42.096
335.20	43.091
335.57	40.707
335.93	42.321
336.29	44.322
336.66	42.290
337.02	42.353
337.38	42.778
337.75	41.800
338.11	42.256
338.47	43.462
338.84	44.088
339.20	42.844
339.56	43.704
339.93	41.818
340.29	43.388
340.65	42.424
341.02	44.415
341.38	44.484
341.74	42.456
342.11	42.358
342.47	44.758
342.83	43.921
343.20	44.675
343.56	42.881
343.92	44.386
344.28	45.238
344.65	45.228
345.01	43.519
345.37	43.482
345.73	44.670
346.10	45.183
346.46	46.186
346.82	45.964
347.19	43.442
347.55	44.335
347.91	44.660
348.27	45.440
348.63	45.234
349.00	45.793
349.36	45.895
349.72	45.469
350.08	45.219
350.45	45.810
350.81	46.141
351.17	46.434
351.53	45.045
351.89	45.627
352.26	45.383
352.62	46.832
352.98	46.515
353.34	46.426
353.70	45.745
354.07	46.290
354.43	44.683
354.79	46.661
355.15	45.411
355.51	47.562
355.87	46.939
356.24	47.394
356.60	45.469
356.96	47.305
357.32	47.833
357.68	45.669
358.04	46.081
358.40	46.397
358.77	47.183
359.13	46.093
359.49	46.980
359.85	46.349
360.21	45.455
360.57	46.693
360.93	47.385
361.29	47.166
361.66	46.130
362.02	46.493
362.38	46.388
362.74	47.247
363.10	45.522
363.46	46.368
363.82	46.032
364.18	44.714
364.54	47.697
364.90	47.025
365.26	47.279
365.62	46.749
365.98	47.334
366.35	45.917
366.71	46.782
367.07	47.924
367.43	47.678
367.79	48.251
368.15	48.420
368.51	47.166
368.87	47.395
369.23	47.257
369.59	47.574
369.95	47.132
370.31	47.222
370.67	46.449
371.03	47.640
371.39	47.886
371.75	48.015
372.11	47.511
372.47	47.434
372.83	49.135
373.19	47.254
373.55	48.559
373.91	49.558
374.27	46.529
374.63	47.418
374.99	47.740
375.35	47.313
375.71	48.526
376.07	47.257
376.42	48.349
376.78	49.437
377.14	48.779
377.50	47.748
377.86	47.141
378.22	48.420
378.58	47.055
378.94	47.769
379.30	48.282
379.66	49.175
380.02	49.079
380.38	49.059
380.74	48.980
381.09	48.839
381.45	49.293
381.81	49.324
382.17	49.873
382.53	49.245
382.89	49.568
383.25	49.593
383.61	49.876
383.97	48.843
384.32	48.472
384.68	48.637
385.04	49.908
385.40	48.607
385.76	49.140
386.12	49.417
386.48	49.591
386.83	49.134
387.19	52.072
387.55	50.959
387.91	49.395
388.27	49.479
388.62	49.416
388.98	50.123
389.34	51.627
389.70	49.663
390.06	50.444
390.42	50.519
390.77	49.555
391.13	50.734
391.49	51.015
391.85	49.777
392.20	49.085
392.56	50.821
392.92	51.148
393.28	50.533
393.64	50.600
393.99	51.130
394.35	50.682
394.71	50.376
395.07	49.782
395.42	50.494
395.78	51.463
396.14	51.459
396.50	51.629
396.85	51.621
397.21	50.247
397.57	50.031
397.92	51.502
398.28	50.168
398.64	51.016
399.00	51.259
399.35	51.438
399.71	51.968
400.07	51.212
400.42	50.920
400.78	51.809
401.14	51.098
401.49	51.642
401.85	51.845
402.21	51.078
402.57	52.005
402.92	52.396
403.28	53.029
403.63	52.475
403.99	51.146
404.35	52.727
404.70	52.458
405.06	51.893
405.42	53.462
405.77	52.400
406.13	52.370
406.49	52.868
406.84	52.274
407.20	52.069
407.55	52.521
407.91	53.667
408.27	53.223
408.62	52.378
408.98	52.574
409.34	52.460
409.69	54.581
410.05	53.470
410.40	53.578
410.76	53.345
411.11	52.654
411.47	53.482
411.83	53.574
412.18	53.803
412.54	54.172
412.89	54.458
413.25	53.247
413.60	54.416
413.96	53.370
414.31	55.103
414.67	54.056
415.03	53.709
415.38	54.317
415.74	55.177
416.09	55.519
416.45	55.288
416.80	55.122
417.16	55.429
417.51	55.939
417.87	54.271
418.22	55.962
418.58	55.649
418.93	55.098
419.29	55.824
419.64	55.668
420.00	55.549
420.35	55.362
420.71	56.246
421.06	56.444
421.42	55.965
421.77	56.670
422.12	55.924
422.48	56.179
422.83	56.610
423.19	56.519
423.54	57.458
423.90	55.826
424.25	56.896
424.61	57.738
424.96	58.659
425.31	56.146
425.67	58.034
426.02	56.971
426.38	58.852
426.73	57.578
427.09	57.751
427.44	58.137
427.79	57.274
428.15	58.214
428.50	58.689
428.85	58.224
429.21	58.255
429.56	57.957
429.92	58.078
430.27	58.937
430.62	58.321
430.98	59.107
431.33	59.330
431.68	59.634
432.04	58.360
432.39	59.052
432.74	59.306
433.10	59.989
433.45	60.816
433.80	59.368
434.16	59.509
434.51	59.053
434.86	60.832
435.22	61.757
435.57	60.486
435.92	60.094
436.28	60.558
436.63	61.093
436.98	60.446
437.34	61.956
437.69	62.252
438.04	61.720
438.39	60.955
438.75	61.650
439.10	62.346
439.45	61.629
439.81	60.544
440.16	61.660
440.51	61.043
440.86	61.841
441.22	61.846
441.57	61.624
441.92	62.845
442.27	63.617
442.63	62.033
442.98	62.366
443.33	62.880
443.68	62.364
444.03	63.104
444.39	62.220
444.74	63.961
445.09	62.588
445.44	63.095
445.79	61.950
446.15	62.361
446.50	63.543
446.85	63.258
447.20	62.978
447.55	64.992
447.91	63.707
448.26	63.216
448.61	63.878
448.96	64.452
449.31	63.780
449.66	62.915
450.02	62.897
450.37	62.472
450.72	64.467
451.07	63.803
451.42	62.310
451.77	63.535
452.12	63.453
452.47	64.490
452.83	64.277
453.18	62.531
453.53	64.873
453.88	63.851
454.23	63.837
454.58	64.749
454.93	65.416
455.28	64.589
455.63	65.413
455.98	65.476
456.34	65.578
456.69	64.684
457.04	64.644
457.39	64.933
457.74	64.829
458.09	64.980
458.44	64.424
458.79	64.913
459.14	64.221
459.49	66.083
459.84	65.152
460.19	65.115
460.54	63.426
460.89	64.728
461.24	65.331
461.59	66.357
461.94	65.968
462.29	66.588
462.64	66.114
462.99	64.411
463.34	65.667
463.69	66.667
464.04	65.623
464.39	65.623
464.74	65.538
465.09	65.380
465.44	64.321
465.79	64.374
466.14	65.025
466.49	65.795
466.84	66.725
467.19	65.238
467.54	66.062
467.89	64.766
468.24	65.154
468.59	66.484
468.94	65.058
469.29	66.067
469.64	65.663
469.99	67.388
470.34	65.522
470.68	65.302
471.03	64.694
471.38	66.852
471.73	65.623
472.08	67.171
472.43	66.018
472.78	67.018
473.13	65.597
473.48	65.543
473.83	66.098
474.17	64.779
474.52	66.377
474.87	66.492
475.22	65.583
475.57	64.428
475.92	66.012
476.27	64.431
476.61	64.865
476.96	65.640
477.31	65.672
477.66	66.357
478.01	64.401
478.36	64.833
478.70	63.603
479.05	64.909
479.40	65.711
479.75	65.379
480.10	64.761
480.45	63.732
480.79	64.071
481.14	66.145
481.49	64.974
481.84	64.289
482.19	64.471
482.53	65.550
482.88	64.356
483.23	64.019
483.58	64.286
483.92	64.808
484.27	61.961
484.62	63.362
484.97	61.845
485.31	64.110
485.66	61.578
486.01	62.325
486.36	62.166
486.70	63.726
487.05	63.374
487.40	62.717
487.75	62.651
488.09	63.118
488.44	61.708
488.79	63.074
489.13	62.147
489.48	62.235
489.83	62.063
490.17	63.700
490.52	62.489
490.87	62.415
491.22	62.938
491.56	62.825
491.91	63.239
492.26	62.563
492.60	63.041
492.95	61.085
493.30	62.944
493.64	64.116
493.99	62.256
494.34	63.599
494.68	63.095
495.03	63.675
495.37	63.053
495.72	63.060
496.07	62.320
496.41	60.973
496.76	61.961
497.11	61.144
497.45	62.133
497.80	62.236
498.14	60.628
498.49	62.049
498.84	61.218
499.18	61.857
499.53	62.631
499.87	62.255
500.22	62.694
500.56	62.087
500.91	61.875
501.26	61.546
501.60	63.265
501.95	60.312
502.29	62.277
502.64	61.825
502.98	61.805
503.33	60.740
503.67	60.974
504.02	60.992
504.36	60.739
504.71	61.700
505.06	61.349
505.40	60.719
505.75	59.065
506.09	60.593
506.44	62.111
506.78	61.130
507.13	61.030
507.47	61.919
507.82	60.790
508.16	60.385
508.51	62.202
508.85	60.129
509.19	61.071
509.54	60.918
509.88	59.505
510.23	60.823
510.57	61.558
510.92	59.710
511.26	59.147
511.61	60.166
511.95	59.916
512.30	59.756
512.64	60.451
512.98	60.772
513.33	60.225
513.67	59.178
514.02	58.929
514.36	60.786
514.70	60.874
515.05	61.350
515.39	59.338
515.74	59.459
516.08	58.971
516.42	59.656
516.77	60.145
517.11	59.267
517.46	59.763
517.80	60.569
518.14	58.830
518.49	60.443
518.83	59.318
519.17	58.891
519.52	60.102
519.86	59.954
520.20	59.191
520.55	60.024
520.89	59.732
521.23	60.434
521.58	58.764
521.92	60.502
522.26	57.535
522.61	59.938
522.95	58.072
523.29	60.195
523.64	58.902
523.98	59.519
524.32	58.926
524.66	59.110
525.01	58.333
525.35	58.550
525.69	56.958
526.04	57.882
526.38	57.352
526.72	58.098
527.06	58.255
527.41	57.178
527.75	58.392
528.09	57.932
528.43	56.469
528.78	58.267
529.12	57.455
529.46	58.114
529.80	58.540
530.15	57.882
530.49	56.185
530.83	56.772
531.17	58.616
531.51	57.328
531.86	57.871
532.20	57.171
532.54	56.951
532.88	57.831
533.22	55.840
533.57	57.222
533.91	57.014
534.25	56.318
534.59	57.657
534.93	55.503
535.27	56.850
535.62	56.288
535.96	56.246
536.30	56.453
536.64	56.214
536.98	56.072
537.32	55.826
537.66	55.267
538.01	57.011
538.35	55.915
538.69	55.648
539.03	55.426
539.37	54.441
539.71	54.828
540.05	55.686
540.39	55.150
540.73	54.916
541.07	55.419
541.42	55.512
541.76	56.000
542.10	54.463
542.44	54.834
542.78	55.336
543.12	53.487
543.46	54.885
543.80	54.262
544.14	53.145
544.48	54.032
544.82	53.945
545.16	54.522
545.50	53.663
545.84	54.032
546.18	54.209
546.52	54.508
546.86	53.127
547.20	53.203
547.54	53.240
547.88	53.954
548.22	53.176
548.56	52.264
548.90	52.561
549.24	52.997
549.58	53.206
549.92	51.717
550.26	53.338
550.60	51.245
550.94	52.183
551.28	52.890
551.62	51.618
551.96	52.070
552.30	53.106
552.64	52.806
552.98	52.746
553.32	51.719
553.66	51.329
554.00	52.505
554.34	50.380
554.68	52.361
555.02	51.975
555.36	50.104
555.69	50.609
556.03	50.808
556.37	51.569
556.71	51.501
557.05	52.031
557.39	49.965
557.73	50.459
558.07	51.632
558.41	49.566
558.75	50.771
559.08	50.708
559.42	51.020
559.76	49.044
560.10	50.393
560.44	50.594
560.78	49.235
561.12	50.462
561.45	50.326
561.79	48.187
562.13	49.162
562.47	49.795
562.81	50.488
563.15	48.896
563.48	49.536
563.82	49.446
564.16	48.267
564.50	48.372
564.84	49.052
565.17	49.485
565.51	48.818
565.85	49.619
566.19	47.965
566.52	49.018
566.86	47.619
567.20	48.467
567.54	48.116
567.88	48.452
568.21	48.095
568.55	48.028
568.89	48.638
569.23	46.658
569.56	46.802
569.90	47.358
570.24	47.219
570.57	45.699
570.91	45.637
571.25	45.244
571.59	45.655
571.92	45.392
572.26	45.956
572.60	46.096
572.93	45.337
573.27	45.312
573.61	44.277
573.95	45.530
574.28	44.548
574.62	44.704
574.96	44.564
575.29	44.253
575.63	44.157
575.97	44.806
576.30	44.344
576.64	44.655
576.98	43.291
577.31	43.946
577.65	43.887
577.98	44.351
578.32	43.705
578.66	43.690
578.99	43.597
579.33	43.186
579.67	43.688
580.00	43.131
580.34	43.379
580.67	42.779
581.01	42.995
581.35	42.810
581.68	43.072
582.02	42.925
582.35	43.599
582.69	43.225
583.02	42.833
583.36	43.048
583.70	43.232
584.03	42.241
584.37	42.161
584.70	42.659
585.04	42.001
585.37	42.148
585.71	42.317
586.04	42.498
586.38	42.947
586.72	42.530
587.05	41.836
587.39	41.135
587.72	42.850
588.06	42.022
588.39	41.866
588.73	41.977
589.06	41.633
589.40	42.155
589.73	41.359
590.07	41.388
590.40	41.103
590.73	41.647
591.07	42.247
591.40	41.375
591.74	41.861
592.07	41.579
592.41	41.505
592.74	41.049
593.08	41.672
593.41	41.759
593.75	40.256
594.08	40.965
594.41	41.534
594.75	40.813
595.08	39.692
595.42	40.210
595.75	40.741
596.09	41.006
596.42	40.472
596.75	40.186
597.09	40.996
597.42	41.273
597.75	40.405
598.09	39.913
598.42	39.863
598.76	39.441
599.09	39.377
599.42	39.884
599.76	39.824
600.09	39.709
600.42	39.408
600.76	39.321
601.09	38.834
601.42	39.688
601.76	39.620
602.09	39.684
602.42	39.331
602.76	39.581
603.09	40.165
603.42	40.062
603.76	39.291
604.09	39.162
604.42	40.277
604.76	38.760
605.09	38.663
605.42	38.350
605.75	39.611
606.09	38.715
606.42	40.049
606.75	38.573
607.09	38.719
607.42	38.768
607.75	37.764
608.08	38.168
608.42	38.682
608.75	38.729
609.08	37.743
609.41	37.839
609.75	39.066
610.08	38.266
610.41	38.780
610.74	38.079
611.07	38.883
611.41	38.862
611.74	37.758
612.07	38.820
612.40	38.353
612.73	37.947
613.07	38.416
613.40	38.863
613.73	37.389
614.06	38.441
614.39	38.070
614.72	37.579
615.06	37.658
615.39	37.898
615.72	37.474
616.05	37.108
616.38	38.188
616.71	37.589
617.05	36.926
617.38	37.222
617.71	37.237
618.04	38.101
618.37	37.079
618.70	37.150
619.03	38.421
619.36	36.660
619.69	37.606
620.03	38.805
620.36	37.032
620.69	38.288
621.02	38.864
621.35	37.588
621.68	37.150
622.01	38.854
622.34	37.443
622.67	37.719
623.00	36.757
623.33	36.812
623.66	38.456
623.99	36.892
624.32	36.305
624.65	35.452
624.99	36.331
625.32	36.857
625.65	37.941
625.98	36.818
626.31	36.236
626.64	36.980
626.97	37.074
627.30	37.157
627.63	35.603
627.96	36.501
628.29	36.658
628.62	36.322
628.95	37.830
629.28	35.675
629.61	36.389
629.94	38.286
630.26	36.225
630.59	37.655
630.92	36.303
631.25	36.723
631.58	36.436
631.91	35.903
632.24	35.549
632.57	36.516
632.90	37.500
633.23	36.913
633.56	36.836
633.89	36.920
634.22	36.890
634.55	39.527
634.88	37.485
635.20	36.798
635.53	38.434
635.86	38.243
636.19	37.059
636.52	35.871
636.85	36.312
637.18	34.908
637.51	37.352
637.83	35.388
638.16	37.084
638.49	36.398
638.82	36.410
639.15	36.750
639.48	37.531
639.81	36.997
640.13	38.281
640.46	36.644
640.79	36.592
641.12	36.589
641.45	36.313
641.77	35.641
642.10	37.427
642.43	34.535
642.76	35.759
643.09	37.577
643.41	37.481
643.74	37.809
644.07	37.805
644.40	35.736
644.73	37.638
645.05	37.242
645.38	36.809
645.71	35.588
646.04	37.708
646.36	38.230
646.69	36.957
647.02	36.905
647.35	34.708
647.67	35.221
648.00	36.098
648.33	39.274
648.66	35.000
648.98	37.331
649.31	34.380
649.64	35.575
649.96	35.618
650.29	38.073
650.62	33.819
650.94	37.439
651.27	36.149
651.60	36.772
651.92	34.824
652.25	35.179
652.58	35.047
652.90	36.809
653.23	34.823
653.56	33.701
653.88	36.767
654.21	36.967
654.54	36.634
654.86	37.539
655.19	35.135
655.52	32.098
655.84	32.121
656.17	41.199
656.49	54.018
656.82	53.140
657.15	39.518
657.47	28.810
657.80	21.384
658.13	21.546
658.45	30.775
658.78	31.078
659.10	31.052
659.43	31.144
659.75	30.460
660.08	30.696
660.41	32.030
660.73	32.529
661.06	32.484
661.38	36.000
661.71	37.308
662.03	37.870
662.36	34.791
662.68	39.357
663.01	35.960
663.33	37.155
663.66	34.034
663.98	36.285
664.31	34.454
664.63	34.615
664.96	35.010
665.28	35.246
665.61	34.308
665.93	37.022
666.26	34.686
666.58	34.728
666.91	36.364
667.23	37.528
667.56	33.693
667.88	36.752
668.21	34.115
668.53	33.839
668.86	36.580
669.18	38.166
669.50	35.870
669.83	37.255
670.15	38.667
670.48	35.730
670.80	37.500
671.13	37.367
671.45	31.915
671.77	37.067
672.10	36.044
672.42	35.866
672.75	34.992
673.07	35.387
673.39	34.901
673.72	34.180
674.04	34.510
674.37	34.951
674.69	32.515
675.01	36.192
675.34	36.961
675.66	36.421
675.98	33.605
676.31	33.824
676.63	34.183
676.95	32.704
677.28	34.813
677.60	36.044
677.92	38.186
678.25	35.113
678.57	35.657
678.89	35.271
679.22	33.792
679.54	35.687
679.86	33.578
680.18	33.989
680.51	35.816
680.83	35.409
681.15	35.849
681.48	36.862
681.80	33.269
682.12	34.100
682.44	34.429
682.77	35.642
683.09	36.910
683.41	35.698
683.73	35.982
684.06	34.504
684.38	34.834
684.70	34.496
685.02	36.961
685.34	32.601
685.67	32.343
685.99	33.677
686.31	33.959
686.63	31.979
686.96	34.821
687.28	31.588
687.60	33.877
687.92	34.186
688.24	33.650
688.56	34.940
688.89	33.817
689.21	37.773
689.53	35.908
689.85	37.251
690.17	33.333
690.49	37.367
690.82	35.748
691.14	31.920
691.46	32.489
691.78	35.341
692.10	36.157
692.42	34.731
692.74	32.780
693.06	36.383
693.39	36.140
693.71	36.463
694.03	37.263
694.35	32.035
694.67	32.952
694.99	34.634
695.31	33.824
695.63	34.928
695.95	35.452
696.27	32.487
696.59	31.865
696.91	36.788
697.23	33.333
697.56	33.049
697.88	31.697
698.20	32.292
698.52	32.903
698.84	33.185
699.16	35.484
699.48	35.392
699.80	36.715
700.12	36.883
700.44	35.544
700.76	37.017
701.08	34.195
701.40	33.240
701.72	37.609
702.04	38.920
702.36	34.278
702.68	35.127
703.00	37.119
703.32	33.511
703.64	35.389
703.96	34.819
704.28	35.756
704.60	36.657
704.91	37.092
705.23	38.123
705.55	38.870
705.87	41.196
706.19	37.102
706.51	34.579
706.83	39.394
707.15	38.936
707.47	35.606
707.79	36.855
708.11	35.616
708.43	34.048
708.74	33.163
709.06	33.506
709.38	33.071
709.70	37.500
710.02	36.795
710.34	33.333
710.66	35.522
710.98	37.784
711.29	35.756
711.61	36.873
711.93	33.974
712.25	34.727
712.57	35.662
712.89	34.948
713.20	36.778
713.52	40.461
713.84	34.810
714.16	39.024
714.48	35.920
714.80	40.122
715.11	37.752
715.43	36.202
715.75	35.072
716.07	36.741
716.39	33.542
716.70	39.203
717.02	39.928
717.34	34.276
717.66	37.687
717.97	37.450
718.29	36.667
718.61	37.956
718.93	39.338
719.24	38.408
719.56	32.542
719.88	38.644
720.20	41.216
720.51	36.934
720.83	38.662
721.15	36.567
721.46	37.943
721.78	37.993
722.10	34.717
722.42	39.474
722.73	38.577
723.05	34.836
723.37	38.462
723.68	36.293
724.00	31.707
724.32	37.903
724.63	33.333
724.95	36.820
725.27	40.081
725.58	43.359
725.90	41.606
726.22	41.887
726.53	36.458
726.85	36.860
727.16	39.146
727.48	40.426
727.80	37.500
728.11	36.594
728.43	36.154
728.74	39.068
729.06	42.336
729.38	43.382
729.69	37.722
730.01	34.130
730.32	36.111
730.64	36.789
730.96	35.974
731.27	37.417
731.59	38.838
731.90	37.901
732.22	36.335
732.53	33.127
732.85	35.897
733.16	33.441
733.48	36.213
733.80	40.584
734.11	38.854
734.43	32.840
734.74	34.000
735.06	32.092
735.37	35.838
735.69	33.439
736.00	38.562
736.32	37.072
736.63	36.422
736.95	39.617
737.26	37.075
737.58	37.419
737.89	39.799
738.21	37.884
738.52	39.286
738.83	35.849
739.15	38.846
739.46	39.416
739.78	37.847
740.09	36.923
740.41	35.806
740.72	33.101
741.04	36.667
741.35	37.083
741.66	44.444
741.98	38.208
742.29	44.976
742.61	43.103
742.92	35.747
743.23	45.299
743.55	40.000
743.86	37.281
744.18	41.593
744.49	41.148
744.80	39.437
745.12	45.000
745.43	37.885
745.74	42.342
746.06	40.826
746.37	41.256
746.68	43.439
747.00	38.426
747.31	41.905
747.62	38.496
747.94	37.004
748.25	35.745
748.56	45.815
748.88	36.634
749.19	47.500
749.50	43.256
749.82	36.179
750.13	34.694
750.44	39.051
750.75	36.842
751.07	40.514
751.38	37.282
751.69	36.823
752.01	34.962
752.32	39.350
752.63	39.362
752.94	36.475
753.26	46.000
753.57	36.179
753.88	41.016
754.19	35.714
754.51	39.583
754.82	33.574
755.13	41.132
755.44	39.098
755.75	37.956
756.07	34.043
756.38	37.956
756.69	38.255
757.00	35.030
757.31	37.092
757.63	37.427
757.94	36.729
758.25	32.108
758.56	34.074
758.87	31.989
759.18	34.545
759.50	34.796
759.81	35.514
760.12	34.375
760.43	35.817
760.74	34.783
761.05	36.723
761.36	36.096
761.67	37.784
761.99	33.851
762.30	37.500
762.61	39.313
762.92	39.844
763.23	36.975
763.54	40.800
763.85	38.672
764.16	41.538
764.47	38.403
764.78	38.869
765.10	32.911
765.41	38.348
765.72	34.731
766.03	40.439
766.34	33.667
766.65	45.106
766.96	37.179
767.27	43.655
767.58	40.104
767.89	50.526
768.20	40.805
768.51	40.102
768.82	43.578
769.13	35.366
769.44	38.462
769.75	40.773
770.06	33.945
770.37	42.081
770.68	43.981
770.99	40.444
771.30	36.885
771.61	47.085
771.92	40.164
772.23	43.277
772.54	43.077
772.85	41.885
773.16	44.149
773.47	42.935
773.78	40.102
774.09	38.095
774.39	48.538
774.70	43.827
775.01	45.652
775.32	49.673
775.63	46.053
775.94	40.288
776.25	50.394
776.56	47.015
776.87	50.000
777.18	41.406
777.48	51.145
777.79	47.727
778.10	45.926
778.41	51.786
778.72	44.526
779.03	48.993
779.34	43.624
779.65	45.270
779.95	49.080
780.26	49.020
780.57	51.034
780.88	53.125
781.19	45.865
781.50	50.000
781.80	49.686
782.11	41.808
782.42	36.709
782.73	41.104
783.04	45.946
783.34	42.254
783.65	51.370
783.96	52.239
784.27	50.350
784.57	45.324
784.88	37.963
785.19	53.968
785.50	51.887
785.81	56.716
786.11	54.098
786.42	45.736
786.73	49.558
787.04	55.660
787.34	52.679
787.65	51.000
787.96	53.153
788.26	49.587
788.57	66.102
788.88	42.149
789.19	54.167
789.49	56.818
789.80	46.565
790.11	48.571
790.41	56.436
790.72	55.422
791.03	52.174
791.33	55.814
791.64	55.670
791.95	58.416
792.25	67.778
792.56	59.740
792.87	71.795
793.17	73.418
793.48	59.770
793.79	58.621
794.09	70.455
794.40	44.538
794.70	53.676
795.01	44.444
795.32	39.568
795.62	44.094
795.93	50.862
796.23	51.327
796.54	60.000
796.85	52.703
797.15	73.239
797.46	62.121
797.76	60.241
798.07	56.962
798.37	63.077
798.68	66.667
798.99	63.380
799.29	67.532
799.60	60.227
799.90	72.603
800.21	74.627
800.51	75.862
800.82	82.456
801.12	68.852
801.43	68.182
801.73	68.919
802.04	85.714
802.34	65.432
802.65	65.625
802.95	64.407
803.26	67.187
803.56	45.714
803.87	63.077
804.17	61.765
804.48	72.222
804.78	70.690
805.09	66.176
805.39	100.000
805.70	64.286
806.00	86.885
806.30	63.636
806.61	56.098
806.91	62.025
807.22	65.789
807.52	65.672
807.83	71.831
808.13	73.438
808.43	78.333
808.74	59.211
809.04	68.116
809.35	71.642
809.65	67.105
809.95	87.097
810.26	74.576
810.56	63.492
810.86	97.727
811.17	109.524
811.47	73.333
811.77	92.593
812.08	80.000
812.38	100.000
812.69	94.444
812.99	100.000
813.29	69.388
813.59	59.524
813.90	95.918
814.20	92.727
814.50	76.923
814.81	75.000
815.11	81.633
815.41	78.689
815.72	121.429
816.02	69.091
816.32	59.524
816.62	87.500
816.93	68.293
817.23	95.238
817.53	84.091
817.84	142.424
818.14	80.435
818.44	80.000
818.74	114.706
819.04	82.500
819.35	97.143
819.65	88.235
819.95	114.286
820.25	85.000
820.56	110.256
820.86	109.091
821.16	97.674
821.46	102.564
821.76	108.000
822.07	125.714
822.37	110.000
822.67	100.000
822.97	100.000
823.27	128.571
823.57	102.703
823.88	117.500
824.18	136.667
824.48	88.095
824.78	140.000
825.08	154.167
825.38	113.514
825.69	92.683
825.99	141.667
826.29	82.759
826.59	102.632
826.89	102.632
827.19	117.647
827.49	106.452
827.79	79.545
828.09	111.364
828.39	97.872
828.70	100.000
829.00	118.519
829.30	90.323
829.60	95.000
829.90	140.000
830.20	117.857
830.50	134.783
830.80	169.565
831.10	150.000
831.40	136.667
831.70	86.957
832.00	180.769
832.30	118.519
832.60	131.250
832.90	163.333
833.20	207.143
833.50	135.484
833.80	131.034
834.10	153.125
834.40	176.923
834.70	188.889
835.00	161.905
835.30	111.429
835.60	176.923
835.90	137.931
836.20	157.143
836.50	117.241
836.80	128.000
837.10	111.111
837.40	176.190
837.70	211.765
838.00	133.333
838.30	180.952
838.60	204.762
838.90	200.000
839.19	180.000
839.49	242.857
839.79	245.000
840.09	160.000
840.39	204.762
840.69	104.348
840.99	177.778
841.29	250.000
841.59	208.333
841.88	218.750
842.18	103.448
842.48	157.143
842.78	140.000
843.08	200.000
843.38	118.750
843.68	516.667
843.97	138.462
844.27	131.034
844.57	161.905
844.87	175.000
845.17	114.815
845.47	1000.000
845.76	177.778
846.06	164.706
846.36	325.000
846.66	207.143
846.96	93.750
847.25	254.545
847.55	263.636
847.85	169.565
848.15	310.000
848.44	228.571
848.74	111.111
849.04	217.647
849.34	290.000
849.63	178.947
849.93	218.182
850.23	820.000
850.53	171.429
850.82	1200.000
851.12	-2400.000
851.42	1700.000
851.71	170.000
852.01	-400.000
852.31	145.833
852.61	766.667
852.90	152.381
853.20	132.000
853.50	211.765
853.79	190.476
854.09	158.333
854.39	281.250
854.68	137.838
854.98	138.710
855.28	116.667
855.57	134.483
855.87	159.259
856.17	168.421
856.46	180.000
856.76	176.471
857.05	120.690
857.35	129.167
857.65	186.667
857.94	130.435
858.24	161.538
858.53	180.000
858.83	177.273
859.13	180.000
859.42	0.000
859.72	322.222
860.01	327.273
860.31	172.727
860.60	168.421
860.90	100.000
861.20	277.778
861.49	350.000
861.79	-2700.000
862.08	425.000
862.38	185.714
862.67	176.923
862.97	211.765
863.26	277.778
863.56	150.000
863.85	258.333
864.15	325.000
864.44	266.667
864.74	533.333
865.03	300.000
865.33	236.842
865.62	254.545
865.92	253.846
866.21	275.000
866.51	0.000
866.80	236.364
867.10	660.000
867.39	353.846
867.69	318.182
867.98	194.737
868.27	327.273
868.57	200.000
868.86	-1800.000
869.16	218.750
869.45	1250.000
869.75	-3100.000
870.04	241.667
870.33	457.143
870.63	550.000
870.92	1350.000
871.22	442.857
871.51	229.412
871.80	128.571
872.10	264.286
>>>>>End Processed Spectral Data<<<<<
