SpectraSuite Data File
++++++++++++++++++++++++++++++++++++
Date: Wed May 13 20:40:48 PDT 2015
User: schluterlab
Dark Spectrum Present: Yes
Reference Spectrum Present: Yes
Number of Sampled Component Spectra: 1
Spectrometers: USB2E3373
Integration Time (usec): 3000 (USB2E3373)
Spectra Averaged: 3 (USB2E3373)
Boxcar Smoothing: 0 (USB2E3373)
Correct for Electrical Dark: No (USB2E3373)
Strobe/Lamp Enabled: No (USB2E3373)
Correct for Detector Non-linearity: No (USB2E3373)
Correct for Stray Light: No (USB2E3373)
Number of Pixels in Processed Spectrum: 2048
>>>>>Begin Processed Spectral Data<<<<<
178.53	0.000
178.91	-1000.000
179.29	-875.000
179.67	-133.333
180.04	-600.000
180.42	1950.000
180.80	740.000
181.18	-725.000
181.56	385.714
181.94	0.000
182.31	-557.143
182.69	1233.333
183.07	-400.000
183.45	-477.778
183.83	281.818
184.20	-210.000
184.58	1550.000
184.96	3100.000
185.34	-580.000
185.72	-300.000
186.09	-1350.000
186.47	1900.000
186.85	1550.000
187.23	3300.000
187.61	-1300.000
187.98	1125.000
188.36	472.727
188.74	454.545
189.12	-500.000
189.49	420.000
189.87	-3400.000
190.25	-1150.000
190.63	335.714
191.00	269.231
191.38	616.667
191.76	-850.000
192.14	1000.000
192.51	500.000
192.89	700.000
193.27	375.000
193.65	-675.000
194.02	320.000
194.40	600.000
194.78	370.000
195.15	441.667
195.53	380.000
195.91	-1400.000
196.29	225.000
196.66	252.632
197.04	-190.000
197.42	0.000
197.79	480.000
198.17	-2400.000
198.55	500.000
198.92	500.000
199.30	800.000
199.68	0.000
200.05	244.444
200.43	600.000
200.81	3500.000
201.18	1500.000
201.56	-1133.333
201.94	477.778
202.31	411.111
202.69	300.000
203.07	350.000
203.44	0.000
203.82	1000.000
204.19	557.143
204.57	364.286
204.95	537.500
205.32	1033.333
205.70	490.909
206.08	257.143
206.45	2000.000
206.83	256.250
207.20	733.333
207.58	720.000
207.96	316.667
208.33	500.000
208.71	-583.333
209.08	542.857
209.46	444.444
209.84	372.727
210.21	-933.333
210.59	1050.000
210.96	-362.500
211.34	1450.000
211.71	450.000
212.09	666.667
212.46	0.000
212.84	1333.333
213.22	1125.000
213.59	-4100.000
213.97	616.667
214.34	600.000
214.72	400.000
215.09	800.000
215.47	-1350.000
215.84	-1750.000
216.22	1100.000
216.59	371.429
216.97	925.000
217.34	372.727
217.72	-466.667
218.09	0.000
218.47	-4000.000
218.84	477.778
219.22	428.571
219.59	1166.667
219.97	-400.000
220.34	600.000
220.72	-1133.333
221.09	350.000
221.47	1100.000
221.84	-716.667
222.22	0.000
222.59	1150.000
222.97	-2350.000
223.34	860.000
223.72	369.231
224.09	1080.000
224.46	1600.000
224.84	-4300.000
225.21	-880.000
225.59	-3200.000
225.96	480.000
226.34	255.000
226.71	1850.000
227.08	487.500
227.46	460.000
227.83	-750.000
228.21	-1300.000
228.58	388.889
228.95	-1800.000
229.33	-1550.000
229.70	1300.000
230.08	542.857
230.45	-360.000
230.82	358.333
231.20	700.000
231.57	485.714
231.95	333.333
232.32	186.364
232.69	309.091
233.07	542.857
233.44	307.692
233.81	-1000.000
234.19	242.105
234.56	341.667
234.93	291.667
235.31	418.182
235.68	292.308
236.05	278.571
236.43	118.182
236.80	205.263
237.17	4000.000
237.55	209.524
237.92	160.714
238.29	261.905
238.67	138.710
239.04	182.759
239.41	122.222
239.79	100.000
240.16	135.714
240.53	127.273
240.91	100.000
241.28	118.000
241.65	92.000
242.02	95.652
242.40	91.935
242.77	110.000
243.14	81.720
243.51	91.011
243.89	83.529
244.26	73.333
244.63	78.495
245.00	74.468
245.38	79.208
245.75	73.832
246.12	70.642
246.49	80.292
246.87	86.400
247.24	75.385
247.61	64.286
247.98	69.281
248.36	64.189
248.73	56.688
249.10	63.057
249.47	61.017
249.84	61.497
250.22	60.428
250.59	68.047
250.96	61.616
251.33	61.137
251.70	64.356
252.08	63.810
252.45	56.054
252.82	62.174
253.19	57.447
253.56	56.863
253.94	56.432
254.31	51.953
254.68	54.615
255.05	52.030
255.42	54.065
255.79	56.250
256.16	59.206
256.54	54.064
256.91	52.669
257.28	53.237
257.65	54.125
258.02	54.348
258.39	48.580
258.76	54.515
259.14	53.869
259.51	52.584
259.88	53.106
260.25	54.381
260.62	48.555
260.99	55.590
261.36	53.453
261.73	50.716
262.10	53.779
262.47	53.239
262.85	55.432
263.22	49.858
263.59	54.131
263.96	49.451
264.33	52.219
264.70	51.053
265.07	52.685
265.44	47.980
265.81	46.229
266.18	48.995
266.55	48.537
266.92	52.334
267.29	50.463
267.66	48.853
268.03	50.682
268.40	47.664
268.77	48.926
269.14	49.550
269.51	51.919
269.88	51.981
270.25	50.113
270.62	51.011
270.99	52.473
271.36	49.142
271.73	50.935
272.10	46.304
272.47	49.892
272.84	48.268
273.21	48.428
273.58	47.380
273.95	45.702
274.32	46.901
274.69	49.251
275.06	45.866
275.43	49.574
275.80	47.896
276.17	49.491
276.54	49.480
276.91	50.791
277.28	49.609
277.65	46.035
278.02	48.447
278.39	49.805
278.76	47.818
279.13	48.679
279.50	45.810
279.87	49.004
280.23	45.908
280.60	47.002
280.97	46.026
281.34	48.142
281.71	45.818
282.08	48.752
282.45	46.727
282.82	46.359
283.19	45.455
283.56	45.965
283.92	47.208
284.29	45.503
284.66	45.191
285.03	45.750
285.40	47.007
285.77	45.791
286.14	46.459
286.51	45.667
286.87	44.957
287.24	46.091
287.61	44.623
287.98	42.532
288.35	44.374
288.72	42.835
289.08	42.567
289.45	42.504
289.82	43.252
290.19	41.444
290.56	39.357
290.93	38.973
291.29	41.411
291.66	40.855
292.03	40.843
292.40	40.822
292.77	39.941
293.13	38.806
293.50	40.816
293.87	40.889
294.24	39.407
294.60	39.156
294.97	40.262
295.34	40.762
295.71	38.068
296.08	38.177
296.44	37.689
296.81	37.252
297.18	38.482
297.55	35.356
297.91	35.224
298.28	39.357
298.65	34.856
299.02	36.232
299.38	36.786
299.75	33.288
300.12	34.355
300.48	35.125
300.85	35.265
301.22	37.580
301.59	34.470
301.95	34.635
302.32	35.302
302.69	34.289
303.05	35.758
303.42	34.444
303.79	34.428
304.15	31.935
304.52	31.981
304.89	34.146
305.25	34.339
305.62	33.975
305.99	35.301
306.35	35.123
306.72	34.305
307.09	34.073
307.45	35.023
307.82	32.924
308.19	34.327
308.55	34.520
308.92	32.975
309.29	33.263
309.65	34.040
310.02	34.461
310.38	33.871
310.75	35.058
311.12	33.265
311.48	34.796
311.85	35.115
312.22	34.755
312.58	34.304
312.95	36.114
313.31	33.981
313.68	35.343
314.05	36.391
314.41	36.583
314.78	37.261
315.14	36.147
315.51	37.178
315.87	35.545
316.24	35.452
316.61	35.673
316.97	36.399
317.34	36.399
317.70	37.954
318.07	38.114
318.43	39.432
318.80	37.582
319.16	38.795
319.53	37.242
319.89	39.714
320.26	41.000
320.62	41.667
320.99	41.616
321.35	40.404
321.72	41.684
322.08	41.461
322.45	42.687
322.81	42.151
323.18	42.293
323.54	42.393
323.91	44.811
324.27	44.264
324.64	45.107
325.00	43.733
325.37	44.950
325.73	45.691
326.10	44.484
326.46	44.892
326.83	45.902
327.19	45.260
327.56	47.561
327.92	47.944
328.29	48.536
328.65	47.422
329.01	48.466
329.38	49.306
329.74	48.292
330.11	49.670
330.47	49.403
330.84	50.000
331.20	49.362
331.56	50.183
331.93	50.648
332.29	50.133
332.66	50.885
333.02	50.000
333.38	50.949
333.75	51.159
334.11	51.868
334.48	50.754
334.84	51.654
335.20	53.182
335.57	52.856
335.93	51.161
336.29	52.473
336.66	52.480
337.02	53.394
337.38	52.222
337.75	52.406
338.11	51.477
338.47	54.236
338.84	52.979
339.20	51.927
339.56	52.372
339.93	52.727
340.29	51.812
340.65	50.980
341.02	52.618
341.38	53.025
341.74	51.754
342.11	51.965
342.47	50.573
342.83	50.942
343.20	52.208
343.56	51.643
343.92	50.351
344.28	51.446
344.65	52.709
345.01	50.758
345.37	50.600
345.73	51.692
346.10	52.174
346.46	51.271
346.82	50.741
347.19	50.877
347.55	50.082
347.91	50.566
348.27	52.342
348.63	51.421
349.00	50.405
349.36	50.985
349.72	49.559
350.08	49.919
350.45	53.539
350.81	51.503
351.17	50.243
351.53	50.532
351.89	49.752
352.26	51.144
352.62	50.682
352.98	49.433
353.34	50.863
353.70	50.164
354.07	49.919
354.43	48.571
354.79	48.914
355.15	49.082
355.51	51.719
355.87	50.939
356.24	50.326
356.60	48.917
356.96	49.960
357.32	50.204
357.68	49.685
358.04	48.535
358.40	49.010
358.77	49.296
359.13	49.171
359.49	47.922
359.85	48.651
360.21	49.681
360.57	48.482
360.93	49.308
361.29	48.753
361.66	47.136
362.02	48.433
362.38	49.354
362.74	48.065
363.10	47.150
363.46	48.349
363.82	48.526
364.18	47.797
364.54	49.183
364.90	48.796
365.26	48.676
365.62	47.699
365.98	47.480
366.35	46.275
366.71	48.807
367.07	47.342
367.43	48.331
367.79	47.894
368.15	48.276
368.51	47.384
368.87	47.537
369.23	47.915
369.59	48.660
369.95	47.353
370.31	47.863
370.67	47.826
371.03	49.139
371.39	47.085
371.75	48.088
372.11	45.377
372.47	47.947
372.83	46.974
373.19	47.616
373.55	47.007
373.91	47.865
374.27	45.842
374.63	46.327
374.99	47.034
375.35	45.918
375.71	45.990
376.07	46.502
376.42	46.699
376.78	46.985
377.14	46.404
377.50	47.483
377.86	45.080
378.22	46.081
378.58	43.922
378.94	46.449
379.30	46.628
379.66	46.129
380.02	46.192
380.38	45.659
380.74	46.939
381.09	45.599
381.45	46.958
381.81	45.639
382.17	45.478
382.53	45.031
382.89	45.802
383.25	45.153
383.61	46.530
383.97	45.403
384.32	46.163
384.68	45.787
385.04	44.376
385.40	45.015
385.76	45.332
386.12	44.754
386.48	44.871
386.83	45.734
387.19	46.815
387.55	45.949
387.91	45.345
388.27	45.494
388.62	45.421
388.98	44.349
389.34	46.058
389.70	45.126
390.06	45.501
390.42	44.942
390.77	44.084
391.13	46.011
391.49	44.670
391.85	44.749
392.20	43.281
392.56	44.886
392.92	44.850
393.28	44.142
393.64	45.384
393.99	44.105
394.35	44.231
394.71	45.232
395.07	42.866
395.42	45.179
395.78	45.038
396.14	43.265
396.50	45.175
396.85	44.437
397.21	43.403
397.57	45.133
397.92	44.832
398.28	42.937
398.64	43.847
399.00	44.376
399.35	42.922
399.71	43.056
400.07	43.702
400.42	44.417
400.78	44.511
401.14	43.598
401.49	44.896
401.85	43.557
402.21	43.593
402.57	44.479
402.92	44.578
403.28	44.160
403.63	43.874
403.99	44.268
404.35	43.939
404.70	43.765
405.06	43.390
405.42	43.231
405.77	43.600
406.13	42.099
406.49	43.761
406.84	42.587
407.20	42.021
407.55	44.416
407.91	44.800
408.27	42.821
408.62	43.347
408.98	43.137
409.34	42.989
409.69	44.323
410.05	43.804
410.40	44.281
410.76	42.832
411.11	42.883
411.47	43.450
411.83	44.227
412.18	41.991
412.54	43.587
412.89	42.771
413.25	42.857
413.60	43.669
413.96	43.169
414.31	43.013
414.67	42.395
415.03	42.649
415.38	43.686
415.74	43.794
416.09	42.782
416.45	43.909
416.80	42.895
417.16	45.308
417.51	43.663
417.87	41.811
418.22	42.208
418.58	42.737
418.93	44.103
419.29	43.539
419.64	43.073
420.00	43.171
420.35	42.957
420.71	43.574
421.06	42.064
421.42	42.982
421.77	42.209
422.12	43.010
422.48	42.418
422.83	43.390
423.19	43.315
423.54	43.819
423.90	42.957
424.25	42.490
424.61	41.905
424.96	42.682
425.31	43.743
425.67	41.629
426.02	42.686
426.38	43.040
426.73	43.183
427.09	43.951
427.44	43.301
427.79	43.128
428.15	43.810
428.50	43.359
428.85	43.862
429.21	42.573
429.56	43.183
429.92	42.526
430.27	42.502
430.62	42.960
430.98	42.916
431.33	43.608
431.68	43.298
432.04	42.332
432.39	43.118
432.74	43.627
433.10	43.690
433.45	43.149
433.80	43.792
434.16	43.162
434.51	43.579
434.86	44.299
435.22	43.913
435.57	43.708
435.92	44.353
436.28	44.543
436.63	44.316
436.98	43.732
437.34	46.094
437.69	44.807
438.04	44.126
438.39	45.075
438.75	44.683
439.10	44.246
439.45	44.451
439.81	45.257
440.16	45.003
440.51	44.054
440.86	45.918
441.22	45.217
441.57	45.223
441.92	46.264
442.27	44.241
442.63	44.866
442.98	45.972
443.33	44.674
443.68	45.328
444.03	44.754
444.39	45.424
444.74	45.563
445.09	44.582
445.44	46.528
445.79	45.769
446.15	44.680
446.50	45.557
446.85	46.095
447.20	45.487
447.55	46.678
447.91	45.836
448.26	46.355
448.61	47.089
448.96	47.398
449.31	47.975
449.66	45.751
450.02	46.685
450.37	46.939
450.72	47.039
451.07	47.349
451.42	47.112
451.77	47.152
452.12	47.402
452.47	47.637
452.83	47.319
453.18	47.494
453.53	48.918
453.88	47.253
454.23	47.460
454.58	48.698
454.93	49.460
455.28	47.444
455.63	48.240
455.98	49.107
456.34	48.807
456.69	48.403
457.04	49.474
457.39	47.750
457.74	47.649
458.09	47.671
458.44	48.575
458.79	47.560
459.14	48.702
459.49	48.453
459.84	48.144
460.19	49.617
460.54	47.396
460.89	49.095
461.24	49.362
461.59	49.448
461.94	49.568
462.29	50.801
462.64	48.883
462.99	49.187
463.34	50.000
463.69	50.719
464.04	49.971
464.39	48.464
464.74	48.960
465.09	49.216
465.44	48.864
465.79	49.385
466.14	49.699
466.49	48.776
466.84	50.730
467.19	49.608
467.54	50.062
467.89	49.580
468.24	50.204
468.59	51.038
468.94	49.969
469.29	49.936
469.64	51.673
469.99	51.691
470.34	51.651
470.68	52.299
471.03	51.905
471.38	53.370
471.73	52.298
472.08	51.908
472.43	51.193
472.78	51.350
473.13	52.311
473.48	51.685
473.83	51.707
474.17	51.836
474.52	51.427
474.87	51.080
475.22	52.351
475.57	50.296
475.92	51.620
476.27	52.368
476.61	50.579
476.96	51.732
477.31	51.073
477.66	51.969
478.01	50.549
478.36	51.877
478.70	52.129
479.05	52.609
479.40	52.968
479.75	52.517
480.10	52.087
480.45	51.214
480.79	52.365
481.14	52.397
481.49	52.112
481.84	52.172
482.19	52.113
482.53	51.972
482.88	51.605
483.23	52.056
483.58	51.774
483.92	53.046
484.27	51.373
484.62	51.767
484.97	50.966
485.31	50.651
485.66	48.623
486.01	47.918
486.36	47.551
486.70	48.572
487.05	49.436
487.40	49.668
487.75	50.657
488.09	51.289
488.44	51.668
488.79	52.369
489.13	51.795
489.48	52.855
489.83	53.604
490.17	54.011
490.52	52.967
490.87	53.912
491.22	53.934
491.56	52.756
491.91	52.862
492.26	53.744
492.60	53.871
492.95	53.508
493.30	53.645
493.64	55.763
493.99	53.621
494.34	54.810
494.68	54.853
495.03	55.310
495.37	54.258
495.72	55.361
496.07	54.524
496.41	53.761
496.76	53.254
497.11	54.435
497.45	53.656
497.80	54.942
498.14	53.961
498.49	55.463
498.84	54.219
499.18	55.095
499.53	54.748
499.87	54.846
500.22	54.687
500.56	56.553
500.91	54.567
501.26	55.097
501.60	55.909
501.95	54.033
502.29	55.483
502.64	54.655
502.98	55.493
503.33	54.205
503.67	54.942
504.02	55.426
504.36	54.937
504.71	56.424
505.06	55.759
505.40	56.636
505.75	55.882
506.09	56.074
506.44	56.635
506.78	56.405
507.13	56.941
507.47	56.970
507.82	56.839
508.16	56.940
508.51	57.078
508.85	55.561
509.19	56.888
509.54	57.296
509.88	57.084
510.23	57.172
510.57	58.050
510.92	58.156
511.26	57.914
511.61	57.573
511.95	56.159
512.30	58.059
512.64	57.711
512.98	58.414
513.33	57.495
513.67	57.097
514.02	57.089
514.36	58.820
514.70	58.439
515.05	59.565
515.39	58.441
515.74	60.191
516.08	58.357
516.42	60.044
516.77	59.643
517.11	58.879
517.46	59.368
517.80	60.685
518.14	59.409
518.49	60.852
518.83	59.375
519.17	59.584
519.52	58.913
519.86	59.498
520.20	60.058
520.55	61.520
520.89	61.861
521.23	61.641
521.58	60.564
521.92	60.380
522.26	60.098
522.61	61.246
522.95	60.773
523.29	61.169
523.64	61.829
523.98	61.738
524.32	61.158
524.66	61.575
525.01	61.336
525.35	61.214
525.69	60.037
526.04	62.118
526.38	61.623
526.72	59.325
527.06	61.205
527.41	59.901
527.75	62.637
528.09	62.428
528.43	61.887
528.78	60.971
529.12	60.485
529.46	63.380
529.80	61.943
530.15	62.368
530.49	59.323
530.83	62.152
531.17	63.381
531.51	62.646
531.86	61.935
532.20	61.995
532.54	61.179
532.88	61.361
533.22	61.774
533.57	61.296
533.91	61.409
534.25	61.847
534.59	62.050
534.93	60.976
535.27	62.342
535.62	61.783
535.96	62.272
536.30	62.683
536.64	62.782
536.98	63.371
537.32	62.739
537.66	63.933
538.01	62.673
538.35	63.154
538.69	62.987
539.03	61.923
539.37	61.534
539.71	62.735
540.05	63.072
540.39	62.525
540.73	62.225
541.07	62.946
541.42	63.666
541.76	63.032
542.10	62.419
542.44	62.119
542.78	65.810
543.12	62.636
543.46	63.607
543.80	63.240
544.14	62.773
544.48	63.556
544.82	63.246
545.16	63.891
545.50	61.761
545.84	63.441
546.18	63.906
546.52	64.074
546.86	64.124
547.20	64.666
547.54	62.859
547.88	64.222
548.22	63.200
548.56	62.830
548.90	63.060
549.24	64.108
549.58	63.029
549.92	64.286
550.26	66.122
550.60	63.071
550.94	65.634
551.28	63.643
551.62	65.061
551.96	63.368
552.30	63.276
552.64	64.368
552.98	64.339
553.32	63.924
553.66	64.281
554.00	65.134
554.34	64.320
554.68	65.308
555.02	65.585
555.36	65.066
555.69	65.088
556.03	63.728
556.37	65.280
556.71	64.461
557.05	64.286
557.39	65.150
557.73	64.714
558.07	67.150
558.41	66.787
558.75	66.716
559.08	65.996
559.42	67.045
559.76	66.250
560.10	64.739
560.44	64.920
560.78	64.405
561.12	65.501
561.45	65.385
561.79	63.612
562.13	65.258
562.47	64.481
562.81	67.573
563.15	65.485
563.48	64.788
563.82	64.971
564.16	65.141
564.50	65.820
564.84	63.970
565.17	64.801
565.51	65.304
565.85	66.371
566.19	64.371
566.52	65.421
566.86	64.014
567.20	65.153
567.54	64.783
567.88	63.281
568.21	63.386
568.55	63.600
568.89	62.840
569.23	61.007
569.56	60.405
569.90	60.792
570.24	60.208
570.57	59.980
570.91	59.308
571.25	59.481
571.59	58.586
571.92	59.101
572.26	58.839
572.60	59.580
572.93	58.681
573.27	59.154
573.61	59.352
573.95	59.509
574.28	58.518
574.62	58.649
574.96	58.136
575.29	58.584
575.63	58.841
575.97	58.605
576.30	58.391
576.64	58.934
576.98	58.921
577.31	59.080
577.65	58.610
577.98	58.685
578.32	57.665
578.66	57.945
578.99	59.347
579.33	58.678
579.67	58.258
580.00	58.571
580.34	59.018
580.67	58.922
581.01	59.163
581.35	58.949
581.68	57.988
582.02	58.300
582.35	58.987
582.69	58.423
583.02	59.448
583.36	60.157
583.70	60.140
584.03	60.214
584.37	60.553
584.70	60.789
585.04	59.100
585.37	59.832
585.71	60.244
586.04	59.797
586.38	61.416
586.72	61.309
587.05	60.907
587.39	60.317
587.72	61.324
588.06	60.832
588.39	61.536
588.73	61.514
589.06	62.387
589.40	63.131
589.73	63.006
590.07	62.242
590.40	62.550
590.73	63.700
591.07	64.184
591.40	63.602
591.74	64.329
592.07	64.180
592.41	63.373
592.74	63.109
593.08	61.626
593.41	62.196
593.75	61.524
594.08	61.918
594.41	63.415
594.75	63.771
595.08	63.386
595.42	63.748
595.75	63.568
596.09	63.725
596.42	63.890
596.75	64.331
597.09	65.887
597.42	63.575
597.75	63.605
598.09	63.783
598.42	64.948
598.76	63.437
599.09	62.904
599.42	63.064
599.76	64.092
600.09	62.842
600.42	63.112
600.76	62.893
601.09	63.862
601.42	62.861
601.76	63.529
602.09	64.348
602.42	64.650
602.76	64.772
603.09	64.555
603.42	65.248
603.76	64.596
604.09	64.560
604.42	64.411
604.76	64.024
605.09	65.443
605.42	64.472
605.75	65.439
606.09	65.230
606.42	64.732
606.75	64.579
607.09	64.964
607.42	65.212
607.75	63.797
608.08	65.002
608.42	66.159
608.75	65.960
609.08	64.940
609.41	66.207
609.75	65.222
610.08	66.541
610.41	66.480
610.74	66.414
611.07	67.441
611.41	66.192
611.74	66.466
612.07	67.805
612.40	67.104
612.73	67.158
613.07	67.726
613.40	67.193
613.73	66.807
614.06	67.849
614.39	67.174
614.72	66.579
615.06	67.227
615.39	67.357
615.72	67.791
616.05	66.932
616.38	69.094
616.71	69.062
617.05	68.433
617.38	68.972
617.71	68.348
618.04	69.351
618.37	68.598
618.70	69.820
619.03	71.645
619.36	69.654
619.69	71.056
620.03	71.291
620.36	70.655
620.69	71.096
621.02	70.206
621.35	70.713
621.68	71.885
622.01	70.433
622.34	71.861
622.67	71.863
623.00	70.066
623.33	70.407
623.66	69.836
623.99	72.607
624.32	71.969
624.65	70.975
624.99	72.096
625.32	71.325
625.65	74.606
625.98	73.098
626.31	71.851
626.64	73.551
626.97	73.982
627.30	72.153
627.63	73.667
627.96	75.610
628.29	75.153
628.62	74.657
628.95	76.415
629.28	74.818
629.61	75.160
629.94	76.095
630.26	78.360
630.59	76.454
630.92	75.000
631.25	76.407
631.58	74.975
631.91	76.572
632.24	77.426
632.57	76.600
632.90	77.193
633.23	76.734
633.56	78.418
633.89	78.369
634.22	78.434
634.55	80.828
634.88	78.443
635.20	78.256
635.53	80.723
635.86	81.807
636.19	76.824
636.52	76.701
636.85	78.351
637.18	76.037
637.51	77.305
637.83	73.859
638.16	78.133
638.49	79.093
638.82	82.680
639.15	80.250
639.48	78.429
639.81	81.233
640.13	79.688
640.46	83.221
640.79	79.128
641.12	81.706
641.45	80.447
641.77	83.505
642.10	82.895
642.43	82.883
642.76	81.889
643.09	83.282
643.41	83.612
643.74	83.796
644.07	82.622
644.40	83.436
644.73	84.567
645.05	84.628
645.38	82.938
645.71	84.541
646.04	85.050
646.36	85.142
646.69	83.946
647.02	83.163
647.35	85.052
647.67	89.027
648.00	82.764
648.33	85.149
648.66	79.394
648.98	81.109
649.31	79.223
649.64	82.362
649.96	80.626
650.29	82.464
650.62	82.039
650.94	81.524
651.27	84.459
651.60	83.694
651.92	81.150
652.25	82.085
652.58	82.399
652.90	81.675
653.23	78.891
653.56	81.417
653.88	80.666
654.21	84.518
654.54	83.498
654.86	80.062
655.19	77.838
655.52	61.805
655.84	56.609
656.17	71.249
656.49	94.425
656.82	94.823
657.15	73.126
657.47	54.973
657.80	42.149
658.13	43.501
658.45	64.495
658.78	65.935
659.10	65.407
659.43	67.189
659.75	69.629
660.08	71.392
660.41	74.767
660.73	77.001
661.06	79.459
661.38	85.818
661.71	87.308
662.03	86.588
662.36	81.710
662.68	83.735
663.01	86.263
663.33	85.987
663.66	86.765
663.98	86.825
664.31	86.555
664.63	81.984
664.96	84.909
665.28	85.656
665.61	82.261
665.93	83.903
666.26	82.759
666.58	86.192
666.91	87.526
667.23	91.685
667.56	84.233
667.88	83.333
668.21	84.648
668.53	84.165
668.86	83.117
669.18	88.060
669.50	87.391
669.83	86.710
670.15	88.222
670.48	84.532
670.80	83.621
671.13	87.261
671.45	81.915
671.77	86.965
672.10	80.961
672.42	80.919
672.75	78.441
673.07	80.282
673.39	81.013
673.72	85.547
674.04	83.725
674.37	83.495
674.69	80.368
675.01	83.264
675.34	85.626
675.66	87.158
675.98	81.874
676.31	82.773
676.63	86.412
676.95	79.036
677.28	88.785
677.60	85.714
677.92	86.498
678.25	85.010
678.57	81.673
678.89	84.369
679.22	80.550
679.54	81.107
679.86	81.284
680.18	79.785
680.51	79.610
680.83	77.936
681.15	81.698
681.48	82.420
681.80	81.625
682.12	80.460
682.44	80.464
682.77	82.485
683.09	86.481
683.41	87.361
683.73	85.210
684.06	82.851
684.38	79.452
684.70	80.233
685.02	80.488
685.34	77.839
685.67	77.797
685.99	79.038
686.31	75.256
686.63	78.975
686.96	76.607
687.28	78.700
687.60	77.717
687.92	78.062
688.24	79.087
688.56	81.727
688.89	80.913
689.21	83.843
689.53	79.123
689.85	85.366
690.17	78.675
690.49	81.529
690.82	87.150
691.14	81.696
691.46	80.380
691.78	77.711
692.10	83.264
692.42	79.242
692.74	79.461
693.06	79.787
693.39	75.565
693.71	78.821
694.03	82.316
694.35	77.922
694.67	78.719
694.99	83.659
695.31	83.824
695.63	82.536
695.95	81.907
696.27	82.487
696.59	82.124
696.91	84.974
697.23	76.526
697.56	79.318
697.88	76.483
698.20	77.083
698.52	76.774
698.84	83.073
699.16	78.111
699.48	84.086
699.80	80.918
700.12	86.753
700.44	85.146
700.76	83.978
701.08	84.770
701.40	81.844
701.72	85.714
702.04	84.943
702.36	81.020
702.68	79.887
703.00	87.258
703.32	82.713
703.64	81.233
703.96	80.223
704.28	87.209
704.60	88.270
704.91	84.273
705.23	83.871
705.55	90.033
705.87	92.027
706.19	91.519
706.51	85.981
706.83	86.364
707.15	82.353
707.47	78.283
707.79	78.378
708.11	73.059
708.43	73.810
708.74	79.847
709.06	82.857
709.38	74.278
709.70	82.267
710.02	85.163
710.34	81.212
710.66	81.791
710.98	83.807
711.29	76.453
711.61	80.826
711.93	80.449
712.25	88.746
712.57	87.868
712.89	86.505
713.20	78.723
713.52	86.842
713.84	82.595
714.16	78.049
714.48	81.322
714.80	89.058
715.11	82.709
715.43	82.493
715.75	78.261
716.07	84.026
716.39	84.953
716.70	83.389
717.02	88.489
717.34	80.212
717.66	88.806
717.97	92.032
718.29	82.963
718.61	85.036
718.93	84.926
719.24	82.699
719.56	78.305
719.88	82.712
720.20	84.459
720.51	82.927
720.83	88.476
721.15	80.970
721.46	81.206
721.78	86.022
722.10	88.679
722.42	89.850
722.73	84.644
723.05	90.984
723.37	83.806
723.68	87.259
724.00	82.114
724.32	86.290
724.63	86.179
724.95	84.937
725.27	91.093
725.58	87.109
725.90	84.307
726.22	80.000
726.53	80.556
726.85	78.498
727.16	77.224
727.48	81.206
727.80	82.955
728.11	75.000
728.43	79.615
728.74	82.079
729.06	82.117
729.38	87.500
729.69	77.936
730.01	72.355
730.32	81.597
730.64	79.599
730.96	76.898
731.27	81.457
731.59	78.593
731.90	75.510
732.22	81.677
732.53	78.328
732.85	79.808
733.16	78.457
733.48	78.073
733.80	79.870
734.11	75.159
734.43	74.852
734.74	76.571
735.06	70.774
735.37	77.168
735.69	77.389
736.00	78.758
736.32	80.997
736.63	71.885
736.95	74.760
737.26	77.211
737.58	78.065
737.89	71.906
738.21	77.474
738.52	77.143
738.83	76.981
739.15	77.692
739.46	81.752
739.78	79.167
740.09	73.231
740.41	76.774
740.72	74.216
741.04	79.259
741.35	77.917
741.66	85.333
741.98	79.245
742.29	82.775
742.61	82.328
742.92	82.805
743.23	83.333
743.55	80.800
743.86	83.772
744.18	85.841
744.49	84.211
744.80	82.629
745.12	89.091
745.43	80.176
745.74	86.486
746.06	83.486
746.37	80.269
746.68	82.353
747.00	85.648
747.31	85.238
747.62	83.628
747.94	85.022
748.25	80.851
748.56	84.141
748.88	86.634
749.19	89.500
749.50	82.326
749.82	79.675
750.13	74.694
750.44	80.292
750.75	77.193
751.07	75.884
751.38	75.610
751.69	79.422
752.01	74.060
752.32	71.841
752.63	74.823
752.94	84.836
753.26	82.000
753.57	74.390
753.88	79.687
754.19	73.214
754.51	77.431
754.82	71.841
755.13	77.736
755.44	80.075
755.75	78.102
756.07	74.823
756.38	75.547
756.69	74.161
757.00	69.461
757.31	68.249
757.63	71.637
757.94	68.901
758.25	64.461
758.56	67.654
758.87	63.978
759.18	72.121
759.50	72.727
759.81	70.717
760.12	71.875
760.43	72.206
760.74	67.391
761.05	72.881
761.36	67.112
761.67	69.886
761.99	69.565
762.30	72.569
762.61	74.809
762.92	74.609
763.23	76.050
763.54	80.000
763.85	73.047
764.16	79.231
764.47	76.046
764.78	73.145
765.10	68.038
765.41	68.732
765.72	70.359
766.03	72.100
766.34	68.000
766.65	82.128
766.96	78.205
767.27	85.279
767.58	84.896
767.89	78.947
768.20	88.506
768.51	80.203
768.82	78.899
769.13	71.545
769.44	70.040
769.75	72.103
770.06	75.688
770.37	77.828
770.68	79.630
770.99	77.333
771.30	73.770
771.61	78.027
771.92	78.279
772.23	77.311
772.54	80.513
772.85	79.058
773.16	87.766
773.47	85.326
773.78	78.173
774.09	88.095
774.39	83.041
774.70	82.099
775.01	88.406
775.32	85.621
775.63	87.500
775.94	87.050
776.25	91.339
776.56	94.776
776.87	86.066
777.18	98.438
777.48	97.710
777.79	81.061
778.10	91.111
778.41	103.571
778.72	78.102
779.03	84.564
779.34	85.906
779.65	85.135
779.95	77.301
780.26	85.621
780.57	77.241
780.88	100.000
781.19	84.211
781.50	87.162
781.80	80.503
782.11	83.616
782.42	74.684
782.73	85.276
783.04	83.784
783.34	85.915
783.65	99.315
783.96	102.239
784.27	77.622
784.57	75.540
784.88	98.148
785.19	92.063
785.50	99.057
785.81	84.328
786.11	95.902
786.42	83.721
786.73	86.726
787.04	95.283
787.34	88.393
787.65	111.000
787.96	93.694
788.26	88.430
788.57	102.542
788.88	90.909
789.19	84.722
789.49	95.455
789.80	78.626
790.11	99.048
790.41	105.941
790.72	108.434
791.03	105.435
791.33	108.140
791.64	88.660
791.95	97.030
792.25	106.667
792.56	100.000
792.87	119.231
793.17	102.532
793.48	93.103
793.79	102.299
794.09	102.273
794.40	84.034
794.70	91.912
795.01	77.778
795.32	80.576
795.62	86.614
795.93	90.517
796.23	83.186
796.54	91.765
796.85	104.054
797.15	121.127
797.46	103.030
797.76	108.434
798.07	105.063
798.37	120.000
798.68	133.333
798.99	90.141
799.29	103.896
799.60	93.182
799.90	105.479
800.21	122.388
800.51	122.414
800.82	122.807
801.12	116.393
801.43	122.727
801.73	89.189
802.04	119.048
802.34	98.765
802.65	114.062
802.95	128.814
803.26	123.438
803.56	95.714
803.87	96.923
804.17	104.412
804.48	155.556
804.78	117.241
805.09	95.588
805.39	130.769
805.70	103.571
806.00	119.672
806.30	106.061
806.61	98.780
806.91	100.000
807.22	93.421
807.52	92.537
807.83	109.859
808.13	114.062
808.43	131.667
808.74	97.368
809.04	117.391
809.35	120.896
809.65	107.895
809.95	120.968
810.26	122.034
810.56	106.349
810.86	172.727
811.17	171.429
811.47	118.333
811.77	118.519
812.08	109.091
812.38	118.000
812.69	155.556
812.99	143.182
813.29	122.449
813.59	111.905
813.90	159.184
814.20	143.636
814.50	81.538
814.81	117.647
815.11	140.816
815.41	96.721
815.72	145.238
816.02	114.545
816.32	145.238
816.62	147.500
816.93	148.780
817.23	157.143
817.53	127.273
817.84	175.758
818.14	134.783
818.44	135.556
818.74	176.471
819.04	137.500
819.35	185.714
819.65	158.824
819.95	150.000
820.25	260.000
820.56	151.282
820.86	181.818
821.16	139.535
821.46	189.744
821.76	144.000
822.07	148.571
822.37	170.000
822.67	133.333
822.97	111.765
823.27	192.857
823.57	154.054
823.88	162.500
824.18	186.667
824.48	159.524
824.78	220.000
825.08	183.333
825.38	159.459
825.69	121.951
825.99	212.500
826.29	148.276
826.59	165.789
826.89	165.789
827.19	185.294
827.49	158.065
827.79	140.909
828.09	145.455
828.39	119.149
828.70	124.490
829.00	166.667
829.30	187.097
829.60	147.500
829.90	326.667
830.20	182.143
830.50	195.652
830.80	165.217
831.10	193.333
831.40	183.333
831.70	213.043
832.00	200.000
832.30	174.074
832.60	312.500
832.90	180.000
833.20	407.143
833.50	164.516
833.80	158.621
834.10	209.375
834.40	188.462
834.70	255.556
835.00	338.095
835.30	162.857
835.60	253.846
835.90	186.207
836.20	321.429
836.50	189.655
836.80	192.000
837.10	138.889
837.40	223.810
837.70	258.824
838.00	188.889
838.30	242.857
838.60	257.143
838.90	184.615
839.19	225.000
839.49	414.286
839.79	280.000
840.09	275.000
840.39	223.810
840.69	239.130
840.99	305.556
841.29	480.000
841.59	266.667
841.88	281.250
842.18	148.276
842.48	228.571
842.78	193.333
843.08	200.000
843.38	159.375
843.68	783.333
843.97	211.538
844.27	158.621
844.57	214.286
844.87	250.000
845.17	177.778
845.47	1166.667
845.76	344.444
846.06	205.882
846.36	525.000
846.66	328.571
846.96	268.750
847.25	436.364
847.55	327.273
847.85	204.348
848.15	500.000
848.44	257.143
848.74	227.778
849.04	258.824
849.34	450.000
849.63	178.947
849.93	418.182
850.23	1000.000
850.53	278.571
850.82	2150.000
851.12	-3700.000
851.42	4300.000
851.71	225.000
852.01	-733.333
852.31	191.667
852.61	1466.667
852.90	242.857
853.20	188.000
853.50	317.647
853.79	209.524
854.09	175.000
854.39	318.750
854.68	183.784
854.98	167.742
855.28	150.000
855.57	193.103
855.87	203.704
856.17	163.158
856.46	206.667
856.76	229.412
857.05	200.000
857.35	208.333
857.65	333.333
857.94	200.000
858.24	173.077
858.53	230.000
858.83	186.364
859.13	273.333
859.42	0.000
859.72	411.111
860.01	381.818
860.31	227.273
860.60	231.579
860.90	204.348
861.20	500.000
861.49	441.667
861.79	-3900.000
862.08	637.500
862.38	242.857
862.67	215.385
862.97	300.000
863.26	344.444
863.56	244.444
863.85	391.667
864.15	425.000
864.44	266.667
864.74	600.000
865.03	537.500
865.33	247.368
865.62	336.364
865.92	415.385
866.21	266.667
866.51	0.000
866.80	327.273
867.10	940.000
867.39	369.231
867.69	309.091
867.98	263.158
868.27	336.364
868.57	257.895
868.86	-3300.000
869.16	243.750
869.45	1700.000
869.75	-3100.000
870.04	375.000
870.33	528.571
870.63	675.000
870.92	2500.000
871.22	528.571
871.51	241.176
871.80	190.476
872.10	335.714
>>>>>End Processed Spectral Data<<<<<
