SpectraSuite Data File
++++++++++++++++++++++++++++++++++++
Date: Wed May 13 21:01:48 PDT 2015
User: schluterlab
Dark Spectrum Present: Yes
Reference Spectrum Present: Yes
Number of Sampled Component Spectra: 1
Spectrometers: USB2E3373
Integration Time (usec): 3000 (USB2E3373)
Spectra Averaged: 3 (USB2E3373)
Boxcar Smoothing: 0 (USB2E3373)
Correct for Electrical Dark: No (USB2E3373)
Strobe/Lamp Enabled: No (USB2E3373)
Correct for Detector Non-linearity: No (USB2E3373)
Correct for Stray Light: No (USB2E3373)
Number of Pixels in Processed Spectrum: 2048
>>>>>Begin Processed Spectral Data<<<<<
178.53	0.000
178.91	250.000
179.29	133.333
179.67	-300.000
180.04	-66.667
180.42	120.000
180.80	400.000
181.18	116.667
181.56	-450.000
181.94	-150.000
182.31	18.182
182.69	38.462
183.07	-80.000
183.45	150.000
183.83	22.222
184.20	142.857
184.58	400.000
184.96	-33.333
185.34	128.571
185.72	0.000
186.09	700.000
186.47	-140.000
186.85	240.000
187.23	-450.000
187.61	450.000
187.98	300.000
188.36	50.000
188.74	0.000
189.12	36.364
189.49	120.000
189.87	66.667
190.25	220.000
190.63	700.000
191.00	40.000
191.38	200.000
191.76	275.000
192.14	100.000
192.51	-21.053
192.89	33.333
193.27	50.000
193.65	-100.000
194.02	145.455
194.40	40.000
194.78	-400.000
195.15	40.000
195.53	-160.000
195.91	-162.500
196.29	133.333
196.66	0.000
197.04	350.000
197.42	40.000
197.79	70.000
198.17	-50.000
198.55	166.667
198.92	175.000
199.30	-266.667
199.68	80.000
200.05	200.000
200.43	183.333
200.81	-800.000
201.18	-20.000
201.56	-16.667
201.94	425.000
202.31	-4.348
202.69	-14.286
203.07	-300.000
203.44	-160.000
203.82	-33.333
204.19	20.000
204.57	0.000
204.95	0.000
205.32	0.000
205.70	-200.000
206.08	100.000
206.45	100.000
206.83	300.000
207.20	33.333
207.58	50.000
207.96	-600.000
208.33	42.857
208.71	-500.000
209.08	62.500
209.46	300.000
209.84	0.000
210.21	60.000
210.59	900.000
210.96	260.000
211.34	800.000
211.71	-300.000
212.09	-150.000
212.46	-110.000
212.84	300.000
213.22	0.000
213.59	-600.000
213.97	-400.000
214.34	400.000
214.72	23.077
215.09	187.500
215.47	100.000
215.84	400.000
216.22	12.500
216.59	400.000
216.97	233.333
217.34	44.444
217.72	0.000
218.09	266.667
218.47	200.000
218.84	-14.286
219.22	-100.000
219.59	33.333
219.97	-150.000
220.34	37.500
220.72	-120.000
221.09	0.000
221.47	83.333
221.84	300.000
222.22	0.000
222.59	-100.000
222.97	-66.667
223.34	16.667
223.72	-600.000
224.09	-250.000
224.46	-72.727
224.84	25.000
225.21	-57.143
225.59	-50.000
225.96	-33.333
226.34	-20.000
226.71	-100.000
227.08	-250.000
227.46	-100.000
227.83	-800.000
228.21	18.750
228.58	50.000
228.95	35.294
229.33	56.250
229.70	-12.500
230.08	7.692
230.45	-37.500
230.82	-75.000
231.20	142.857
231.57	-25.000
231.95	-0.000
232.32	66.667
232.69	35.294
233.07	-1600.000
233.44	43.478
233.81	150.000
234.19	66.667
234.56	-53.333
234.93	20.000
235.31	15.789
235.68	-146.154
236.05	100.000
236.43	-44.444
236.80	12.121
237.17	20.000
237.55	-23.529
237.92	-20.690
238.29	-14.815
238.67	25.000
239.04	22.581
239.41	-2.128
239.79	36.170
240.16	25.581
240.53	5.357
240.91	23.214
241.28	25.000
241.65	27.419
242.02	10.526
242.40	21.739
242.77	-1.449
243.14	6.410
243.51	3.191
243.89	14.423
244.26	22.642
244.63	5.769
245.00	13.542
245.38	10.084
245.75	17.213
246.12	22.556
246.49	7.317
246.87	5.882
247.24	23.649
247.61	16.556
247.98	14.103
248.36	11.243
248.73	15.169
249.10	10.606
249.47	11.828
249.84	17.895
250.22	13.433
250.59	18.224
250.96	13.182
251.33	6.220
251.70	19.665
252.08	12.134
252.45	18.519
252.82	17.490
253.19	16.732
253.56	14.388
253.94	19.217
254.31	13.380
254.68	19.799
255.05	16.832
255.42	16.084
255.79	12.883
256.16	18.297
256.54	13.968
256.91	11.076
257.28	15.094
257.65	12.420
258.02	13.196
258.39	14.035
258.76	11.628
259.14	12.784
259.51	13.483
259.88	15.176
260.25	15.000
260.62	13.483
260.99	14.058
261.36	19.689
261.73	14.815
262.10	13.740
262.47	11.358
262.85	15.174
263.22	14.872
263.59	12.987
263.96	13.869
264.33	12.500
264.70	14.884
265.07	14.352
265.44	15.862
265.81	13.730
266.18	14.351
266.55	12.882
266.92	13.983
267.29	13.992
267.66	15.287
268.03	14.198
268.40	13.983
268.77	14.463
269.14	14.694
269.51	17.659
269.88	14.460
270.25	12.500
270.62	11.885
270.99	15.748
271.36	14.484
271.73	14.056
272.10	14.476
272.47	15.739
272.84	14.370
273.21	13.112
273.58	14.549
273.95	12.830
274.32	13.993
274.69	14.936
275.06	17.138
275.43	14.689
275.80	15.248
276.17	12.891
276.54	13.321
276.91	13.763
277.28	10.830
277.65	14.685
278.02	14.821
278.39	12.966
278.76	14.883
279.13	12.521
279.50	14.828
279.87	13.587
280.23	13.514
280.60	15.398
280.97	10.227
281.34	15.300
281.71	13.984
282.08	13.162
282.45	13.607
282.82	13.259
283.19	14.787
283.56	13.594
283.92	12.997
284.29	12.637
284.66	11.532
285.03	13.355
285.40	11.480
285.77	12.763
286.14	13.374
286.51	13.493
286.87	13.077
287.24	13.422
287.61	12.801
287.98	12.794
288.35	13.264
288.72	12.626
289.08	15.527
289.45	13.803
289.82	13.011
290.19	11.921
290.56	11.648
290.93	12.431
291.29	11.902
291.66	11.475
292.03	13.215
292.40	12.517
292.77	12.718
293.13	13.808
293.50	12.288
293.87	11.733
294.24	12.037
294.60	12.354
294.97	13.492
295.34	9.894
295.71	8.936
296.08	11.126
296.44	11.352
296.81	11.571
297.18	13.000
297.55	10.495
297.91	12.050
298.28	11.501
298.65	10.837
299.02	12.698
299.38	12.270
299.75	10.817
300.12	9.884
300.48	9.825
300.85	11.432
301.22	11.498
301.59	8.803
301.95	9.872
302.32	11.202
302.69	8.814
303.05	11.296
303.42	11.023
303.79	11.672
304.15	11.281
304.52	12.043
304.89	10.078
305.25	9.660
305.62	10.521
305.99	10.664
306.35	10.240
306.72	10.580
307.09	11.053
307.45	10.969
307.82	9.895
308.19	9.091
308.55	10.645
308.92	12.083
309.29	10.711
309.65	10.789
310.02	10.437
310.38	10.874
310.75	10.651
311.12	11.856
311.48	10.781
311.85	11.713
312.22	11.219
312.58	9.952
312.95	10.249
313.31	10.376
313.68	10.592
314.05	11.248
314.41	12.200
314.78	10.436
315.14	10.926
315.51	11.323
315.87	10.658
316.24	10.376
316.61	11.050
316.97	10.000
317.34	10.428
317.70	10.705
318.07	11.890
318.43	10.298
318.80	10.384
319.16	10.875
319.53	12.007
319.89	10.840
320.26	11.645
320.62	11.029
320.99	11.337
321.35	9.822
321.72	10.587
322.08	10.978
322.45	11.471
322.81	11.645
323.18	10.823
323.54	10.650
323.91	10.659
324.27	11.431
324.64	11.498
325.00	10.761
325.37	11.689
325.73	11.279
326.10	10.261
326.46	11.288
326.83	11.570
327.19	11.057
327.56	11.604
327.92	11.987
328.29	12.104
328.65	12.095
329.01	10.466
329.38	12.435
329.74	11.931
330.11	11.001
330.47	12.153
330.84	11.372
331.20	12.553
331.56	11.594
331.93	12.489
332.29	12.424
332.66	11.695
333.02	12.511
333.38	12.632
333.75	11.689
334.11	12.066
334.48	11.770
334.84	10.777
335.20	10.892
335.57	11.575
335.93	12.027
336.29	12.259
336.66	11.795
337.02	12.087
337.38	11.836
337.75	12.059
338.11	11.016
338.47	10.531
338.84	12.199
339.20	12.169
339.56	11.519
339.93	11.927
340.29	11.443
340.65	11.206
341.02	11.647
341.38	12.669
341.74	11.849
342.11	11.808
342.47	11.046
342.83	11.601
343.20	12.014
343.56	11.693
343.92	12.348
344.28	11.851
344.65	12.000
345.01	10.492
345.37	11.513
345.73	11.846
346.10	12.360
346.46	11.057
346.82	11.798
347.19	11.788
347.55	11.551
347.91	10.600
348.27	11.593
348.63	11.859
349.00	11.635
349.36	11.146
349.72	12.065
350.08	10.764
350.45	10.728
350.81	11.346
351.17	12.548
351.53	10.919
351.89	10.405
352.26	10.502
352.62	11.240
352.98	10.703
353.34	11.272
353.70	12.150
354.07	11.608
354.43	11.897
354.79	11.298
355.15	11.724
355.51	11.541
355.87	12.041
356.24	10.754
356.60	10.008
356.96	11.589
357.32	10.604
357.68	11.841
358.04	11.016
358.40	11.860
358.77	11.239
359.13	10.428
359.49	11.355
359.85	12.206
360.21	11.334
360.57	10.570
360.93	11.684
361.29	11.621
361.66	11.465
362.02	10.971
362.38	11.595
362.74	10.587
363.10	10.629
363.46	10.375
363.82	11.234
364.18	11.095
364.54	10.795
364.90	10.801
365.26	10.333
365.62	11.009
365.98	10.747
366.35	10.709
366.71	10.414
367.07	10.843
367.43	10.523
367.79	11.258
368.15	11.252
368.51	10.549
368.87	10.677
369.23	10.605
369.59	10.571
369.95	9.724
370.31	10.391
370.67	10.717
371.03	11.507
371.39	11.285
371.75	10.500
372.11	11.182
372.47	11.175
372.83	11.026
373.19	11.151
373.55	10.043
373.91	11.457
374.27	9.267
374.63	9.957
374.99	10.515
375.35	10.890
375.71	9.715
376.07	10.761
376.42	10.695
376.78	10.700
377.14	10.441
377.50	10.365
377.86	10.292
378.22	10.999
378.58	10.530
378.94	10.937
379.30	10.618
379.66	11.036
380.02	10.968
380.38	10.904
380.74	11.476
381.09	10.615
381.45	10.641
381.81	11.275
382.17	10.145
382.53	11.200
382.89	10.796
383.25	10.556
383.61	11.138
383.97	10.437
384.32	10.397
384.68	10.611
385.04	10.141
385.40	11.021
385.76	10.523
386.12	9.877
386.48	10.846
386.83	10.263
387.19	10.117
387.55	10.730
387.91	9.902
388.27	10.111
388.62	9.675
388.98	10.200
389.34	9.524
389.70	10.256
390.06	10.187
390.42	10.760
390.77	10.442
391.13	10.164
391.49	9.551
391.85	9.904
392.20	10.088
392.56	10.476
392.92	10.532
393.28	10.575
393.64	9.235
393.99	9.119
394.35	9.877
394.71	10.577
395.07	10.063
395.42	10.116
395.78	9.395
396.14	10.336
396.50	9.575
396.85	10.198
397.21	10.050
397.57	9.814
397.92	10.599
398.28	10.209
398.64	10.686
399.00	10.268
399.35	10.272
399.71	9.726
400.07	10.663
400.42	9.091
400.78	10.453
401.14	9.933
401.49	9.527
401.85	10.135
402.21	10.031
402.57	9.933
402.92	10.513
403.28	10.131
403.63	9.609
403.99	10.109
404.35	10.661
404.70	9.909
405.06	9.924
405.42	10.176
405.77	9.677
406.13	9.714
406.49	10.066
406.84	9.829
407.20	9.295
407.55	9.675
407.91	9.927
408.27	9.420
408.62	10.927
408.98	10.419
409.34	9.468
409.69	10.526
410.05	10.572
410.40	9.921
410.76	9.988
411.11	10.137
411.47	10.949
411.83	10.168
412.18	10.327
412.54	10.213
412.89	9.781
413.25	10.324
413.60	9.342
413.96	9.675
414.31	10.049
414.67	9.841
415.03	10.758
415.38	9.643
415.74	10.201
416.09	10.112
416.45	10.253
416.80	9.664
417.16	10.459
417.51	9.377
417.87	9.921
418.22	9.502
418.58	10.381
418.93	10.672
419.29	10.033
419.64	9.606
420.00	10.222
420.35	10.161
420.71	9.385
421.06	10.455
421.42	10.158
421.77	10.116
422.12	10.774
422.48	10.360
422.83	9.155
423.19	10.236
423.54	10.012
423.90	10.214
424.25	10.399
424.61	9.920
424.96	8.930
425.31	10.039
425.67	10.229
426.02	10.188
426.38	10.386
426.73	9.774
427.09	9.756
427.44	9.924
427.79	9.976
428.15	10.275
428.50	9.184
428.85	10.517
429.21	10.017
429.56	10.255
429.92	10.203
430.27	10.481
430.62	10.283
430.98	10.365
431.33	10.156
431.68	10.756
432.04	9.915
432.39	9.700
432.74	9.933
433.10	10.691
433.45	10.888
433.80	10.230
434.16	10.377
434.51	10.054
434.86	10.188
435.22	10.526
435.57	9.644
435.92	10.434
436.28	9.550
436.63	10.508
436.98	10.693
437.34	9.829
437.69	10.862
438.04	9.621
438.39	10.274
438.75	9.535
439.10	10.237
439.45	10.351
439.81	10.099
440.16	10.783
440.51	10.702
440.86	11.025
441.22	10.327
441.57	11.009
441.92	10.264
442.27	10.065
442.63	10.172
442.98	9.491
443.33	11.343
443.68	9.963
444.03	10.581
444.39	10.560
444.74	10.215
445.09	10.297
445.44	11.549
445.79	10.428
446.15	11.037
446.50	11.123
446.85	10.796
447.20	11.030
447.55	10.968
447.91	10.393
448.26	11.321
448.61	10.875
448.96	10.251
449.31	11.536
449.66	11.336
450.02	11.200
450.37	10.341
450.72	10.161
451.07	10.721
451.42	9.794
451.77	11.016
452.12	11.943
452.47	10.717
452.83	10.849
453.18	11.649
453.53	10.088
453.88	11.084
454.23	10.692
454.58	11.458
454.93	10.327
455.28	11.368
455.63	10.667
455.98	10.469
456.34	10.871
456.69	11.502
457.04	10.774
457.39	10.583
457.74	10.592
458.09	11.019
458.44	11.457
458.79	10.818
459.14	10.337
459.49	11.280
459.84	10.710
460.19	10.204
460.54	11.740
460.89	11.824
461.24	11.097
461.59	11.171
461.94	10.619
462.29	10.723
462.64	10.488
462.99	11.737
463.34	10.773
463.69	11.276
464.04	11.104
464.39	11.897
464.74	11.486
465.09	11.283
465.44	11.785
465.79	11.616
466.14	11.345
466.49	10.792
466.84	10.938
467.19	10.764
467.54	11.666
467.89	11.314
468.24	11.432
468.59	11.409
468.94	10.983
469.29	11.434
469.64	11.367
469.99	12.828
470.34	11.059
470.68	11.673
471.03	11.354
471.38	11.266
471.73	11.660
472.08	11.684
472.43	10.884
472.78	11.427
473.13	11.016
473.48	10.828
473.83	11.613
474.17	11.198
474.52	10.809
474.87	11.218
475.22	10.749
475.57	11.210
475.92	11.941
476.27	10.664
476.61	11.835
476.96	11.194
477.31	11.327
477.66	11.243
478.01	10.879
478.36	10.736
478.70	11.278
479.05	11.154
479.40	11.544
479.75	11.265
480.10	11.015
480.45	11.035
480.79	11.000
481.14	11.702
481.49	11.495
481.84	11.074
482.19	11.440
482.53	10.619
482.88	11.841
483.23	11.116
483.58	10.822
483.92	10.603
484.27	11.253
484.62	10.741
484.97	11.448
485.31	11.274
485.66	10.983
486.01	11.071
486.36	10.809
486.70	10.681
487.05	11.208
487.40	11.140
487.75	10.795
488.09	10.416
488.44	10.620
488.79	10.901
489.13	10.855
489.48	11.116
489.83	11.166
490.17	11.212
490.52	11.781
490.87	11.497
491.22	11.917
491.56	11.500
491.91	11.138
492.26	11.847
492.60	11.592
492.95	11.662
493.30	11.483
493.64	10.791
493.99	12.077
494.34	11.079
494.68	11.313
495.03	10.919
495.37	11.436
495.72	11.629
496.07	12.129
496.41	11.745
496.76	11.289
497.11	11.174
497.45	11.479
497.80	11.358
498.14	12.141
498.49	11.649
498.84	11.640
499.18	11.349
499.53	11.029
499.87	10.869
500.22	12.145
500.56	11.384
500.91	12.072
501.26	11.970
501.60	10.882
501.95	12.123
502.29	11.553
502.64	11.041
502.98	11.368
503.33	11.533
503.67	11.149
504.02	10.588
504.36	10.896
504.71	11.128
505.06	11.768
505.40	11.134
505.75	11.089
506.09	12.110
506.44	11.895
506.78	11.326
507.13	11.279
507.47	12.089
507.82	11.565
508.16	11.979
508.51	11.622
508.85	11.094
509.19	11.429
509.54	11.367
509.88	11.935
510.23	11.947
510.57	11.653
510.92	12.284
511.26	11.551
511.61	11.196
511.95	11.246
512.30	11.327
512.64	12.486
512.98	12.632
513.33	11.437
513.67	11.982
514.02	11.631
514.36	11.461
514.70	12.009
515.05	11.469
515.39	11.910
515.74	12.019
516.08	11.327
516.42	11.406
516.77	10.252
517.11	11.346
517.46	11.525
517.80	12.651
518.14	11.941
518.49	12.417
518.83	12.768
519.17	11.627
519.52	12.364
519.86	11.900
520.20	10.976
520.55	12.127
520.89	12.018
521.23	12.372
521.58	12.263
521.92	10.937
522.26	11.646
522.61	11.635
522.95	12.176
523.29	12.508
523.64	12.715
523.98	11.372
524.32	11.657
524.66	11.234
525.01	11.927
525.35	12.574
525.69	12.194
526.04	12.769
526.38	11.982
526.72	12.492
527.06	11.863
527.41	11.251
527.75	11.682
528.09	12.594
528.43	12.415
528.78	11.886
529.12	12.031
529.46	11.964
529.80	11.327
530.15	12.098
530.49	11.995
530.83	12.255
531.17	11.781
531.51	11.059
531.86	12.060
532.20	11.716
532.54	11.793
532.88	12.049
533.22	11.852
533.57	11.921
533.91	13.097
534.25	11.849
534.59	12.291
534.93	12.245
535.27	11.656
535.62	11.645
535.96	12.492
536.30	10.971
536.64	10.868
536.98	11.352
537.32	11.886
537.66	11.989
538.01	11.789
538.35	12.086
538.69	11.639
539.03	10.872
539.37	11.469
539.71	11.733
540.05	11.201
540.39	12.319
540.73	11.732
541.07	11.361
541.42	11.919
541.76	12.720
542.10	11.442
542.44	11.989
542.78	11.381
543.12	11.523
543.46	12.094
543.80	11.473
544.14	11.493
544.48	11.082
544.82	12.576
545.16	11.765
545.50	12.154
545.84	12.623
546.18	11.150
546.52	11.644
546.86	11.802
547.20	11.937
547.54	11.723
547.88	12.416
548.22	12.443
548.56	11.474
548.90	10.961
549.24	12.083
549.58	10.391
549.92	13.353
550.26	12.325
550.60	10.285
550.94	11.716
551.28	11.734
551.62	10.902
551.96	12.006
552.30	11.426
552.64	11.370
552.98	12.926
553.32	11.536
553.66	12.399
554.00	11.447
554.34	10.769
554.68	12.081
555.02	12.350
555.36	12.027
555.69	11.216
556.03	11.079
556.37	12.091
556.71	11.843
557.05	11.587
557.39	11.530
557.73	12.557
558.07	11.907
558.41	11.506
558.75	12.086
559.08	10.585
559.42	11.644
559.76	12.615
560.10	11.145
560.44	11.496
560.78	10.647
561.12	12.053
561.45	11.633
561.79	11.761
562.13	11.533
562.47	11.071
562.81	11.255
563.15	12.110
563.48	11.493
563.82	11.628
564.16	11.916
564.50	11.601
564.84	11.554
565.17	11.854
565.51	11.698
565.85	11.459
566.19	10.927
566.52	11.599
566.86	12.200
567.20	10.507
567.54	11.572
567.88	11.086
568.21	11.244
568.55	10.589
568.89	11.017
569.23	11.274
569.56	10.680
569.90	11.005
570.24	10.505
570.57	10.850
570.91	10.519
571.25	10.318
571.59	10.583
571.92	10.795
572.26	10.514
572.60	11.087
572.93	10.653
573.27	10.416
573.61	10.711
573.95	10.603
574.28	10.389
574.62	10.368
574.96	10.507
575.29	10.657
575.63	10.011
575.97	10.543
576.30	10.710
576.64	10.584
576.98	10.923
577.31	10.686
577.65	10.250
577.98	10.056
578.32	10.155
578.66	10.498
578.99	10.446
579.33	10.420
579.67	10.285
580.00	10.658
580.34	10.276
580.67	10.338
581.01	10.401
581.35	10.144
581.68	10.524
582.02	10.468
582.35	10.805
582.69	10.396
583.02	10.335
583.36	10.459
583.70	10.495
584.03	10.542
584.37	10.464
584.70	10.892
585.04	10.728
585.37	10.377
585.71	10.757
586.04	10.702
586.38	10.576
586.72	10.649
587.05	10.914
587.39	10.806
587.72	10.532
588.06	10.451
588.39	10.551
588.73	10.108
589.06	10.637
589.40	10.664
589.73	10.349
590.07	10.718
590.40	10.981
590.73	11.143
591.07	11.158
591.40	10.565
591.74	10.894
592.07	11.045
592.41	10.682
592.74	11.150
593.08	10.291
593.41	10.854
593.75	10.820
594.08	10.743
594.41	10.640
594.75	11.169
595.08	10.082
595.42	11.238
595.75	10.629
596.09	10.547
596.42	10.784
596.75	11.189
597.09	10.919
597.42	11.350
597.75	10.889
598.09	11.066
598.42	11.275
598.76	10.831
599.09	11.004
599.42	11.065
599.76	11.491
600.09	11.107
600.42	10.885
600.76	11.271
601.09	10.772
601.42	11.172
601.76	11.120
602.09	11.026
602.42	11.350
602.76	10.990
603.09	10.924
603.42	10.876
603.76	10.912
604.09	10.949
604.42	10.590
604.76	10.912
605.09	11.373
605.42	11.426
605.75	10.107
606.09	10.472
606.42	11.264
606.75	10.823
607.09	10.904
607.42	10.727
607.75	10.810
608.08	11.362
608.42	10.731
608.75	10.511
609.08	11.122
609.41	11.326
609.75	10.439
610.08	10.750
610.41	11.030
610.74	10.972
611.07	11.122
611.41	10.645
611.74	11.749
612.07	12.038
612.40	11.459
612.73	10.922
613.07	11.475
613.40	11.564
613.73	11.484
614.06	11.388
614.39	11.284
614.72	12.271
615.06	10.556
615.39	10.982
615.72	10.853
616.05	10.980
616.38	11.168
616.71	10.498
617.05	12.101
617.38	11.152
617.71	10.846
618.04	10.908
618.37	11.609
618.70	11.449
619.03	11.271
619.36	12.171
619.69	10.819
620.03	10.954
620.36	11.552
620.69	11.206
621.02	10.462
621.35	11.611
621.68	10.676
622.01	12.460
622.34	10.547
622.67	12.451
623.00	12.082
623.33	11.219
623.66	10.706
623.99	11.478
624.32	11.152
624.65	11.647
624.99	11.830
625.32	10.829
625.65	11.008
625.98	11.058
626.31	11.429
626.64	11.350
626.97	11.246
627.30	11.805
627.63	11.332
627.96	10.043
628.29	11.721
628.62	11.122
628.95	12.024
629.28	10.837
629.61	12.344
629.94	11.799
630.26	11.724
630.59	11.788
630.92	11.948
631.25	11.226
631.58	12.634
631.91	12.089
632.24	9.989
632.57	9.889
632.90	13.069
633.23	10.671
633.56	12.470
633.89	12.560
634.22	11.661
634.55	12.424
634.88	11.397
635.20	13.375
635.53	10.465
635.86	12.179
636.19	12.159
636.52	10.610
636.85	11.701
637.18	10.475
637.51	11.486
637.83	12.010
638.16	10.533
638.49	10.681
638.82	10.850
639.15	11.835
639.48	10.160
639.81	11.806
640.13	13.944
640.46	13.983
640.79	12.806
641.12	11.538
641.45	12.664
641.77	11.487
642.10	14.826
642.43	11.321
642.76	11.830
643.09	11.981
643.41	11.164
643.74	11.470
644.07	12.298
644.40	14.428
644.73	11.695
645.05	9.599
645.38	10.631
645.71	12.245
646.04	11.279
646.36	11.806
646.69	11.538
647.02	13.843
647.35	12.249
647.67	11.091
648.00	10.326
648.33	12.712
648.66	9.683
648.98	12.112
649.31	12.577
649.64	9.233
649.96	12.006
650.29	11.111
650.62	12.521
650.94	11.897
651.27	10.954
651.60	11.888
651.92	13.978
652.25	12.228
652.58	10.231
652.90	10.774
653.23	9.508
653.56	11.736
653.88	10.068
654.21	7.850
654.54	11.296
654.86	10.732
655.19	9.664
655.52	12.250
655.84	10.016
656.17	12.376
656.49	16.651
656.82	16.536
657.15	12.335
657.47	8.933
657.80	6.720
658.13	6.943
658.45	10.040
658.78	9.445
659.10	9.104
659.43	8.745
659.75	9.438
660.08	8.759
660.41	9.635
660.73	10.606
661.06	10.884
661.38	8.915
661.71	11.475
662.03	12.051
662.36	8.850
662.68	12.903
663.01	13.771
663.33	11.447
663.66	9.978
663.98	11.461
664.31	14.066
664.63	6.306
664.96	13.348
665.28	11.803
665.61	11.015
665.93	10.921
666.26	11.603
666.58	8.994
666.91	15.247
667.23	12.903
667.56	15.402
667.88	10.514
668.21	13.393
668.53	9.195
668.86	14.149
669.18	12.057
669.50	12.903
669.83	9.785
670.15	8.810
670.48	9.885
670.80	13.786
671.13	11.213
671.45	12.100
671.77	10.345
672.10	10.721
672.42	11.832
672.75	10.179
673.07	10.727
673.39	11.940
673.72	9.581
674.04	12.295
674.37	13.415
674.69	11.728
675.01	9.188
675.34	13.348
675.66	13.072
675.98	8.186
676.31	10.633
676.63	13.152
676.95	10.353
677.28	9.633
677.60	11.029
677.92	10.865
678.25	11.063
678.57	12.424
678.89	12.154
679.22	12.215
679.54	9.796
679.86	11.133
680.18	10.962
680.51	9.423
680.83	10.526
681.15	13.556
681.48	8.216
681.80	12.270
682.12	10.625
682.44	9.859
682.77	9.895
683.09	11.607
683.41	10.698
683.73	8.482
684.06	8.186
684.38	11.325
684.70	9.980
685.02	11.570
685.34	11.546
685.67	10.507
685.99	10.142
686.31	12.414
686.63	11.949
686.96	11.503
687.28	10.778
687.60	12.665
687.92	11.673
688.24	10.600
688.56	12.061
688.89	8.463
689.21	10.090
689.53	6.757
689.85	10.787
690.17	10.549
690.49	9.179
690.82	14.320
691.14	9.420
691.46	10.209
691.78	13.187
692.10	10.403
692.42	10.989
692.74	11.304
693.06	9.888
693.39	8.197
693.71	12.000
694.03	12.955
694.35	11.036
694.67	13.250
694.99	10.825
695.31	10.336
695.63	14.390
695.95	12.468
696.27	9.315
696.59	11.828
696.91	10.894
697.23	7.107
697.56	8.633
697.88	11.227
698.20	11.663
698.52	10.981
698.84	10.766
699.16	10.402
699.48	12.346
699.80	13.953
700.12	10.456
700.44	9.859
700.76	9.551
701.08	12.689
701.40	12.275
701.72	11.385
702.04	9.119
702.36	9.451
702.68	8.841
703.00	14.620
703.32	10.028
703.64	11.747
703.96	12.317
704.28	9.639
704.60	10.976
704.91	12.539
705.23	10.759
705.55	12.069
705.87	13.028
706.19	8.791
706.51	13.732
706.83	9.554
707.15	13.720
707.47	14.876
707.79	9.645
708.11	12.339
708.43	12.944
708.74	10.904
709.06	8.289
709.38	10.663
709.70	9.009
710.02	9.657
710.34	12.000
710.66	11.726
710.98	10.836
711.29	12.662
711.61	10.323
711.93	13.548
712.25	9.441
712.57	8.070
712.89	11.355
713.20	10.993
713.52	8.394
713.84	11.613
714.16	7.443
714.48	12.342
714.80	10.863
715.11	15.116
715.43	8.075
715.75	14.596
716.07	14.157
716.39	11.111
716.70	12.230
717.02	7.451
717.34	12.879
717.66	4.310
717.97	10.714
718.29	10.630
718.61	9.442
718.93	11.240
719.24	13.284
719.56	10.487
719.88	11.940
720.20	8.696
720.51	9.766
720.83	9.339
721.15	8.943
721.46	10.687
721.78	10.757
722.10	14.343
722.42	14.113
722.73	11.583
723.05	13.469
723.37	7.563
723.68	6.400
724.00	8.511
724.32	12.134
724.63	13.992
724.95	7.692
725.27	11.392
725.58	9.053
725.90	12.971
726.22	13.043
726.53	7.843
726.85	12.774
727.16	8.889
727.48	11.877
727.80	13.281
728.11	10.656
728.43	12.109
728.74	12.302
729.06	9.200
729.38	12.253
729.69	10.676
730.01	15.985
730.32	13.653
730.64	7.576
730.96	12.937
731.27	11.037
731.59	10.794
731.90	8.738
732.22	10.897
732.53	7.432
732.85	7.718
733.16	13.201
733.48	7.770
733.80	10.473
734.11	12.500
734.43	9.907
734.74	13.213
735.06	14.121
735.37	11.246
735.69	7.120
736.00	8.911
736.32	14.184
736.63	10.690
736.95	9.932
737.26	12.069
737.58	14.931
737.89	10.309
738.21	5.694
738.52	14.068
738.83	9.388
739.15	11.814
739.46	10.117
739.78	10.915
740.09	9.247
740.41	8.571
740.72	10.638
741.04	9.200
741.35	7.018
741.66	12.889
741.98	9.615
742.29	12.871
742.61	14.146
742.92	14.912
743.23	3.774
743.55	15.766
743.86	16.143
744.18	13.725
744.49	9.645
744.80	16.327
745.12	8.411
745.43	13.270
745.74	13.514
746.06	9.813
746.37	5.505
746.68	5.769
747.00	16.268
747.31	12.981
747.62	10.550
747.94	14.410
748.25	15.138
748.56	14.667
748.88	16.901
749.19	11.905
749.50	10.194
749.82	10.798
750.13	3.333
750.44	8.462
750.75	9.594
751.07	11.388
751.38	12.766
751.69	8.880
752.01	12.500
752.32	8.846
752.63	11.940
752.94	14.400
753.26	15.900
753.57	8.750
753.88	9.312
754.19	4.781
754.51	8.271
754.82	10.256
755.13	8.261
755.44	9.350
755.75	10.800
756.07	5.535
756.38	11.511
756.69	11.604
757.00	12.150
757.31	7.767
757.63	8.642
757.94	9.887
758.25	10.847
758.56	9.783
758.87	8.929
759.18	9.464
759.50	8.081
759.81	11.371
760.12	13.538
760.43	6.250
760.74	12.994
761.05	11.878
761.36	9.169
761.67	8.459
761.99	7.904
762.30	5.109
762.61	8.230
762.92	14.530
763.23	11.475
763.54	12.554
763.85	9.796
764.16	12.195
764.47	8.000
764.78	10.000
765.10	11.475
765.41	10.334
765.72	9.317
766.03	12.211
766.34	9.231
766.65	7.531
766.96	7.981
767.27	15.842
767.58	5.056
767.89	14.198
768.20	7.735
768.51	17.085
768.82	13.942
769.13	14.602
769.44	7.113
769.75	6.838
770.06	9.865
770.37	8.333
770.68	7.767
770.99	6.311
771.30	13.025
771.61	7.347
771.92	12.448
772.23	13.063
772.54	6.630
772.85	11.047
773.16	10.582
773.47	2.959
773.78	12.644
774.09	10.625
774.39	4.969
774.70	17.687
775.01	5.517
775.32	7.143
775.63	7.519
775.94	6.015
776.25	3.200
776.56	9.091
776.87	15.079
777.18	9.910
777.48	15.315
777.79	6.299
778.10	16.514
778.41	11.404
778.72	7.563
779.03	6.338
779.34	20.270
779.65	9.155
779.95	14.570
780.26	15.108
780.57	15.108
780.88	10.563
781.19	8.403
781.50	14.765
781.80	12.281
782.11	8.721
782.42	8.176
782.73	13.725
783.04	14.483
783.34	5.344
783.65	1.342
783.96	5.385
784.27	13.571
784.57	9.220
784.88	0.000
785.19	19.091
785.50	10.909
785.81	4.762
786.11	14.286
786.42	13.274
786.73	3.774
787.04	3.670
787.34	8.911
787.65	10.833
787.96	8.264
788.26	7.971
788.57	9.524
788.88	8.130
789.19	-0.800
789.49	0.000
789.80	14.394
790.11	0.943
790.41	16.832
790.72	2.128
791.03	9.783
791.33	15.294
791.64	11.111
791.95	6.522
792.25	14.773
792.56	15.385
792.87	10.256
793.17	-7.692
793.48	0.000
793.79	13.750
794.09	17.308
794.40	18.750
794.70	5.405
795.01	14.063
795.32	8.696
795.62	0.000
795.93	-0.943
796.23	17.172
796.54	9.756
796.85	26.190
797.15	19.697
797.46	-4.348
797.76	3.947
798.07	13.636
798.37	-2.439
798.68	0.000
798.99	6.757
799.29	18.072
799.60	1.282
799.90	1.538
800.21	10.606
800.51	21.333
800.82	20.000
801.12	-8.333
801.43	-11.667
801.73	-10.811
802.04	12.857
802.34	3.279
802.65	19.403
802.95	16.364
803.26	15.517
803.56	13.846
803.87	18.868
804.17	17.742
804.48	11.765
804.78	-14.634
805.09	13.043
805.39	16.176
805.70	-10.638
806.00	7.018
806.30	21.795
806.61	3.947
806.91	25.676
807.22	15.789
807.52	11.364
807.83	-23.729
808.13	-7.576
808.43	20.000
808.74	-31.034
809.04	15.873
809.35	-8.163
809.65	-6.667
809.95	-18.367
810.26	28.169
810.56	4.167
810.86	4.082
811.17	23.077
811.47	-6.383
811.77	22.917
812.08	3.774
812.38	-18.750
812.69	25.455
812.99	19.512
813.29	0.000
813.59	8.108
813.90	-9.091
814.20	10.909
814.50	3.333
814.81	5.455
815.11	7.018
815.41	25.581
815.72	-2.500
816.02	5.714
816.32	8.108
816.62	33.333
816.93	-6.667
817.23	11.111
817.53	11.111
817.84	0.000
818.14	-9.756
818.44	8.000
818.74	16.327
819.04	26.829
819.35	0.000
819.65	9.091
819.95	-27.778
820.25	9.091
820.56	-23.810
820.86	-22.222
821.16	15.909
821.46	2.174
821.76	8.621
822.07	6.522
822.37	27.273
822.67	31.707
822.97	2.703
823.27	-45.714
823.57	34.483
823.88	8.824
824.18	0.000
824.48	25.714
824.78	38.095
825.08	28.571
825.38	0.000
825.69	9.677
825.99	34.146
826.29	7.407
826.59	-15.625
826.89	9.677
827.19	0.000
827.49	19.444
827.79	-43.478
828.09	-16.129
828.39	0.000
828.70	6.250
829.00	-17.241
829.30	27.027
829.60	-37.500
829.90	0.000
830.20	9.375
830.50	45.455
830.80	-111.765
831.10	-36.364
831.40	-2.941
831.70	-11.538
832.00	33.333
832.30	17.647
832.60	35.135
832.90	300.000
833.20	17.857
833.50	-15.000
833.80	7.895
834.10	-37.500
834.40	-63.636
834.70	6.667
835.00	-70.000
835.30	-25.000
835.60	-4.762
835.90	14.286
836.20	-12.000
836.50	-16.667
836.80	-5.263
837.10	27.027
837.40	30.000
837.70	-13.043
838.00	58.333
838.30	36.842
838.60	-120.000
838.90	-110.000
839.19	-50.000
839.49	7.692
839.79	57.895
840.09	-133.333
840.39	-10.000
840.69	-13.636
840.99	38.095
841.29	4.167
841.59	-38.462
841.88	-80.000
842.18	-35.714
842.48	-13.333
842.78	0.000
843.08	35.714
843.38	-12.500
843.68	-37.500
843.97	14.286
844.27	-88.889
844.57	-36.364
844.87	6.667
845.17	40.909
845.47	366.667
845.76	-13.333
846.06	-8.333
846.36	-400.000
846.66	10.526
846.96	-9.091
847.25	5.556
847.55	-77.778
847.85	-33.333
848.15	23.077
848.44	-116.667
848.74	0.000
849.04	-23.077
849.34	-50.000
849.63	-90.909
849.93	-92.857
850.23	30.000
850.53	-150.000
850.82	-11.111
851.12	60.000
851.42	23.529
851.71	-50.000
852.01	29.412
852.31	38.462
852.61	350.000
852.90	5.882
853.20	53.333
853.50	12.500
853.79	-50.000
854.09	-175.000
854.39	-30.000
854.68	2.500
854.98	4.762
855.28	8.000
855.57	-4.167
855.87	33.333
856.17	-8.000
856.46	-21.875
856.76	15.000
857.05	56.000
857.35	-100.000
857.65	-23.529
857.94	-66.667
858.24	-91.667
858.53	0.000
858.83	-27.273
859.13	-8.000
859.42	42.857
859.72	25.000
860.01	12.500
860.31	-187.500
860.60	-6.250
860.90	33.333
861.20	66.667
861.49	20.000
861.79	-25.000
862.08	400.000
862.38	-33.333
862.67	185.714
862.97	-100.000
863.26	0.000
863.56	45.455
863.85	42.105
864.15	35.294
864.44	-220.000
864.74	-50.000
865.03	-88.889
865.33	-28.571
865.62	100.000
865.92	26.316
866.21	-44.444
866.51	0.000
866.80	-88.889
867.10	-125.000
867.39	0.000
867.69	-20.000
867.98	-60.000
868.27	-17.647
868.57	0.000
868.86	-100.000
869.16	0.000
869.45	-28.571
869.75	-200.000
870.04	90.000
870.33	-500.000
870.63	10.526
870.92	-8.333
871.22	-800.000
871.51	0.000
871.80	-44.444
872.10	-250.000
>>>>>End Processed Spectral Data<<<<<
