SpectraSuite Data File
++++++++++++++++++++++++++++++++++++
Date: Wed May 13 20:40:37 PDT 2015
User: schluterlab
Dark Spectrum Present: Yes
Reference Spectrum Present: Yes
Number of Sampled Component Spectra: 1
Spectrometers: USB2E3373
Integration Time (usec): 3000 (USB2E3373)
Spectra Averaged: 3 (USB2E3373)
Boxcar Smoothing: 0 (USB2E3373)
Correct for Electrical Dark: No (USB2E3373)
Strobe/Lamp Enabled: No (USB2E3373)
Correct for Detector Non-linearity: No (USB2E3373)
Correct for Stray Light: No (USB2E3373)
Number of Pixels in Processed Spectrum: 2048
>>>>>Begin Processed Spectral Data<<<<<
178.53	0.000
178.91	-975.000
179.29	-1050.000
179.67	-150.000
180.04	-975.000
180.42	1650.000
180.80	580.000
181.18	-825.000
181.56	414.286
181.94	0.000
182.31	-442.857
182.69	1300.000
183.07	-312.500
183.45	-355.556
183.83	363.636
184.20	-240.000
184.58	1450.000
184.96	3800.000
185.34	-700.000
185.72	-375.000
186.09	-1600.000
186.47	2000.000
186.85	1500.000
187.23	3600.000
187.61	-1100.000
187.98	950.000
188.36	372.727
188.74	327.273
189.12	-620.000
189.49	490.000
189.87	-3500.000
190.25	-950.000
190.63	300.000
191.00	292.308
191.38	533.333
191.76	-550.000
192.14	1125.000
192.51	412.500
192.89	716.667
193.27	312.500
193.65	-725.000
194.02	360.000
194.40	680.000
194.78	400.000
195.15	316.667
195.53	570.000
195.91	-1550.000
196.29	212.500
196.66	215.789
197.04	-180.000
197.42	0.000
197.79	400.000
198.17	-3100.000
198.55	471.429
198.92	412.500
199.30	800.000
199.68	0.000
200.05	227.778
200.43	571.429
200.81	2500.000
201.18	1133.333
201.56	-933.333
201.94	488.889
202.31	444.444
202.69	291.667
203.07	390.000
203.44	0.000
203.82	625.000
204.19	628.571
204.57	278.571
204.95	512.500
205.32	1133.333
205.70	400.000
206.08	242.857
206.45	1950.000
206.83	212.500
207.20	600.000
207.58	360.000
207.96	216.667
208.33	462.500
208.71	-450.000
209.08	514.286
209.46	522.222
209.84	363.636
210.21	-800.000
210.59	950.000
210.96	-362.500
211.34	2100.000
211.71	340.000
212.09	416.667
212.46	0.000
212.84	833.333
213.22	1225.000
213.59	-3600.000
213.97	650.000
214.34	714.286
214.72	327.273
215.09	580.000
215.47	-1400.000
215.84	-1900.000
216.22	966.667
216.59	235.714
216.97	400.000
217.34	363.636
217.72	-366.667
218.09	0.000
218.47	-3500.000
218.84	422.222
219.22	542.857
219.59	766.667
219.97	-500.000
220.34	560.000
220.72	-1166.667
221.09	321.429
221.47	875.000
221.84	-616.667
222.22	0.000
222.59	750.000
222.97	-1450.000
223.34	860.000
223.72	323.077
224.09	880.000
224.46	1600.000
224.84	-2900.000
225.21	-800.000
225.59	-3300.000
225.96	460.000
226.34	180.000
226.71	2050.000
227.08	400.000
227.46	340.000
227.83	-850.000
228.21	-1900.000
228.58	377.778
228.95	-1600.000
229.33	-1300.000
229.70	1200.000
230.08	642.857
230.45	-500.000
230.82	333.333
231.20	666.667
231.57	500.000
231.95	358.333
232.32	159.091
232.69	272.727
233.07	442.857
233.44	230.769
233.81	-1100.000
234.19	178.947
234.56	291.667
234.93	283.333
235.31	300.000
235.68	184.615
236.05	257.143
236.43	130.303
236.80	189.474
237.17	1900.000
237.55	133.333
237.92	135.714
238.29	185.714
238.67	83.871
239.04	124.138
239.41	102.778
239.79	65.217
240.16	88.095
240.53	77.273
240.91	64.706
241.28	76.000
241.65	54.000
242.02	56.522
242.40	54.839
242.77	60.000
243.14	43.011
243.51	53.933
243.89	38.824
244.26	33.333
244.63	35.484
245.00	29.787
245.38	25.743
245.75	29.907
246.12	26.606
246.49	33.577
246.87	32.800
247.24	22.308
247.61	26.429
247.98	23.529
248.36	12.838
248.73	20.382
249.10	20.382
249.47	20.339
249.84	21.390
250.22	18.717
250.59	18.343
250.96	17.677
251.33	19.905
251.70	15.347
252.08	16.667
252.45	13.453
252.82	17.391
253.19	15.745
253.56	13.725
253.94	17.427
254.31	15.234
254.68	15.769
255.05	15.129
255.42	11.789
255.79	11.029
256.16	16.606
256.54	12.721
256.91	13.879
257.28	8.633
257.65	9.901
258.02	11.491
258.39	9.779
258.76	10.033
259.14	11.012
259.51	8.511
259.88	8.696
260.25	12.689
260.62	9.827
260.99	11.801
261.36	11.712
261.73	10.315
262.10	7.849
262.47	14.085
262.85	9.471
263.22	8.262
263.59	12.251
263.96	10.165
264.33	8.094
264.70	8.947
265.07	11.509
265.44	7.828
265.81	9.002
266.18	6.281
266.55	6.585
266.92	7.125
267.29	9.259
267.66	8.257
268.03	9.091
268.40	7.944
268.77	6.205
269.14	5.631
269.51	9.481
269.88	6.993
270.25	7.449
270.62	7.416
270.99	9.892
271.36	11.159
271.73	6.542
272.10	6.304
272.47	7.957
272.84	8.225
273.21	7.757
273.58	7.424
273.95	7.966
274.32	7.025
274.69	8.994
275.06	8.268
275.43	7.447
275.80	6.814
276.17	6.925
276.54	7.277
276.91	7.312
277.28	6.445
277.65	8.124
278.02	3.934
278.39	8.203
278.76	7.636
279.13	6.604
279.50	7.076
279.87	9.163
280.23	6.587
280.60	4.255
280.97	5.176
281.34	7.257
281.71	7.091
282.08	6.526
282.45	6.000
282.82	6.927
283.19	4.456
283.56	6.842
283.92	7.276
284.29	6.349
284.66	4.719
285.03	5.063
285.40	5.986
285.77	6.229
286.14	5.009
286.51	7.833
286.87	4.957
287.24	5.863
287.61	4.976
287.98	6.818
288.35	6.022
288.72	6.386
289.08	5.947
289.45	5.272
289.82	5.691
290.19	3.925
290.56	4.747
290.93	3.323
291.29	5.215
291.66	5.310
292.03	6.831
292.40	6.608
292.77	4.290
293.13	5.373
293.50	5.394
293.87	4.593
294.24	4.148
294.60	5.240
294.97	5.669
295.34	6.206
295.71	5.682
296.08	4.131
296.44	4.127
296.81	4.095
297.18	7.046
297.55	5.013
297.91	3.958
298.28	6.827
298.65	4.700
299.02	4.875
299.38	3.453
299.75	1.078
300.12	4.087
300.48	4.750
300.85	4.192
301.22	3.949
301.59	3.283
301.95	3.526
302.32	3.209
302.69	3.823
303.05	3.515
303.42	3.704
303.79	2.831
304.15	2.681
304.52	4.056
304.89	3.368
305.25	3.828
305.62	4.643
305.99	4.723
306.35	3.915
306.72	4.709
307.09	4.772
307.45	4.167
307.82	1.786
308.19	3.753
308.55	4.099
308.92	4.296
309.29	2.640
309.65	3.499
310.02	4.440
310.38	3.118
310.75	4.224
311.12	4.811
311.48	4.702
311.85	3.983
312.22	2.081
312.58	2.911
312.95	4.752
313.31	2.816
313.68	3.534
314.05	5.424
314.41	3.819
314.78	4.230
315.14	3.078
315.51	4.016
315.87	3.465
316.24	4.469
316.61	3.801
316.97	3.229
317.34	2.740
317.70	3.537
318.07	4.042
318.43	3.718
318.80	4.686
319.16	3.578
319.53	3.002
319.89	3.238
320.26	4.400
320.62	3.869
320.99	3.737
321.35	3.939
321.72	4.928
322.08	4.047
322.45	4.080
322.81	4.554
323.18	4.046
323.54	4.174
323.91	4.906
324.27	4.398
324.64	3.541
325.00	3.607
325.37	4.004
325.73	4.399
326.10	3.707
326.46	3.226
326.83	4.228
327.19	4.184
327.56	4.007
327.92	3.325
328.29	3.904
328.65	4.328
329.01	3.069
329.38	3.885
329.74	3.601
330.11	3.016
330.47	3.673
330.84	5.331
331.20	3.188
331.56	4.954
331.93	3.796
332.29	3.993
332.66	6.018
333.02	3.473
333.38	4.607
333.75	5.080
334.11	4.537
334.48	3.904
334.84	4.228
335.20	3.818
335.57	4.261
335.93	4.286
336.29	3.114
336.66	4.238
337.02	2.805
337.38	4.815
337.75	3.119
338.11	2.954
338.47	3.775
338.84	4.308
339.20	2.936
339.56	5.201
339.93	2.636
340.29	3.895
340.65	3.743
341.02	4.276
341.38	4.181
341.74	3.421
342.11	3.493
342.47	3.436
342.83	4.966
343.20	4.675
343.56	4.128
343.92	3.684
344.28	3.656
344.65	3.611
345.01	4.125
345.37	2.830
345.73	3.892
346.10	4.092
346.46	3.644
346.82	3.954
347.19	2.840
347.55	3.530
347.91	4.126
348.27	4.355
348.63	3.512
349.00	2.508
349.36	3.530
349.72	4.491
350.08	4.052
350.45	4.068
350.81	3.981
351.17	3.728
351.53	2.457
351.89	2.723
352.26	3.867
352.62	4.170
352.98	3.485
353.34	3.944
353.70	2.209
354.07	3.790
354.43	3.333
354.79	2.896
355.15	3.990
355.51	4.876
355.87	4.163
356.24	3.257
356.60	3.528
356.96	2.816
357.32	3.434
357.68	3.465
358.04	3.405
358.40	3.325
358.77	3.599
359.13	3.078
359.49	3.294
359.85	2.460
360.21	2.791
360.57	4.047
360.93	3.231
361.29	3.628
361.66	2.864
362.02	3.582
362.38	3.194
362.74	3.051
363.10	3.405
363.46	2.641
363.82	3.326
364.18	3.744
364.54	3.938
364.90	4.178
365.26	3.309
365.62	3.506
365.98	2.703
366.35	3.295
366.71	3.760
367.07	3.569
367.43	3.266
367.79	4.069
368.15	3.807
368.51	1.599
368.87	3.926
369.23	2.487
369.59	2.969
369.95	2.794
370.31	4.487
370.67	2.899
371.03	3.970
371.39	3.499
371.75	3.382
372.11	3.414
372.47	3.959
372.83	3.170
373.19	3.107
373.55	2.513
373.91	4.050
374.27	3.574
374.63	3.200
374.99	3.531
375.35	2.722
375.71	2.536
376.07	3.909
376.42	2.613
376.78	4.042
377.14	3.189
377.50	3.974
377.86	2.926
378.22	2.845
378.58	2.694
378.94	2.891
379.30	2.608
379.66	3.046
380.02	3.071
380.38	1.821
380.74	2.941
381.09	3.362
381.45	2.827
381.81	3.501
382.17	3.439
382.53	2.956
382.89	2.716
383.25	2.752
383.61	2.974
383.97	3.189
384.32	2.932
384.68	2.478
385.04	3.319
385.40	2.724
385.76	2.457
386.12	2.915
386.48	3.335
386.83	2.373
387.19	2.845
387.55	3.340
387.91	2.600
388.27	2.330
388.62	3.442
388.98	2.396
389.34	3.504
389.70	2.575
390.06	3.359
390.42	2.853
390.77	3.244
391.13	2.616
391.49	2.982
391.85	2.610
392.20	2.271
392.56	2.778
392.92	2.707
393.28	2.012
393.64	2.758
393.99	2.566
394.35	2.730
394.71	2.635
395.07	2.866
395.42	2.596
395.78	2.926
396.14	2.731
396.50	3.446
396.85	3.179
397.21	2.651
397.57	2.914
397.92	3.185
398.28	1.850
398.64	3.106
399.00	2.966
399.35	2.538
399.71	2.778
400.07	2.898
400.42	2.945
400.78	3.257
401.14	2.195
401.49	2.925
401.85	2.541
402.21	2.575
402.57	2.961
402.92	2.585
403.28	2.811
403.63	2.970
403.99	2.229
404.35	2.848
404.70	2.158
405.06	1.864
405.42	2.121
405.77	2.629
406.13	3.104
406.49	2.720
406.84	3.367
407.20	1.950
407.55	2.361
407.91	2.667
408.27	1.723
408.62	2.890
408.98	2.574
409.34	2.768
409.69	2.323
410.05	2.478
410.40	2.813
410.76	2.748
411.11	3.076
411.47	2.684
411.83	2.871
412.18	1.979
412.54	2.428
412.89	3.554
413.25	3.070
413.60	2.285
413.96	2.125
414.31	2.369
414.67	2.978
415.03	2.252
415.38	2.706
415.74	2.379
416.09	3.135
416.45	1.740
416.80	2.710
417.16	3.217
417.51	2.721
417.87	2.441
418.22	2.839
418.58	2.905
418.93	3.133
419.29	2.801
419.64	2.771
420.00	2.988
420.35	3.130
420.71	3.168
421.06	2.745
421.42	2.398
421.77	2.635
422.12	1.741
422.48	2.051
422.83	2.388
423.19	2.652
423.54	2.438
423.90	2.551
424.25	2.680
424.61	1.905
424.96	2.566
425.31	2.990
425.67	2.303
426.02	2.686
426.38	2.320
426.73	3.101
427.09	2.249
427.44	2.185
427.79	2.358
428.15	3.631
428.50	2.867
428.85	2.920
429.21	2.154
429.56	1.763
429.92	2.516
430.27	1.639
430.62	1.895
430.98	2.854
431.33	2.784
431.68	2.461
432.04	2.343
432.39	2.113
432.74	1.975
433.10	1.981
433.45	2.974
433.80	2.494
434.16	2.618
434.51	3.000
434.86	2.737
435.22	2.112
435.57	2.249
435.92	2.106
436.28	2.610
436.63	3.201
436.98	2.175
437.34	2.922
437.69	2.625
438.04	2.698
438.39	2.448
438.75	2.905
439.10	2.737
439.45	2.361
439.81	1.994
440.16	2.484
440.51	2.226
440.86	2.432
441.22	2.336
441.57	2.176
441.92	2.815
442.27	2.530
442.63	2.212
442.98	3.042
443.33	2.717
443.68	2.788
444.03	2.147
444.39	1.558
444.74	2.056
445.09	2.534
445.44	1.914
445.79	2.474
446.15	3.070
446.50	2.369
446.85	2.518
447.20	2.142
447.55	2.178
447.91	1.765
448.26	2.615
448.61	2.261
448.96	2.769
449.31	2.587
449.66	2.645
450.02	1.838
450.37	2.324
450.72	1.918
451.07	1.523
451.42	2.067
451.77	2.642
452.12	2.714
452.47	2.114
452.83	2.273
453.18	2.139
453.53	2.474
453.88	1.654
454.23	2.630
454.58	3.150
454.93	3.369
455.28	1.559
455.63	2.609
455.98	2.976
456.34	2.324
456.69	3.006
457.04	2.291
457.39	2.046
457.74	2.438
458.09	2.760
458.44	2.223
458.79	2.223
459.14	2.652
459.49	2.510
459.84	2.327
460.19	2.593
460.54	2.720
460.89	2.743
461.24	2.247
461.59	3.486
461.94	1.850
462.29	3.145
462.64	2.361
462.99	2.017
463.34	3.067
463.69	2.502
464.04	2.435
464.39	2.783
464.74	3.209
465.09	2.835
465.44	2.105
465.79	2.125
466.14	2.518
466.49	2.058
466.84	2.452
467.19	2.535
467.54	2.938
467.89	1.801
468.24	3.025
468.59	3.053
468.94	2.749
469.29	2.442
469.64	3.949
469.99	2.774
470.34	2.378
470.68	2.514
471.03	2.245
471.38	2.571
471.73	3.398
472.08	2.961
472.43	2.575
472.78	2.436
473.13	3.273
473.48	2.559
473.83	2.622
474.17	2.302
474.52	2.916
474.87	3.094
475.22	2.844
475.57	2.149
475.92	2.177
476.27	1.860
476.61	2.648
476.96	1.979
477.31	1.779
477.66	2.133
478.01	2.509
478.36	2.327
478.70	1.973
479.05	2.343
479.40	1.689
479.75	1.779
480.10	2.137
480.45	2.380
480.79	1.863
481.14	1.957
481.49	2.373
481.84	1.738
482.19	1.863
482.53	2.339
482.88	2.420
483.23	2.150
483.58	2.639
483.92	2.484
484.27	1.743
484.62	1.983
484.97	2.128
485.31	1.918
485.66	0.983
486.01	0.976
486.36	0.918
486.70	1.116
487.05	1.083
487.40	1.328
487.75	1.232
488.09	1.668
488.44	1.501
488.79	1.664
489.13	1.719
489.48	1.672
489.83	2.201
490.17	1.885
490.52	1.904
490.87	1.900
491.22	2.092
491.56	1.595
491.91	2.001
492.26	1.791
492.60	2.166
492.95	1.450
493.30	2.056
493.64	1.913
493.99	1.811
494.34	1.850
494.68	2.518
495.03	2.256
495.37	2.094
495.72	1.754
496.07	2.088
496.41	1.416
496.76	1.847
497.11	2.071
497.45	1.863
497.80	2.495
498.14	1.643
498.49	1.463
498.84	2.157
499.18	1.905
499.53	2.422
499.87	1.678
500.22	2.261
500.56	2.427
500.91	1.683
501.26	1.991
501.60	1.946
501.95	1.558
502.29	2.109
502.64	2.142
502.98	2.338
503.33	1.874
503.67	1.810
504.02	1.777
504.36	2.153
504.71	2.003
505.06	2.217
505.40	1.847
505.75	1.495
506.09	2.041
506.44	1.727
506.78	1.802
507.13	2.171
507.47	2.525
507.82	2.229
508.16	2.736
508.51	1.826
508.85	1.787
509.19	2.143
509.54	2.245
509.88	2.009
510.23	1.902
510.57	2.477
510.92	2.952
511.26	2.158
511.61	2.593
511.95	1.775
512.30	1.644
512.64	1.988
512.98	2.358
513.33	2.677
513.67	2.775
514.02	1.353
514.36	2.185
514.70	2.656
515.05	1.562
515.39	2.243
515.74	2.083
516.08	3.298
516.42	2.386
516.77	3.400
517.11	1.942
517.46	2.483
517.80	2.439
518.14	1.737
518.49	2.392
518.83	2.898
519.17	2.309
519.52	1.868
519.86	3.195
520.20	2.948
520.55	2.873
520.89	2.190
521.23	3.860
521.58	2.041
521.92	2.939
522.26	2.135
522.61	2.243
522.95	1.903
523.29	2.009
523.64	2.500
523.98	2.834
524.32	1.749
524.66	2.465
525.01	2.819
525.35	2.292
525.69	2.340
526.04	2.305
526.38	2.624
526.72	3.374
527.06	2.888
527.41	1.733
527.75	2.379
528.09	1.220
528.43	2.167
528.78	2.581
529.12	2.424
529.46	2.633
529.80	3.280
530.15	3.427
530.49	3.015
530.83	2.468
531.17	3.003
531.51	3.632
531.86	2.000
532.20	2.868
532.54	3.395
532.88	2.824
533.22	2.936
533.57	2.346
533.91	2.709
534.25	2.734
534.59	2.685
534.93	2.736
535.27	2.173
535.62	2.747
535.96	2.260
536.30	2.034
536.64	2.962
536.98	2.787
537.32	2.567
537.66	2.600
538.01	3.489
538.35	2.715
538.69	3.255
539.03	1.884
539.37	2.045
539.71	1.167
540.05	2.614
540.39	2.060
540.73	2.846
541.07	3.374
541.42	3.066
541.76	3.548
542.10	3.428
542.44	3.046
542.78	2.964
543.12	2.623
543.46	4.066
543.80	3.318
544.14	2.439
544.48	3.111
544.82	3.143
545.16	2.147
545.50	2.828
545.84	2.957
546.18	3.636
546.52	2.684
546.86	3.299
547.20	3.237
547.54	3.273
547.88	3.635
548.22	2.989
548.56	2.893
548.90	3.137
549.24	1.751
549.58	3.070
549.92	3.091
550.26	2.628
550.60	2.974
550.94	2.817
551.28	1.756
551.62	2.301
551.96	2.246
552.30	3.140
552.64	3.245
552.98	3.390
553.32	2.967
553.66	3.476
554.00	2.196
554.34	2.761
554.68	3.433
555.02	2.609
555.36	3.062
555.69	2.977
556.03	3.432
556.37	2.797
556.71	2.251
557.05	2.591
557.39	3.009
557.73	2.541
558.07	2.756
558.41	2.243
558.75	2.939
559.08	2.759
559.42	2.494
559.76	3.309
560.10	2.784
560.44	2.725
560.78	2.794
561.12	2.177
561.45	3.259
561.79	3.098
562.13	2.549
562.47	2.391
562.81	3.138
563.15	2.676
563.48	2.520
563.82	2.218
564.16	1.831
564.50	2.018
564.84	2.528
565.17	2.896
565.51	2.748
565.85	2.982
566.19	2.004
566.52	2.470
566.86	2.230
567.20	2.300
567.54	2.340
567.88	2.390
568.21	2.751
568.55	2.022
568.89	1.800
569.23	1.738
569.56	1.903
569.90	1.736
570.24	1.615
570.57	1.360
570.91	1.681
571.25	1.482
571.59	1.473
571.92	1.440
572.26	1.271
572.60	1.441
572.93	1.529
573.27	1.597
573.61	1.535
573.95	1.499
574.28	1.055
574.62	1.045
574.96	1.171
575.29	1.164
575.63	1.296
575.97	1.120
576.30	1.699
576.64	1.036
576.98	1.045
577.31	0.786
577.65	1.107
577.98	1.045
578.32	1.132
578.66	1.237
578.99	1.301
579.33	1.017
579.67	1.046
580.00	1.199
580.34	1.187
580.67	1.276
581.01	1.349
581.35	0.961
581.68	1.041
582.02	0.822
582.35	0.814
582.69	1.175
583.02	1.067
583.36	1.153
583.70	1.199
584.03	1.176
584.37	1.423
584.70	0.967
585.04	1.370
585.37	1.514
585.71	1.457
586.04	0.991
586.38	1.019
586.72	1.657
587.05	1.385
587.39	0.976
587.72	1.443
588.06	1.067
588.39	1.454
588.73	1.291
589.06	1.683
589.40	1.616
589.73	1.478
590.07	1.993
590.40	1.388
590.73	1.522
591.07	1.587
591.40	1.603
591.74	2.251
592.07	1.832
592.41	2.067
592.74	1.798
593.08	1.699
593.41	1.455
593.75	1.593
594.08	1.374
594.41	1.661
594.75	1.331
595.08	1.539
595.42	1.506
595.75	1.353
596.09	2.028
596.42	2.200
596.75	2.068
597.09	2.381
597.42	1.349
597.75	1.897
598.09	2.348
598.42	2.019
598.76	1.662
599.09	1.520
599.42	1.492
599.76	1.611
600.09	1.676
600.42	1.753
600.76	1.821
601.09	1.384
601.42	1.750
601.76	1.594
602.09	1.660
602.42	1.951
602.76	2.539
603.09	1.810
603.42	1.718
603.76	1.372
604.09	1.124
604.42	1.753
604.76	2.573
605.09	1.573
605.42	2.180
605.75	1.863
606.09	1.383
606.42	1.635
606.75	1.991
607.09	2.470
607.42	1.455
607.75	1.688
608.08	1.607
608.42	2.107
608.75	2.029
609.08	1.850
609.41	2.523
609.75	2.382
610.08	2.215
610.41	1.164
610.74	1.561
611.07	2.322
611.41	2.208
611.74	2.665
612.07	2.847
612.40	2.676
612.73	2.474
613.07	2.155
613.40	2.580
613.73	1.468
614.06	3.011
614.39	2.674
614.72	2.737
615.06	2.468
615.39	2.282
615.72	2.454
616.05	2.180
616.38	2.057
616.71	2.613
617.05	2.591
617.38	2.405
617.71	1.862
618.04	2.043
618.37	2.425
618.70	2.987
619.03	3.684
619.36	2.580
619.69	3.380
620.03	2.953
620.36	3.008
620.69	3.493
621.02	2.286
621.35	2.584
621.68	2.882
622.01	2.941
622.34	3.555
622.67	2.814
623.00	3.008
623.33	2.573
623.66	2.788
623.99	2.872
624.32	2.710
624.65	3.037
624.99	2.266
625.32	2.172
625.65	2.479
625.98	2.844
626.31	3.344
626.64	3.837
626.97	3.824
627.30	1.912
627.63	3.199
627.96	3.616
628.29	2.975
628.62	3.568
628.95	5.000
629.28	3.102
629.61	5.316
629.94	3.619
630.26	3.432
630.59	3.908
630.92	2.490
631.25	2.962
631.58	4.204
631.91	4.462
632.24	3.376
632.57	3.673
632.90	4.934
633.23	3.579
633.56	4.068
633.89	3.511
634.22	3.292
634.55	4.734
634.88	4.311
635.20	5.615
635.53	5.904
635.86	3.837
636.19	3.882
636.52	5.075
636.85	4.009
637.18	3.917
637.51	5.674
637.83	1.356
638.16	3.708
638.49	5.542
638.82	5.563
639.15	4.500
639.48	3.990
639.81	4.424
640.13	4.948
640.46	5.503
640.79	5.020
641.12	4.677
641.45	4.469
641.77	4.860
642.10	5.409
642.43	3.754
642.76	5.108
643.09	4.294
643.41	4.856
643.74	6.636
644.07	5.640
644.40	6.748
644.73	7.402
645.05	7.132
645.38	3.476
645.71	4.831
646.04	5.482
646.36	7.012
646.69	7.023
647.02	5.612
647.35	5.842
647.67	4.779
648.00	6.829
648.33	3.465
648.66	5.152
648.98	7.646
649.31	4.185
649.64	4.335
649.96	5.514
650.29	5.213
650.62	5.340
650.94	5.511
651.27	7.095
651.60	5.824
651.92	8.147
652.25	5.863
652.58	5.452
652.90	5.371
653.23	4.006
653.56	4.724
653.88	6.973
654.21	7.267
654.54	4.290
654.86	5.607
655.19	4.865
655.52	2.092
655.84	0.851
656.17	0.637
656.49	0.798
656.82	0.823
657.15	0.797
657.47	0.577
657.80	0.577
658.13	0.593
658.45	0.779
658.78	0.922
659.10	1.480
659.43	1.566
659.75	2.233
660.08	2.089
660.41	3.724
660.73	5.210
661.06	4.140
661.38	6.182
661.71	7.692
662.03	8.284
662.36	5.964
662.68	9.237
663.01	10.303
663.33	7.643
663.66	5.672
663.98	7.127
664.31	6.303
664.63	4.656
664.96	4.427
665.28	7.582
665.61	7.602
665.93	5.231
666.26	5.274
666.58	5.230
666.91	8.879
667.23	7.640
667.56	6.695
667.88	8.547
668.21	8.955
668.53	6.508
668.86	7.792
669.18	10.874
669.50	8.043
669.83	10.022
670.15	6.667
670.48	5.664
670.80	7.543
671.13	6.157
671.45	6.809
671.77	8.147
672.10	7.763
672.42	6.360
672.75	7.131
673.07	4.930
673.39	3.074
673.72	3.516
674.04	7.451
674.37	5.631
674.69	6.544
675.01	6.276
675.34	9.240
675.66	7.579
675.98	7.332
676.31	7.143
676.63	6.582
676.95	6.918
677.28	5.841
677.60	5.055
677.92	9.916
678.25	8.830
678.57	7.570
678.89	5.812
679.22	8.644
679.54	6.107
679.86	6.606
680.18	7.513
680.51	5.496
680.83	6.762
681.15	6.038
681.48	6.616
681.80	6.770
682.12	4.789
682.44	4.836
682.77	6.925
683.09	8.798
683.41	5.543
683.73	6.623
684.06	9.091
684.38	7.241
684.70	9.109
685.02	7.692
685.34	4.762
685.67	5.070
685.99	5.326
686.31	4.608
686.63	4.594
686.96	5.000
687.28	5.596
687.60	5.072
687.92	7.130
688.24	7.414
688.56	6.426
688.89	7.054
689.21	8.297
689.53	7.307
689.85	8.647
690.17	7.039
690.49	10.403
690.82	8.411
691.14	5.134
691.46	5.907
691.78	7.229
692.10	8.884
692.42	9.581
692.74	6.224
693.06	7.872
693.39	8.830
693.71	5.022
694.03	6.105
694.35	8.442
694.67	8.009
694.99	8.293
695.31	4.902
695.63	8.612
695.95	9.046
696.27	5.584
696.59	8.290
696.91	8.549
697.23	5.164
697.56	8.955
697.88	5.930
698.20	5.625
698.52	8.172
698.84	8.463
699.16	6.912
699.48	7.601
699.80	7.729
700.12	13.766
700.44	9.814
700.76	6.906
701.08	8.046
701.40	8.939
701.72	10.787
702.04	13.920
702.36	7.365
702.68	9.632
703.00	6.094
703.32	10.106
703.64	8.311
703.96	8.357
704.28	9.012
704.60	9.971
704.91	11.276
705.23	10.264
705.55	11.296
705.87	12.292
706.19	9.541
706.51	7.477
706.83	13.333
707.15	9.804
707.47	8.081
707.79	10.565
708.11	9.817
708.43	7.381
708.74	8.418
709.06	10.390
709.38	12.336
709.70	8.430
710.02	11.869
710.34	9.394
710.66	9.552
710.98	10.795
711.29	9.593
711.61	13.569
711.93	8.974
712.25	14.148
712.57	9.559
712.89	12.111
713.20	11.854
713.52	11.184
713.84	10.127
714.16	11.585
714.48	10.057
714.80	11.550
715.11	8.646
715.43	8.309
715.75	8.116
716.07	12.780
716.39	10.345
716.70	12.957
717.02	10.432
717.34	12.367
717.66	12.687
717.97	16.733
718.29	11.852
718.61	12.044
718.93	15.074
719.24	11.073
719.56	12.881
719.88	11.525
720.20	13.514
720.51	14.634
720.83	13.011
721.15	13.060
721.46	12.057
721.78	13.978
722.10	13.585
722.42	17.293
722.73	11.985
723.05	8.607
723.37	11.741
723.68	11.969
724.00	10.163
724.32	13.306
724.63	13.415
724.95	15.063
725.27	12.551
725.58	14.063
725.90	13.869
726.22	12.830
726.53	13.542
726.85	12.628
727.16	13.879
727.48	15.603
727.80	14.015
728.11	13.406
728.43	10.385
728.74	12.903
729.06	16.788
729.38	11.397
729.69	15.658
730.01	10.580
730.32	12.153
730.64	14.716
730.96	7.591
731.27	14.238
731.59	10.703
731.90	12.828
732.22	9.938
732.53	8.359
732.85	12.821
733.16	10.611
733.48	8.970
733.80	11.364
734.11	13.057
734.43	12.130
734.74	7.714
735.06	7.450
735.37	11.850
735.69	8.917
736.00	10.784
736.32	14.330
736.63	8.626
736.95	12.780
737.26	5.782
737.58	9.677
737.89	11.706
738.21	10.580
738.52	10.714
738.83	10.943
739.15	12.692
739.46	13.139
739.78	11.111
740.09	11.385
740.41	13.548
740.72	7.317
741.04	12.593
741.35	12.083
741.66	18.222
741.98	9.434
742.29	16.268
742.61	18.534
742.92	11.312
743.23	11.966
743.55	13.600
743.86	11.842
744.18	17.699
744.49	15.311
744.80	17.371
745.12	20.455
745.43	14.978
745.74	18.468
746.06	16.055
746.37	17.040
746.68	15.385
747.00	17.130
747.31	15.714
747.62	15.929
747.94	14.097
748.25	10.638
748.56	18.062
748.88	14.356
749.19	17.000
749.50	9.302
749.82	12.195
750.13	13.469
750.44	9.124
750.75	12.982
751.07	12.540
751.38	12.195
751.69	12.274
752.01	12.782
752.32	10.830
752.63	15.957
752.94	11.885
753.26	16.400
753.57	12.195
753.88	16.406
754.19	13.929
754.51	18.403
754.82	10.108
755.13	15.472
755.44	13.910
755.75	12.774
756.07	10.993
756.38	9.489
756.69	11.409
757.00	10.479
757.31	10.682
757.63	9.064
757.94	8.579
758.25	11.520
758.56	8.148
758.87	9.946
759.18	9.394
759.50	10.658
759.81	9.969
760.12	8.750
760.43	12.321
760.74	10.326
761.05	8.475
761.36	9.091
761.67	13.636
761.99	13.043
762.30	13.889
762.61	13.740
762.92	17.578
763.23	15.546
763.54	19.600
763.85	12.500
764.16	15.385
764.47	16.350
764.78	12.721
765.10	11.076
765.41	11.209
765.72	10.778
766.03	11.285
766.34	8.333
766.65	14.043
766.96	14.957
767.27	19.289
767.58	21.354
767.89	21.053
768.20	21.264
768.51	15.736
768.82	22.018
769.13	14.634
769.44	11.741
769.75	11.588
770.06	5.046
770.37	17.647
770.68	21.296
770.99	15.111
771.30	6.557
771.61	18.834
771.92	14.344
772.23	18.487
772.54	14.872
772.85	16.754
773.16	21.809
773.47	25.543
773.78	19.797
774.09	17.857
774.39	22.222
774.70	22.840
775.01	15.942
775.32	25.490
775.63	22.368
775.94	23.022
776.25	22.047
776.56	32.090
776.87	23.770
777.18	32.031
777.48	31.298
777.79	21.212
778.10	20.741
778.41	27.679
778.72	25.547
779.03	24.161
779.34	21.477
779.65	13.514
779.95	19.018
780.26	21.569
780.57	26.897
780.88	30.469
781.19	27.820
781.50	25.676
781.80	23.270
782.11	19.209
782.42	24.684
782.73	21.472
783.04	20.946
783.34	21.127
783.65	28.767
783.96	29.104
784.27	21.678
784.57	23.022
784.88	23.148
785.19	27.778
785.50	26.415
785.81	34.328
786.11	29.508
786.42	31.783
786.73	28.319
787.04	35.849
787.34	38.393
787.65	35.000
787.96	35.135
788.26	23.967
788.57	33.898
788.88	32.231
789.19	29.167
789.49	34.848
789.80	28.244
790.11	41.905
790.41	29.703
790.72	19.277
791.03	34.783
791.33	30.233
791.64	38.144
791.95	46.535
792.25	43.333
792.56	32.468
792.87	48.718
793.17	45.570
793.48	57.471
793.79	44.828
794.09	34.091
794.40	25.210
794.70	36.029
795.01	24.444
795.32	23.022
795.62	28.346
795.93	27.586
796.23	30.088
796.54	32.941
796.85	39.189
797.15	61.972
797.46	42.424
797.76	49.398
798.07	36.709
798.37	30.769
798.68	39.394
798.99	30.986
799.29	53.247
799.60	44.318
799.90	49.315
800.21	50.746
800.51	48.276
800.82	68.421
801.12	54.098
801.43	51.515
801.73	39.189
802.04	61.905
802.34	43.210
802.65	39.063
802.95	55.932
803.26	54.688
803.56	38.571
803.87	40.000
804.17	42.647
804.48	79.630
804.78	50.000
805.09	51.471
805.39	40.385
805.70	62.500
806.00	57.377
806.30	50.000
806.61	42.683
806.91	31.646
807.22	46.053
807.52	31.343
807.83	49.296
808.13	50.000
808.43	43.333
808.74	34.211
809.04	46.377
809.35	58.209
809.65	59.211
809.95	62.903
810.26	47.458
810.56	58.730
810.86	79.545
811.17	80.952
811.47	80.000
811.77	70.370
812.08	56.364
812.38	84.000
812.69	100.000
812.99	84.091
813.29	85.714
813.59	28.571
813.90	100.000
814.20	65.455
814.50	58.462
814.81	60.294
815.11	75.510
815.41	55.738
815.72	76.190
816.02	80.000
816.32	78.571
816.62	80.000
816.93	90.244
817.23	88.095
817.53	86.364
817.84	93.939
818.14	63.043
818.44	75.556
818.74	114.706
819.04	67.500
819.35	91.429
819.65	105.882
819.95	125.000
820.25	130.000
820.56	97.436
820.86	95.455
821.16	109.302
821.46	89.744
821.76	88.000
822.07	102.857
822.37	102.500
822.67	115.152
822.97	86.275
823.27	128.571
823.57	110.811
823.88	97.500
824.18	110.000
824.48	92.857
824.78	160.000
825.08	112.500
825.38	135.135
825.69	102.439
825.99	141.667
826.29	113.793
826.59	105.263
826.89	84.211
827.19	117.647
827.49	90.323
827.79	95.455
828.09	86.364
828.39	85.106
828.70	69.388
829.00	100.000
829.30	112.903
829.60	100.000
829.90	180.000
830.20	135.714
830.50	73.913
830.80	121.739
831.10	150.000
831.40	100.000
831.70	121.739
832.00	176.923
832.30	77.778
832.60	162.500
832.90	130.000
833.20	257.143
833.50	116.129
833.80	103.448
834.10	150.000
834.40	165.385
834.70	194.444
835.00	209.524
835.30	114.286
835.60	223.077
835.90	134.483
836.20	264.286
836.50	141.379
836.80	124.000
837.10	102.778
837.40	128.571
837.70	188.235
838.00	137.037
838.30	138.095
838.60	209.524
838.90	207.692
839.19	160.000
839.49	271.429
839.79	260.000
840.09	170.000
840.39	161.905
840.69	169.565
840.99	188.889
841.29	190.000
841.59	183.333
841.88	256.250
842.18	131.034
842.48	176.190
842.78	140.000
843.08	165.217
843.38	140.625
843.68	566.667
843.97	184.615
844.27	127.586
844.57	209.524
844.87	250.000
845.17	162.963
845.47	900.000
845.76	244.444
846.06	182.353
846.36	425.000
846.66	242.857
846.96	243.750
847.25	263.636
847.55	318.182
847.85	134.783
848.15	350.000
848.44	242.857
848.74	161.111
849.04	235.294
849.34	280.000
849.63	110.526
849.93	290.909
850.23	600.000
850.53	314.286
850.82	1100.000
851.12	-3900.000
851.42	2500.000
851.71	165.000
852.01	-500.000
852.31	187.500
852.61	1300.000
852.90	171.429
853.20	180.000
853.50	247.059
853.79	152.381
854.09	120.833
854.39	237.500
854.68	116.216
854.98	151.613
855.28	130.000
855.57	168.966
855.87	129.630
856.17	152.632
856.46	53.333
856.76	152.941
857.05	103.448
857.35	108.333
857.65	206.667
857.94	156.522
858.24	173.077
858.53	195.000
858.83	209.091
859.13	253.333
859.42	0.000
859.72	288.889
860.01	318.182
860.31	190.909
860.60	215.789
860.90	160.870
861.20	366.667
861.49	316.667
861.79	-1700.000
862.08	375.000
862.38	190.476
862.67	192.308
862.97	223.529
863.26	355.556
863.56	222.222
863.85	191.667
864.15	387.500
864.44	260.000
864.74	616.667
865.03	500.000
865.33	194.737
865.62	263.636
865.92	300.000
866.21	225.000
866.51	0.000
866.80	390.909
867.10	660.000
867.39	392.308
867.69	363.636
867.98	252.632
868.27	281.818
868.57	247.368
868.86	-3000.000
869.16	275.000
869.45	1500.000
869.75	-2700.000
870.04	275.000
870.33	600.000
870.63	675.000
870.92	1950.000
871.22	571.429
871.51	258.824
871.80	128.571
872.10	292.857
>>>>>End Processed Spectral Data<<<<<
