SpectraSuite Data File
++++++++++++++++++++++++++++++++++++
Date: Wed May 13 20:48:29 PDT 2015
User: schluterlab
Dark Spectrum Present: Yes
Reference Spectrum Present: Yes
Number of Sampled Component Spectra: 1
Spectrometers: USB2E3373
Integration Time (usec): 3000 (USB2E3373)
Spectra Averaged: 3 (USB2E3373)
Boxcar Smoothing: 0 (USB2E3373)
Correct for Electrical Dark: No (USB2E3373)
Strobe/Lamp Enabled: No (USB2E3373)
Correct for Detector Non-linearity: No (USB2E3373)
Correct for Stray Light: No (USB2E3373)
Number of Pixels in Processed Spectrum: 2048
>>>>>Begin Processed Spectral Data<<<<<
178.53	0.000
178.91	-775.000
179.29	-825.000
179.67	-116.667
180.04	-825.000
180.42	1700.000
180.80	560.000
181.18	-475.000
181.56	428.571
181.94	0.000
182.31	-371.429
182.69	833.333
183.07	-325.000
183.45	-200.000
183.83	400.000
184.20	-260.000
184.58	1350.000
184.96	2700.000
185.34	-360.000
185.72	-350.000
186.09	-800.000
186.47	1450.000
186.85	1050.000
187.23	3100.000
187.61	-1166.667
187.98	750.000
188.36	345.455
188.74	254.545
189.12	-580.000
189.49	340.000
189.87	-2400.000
190.25	-450.000
190.63	221.429
191.00	192.308
191.38	550.000
191.76	-800.000
192.14	700.000
192.51	387.500
192.89	516.667
193.27	250.000
193.65	-400.000
194.02	260.000
194.40	320.000
194.78	300.000
195.15	341.667
195.53	390.000
195.91	-1300.000
196.29	225.000
196.66	178.947
197.04	-150.000
197.42	0.000
197.79	390.000
198.17	-2700.000
198.55	400.000
198.92	287.500
199.30	420.000
199.68	0.000
200.05	250.000
200.43	371.429
200.81	1800.000
201.18	900.000
201.56	-766.667
201.94	266.667
202.31	311.111
202.69	291.667
203.07	310.000
203.44	0.000
203.82	800.000
204.19	428.571
204.57	242.857
204.95	387.500
205.32	800.000
205.70	336.364
206.08	200.000
206.45	1350.000
206.83	168.750
207.20	450.000
207.58	360.000
207.96	183.333
208.33	575.000
208.71	-300.000
209.08	328.571
209.46	355.556
209.84	236.364
210.21	-633.333
210.59	825.000
210.96	-212.500
211.34	1100.000
211.71	440.000
212.09	266.667
212.46	0.000
212.84	966.667
213.22	875.000
213.59	-2800.000
213.97	650.000
214.34	557.143
214.72	327.273
215.09	460.000
215.47	-1000.000
215.84	-1300.000
216.22	766.667
216.59	242.857
216.97	650.000
217.34	200.000
217.72	-400.000
218.09	0.000
218.47	-1800.000
218.84	433.333
219.22	457.143
219.59	833.333
219.97	-285.714
220.34	400.000
220.72	-800.000
221.09	221.429
221.47	825.000
221.84	-500.000
222.22	0.000
222.59	900.000
222.97	-1100.000
223.34	620.000
223.72	230.769
224.09	580.000
224.46	1050.000
224.84	-1600.000
225.21	-640.000
225.59	-2400.000
225.96	290.000
226.34	195.000
226.71	1300.000
227.08	325.000
227.46	320.000
227.83	-700.000
228.21	-800.000
228.58	400.000
228.95	-850.000
229.33	-750.000
229.70	766.667
230.08	457.143
230.45	-280.000
230.82	241.667
231.20	383.333
231.57	200.000
231.95	308.333
232.32	150.000
232.69	290.909
233.07	400.000
233.44	161.538
233.81	-966.667
234.19	115.789
234.56	191.667
234.93	191.667
235.31	163.636
235.68	200.000
236.05	185.714
236.43	106.061
236.80	126.316
237.17	1500.000
237.55	100.000
237.92	132.143
238.29	114.286
238.67	96.774
239.04	134.483
239.41	105.556
239.79	63.043
240.16	83.333
240.53	88.636
240.91	68.627
241.28	70.000
241.65	64.000
242.02	68.116
242.40	62.903
242.77	63.333
243.14	59.140
243.51	47.191
243.89	45.882
244.26	36.667
244.63	54.839
245.00	48.936
245.38	47.525
245.75	49.533
246.12	44.954
246.49	53.285
246.87	44.800
247.24	50.769
247.61	40.714
247.98	41.830
248.36	32.432
248.73	33.758
249.10	43.949
249.47	37.853
249.84	38.503
250.22	37.968
250.59	32.544
250.96	42.424
251.33	36.967
251.70	40.099
252.08	39.524
252.45	36.323
252.82	36.522
253.19	40.851
253.56	34.510
253.94	39.834
254.31	36.328
254.68	36.923
255.05	31.734
255.42	30.894
255.79	33.824
256.16	38.989
256.54	31.449
256.91	34.875
257.28	30.935
257.65	30.693
258.02	35.404
258.39	32.492
258.76	34.448
259.14	31.548
259.51	33.131
259.88	31.056
260.25	31.722
260.62	30.347
260.99	34.472
261.36	30.330
261.73	30.372
262.10	30.814
262.47	34.085
262.85	28.412
263.22	26.211
263.59	32.479
263.96	29.121
264.33	31.854
264.70	29.737
265.07	32.992
265.44	28.535
265.81	28.467
266.18	30.653
266.55	29.756
266.92	31.450
267.29	31.019
267.66	27.982
268.03	27.500
268.40	29.907
268.77	30.310
269.14	27.703
269.51	31.603
269.88	29.138
270.25	28.894
270.62	29.663
270.99	30.753
271.36	29.185
271.73	28.037
272.10	28.043
272.47	29.892
272.84	29.870
273.21	28.092
273.58	29.258
273.95	25.577
274.32	28.099
274.69	31.692
275.06	26.969
275.43	25.106
275.80	28.257
276.17	27.291
276.54	27.443
276.91	27.866
277.28	27.734
277.65	27.273
278.02	27.950
278.39	29.102
278.76	26.909
279.13	28.302
279.50	27.374
279.87	26.693
280.23	28.743
280.60	27.853
280.97	26.248
281.34	28.142
281.71	28.909
282.08	29.175
282.45	25.273
282.82	27.709
283.19	25.312
283.56	27.895
283.92	27.750
284.29	27.866
284.66	25.953
285.03	25.859
285.40	26.585
285.77	27.273
286.14	25.389
286.51	27.167
286.87	26.667
287.24	27.362
287.61	24.880
287.98	26.786
288.35	25.674
288.72	24.455
289.08	24.726
289.45	26.359
289.82	24.390
290.19	26.217
290.56	23.737
290.93	22.054
291.29	25.307
291.66	22.419
292.03	26.163
292.40	24.376
292.77	22.929
293.13	23.284
293.50	22.595
293.87	22.222
294.24	22.815
294.60	22.416
294.97	21.802
295.34	24.401
295.71	22.869
296.08	22.934
296.44	22.146
296.81	22.061
297.18	22.493
297.55	20.712
297.91	20.053
298.28	21.954
298.65	21.410
299.02	21.607
299.38	20.983
299.75	19.137
300.12	21.328
300.48	22.125
300.85	20.345
301.22	20.892
301.59	19.444
301.95	20.151
302.32	20.411
302.69	20.550
303.05	19.879
303.42	19.259
303.79	19.819
304.15	19.231
304.52	19.119
304.89	18.699
305.25	18.561
305.62	19.932
305.99	21.133
306.35	19.128
306.72	19.731
307.09	19.978
307.45	19.932
307.82	17.299
308.19	17.881
308.55	19.741
308.92	19.871
309.29	17.635
309.65	19.830
310.02	19.873
310.38	18.172
310.75	18.691
311.12	19.754
311.48	19.227
311.85	19.706
312.22	20.291
312.58	18.295
312.95	19.113
313.31	17.184
313.68	19.854
314.05	20.611
314.41	18.291
314.78	19.839
315.14	18.868
315.51	19.670
315.87	20.990
316.24	18.669
316.61	19.786
316.97	18.885
317.34	19.080
317.70	19.407
318.07	21.078
318.43	20.450
318.80	20.993
319.16	20.621
319.53	19.887
319.89	20.667
320.26	20.900
320.62	21.131
320.99	20.303
321.35	20.303
321.72	22.485
322.08	21.915
322.45	21.891
322.81	22.771
323.18	22.447
323.54	20.872
323.91	21.226
324.27	22.467
324.64	21.808
325.00	21.190
325.37	22.566
325.73	22.890
326.10	22.860
326.46	22.760
326.83	23.727
327.19	22.801
327.56	22.300
327.92	23.185
328.29	22.981
328.65	24.309
329.01	24.097
329.38	23.219
329.74	22.345
330.11	22.903
330.47	23.967
330.84	23.346
331.20	23.315
331.56	24.495
331.93	22.870
332.29	24.401
332.66	25.044
333.02	23.492
333.38	25.384
333.75	23.886
334.11	22.776
334.48	23.425
334.84	23.989
335.20	24.091
335.57	23.028
335.93	22.143
336.29	23.626
336.66	24.076
337.02	23.529
337.38	24.537
337.75	23.084
338.11	23.098
338.47	23.941
338.84	25.390
339.20	22.294
339.56	25.182
339.93	22.818
340.29	24.275
340.65	24.153
341.02	23.386
341.38	23.754
341.74	22.807
342.11	24.891
342.47	23.348
342.83	24.058
343.20	24.329
343.56	22.915
343.92	23.421
344.28	23.469
344.65	24.678
345.01	23.485
345.37	21.612
345.73	24.112
346.10	23.785
346.46	22.881
346.82	24.053
347.19	22.807
347.55	23.727
347.91	23.706
348.27	24.651
348.63	22.910
349.00	22.816
349.36	23.317
349.72	22.694
350.08	22.690
350.45	22.376
350.81	22.421
351.17	22.690
351.53	23.014
351.89	22.607
352.26	23.204
352.62	23.817
352.98	22.690
353.34	23.911
353.70	23.404
354.07	23.306
354.43	22.619
354.79	22.767
355.15	22.027
355.51	24.380
355.87	24.000
356.24	23.941
356.60	21.973
356.96	23.492
357.32	22.240
357.68	23.543
358.04	23.040
358.40	22.090
358.77	23.161
359.13	22.415
359.49	22.588
359.85	20.952
360.21	22.169
360.57	23.813
360.93	23.231
361.29	22.600
361.66	21.904
362.02	23.209
362.38	22.357
362.74	22.098
363.10	23.390
363.46	21.864
363.82	21.995
364.18	23.568
364.54	22.808
364.90	23.371
365.26	24.118
365.62	23.740
365.98	23.083
366.35	21.777
366.71	22.777
367.07	22.651
367.43	23.149
367.79	23.840
368.15	23.348
368.51	21.366
368.87	23.769
369.23	22.531
369.59	23.316
369.95	23.235
370.31	22.650
370.67	22.246
371.03	23.071
371.39	22.595
371.75	22.279
372.11	22.688
372.47	23.974
372.83	23.271
373.19	21.532
373.55	22.764
373.91	23.564
374.27	23.230
374.63	22.327
374.99	23.588
375.35	21.982
375.71	23.167
376.07	22.154
376.42	23.865
376.78	22.399
377.14	23.406
377.50	22.185
377.86	22.806
378.22	23.009
378.58	21.742
378.94	21.810
379.30	22.137
379.66	22.525
380.02	22.850
380.38	21.919
380.74	23.289
381.09	23.227
381.45	22.741
381.81	22.973
382.17	22.739
382.53	22.767
382.89	22.284
383.25	22.014
383.61	22.305
383.97	21.764
384.32	22.208
384.68	21.933
385.04	22.372
385.40	22.539
385.76	22.543
386.12	21.373
386.48	22.593
386.83	22.450
387.19	22.882
387.55	21.892
387.91	22.733
388.27	21.766
388.62	22.680
388.98	22.420
389.34	22.090
389.70	22.256
390.06	21.483
390.42	21.984
390.77	21.947
391.13	21.634
391.49	21.764
391.85	21.260
392.20	21.262
392.56	21.528
392.92	21.954
393.28	20.828
393.64	22.362
393.99	22.602
394.35	21.836
394.71	21.957
395.07	21.121
395.42	22.311
395.78	22.519
396.14	22.284
396.50	22.180
396.85	22.378
397.21	20.838
397.57	21.327
397.92	22.656
398.28	20.964
398.64	22.043
399.00	21.824
399.35	21.715
399.71	21.875
400.07	22.590
400.42	22.393
400.78	22.075
401.14	21.524
401.49	23.224
401.85	21.476
402.21	20.719
402.57	20.728
402.92	21.942
403.28	21.924
403.63	20.978
403.99	20.382
404.35	21.515
404.70	21.343
405.06	21.607
405.42	21.896
405.77	21.086
406.13	21.219
406.49	21.289
406.84	21.500
407.20	20.508
407.55	21.378
407.91	20.800
408.27	21.059
408.62	20.831
408.98	21.201
409.34	21.833
409.69	21.871
410.05	20.818
410.40	20.795
410.76	21.147
411.11	21.894
411.47	21.022
411.83	21.442
412.18	20.346
412.54	21.731
412.89	21.566
413.25	21.192
413.60	21.371
413.96	20.461
414.31	21.689
414.67	21.356
415.03	20.795
415.38	21.907
415.74	21.350
416.09	21.685
416.45	21.151
416.80	21.943
417.16	21.850
417.51	21.898
417.87	21.002
418.22	22.082
418.58	21.433
418.93	21.007
419.29	21.069
419.64	22.355
420.00	20.366
420.35	21.391
420.71	21.399
421.06	21.062
421.42	21.228
421.77	21.020
422.12	20.438
422.48	20.507
422.83	20.443
423.19	20.331
423.54	20.313
423.90	20.986
424.25	20.547
424.61	21.012
424.96	20.700
425.31	20.709
425.67	20.169
426.02	20.971
426.38	21.123
426.73	20.772
427.09	20.426
427.44	20.817
427.79	20.989
428.15	21.310
428.50	20.948
428.85	21.275
429.21	20.431
429.56	20.425
429.92	20.332
430.27	20.357
430.62	20.533
430.98	20.083
431.33	20.876
431.68	21.257
432.04	20.554
432.39	20.217
432.74	20.826
433.10	20.883
433.45	20.991
433.80	20.455
434.16	20.620
434.51	20.474
434.86	21.950
435.22	20.901
435.57	20.608
435.92	20.246
436.28	21.234
436.63	20.971
436.98	20.836
437.34	20.871
437.69	21.062
438.04	21.360
438.39	21.015
438.75	21.092
439.10	20.726
439.45	20.779
439.81	20.967
440.16	20.102
440.51	21.324
440.86	21.482
441.22	19.967
441.57	21.072
441.92	21.034
442.27	20.344
442.63	20.748
442.98	21.296
443.33	20.652
443.68	20.134
444.03	21.181
444.39	19.864
444.74	20.076
445.09	19.946
445.44	20.066
445.79	20.930
446.15	20.911
446.50	20.732
446.85	20.504
447.20	20.245
447.55	21.441
447.91	20.243
448.26	20.256
448.61	20.577
448.96	21.096
449.31	20.810
449.66	20.146
450.02	20.446
450.37	20.295
450.72	19.741
451.07	19.988
451.42	19.635
451.77	20.435
452.12	20.612
452.47	19.963
452.83	21.096
453.18	20.355
453.53	20.656
453.88	20.319
454.23	21.040
454.58	21.078
454.93	21.805
455.28	19.514
455.63	20.934
455.98	21.964
456.34	20.540
456.69	20.539
457.04	21.115
457.39	20.807
457.74	20.371
458.09	20.932
458.44	21.095
458.79	20.336
459.14	21.050
459.49	20.841
459.84	20.499
460.19	21.037
460.54	20.486
460.89	20.241
461.24	20.644
461.59	21.964
461.94	21.332
462.29	21.068
462.64	21.123
462.99	21.210
463.34	21.467
463.69	21.764
464.04	21.739
464.39	21.159
464.74	20.380
465.09	20.869
465.44	20.499
465.79	19.966
466.14	20.854
466.49	20.467
466.84	20.607
467.19	21.424
467.54	21.750
467.89	21.309
468.24	21.059
468.59	22.405
468.94	21.136
469.29	22.815
469.64	21.553
469.99	22.057
470.34	21.202
470.68	21.983
471.03	21.156
471.38	21.751
471.73	22.052
472.08	22.303
472.43	21.734
472.78	21.264
473.13	21.694
473.48	21.598
473.83	21.402
474.17	21.344
474.52	21.774
474.87	22.650
475.22	21.532
475.57	21.010
475.92	22.039
476.27	21.308
476.61	21.291
476.96	21.165
477.31	21.298
477.66	21.225
478.01	21.485
478.36	21.311
478.70	20.561
479.05	21.140
479.40	21.136
479.75	20.641
480.10	21.670
480.45	20.324
480.79	20.497
481.14	20.939
481.49	22.069
481.84	21.262
482.19	21.763
482.53	21.284
482.88	21.173
483.23	21.916
483.58	21.838
483.92	21.462
484.27	19.913
484.62	21.121
484.97	20.300
485.31	20.103
485.66	18.928
486.01	18.644
486.36	18.579
486.70	19.473
487.05	19.847
487.40	19.842
487.75	19.825
488.09	19.685
488.44	20.047
488.79	20.289
489.13	20.741
489.48	20.595
489.83	21.234
490.17	21.306
490.52	21.479
490.87	21.212
491.22	21.646
491.56	21.002
491.91	20.707
492.26	21.314
492.60	21.152
492.95	20.206
493.30	21.121
493.64	21.465
493.99	20.845
494.34	21.508
494.68	21.429
495.03	21.758
495.37	21.591
495.72	21.491
496.07	21.578
496.41	20.177
496.76	21.020
497.11	20.846
497.45	21.798
497.80	21.401
498.14	21.063
498.49	21.610
498.84	21.620
499.18	22.429
499.53	21.747
499.87	21.249
500.22	21.573
500.56	22.087
500.91	21.538
501.26	21.432
501.60	22.591
501.95	21.173
502.29	22.071
502.64	21.927
502.98	21.739
503.33	21.298
503.67	21.903
504.02	21.703
504.36	22.274
504.71	22.130
505.06	22.120
505.40	22.265
505.75	21.745
506.09	22.012
506.44	22.743
506.78	22.796
507.13	22.211
507.47	22.576
507.82	23.050
508.16	22.746
508.51	22.425
508.85	22.393
509.19	22.959
509.54	22.500
509.88	22.463
510.23	22.416
510.57	23.323
510.92	22.268
511.26	22.867
511.61	22.925
511.95	22.286
512.30	22.534
512.64	23.321
512.98	23.258
513.33	24.036
513.67	22.892
514.02	23.377
514.36	23.648
514.70	23.409
515.05	23.815
515.39	23.948
515.74	22.973
516.08	24.651
516.42	24.251
516.77	24.359
517.11	23.474
517.46	25.056
517.80	25.377
518.14	23.798
518.49	24.854
518.83	24.205
519.17	24.134
519.52	25.014
519.86	24.872
520.20	25.087
520.55	25.853
520.89	25.669
521.23	25.573
521.58	25.210
521.92	25.475
522.26	25.137
522.61	25.171
522.95	25.537
523.29	25.320
523.64	25.549
523.98	25.755
524.32	26.357
524.66	26.097
525.01	26.471
525.35	27.014
525.69	25.985
526.04	25.358
526.38	26.113
526.72	25.215
527.06	26.428
527.41	24.072
527.75	25.916
528.09	26.654
528.43	26.131
528.78	26.613
529.12	25.394
529.46	25.291
529.80	26.485
530.15	26.791
530.49	25.292
530.83	26.203
531.17	27.219
531.51	27.367
531.86	27.032
532.20	27.314
532.54	27.226
532.88	26.444
533.22	26.296
533.57	26.667
533.91	25.888
534.25	26.124
534.59	25.808
534.93	26.056
535.27	26.192
535.62	26.496
535.96	25.989
536.30	27.082
536.64	25.757
536.98	26.476
537.32	25.477
537.66	25.867
538.01	26.596
538.35	26.568
538.69	26.548
539.03	26.056
539.37	25.112
539.71	25.146
540.05	26.601
540.39	25.781
540.73	25.938
541.07	27.190
541.42	26.093
541.76	27.355
542.10	27.490
542.44	27.219
542.78	26.680
543.12	25.400
543.46	26.623
543.80	27.261
544.14	26.187
544.48	25.778
544.82	25.529
545.16	25.764
545.50	25.835
545.84	26.210
546.18	26.195
546.52	26.359
546.86	25.704
547.20	26.703
547.54	25.585
547.88	27.041
548.22	26.214
548.56	26.101
548.90	25.992
549.24	25.859
549.58	27.149
549.92	26.923
550.26	28.480
550.60	25.864
550.94	26.690
551.28	26.847
551.62	27.103
551.96	26.386
552.30	27.713
552.64	27.383
552.98	27.390
553.32	26.703
553.66	26.926
554.00	26.356
554.34	25.673
554.68	26.896
555.02	26.516
555.36	25.609
555.69	25.507
556.03	26.851
556.37	26.057
556.71	25.512
557.05	27.171
557.39	25.962
557.73	26.182
558.07	27.194
558.41	26.194
558.75	26.084
559.08	27.144
559.42	27.362
559.76	28.015
560.10	26.410
560.44	26.205
560.78	25.017
561.12	25.594
561.45	25.945
561.79	25.972
562.13	26.358
562.47	25.888
562.81	26.987
563.15	24.883
563.48	26.127
563.82	24.592
564.16	25.572
564.50	24.414
564.84	25.790
565.17	25.869
565.51	26.134
565.85	25.381
566.19	24.859
566.52	25.712
566.86	25.678
567.20	26.061
567.54	25.228
567.88	23.954
568.21	25.450
568.55	24.469
568.89	24.514
569.23	23.529
569.56	23.360
569.90	23.057
570.24	23.000
570.57	23.087
570.91	21.978
571.25	22.699
571.59	22.239
571.92	22.379
572.26	22.039
572.60	22.252
572.93	21.949
573.27	22.419
573.61	22.501
573.95	21.912
574.28	21.658
574.62	21.550
574.96	21.123
575.29	21.799
575.63	21.519
575.97	21.843
576.30	21.880
576.64	21.329
576.98	21.050
577.31	21.095
577.65	21.303
577.98	21.351
578.32	20.691
578.66	21.509
578.99	21.525
579.33	21.569
579.67	20.871
580.00	21.338
580.34	21.452
580.67	21.484
581.01	21.408
581.35	20.618
581.68	20.941
582.02	20.675
582.35	21.139
582.69	20.675
583.02	21.113
583.36	20.959
583.70	21.553
584.03	20.768
584.37	21.318
584.70	21.395
585.04	20.964
585.37	21.132
585.71	21.546
586.04	21.672
586.38	21.604
586.72	21.845
587.05	21.380
587.39	21.187
587.72	21.077
588.06	21.478
588.39	21.591
588.73	21.531
589.06	21.689
589.40	22.054
589.73	21.577
590.07	22.384
590.40	21.739
590.73	22.756
591.07	23.158
591.40	22.902
591.74	22.771
592.07	22.949
592.41	22.902
592.74	22.210
593.08	21.885
593.41	21.860
593.75	21.643
594.08	21.321
594.41	22.446
594.75	21.922
595.08	21.618
595.42	21.471
595.75	22.080
596.09	21.968
596.42	22.593
596.75	22.161
597.09	23.074
597.42	21.669
597.75	22.941
598.09	22.783
598.42	21.692
598.76	21.362
599.09	21.133
599.42	21.252
599.76	21.413
600.09	21.311
600.42	21.329
600.76	21.893
601.09	21.785
601.42	21.842
601.76	21.746
602.09	22.016
602.42	22.572
602.76	22.007
603.09	21.282
603.42	21.906
603.76	21.265
604.09	21.598
604.42	21.810
604.76	22.606
605.09	22.324
605.42	22.232
605.75	22.351
606.09	21.879
606.42	22.599
606.75	21.692
607.09	22.227
607.42	21.866
607.75	21.857
608.08	21.667
608.42	22.501
608.75	21.776
609.08	21.600
609.41	21.371
609.75	22.582
610.08	22.620
610.41	22.253
610.74	22.422
611.07	22.283
611.41	23.013
611.74	23.077
612.07	23.240
612.40	23.557
612.73	22.684
613.07	23.437
613.40	23.065
613.73	22.234
614.06	22.581
614.39	23.230
614.72	23.000
615.06	23.424
615.39	22.399
615.72	22.188
616.05	22.648
616.38	22.846
616.71	22.922
617.05	22.850
617.38	23.812
617.71	23.604
618.04	23.377
618.37	22.708
618.70	23.398
619.03	23.882
619.36	24.508
619.69	23.803
620.03	23.832
620.36	24.198
620.69	24.247
621.02	24.336
621.35	24.354
621.68	23.364
622.01	24.381
622.34	24.433
622.67	23.954
623.00	23.478
623.33	23.517
623.66	24.160
623.99	24.521
624.32	23.110
624.65	23.799
624.99	23.938
625.32	24.185
625.65	24.192
625.98	24.058
626.31	24.495
626.64	25.143
626.97	24.771
627.30	25.187
627.63	25.431
627.96	24.558
628.29	26.072
628.62	25.252
628.95	27.075
629.28	26.095
629.61	27.039
629.94	27.714
630.26	24.881
630.59	26.787
630.92	25.192
631.25	25.173
631.58	26.226
631.91	25.254
632.24	27.004
632.57	26.128
632.90	28.180
633.23	27.964
633.56	28.023
633.89	27.520
634.22	28.831
634.55	27.811
634.88	28.144
635.20	29.032
635.53	27.470
635.86	28.218
636.19	27.765
636.52	28.258
636.85	27.491
637.18	27.189
637.51	28.369
637.83	24.538
638.16	27.749
638.49	26.826
638.82	28.571
639.15	28.375
639.48	28.429
639.81	27.346
640.13	27.734
640.46	28.591
640.79	28.269
641.12	26.960
641.45	29.190
641.77	30.191
642.10	28.216
642.43	28.228
642.76	27.709
643.09	29.908
643.41	27.466
643.74	30.710
644.07	29.116
644.40	29.601
644.73	29.134
645.05	29.319
645.38	30.332
645.71	29.630
646.04	29.568
646.36	31.219
646.69	27.258
647.02	29.082
647.35	28.694
647.67	29.912
648.00	29.431
648.33	28.713
648.66	28.788
648.98	28.036
649.31	28.401
649.64	30.493
649.96	26.677
650.29	26.382
650.62	27.346
650.94	29.498
651.27	30.068
651.60	27.621
651.92	29.872
652.25	28.502
652.58	27.726
652.90	27.488
653.23	28.968
653.56	27.559
653.88	28.685
654.21	27.962
654.54	28.548
654.86	28.349
655.19	27.703
655.52	20.442
655.84	18.040
656.17	22.213
656.49	29.427
656.82	29.537
657.15	22.049
657.47	16.302
657.80	12.401
658.13	12.589
658.45	18.465
658.78	19.174
659.10	18.525
659.43	18.754
659.75	19.473
660.08	20.759
660.41	23.557
660.73	26.175
661.06	26.752
661.38	29.091
661.71	29.038
662.03	28.994
662.36	28.032
662.68	29.920
663.01	31.111
663.33	31.210
663.66	31.513
663.98	30.454
664.31	30.462
664.63	30.769
664.96	29.779
665.28	29.713
665.61	29.435
665.93	29.577
666.26	30.020
666.58	30.335
666.91	32.558
667.23	33.483
667.56	31.533
667.88	28.419
668.21	32.836
668.53	32.538
668.86	28.788
669.18	31.130
669.50	30.652
669.83	32.898
670.15	31.333
670.48	27.669
670.80	30.819
671.13	31.423
671.45	27.660
671.77	29.328
672.10	29.390
672.42	27.915
672.75	27.695
673.07	26.937
673.39	27.848
673.72	26.953
674.04	29.020
674.37	28.932
674.69	30.470
675.01	29.916
675.34	31.417
675.66	32.211
675.98	31.772
676.31	31.303
676.63	29.512
676.95	31.866
677.28	31.542
677.60	30.989
677.92	31.224
678.25	29.569
678.57	32.072
678.89	28.056
679.22	26.523
679.54	30.534
679.86	29.725
680.18	26.655
680.51	28.546
680.83	27.046
681.15	28.491
681.48	30.057
681.80	29.014
682.12	27.969
682.44	28.046
682.77	28.513
683.09	30.901
683.41	30.377
683.73	28.477
684.06	32.025
684.38	27.202
684.70	27.132
685.02	30.769
685.34	27.106
685.67	26.224
685.99	25.601
686.31	26.280
686.63	25.265
686.96	26.786
687.28	27.978
687.60	26.630
687.92	28.154
688.24	29.087
688.56	29.317
688.89	31.328
689.21	32.533
689.53	29.228
689.85	27.938
690.17	29.814
690.49	27.176
690.82	33.178
691.14	27.232
691.46	29.536
691.78	28.313
692.10	29.339
692.42	30.539
692.74	28.008
693.06	28.723
693.39	30.390
693.71	30.786
694.03	27.579
694.35	28.571
694.67	28.146
694.99	29.024
695.31	28.922
695.63	27.512
695.95	27.384
696.27	27.919
696.59	31.606
696.91	30.311
697.23	27.700
697.56	31.983
697.88	26.176
698.20	26.042
698.52	28.817
698.84	30.512
699.16	26.728
699.48	27.791
699.80	30.193
700.12	33.506
700.44	31.830
700.76	31.215
701.08	31.322
701.40	31.844
701.72	32.945
702.04	36.080
702.36	32.861
702.68	32.011
703.00	27.701
703.32	28.989
703.64	31.635
703.96	30.919
704.28	29.360
704.60	31.378
704.91	31.454
705.23	30.205
705.55	31.894
705.87	36.213
706.19	31.095
706.51	34.268
706.83	34.848
707.15	33.333
707.47	29.545
707.79	31.450
708.11	30.594
708.43	28.333
708.74	27.551
709.06	30.649
709.38	30.446
709.70	31.395
710.02	31.751
710.34	31.515
710.66	34.925
710.98	31.534
711.29	30.814
711.61	32.448
711.93	30.449
712.25	36.334
712.57	33.824
712.89	33.910
713.20	33.739
713.52	30.921
713.84	27.848
714.16	30.488
714.48	32.184
714.80	34.650
715.11	29.683
715.43	31.157
715.75	32.754
716.07	31.629
716.39	34.169
716.70	34.551
717.02	32.734
717.34	30.389
717.66	34.701
717.97	39.044
718.29	34.444
718.61	33.942
718.93	33.088
719.24	35.294
719.56	31.864
719.88	33.898
720.20	33.108
720.51	36.934
720.83	34.201
721.15	29.478
721.46	31.915
721.78	33.333
722.10	32.075
722.42	32.331
722.73	37.453
723.05	28.279
723.37	33.603
723.68	35.135
724.00	34.553
724.32	29.032
724.63	32.520
724.95	30.962
725.27	34.413
725.58	34.766
725.90	36.496
726.22	33.208
726.53	28.819
726.85	28.328
727.16	31.317
727.48	34.043
727.80	32.955
728.11	29.710
728.43	33.846
728.74	31.541
729.06	34.672
729.38	32.353
729.69	28.114
730.01	30.717
730.32	31.944
730.64	30.100
730.96	28.383
731.27	35.099
731.59	28.746
731.90	32.070
732.22	29.503
732.53	28.173
732.85	28.526
733.16	27.974
733.48	29.900
733.80	30.195
734.11	29.936
734.43	32.544
734.74	26.571
735.06	29.226
735.37	29.480
735.69	28.344
736.00	30.392
736.32	33.333
736.63	28.754
736.95	33.227
737.26	28.231
737.58	25.806
737.89	30.435
738.21	30.375
738.52	34.643
738.83	29.434
739.15	33.462
739.46	32.482
739.78	30.903
740.09	29.231
740.41	31.935
740.72	27.178
741.04	32.963
741.35	33.333
741.66	34.667
741.98	35.849
742.29	42.105
742.61	39.655
742.92	35.747
743.23	35.470
743.55	32.800
743.86	33.772
744.18	38.496
744.49	37.321
744.80	43.192
745.12	45.000
745.43	33.480
745.74	36.486
746.06	41.284
746.37	35.426
746.68	39.367
747.00	38.889
747.31	34.286
747.62	29.204
747.94	30.396
748.25	30.638
748.56	37.885
748.88	32.178
749.19	35.500
749.50	35.349
749.82	36.992
750.13	31.429
750.44	32.847
750.75	30.175
751.07	35.048
751.38	35.889
751.69	34.296
752.01	33.835
752.32	27.076
752.63	32.270
752.94	36.885
753.26	38.400
753.57	31.707
753.88	29.297
754.19	28.929
754.51	34.722
754.82	28.881
755.13	32.453
755.44	33.459
755.75	30.292
756.07	31.560
756.38	27.007
756.69	30.201
757.00	27.844
757.31	28.783
757.63	26.608
757.94	26.542
758.25	28.922
758.56	24.691
758.87	25.538
759.18	31.515
759.50	27.586
759.81	29.907
760.12	25.312
760.43	29.513
760.74	28.804
761.05	28.814
761.36	26.738
761.67	29.261
761.99	27.950
762.30	27.431
762.61	30.153
762.92	34.375
763.23	34.454
763.54	33.200
763.85	27.734
764.16	36.154
764.47	37.262
764.78	30.389
765.10	26.899
765.41	30.088
765.72	27.844
766.03	31.661
766.34	30.000
766.65	33.191
766.96	33.761
767.27	39.594
767.58	41.146
767.89	46.316
768.20	35.632
768.51	36.041
768.82	34.862
769.13	28.049
769.44	31.174
769.75	33.047
770.06	28.899
770.37	36.199
770.68	33.333
770.99	31.111
771.30	28.279
771.61	34.081
771.92	32.787
772.23	36.134
772.54	40.000
772.85	31.414
773.16	42.553
773.47	35.326
773.78	37.056
774.09	32.143
774.39	36.257
774.70	41.358
775.01	39.855
775.32	38.562
775.63	44.079
775.94	32.374
776.25	57.480
776.56	45.522
776.87	49.180
777.18	43.750
777.48	41.985
777.79	40.909
778.10	49.630
778.41	48.214
778.72	41.606
779.03	38.926
779.34	34.899
779.65	37.162
779.95	36.810
780.26	41.830
780.57	42.069
780.88	49.219
781.19	42.105
781.50	41.892
781.80	36.478
782.11	38.418
782.42	34.177
782.73	35.583
783.04	41.216
783.34	43.662
783.65	37.671
783.96	50.746
784.27	43.357
784.57	43.885
784.88	32.407
785.19	46.825
785.50	41.509
785.81	42.537
786.11	48.361
786.42	41.860
786.73	43.363
787.04	45.283
787.34	50.893
787.65	40.000
787.96	45.946
788.26	47.107
788.57	47.458
788.88	49.587
789.19	45.139
789.49	40.909
789.80	46.565
790.11	45.714
790.41	58.416
790.72	44.578
791.03	48.913
791.33	48.837
791.64	52.577
791.95	57.426
792.25	67.778
792.56	67.532
792.87	70.513
793.17	73.418
793.48	58.621
793.79	49.425
794.09	44.318
794.40	33.613
794.70	41.912
795.01	39.259
795.32	39.568
795.62	45.669
795.93	46.552
796.23	41.593
796.54	44.706
796.85	44.595
797.15	69.014
797.46	66.667
797.76	62.651
798.07	53.165
798.37	66.154
798.68	59.091
798.99	50.704
799.29	41.558
799.60	48.864
799.90	61.644
800.21	58.209
800.51	63.793
800.82	63.158
801.12	75.410
801.43	59.091
801.73	62.162
802.04	57.143
802.34	48.148
802.65	67.188
802.95	74.576
803.26	89.063
803.56	51.429
803.87	60.000
804.17	61.765
804.48	92.593
804.78	70.690
805.09	80.882
805.39	63.462
805.70	64.286
806.00	80.328
806.30	56.061
806.61	68.293
806.91	44.304
807.22	56.579
807.52	65.672
807.83	57.746
808.13	65.625
808.43	83.333
808.74	40.789
809.04	66.667
809.35	61.194
809.65	57.895
809.95	74.194
810.26	76.271
810.56	66.667
810.86	90.909
811.17	83.333
811.47	80.000
811.77	77.778
812.08	67.273
812.38	80.000
812.69	108.333
812.99	100.000
813.29	83.673
813.59	83.333
813.90	95.918
814.20	76.364
814.50	56.923
814.81	72.059
815.11	65.306
815.41	68.852
815.72	66.667
816.02	94.545
816.32	80.952
816.62	70.000
816.93	70.732
817.23	95.238
817.53	86.364
817.84	109.091
818.14	69.565
818.44	100.000
818.74	79.412
819.04	82.500
819.35	85.714
819.65	135.294
819.95	167.857
820.25	85.000
820.56	107.692
820.86	97.727
821.16	95.349
821.46	71.795
821.76	98.000
822.07	111.429
822.37	97.500
822.67	90.909
822.97	60.784
823.27	132.143
823.57	105.405
823.88	112.500
824.18	133.333
824.48	92.857
824.78	116.000
825.08	91.667
825.38	81.081
825.69	85.366
825.99	104.167
826.29	96.552
826.59	118.421
826.89	89.474
827.19	105.882
827.49	100.000
827.79	88.636
828.09	81.818
828.39	82.979
828.70	97.959
829.00	107.407
829.30	74.194
829.60	90.000
829.90	193.333
830.20	128.571
830.50	121.739
830.80	152.174
831.10	123.333
831.40	126.667
831.70	91.304
832.00	146.154
832.30	114.815
832.60	200.000
832.90	116.667
833.20	214.286
833.50	119.355
833.80	134.483
834.10	106.250
834.40	130.769
834.70	138.889
835.00	180.952
835.30	105.714
835.60	192.308
835.90	137.931
836.20	178.571
836.50	117.241
836.80	128.000
837.10	102.778
837.40	138.095
837.70	182.353
838.00	129.630
838.30	190.476
838.60	152.381
838.90	134.615
839.19	120.000
839.49	221.429
839.79	200.000
840.09	130.000
840.39	195.238
840.69	204.348
840.99	177.778
841.29	250.000
841.59	191.667
841.88	212.500
842.18	127.586
842.48	209.524
842.78	123.333
843.08	126.087
843.38	96.875
843.68	450.000
843.97	138.462
844.27	113.793
844.57	204.762
844.87	175.000
845.17	166.667
845.47	733.333
845.76	222.222
846.06	188.235
846.36	237.500
846.66	214.286
846.96	187.500
847.25	81.818
847.55	236.364
847.85	156.522
848.15	250.000
848.44	192.857
848.74	105.556
849.04	164.706
849.34	300.000
849.63	157.895
849.93	154.545
850.23	440.000
850.53	207.143
850.82	1050.000
851.12	-1600.000
851.42	2600.000
851.71	125.000
852.01	-266.667
852.31	125.000
852.61	1100.000
852.90	157.143
853.20	168.000
853.50	170.588
853.79	200.000
854.09	91.667
854.39	187.500
854.68	97.297
854.98	106.452
855.28	126.667
855.57	117.241
855.87	129.630
856.17	110.526
856.46	93.333
856.76	135.294
857.05	96.552
857.35	116.667
857.65	166.667
857.94	121.739
858.24	119.231
858.53	165.000
858.83	122.727
859.13	180.000
859.42	0.000
859.72	233.333
860.01	227.273
860.31	200.000
860.60	142.105
860.90	165.217
861.20	344.444
861.49	316.667
861.79	-3100.000
862.08	425.000
862.38	157.143
862.67	223.077
862.97	188.235
863.26	222.222
863.56	138.889
863.85	241.667
864.15	275.000
864.44	226.667
864.74	416.667
865.03	362.500
865.33	157.895
865.62	290.909
865.92	269.231
866.21	183.333
866.51	0.000
866.80	336.364
867.10	700.000
867.39	292.308
867.69	254.545
867.98	136.842
868.27	263.636
868.57	131.579
868.86	-2400.000
869.16	206.250
869.45	1250.000
869.75	-2300.000
870.04	258.333
870.33	385.714
870.63	600.000
870.92	1750.000
871.22	400.000
871.51	229.412
871.80	114.286
872.10	242.857
>>>>>End Processed Spectral Data<<<<<
