SpectraSuite Data File
++++++++++++++++++++++++++++++++++++
Date: Wed May 13 20:23:04 PDT 2015
User: schluterlab
Dark Spectrum Present: Yes
Reference Spectrum Present: Yes
Number of Sampled Component Spectra: 1
Spectrometers: USB2E3373
Integration Time (usec): 3000 (USB2E3373)
Spectra Averaged: 3 (USB2E3373)
Boxcar Smoothing: 0 (USB2E3373)
Correct for Electrical Dark: No (USB2E3373)
Strobe/Lamp Enabled: No (USB2E3373)
Correct for Detector Non-linearity: No (USB2E3373)
Correct for Stray Light: No (USB2E3373)
Number of Pixels in Processed Spectrum: 2048
>>>>>Begin Processed Spectral Data<<<<<
178.53	0.000
178.91	-1250.000
179.29	-1175.000
179.67	-216.667
180.04	-1050.000
180.42	2700.000
180.80	1080.000
181.18	-1000.000
181.56	728.571
181.94	0.000
182.31	-642.857
182.69	1566.667
183.07	-637.500
183.45	-488.889
183.83	563.636
184.20	-390.000
184.58	2650.000
184.96	5000.000
185.34	-980.000
185.72	-600.000
186.09	-2050.000
186.47	2900.000
186.85	2750.000
187.23	5200.000
187.61	-1833.333
187.98	1300.000
188.36	563.636
188.74	518.182
189.12	-800.000
189.49	630.000
189.87	-4500.000
190.25	-1175.000
190.63	400.000
191.00	392.308
191.38	783.333
191.76	-1275.000
192.14	1350.000
192.51	662.500
192.89	900.000
193.27	500.000
193.65	-925.000
194.02	480.000
194.40	880.000
194.78	510.000
195.15	491.667
195.53	570.000
195.91	-2050.000
196.29	337.500
196.66	336.842
197.04	-350.000
197.42	0.000
197.79	550.000
198.17	-4500.000
198.55	700.000
198.92	775.000
199.30	820.000
199.68	0.000
200.05	327.778
200.43	957.143
200.81	5000.000
201.18	1500.000
201.56	-1566.667
201.94	588.889
202.31	588.889
202.69	425.000
203.07	530.000
203.44	0.000
203.82	1275.000
204.19	728.571
204.57	457.143
204.95	637.500
205.32	1500.000
205.70	427.273
206.08	385.714
206.45	2700.000
206.83	368.750
207.20	783.333
207.58	720.000
207.96	305.556
208.33	487.500
208.71	-750.000
209.08	685.714
209.46	600.000
209.84	509.091
210.21	-1433.333
210.59	1325.000
210.96	-550.000
211.34	2550.000
211.71	640.000
212.09	733.333
212.46	0.000
212.84	1800.000
213.22	1450.000
213.59	-4900.000
213.97	883.333
214.34	814.286
214.72	527.273
215.09	1240.000
215.47	-1850.000
215.84	-2500.000
216.22	1566.667
216.59	357.143
216.97	1200.000
217.34	409.091
217.72	-716.667
218.09	0.000
218.47	-4000.000
218.84	633.333
219.22	814.286
219.59	1366.667
219.97	-657.143
220.34	960.000
220.72	-1500.000
221.09	385.714
221.47	1325.000
221.84	-850.000
222.22	0.000
222.59	1425.000
222.97	-2700.000
223.34	1080.000
223.72	376.923
224.09	960.000
224.46	1900.000
224.84	-4600.000
225.21	-1020.000
225.59	-4800.000
225.96	620.000
226.34	285.000
226.71	2350.000
227.08	687.500
227.46	670.000
227.83	-1300.000
228.21	-2250.000
228.58	522.222
228.95	-2250.000
229.33	-2050.000
229.70	1633.333
230.08	800.000
230.45	-820.000
230.82	491.667
231.20	783.333
231.57	600.000
231.95	458.333
232.32	272.727
232.69	400.000
233.07	742.857
233.44	353.846
233.81	-1666.667
234.19	326.316
234.56	475.000
234.93	416.667
235.31	445.455
235.68	392.308
236.05	414.286
236.43	169.697
236.80	252.632
237.17	5100.000
237.55	266.667
237.92	214.286
238.29	233.333
238.67	196.774
239.04	210.345
239.41	155.556
239.79	134.783
240.16	159.524
240.53	147.727
240.91	107.843
241.28	106.000
241.65	110.000
242.02	104.348
242.40	85.484
242.77	100.000
243.14	84.946
243.51	85.393
243.89	89.412
244.26	83.333
244.63	75.269
245.00	78.723
245.38	67.327
245.75	72.897
246.12	63.303
246.49	72.993
246.87	66.400
247.24	68.462
247.61	62.857
247.98	65.359
248.36	55.405
248.73	63.057
249.10	60.510
249.47	57.627
249.84	56.684
250.22	52.941
250.59	56.805
250.96	57.576
251.33	55.924
251.70	57.426
252.08	55.238
252.45	50.673
252.82	47.391
253.19	45.532
253.56	48.627
253.94	47.718
254.31	50.000
254.68	52.308
255.05	47.601
255.42	48.374
255.79	48.529
256.16	51.625
256.54	49.470
256.91	49.466
257.28	43.525
257.65	45.545
258.02	47.826
258.39	44.479
258.76	47.492
259.14	47.024
259.51	45.593
259.88	44.720
260.25	45.921
260.62	45.087
260.99	44.099
261.36	44.144
261.73	44.413
262.10	44.767
262.47	45.634
262.85	42.340
263.22	41.311
263.59	44.160
263.96	42.308
264.33	41.253
264.70	41.053
265.07	42.967
265.44	42.424
265.81	38.686
266.18	41.206
266.55	38.780
266.92	42.015
267.29	41.204
267.66	40.826
268.03	39.318
268.40	39.720
268.77	39.141
269.14	41.216
269.51	37.472
269.88	40.793
270.25	37.020
270.62	40.225
270.99	42.151
271.36	37.339
271.73	39.486
272.10	39.565
272.47	41.075
272.84	39.394
273.21	39.203
273.58	37.773
273.95	38.574
274.32	35.331
274.69	37.687
275.06	35.630
275.43	37.872
275.80	38.677
276.17	37.067
276.54	38.462
276.91	36.759
277.28	35.938
277.65	35.010
278.02	38.095
278.39	38.281
278.76	35.455
279.13	37.358
279.50	37.616
279.87	36.255
280.23	37.525
280.60	37.718
280.97	36.784
281.34	37.168
281.71	36.909
282.08	38.196
282.45	35.455
282.82	36.590
283.19	32.442
283.56	35.439
283.92	38.071
284.29	35.979
284.66	34.846
285.03	34.901
285.40	35.915
285.77	35.522
286.14	33.161
286.51	35.000
286.87	35.043
287.24	35.505
287.61	33.066
287.98	34.416
288.35	31.696
288.72	32.399
289.08	33.646
289.45	33.937
289.82	33.171
290.19	31.397
290.56	31.853
290.93	29.758
291.29	30.368
291.66	32.006
292.03	30.669
292.40	32.159
292.77	29.438
293.13	30.448
293.50	30.904
293.87	28.889
294.24	30.519
294.60	29.985
294.97	28.052
295.34	28.773
295.71	30.114
296.08	27.493
296.44	28.061
296.81	27.609
297.18	28.455
297.55	26.121
297.91	25.594
298.28	27.979
298.65	26.371
299.02	28.327
299.38	25.896
299.75	25.337
300.12	24.649
300.48	25.250
300.85	24.784
301.22	26.624
301.59	24.874
301.95	26.071
302.32	25.674
302.69	25.090
303.05	26.667
303.42	26.049
303.79	25.821
304.15	23.776
304.52	23.754
304.89	26.132
305.25	24.594
305.62	25.255
305.99	25.620
306.35	24.720
306.72	25.112
307.09	24.195
307.45	23.761
307.82	22.768
308.19	24.503
308.55	25.351
308.92	24.060
309.29	23.126
309.65	23.012
310.02	23.679
310.38	23.441
310.75	24.393
311.12	23.234
311.48	24.033
311.85	23.480
312.22	22.685
312.58	22.661
312.95	25.977
313.31	20.485
313.68	23.181
314.05	24.852
314.41	23.317
314.78	23.162
315.14	23.337
315.51	22.348
315.87	23.267
316.24	22.741
316.61	22.904
316.97	21.722
317.34	21.918
317.70	22.562
318.07	22.329
318.43	23.092
318.80	23.243
319.16	22.316
319.53	20.826
319.89	22.095
320.26	23.200
320.62	22.321
320.99	21.919
321.35	22.020
321.72	21.971
322.08	22.507
322.45	23.980
322.81	22.384
323.18	22.447
323.54	22.449
323.91	22.170
324.27	23.136
324.64	21.435
325.00	21.280
325.37	21.383
325.73	20.916
326.10	22.330
326.46	21.685
326.83	21.743
327.19	22.289
327.56	22.648
327.92	22.485
328.29	21.828
328.65	21.731
329.01	22.022
329.38	20.907
329.74	21.884
330.11	22.620
330.47	21.396
330.84	22.886
331.20	22.222
331.56	22.018
331.93	22.222
332.29	21.917
332.66	21.504
333.02	20.567
333.38	22.132
333.75	23.084
334.11	21.975
334.48	21.295
334.84	21.691
335.20	22.000
335.57	21.578
335.93	20.536
336.29	21.978
336.66	20.920
337.02	20.090
337.38	23.519
337.75	19.430
338.11	21.665
338.47	20.626
338.84	21.723
339.20	20.917
339.56	21.350
339.93	20.273
340.29	20.652
340.65	20.677
341.02	20.942
341.38	20.463
341.74	19.649
342.11	20.699
342.47	20.793
342.83	20.548
343.20	21.299
343.56	20.051
343.92	19.825
344.28	20.578
344.65	20.980
345.01	20.202
345.37	19.039
345.73	20.220
346.10	20.290
346.46	20.678
346.82	20.428
347.19	20.134
347.55	21.100
347.91	20.307
348.27	20.707
348.63	21.154
349.00	20.065
349.36	21.182
349.72	19.487
350.08	19.935
350.45	20.260
350.81	20.634
351.17	19.287
351.53	19.984
351.89	18.894
352.26	20.205
352.62	20.128
352.98	18.963
353.34	19.803
353.70	19.394
354.07	19.677
354.43	19.127
354.79	19.710
355.15	18.755
355.51	20.544
355.87	19.347
356.24	19.218
356.60	19.647
356.96	19.308
357.32	20.196
357.68	20.315
358.04	19.398
358.40	19.873
358.77	19.797
359.13	18.706
359.49	18.980
359.85	17.460
360.21	18.341
360.57	18.988
360.93	19.846
361.29	19.501
361.66	18.963
362.02	20.224
362.38	19.087
362.74	19.271
363.10	19.023
363.46	18.342
363.82	19.426
364.18	18.282
364.54	19.688
364.90	18.839
365.26	18.824
365.62	19.576
365.98	17.823
366.35	17.622
366.71	19.089
367.07	19.082
367.43	19.086
367.79	19.486
368.15	19.468
368.51	18.677
368.87	18.130
369.23	18.800
369.59	19.189
369.95	18.309
370.31	18.162
370.67	18.478
371.03	19.551
371.39	18.586
371.75	17.794
372.11	17.852
372.47	18.328
372.83	18.876
373.19	18.280
373.55	18.921
373.91	19.514
374.27	18.419
374.63	17.745
374.99	18.220
375.35	17.795
375.71	17.752
376.07	18.793
376.42	17.744
376.78	18.622
377.14	18.385
377.50	17.483
377.86	17.620
378.22	17.636
378.58	17.293
378.94	17.599
379.30	17.303
379.66	18.211
380.02	16.523
380.38	17.486
380.74	17.407
381.09	17.665
381.45	17.947
381.81	18.305
382.17	17.834
382.53	16.981
382.89	18.148
383.25	18.011
383.61	17.658
383.97	17.699
384.32	18.341
384.68	17.410
385.04	17.640
385.40	17.647
385.76	18.120
386.12	16.516
386.48	17.873
386.83	17.832
387.19	18.244
387.55	17.811
387.91	17.412
388.27	17.658
388.62	17.824
388.98	17.015
389.34	17.772
389.70	16.616
390.06	18.188
390.42	16.861
390.77	17.939
391.13	18.634
391.49	18.147
391.85	16.868
392.20	17.981
392.56	17.487
392.92	17.422
393.28	16.391
393.64	17.626
393.99	17.593
394.35	17.246
394.71	17.127
395.07	17.196
395.42	17.614
395.78	17.176
396.14	17.381
396.50	16.541
396.85	18.500
397.21	17.509
397.57	17.049
397.92	17.007
398.28	17.152
398.64	17.622
399.00	17.403
399.35	17.146
399.71	17.130
400.07	17.268
400.42	16.933
400.78	17.370
401.14	16.646
401.49	16.776
401.85	17.362
402.21	16.228
402.57	17.150
402.92	17.150
403.28	17.489
403.63	17.327
403.99	17.134
404.35	16.727
404.70	18.046
405.06	17.181
405.42	17.155
405.77	16.800
406.13	16.761
406.49	17.445
406.84	16.361
407.20	16.076
407.55	16.528
407.91	17.467
408.27	17.869
408.62	17.279
408.98	17.525
409.34	17.712
409.69	18.129
410.05	17.038
410.40	16.820
410.76	16.786
411.11	18.094
411.47	17.316
411.83	16.982
412.18	15.894
412.54	16.750
412.89	16.747
413.25	17.178
413.60	17.233
413.96	16.454
414.31	17.801
414.67	17.237
415.03	17.219
415.38	16.495
415.74	16.977
416.09	17.178
416.45	16.533
416.80	16.854
417.16	18.097
417.51	17.319
417.87	16.891
418.22	16.404
418.58	16.850
418.93	17.199
419.29	16.932
419.64	17.632
420.00	17.256
420.35	16.754
420.71	17.215
421.06	16.945
421.42	16.959
421.77	16.928
422.12	16.115
422.48	16.406
422.83	17.414
423.19	16.961
423.54	17.237
423.90	17.623
424.25	16.695
424.61	16.726
424.96	17.493
425.31	16.611
425.67	15.730
426.02	16.686
426.38	17.277
426.73	16.969
427.09	16.413
427.44	17.021
427.79	15.871
428.15	16.190
428.50	16.793
428.85	17.640
429.21	16.345
429.56	16.382
429.92	16.558
430.27	15.740
430.62	16.129
430.98	17.436
431.33	16.443
431.68	16.911
432.04	16.880
432.39	16.334
432.74	16.756
433.10	17.317
433.45	16.968
433.80	16.075
434.16	16.667
434.51	16.789
434.86	16.591
435.22	16.509
435.57	16.231
435.92	16.267
436.28	17.319
436.63	17.715
436.98	16.714
437.34	16.398
437.69	17.211
438.04	16.470
438.39	17.433
438.75	16.095
439.10	16.313
439.45	17.237
439.81	16.858
440.16	15.697
440.51	17.282
440.86	17.313
441.22	15.962
441.57	16.561
441.92	16.684
442.27	16.685
442.63	16.377
442.98	17.127
443.33	16.848
443.68	16.314
444.03	16.789
444.39	15.774
444.74	16.180
445.09	16.765
445.44	16.402
445.79	16.329
446.15	17.205
446.50	16.478
446.85	16.906
447.20	16.012
447.55	16.248
447.91	16.271
448.26	17.195
448.61	16.733
448.96	17.165
449.31	16.760
449.66	16.320
450.02	15.933
450.37	15.986
450.72	16.582
451.07	16.697
451.42	16.109
451.77	16.559
452.12	17.263
452.47	16.231
452.83	16.259
453.18	16.993
453.53	17.192
453.88	16.302
454.23	17.513
454.58	17.626
454.93	17.546
455.28	16.459
455.63	17.051
455.98	16.845
456.34	17.337
456.69	17.157
457.04	17.957
457.39	16.365
457.74	16.367
458.09	16.964
458.44	16.762
458.79	15.781
459.14	16.817
459.49	17.747
459.84	16.288
460.19	16.087
460.54	16.262
460.89	16.566
461.24	17.243
461.59	17.199
461.94	16.831
462.29	17.329
462.64	16.465
462.99	16.461
463.34	17.733
463.69	17.949
464.04	16.986
464.39	17.217
464.74	16.102
465.09	16.405
465.44	16.620
465.79	16.107
466.14	16.475
466.49	16.073
466.84	17.455
467.19	16.958
467.54	17.750
467.89	17.107
468.24	16.812
468.59	17.827
468.94	16.738
469.29	16.131
469.64	17.671
469.99	17.456
470.34	16.248
470.68	17.457
471.03	16.395
471.38	17.026
471.73	17.788
472.08	18.421
472.43	16.834
472.78	16.524
473.13	16.881
473.48	16.355
473.83	16.707
474.17	16.490
474.52	16.935
474.87	17.338
475.22	16.715
475.57	16.067
475.92	16.410
476.27	16.516
476.61	17.375
476.96	16.328
477.31	15.646
477.66	17.013
478.01	15.578
478.36	16.235
478.70	16.303
479.05	16.400
479.40	17.093
479.75	16.624
480.10	16.153
480.45	15.707
480.79	16.054
481.14	15.656
481.49	16.516
481.84	15.729
482.19	15.493
482.53	16.193
482.88	16.380
483.23	16.308
483.58	16.879
483.92	16.542
484.27	16.035
484.62	15.776
484.97	15.885
485.31	15.822
485.66	14.700
486.01	14.646
486.36	14.067
486.70	14.513
487.05	14.637
487.40	14.505
487.75	15.088
488.09	15.347
488.44	14.910
488.79	15.805
489.13	16.157
489.48	15.742
489.83	16.055
490.17	16.265
490.52	16.253
490.87	15.785
491.22	15.871
491.56	15.399
491.91	16.566
492.26	16.169
492.60	15.714
492.95	15.388
493.30	15.888
493.64	15.072
493.99	15.506
494.34	15.726
494.68	16.026
495.03	16.353
495.37	16.054
495.72	15.692
496.07	16.288
496.41	15.575
496.76	16.095
497.11	16.434
497.45	16.768
497.80	15.835
498.14	15.507
498.49	16.049
498.84	15.724
499.18	16.143
499.53	16.144
499.87	16.636
500.22	16.015
500.56	16.505
500.91	16.010
501.26	16.358
501.60	16.564
501.95	16.086
502.29	16.261
502.64	16.527
502.98	15.942
503.33	15.814
503.67	15.731
504.02	15.482
504.36	16.518
504.71	16.414
505.06	16.289
505.40	15.897
505.75	15.911
506.09	16.035
506.44	16.280
506.78	15.928
507.13	16.709
507.47	16.667
507.82	16.059
508.16	16.869
508.51	16.134
508.85	16.087
509.19	16.224
509.54	16.531
509.88	16.229
510.23	16.247
510.57	17.389
510.92	17.297
511.26	16.393
511.61	16.961
511.95	15.866
512.30	16.543
512.64	16.120
512.98	16.827
513.33	17.238
513.67	16.222
514.02	16.504
514.36	16.821
514.70	16.934
515.05	16.397
515.39	16.769
515.74	16.104
516.08	17.216
516.42	17.259
516.77	17.447
517.11	16.648
517.46	17.156
517.80	17.364
518.14	16.966
518.49	17.678
518.83	17.159
519.17	16.166
519.52	17.431
519.86	17.114
520.20	17.399
520.55	17.295
520.89	16.910
521.23	17.551
521.58	16.927
521.92	16.473
522.26	16.595
522.61	17.072
522.95	16.022
523.29	16.372
523.64	17.195
523.98	16.574
524.32	17.250
524.66	16.957
525.01	16.973
525.35	16.605
525.69	16.995
526.04	17.757
526.38	16.962
526.72	16.994
527.06	18.581
527.41	16.832
527.75	17.235
528.09	16.827
528.43	17.208
528.78	17.701
529.12	16.485
529.46	17.330
529.80	18.007
530.15	17.445
530.49	16.492
530.83	17.848
531.17	18.342
531.51	18.223
531.86	17.226
532.20	17.601
532.54	17.873
532.88	16.881
533.22	16.989
533.57	18.642
533.91	18.001
534.25	16.829
534.59	17.023
534.93	17.311
535.27	17.019
535.62	17.827
535.96	17.702
536.30	17.673
536.64	17.772
536.98	17.784
537.32	17.051
537.66	17.467
538.01	16.722
538.35	17.453
538.69	17.869
539.03	17.219
539.37	16.677
539.71	16.397
540.05	17.451
540.39	17.076
540.73	16.818
541.07	18.689
541.42	17.025
541.76	17.742
542.10	16.688
542.44	17.881
542.78	18.972
543.12	17.019
543.46	17.639
543.80	17.372
544.14	16.688
544.48	18.032
544.82	17.255
545.16	17.241
545.50	16.710
545.84	17.608
546.18	17.374
546.52	17.275
546.86	17.251
547.20	18.274
547.54	18.170
547.88	18.431
548.22	17.995
548.56	17.673
548.90	17.606
549.24	17.104
549.58	17.735
549.92	17.788
550.26	17.401
550.60	17.220
550.94	18.310
551.28	16.752
551.62	17.973
551.96	17.684
552.30	18.908
552.64	18.526
552.98	17.831
553.32	17.330
553.66	17.655
554.00	18.119
554.34	18.012
554.68	18.312
555.02	17.701
555.36	17.676
555.69	17.862
556.03	17.833
556.37	17.872
556.71	17.326
557.05	18.277
557.39	17.355
557.73	17.431
558.07	17.766
558.41	17.873
558.75	17.267
559.08	18.046
559.42	17.158
559.76	18.603
560.10	17.273
560.44	17.890
560.78	16.900
561.12	17.084
561.45	18.383
561.79	17.271
562.13	17.639
562.47	18.169
562.81	16.527
563.15	18.261
563.48	17.706
563.82	17.156
564.16	16.939
564.50	16.471
564.84	17.699
565.17	17.053
565.51	17.444
565.85	17.957
566.19	16.907
566.52	17.099
566.86	16.215
567.20	17.571
567.54	16.895
567.88	16.187
568.21	17.672
568.55	16.633
568.89	16.440
569.23	15.865
569.56	15.870
569.90	15.962
570.24	14.926
570.57	14.893
570.91	15.999
571.25	15.380
571.59	15.317
571.92	15.611
572.26	15.887
572.60	15.766
572.93	15.472
573.27	15.735
573.61	15.550
573.95	15.556
574.28	15.477
574.62	15.500
574.96	14.863
575.29	15.325
575.63	15.396
575.97	15.204
576.30	15.905
576.64	14.910
576.98	14.925
577.31	15.226
577.65	14.919
577.98	14.978
578.32	14.952
578.66	15.241
578.99	15.476
579.33	15.081
579.67	14.619
580.00	14.960
580.34	15.093
580.67	14.985
581.01	15.584
581.35	15.054
581.68	15.120
582.02	14.745
582.35	14.973
582.69	14.990
583.02	14.919
583.36	15.056
583.70	15.110
584.03	14.916
584.37	15.204
584.70	15.387
585.04	15.191
585.37	15.214
585.71	15.390
586.04	15.221
586.38	15.361
586.72	15.935
587.05	15.431
587.39	14.987
587.72	15.125
588.06	15.128
588.39	15.912
588.73	15.752
589.06	15.862
589.40	15.926
589.73	15.769
590.07	15.587
590.40	15.601
590.73	16.237
591.07	16.361
591.40	15.774
591.74	16.017
592.07	16.710
592.41	16.536
592.74	15.805
593.08	15.956
593.41	15.818
593.75	15.459
594.08	15.924
594.41	15.942
594.75	15.527
595.08	15.497
595.42	16.252
595.75	15.491
596.09	16.035
596.42	16.503
596.75	15.661
597.09	16.926
597.42	16.273
597.75	17.119
598.09	16.522
598.42	16.538
598.76	15.930
599.09	15.964
599.42	15.793
599.76	15.959
600.09	15.738
600.42	16.874
600.76	16.000
601.09	15.883
601.42	15.830
601.76	15.863
602.09	16.285
602.42	15.685
602.76	15.921
603.09	16.011
603.42	16.087
603.76	16.273
604.09	15.665
604.42	16.225
604.76	16.322
605.09	16.295
605.42	16.075
605.75	16.267
606.09	15.901
606.42	16.265
606.75	16.217
607.09	16.869
607.42	16.389
607.75	15.781
608.08	16.457
608.42	16.809
608.75	16.456
609.08	16.374
609.41	16.802
609.75	16.151
610.08	16.682
610.41	16.853
610.74	16.320
611.07	16.798
611.41	15.947
611.74	17.144
612.07	17.133
612.40	16.474
612.73	16.316
613.07	17.295
613.40	17.167
613.73	16.938
614.06	17.043
614.39	17.042
614.72	16.789
615.06	17.384
615.39	16.454
615.72	16.360
616.05	16.959
616.38	17.565
616.71	17.815
617.05	18.728
617.38	16.837
617.71	16.577
618.04	17.248
618.37	17.268
618.70	17.175
619.03	18.553
619.36	17.176
619.69	17.254
620.03	17.788
620.36	17.447
620.69	18.151
621.02	18.363
621.35	17.463
621.68	17.991
622.01	16.873
622.34	17.927
622.67	17.490
623.00	16.654
623.33	17.798
623.66	18.299
623.99	17.378
624.32	17.760
624.65	18.079
624.99	16.572
625.32	17.813
625.65	17.881
625.98	18.601
626.31	18.896
626.64	17.469
626.97	18.288
627.30	17.373
627.63	18.540
627.96	18.671
628.29	18.985
628.62	19.305
628.95	19.151
629.28	18.796
629.61	19.340
629.94	18.476
630.26	19.638
630.59	19.352
630.92	18.487
631.25	18.756
631.58	18.819
631.91	18.966
632.24	18.565
632.57	17.524
632.90	19.518
633.23	18.456
633.56	20.000
633.89	20.385
634.22	19.296
634.55	20.237
634.88	18.323
635.20	20.430
635.53	20.120
635.86	19.431
636.19	19.647
636.52	19.031
636.85	18.900
637.18	19.355
637.51	19.858
637.83	17.386
638.16	19.565
638.49	20.529
638.82	20.101
639.15	20.000
639.48	21.820
639.81	19.571
640.13	21.224
640.46	21.611
640.79	20.079
641.12	20.220
641.45	20.391
641.77	21.944
642.10	22.222
642.43	20.270
642.76	21.672
643.09	19.018
643.41	21.700
643.74	21.451
644.07	21.341
644.40	21.779
644.73	21.575
645.05	22.821
645.38	18.483
645.71	21.739
646.04	23.754
646.36	24.541
646.69	22.408
647.02	22.109
647.35	22.509
647.67	23.009
648.00	23.252
648.33	21.287
648.66	21.667
648.98	22.639
649.31	19.880
649.64	21.674
649.96	21.461
650.29	21.959
650.62	20.227
650.94	21.880
651.27	22.128
651.60	22.463
651.92	21.885
652.25	20.521
652.58	21.807
652.90	22.275
653.23	21.263
653.56	21.102
653.88	22.029
654.21	23.697
654.54	20.957
654.86	21.340
655.19	21.486
655.52	14.883
655.84	13.153
656.17	17.093
656.49	23.292
656.82	23.527
657.15	17.987
657.47	12.992
657.80	10.086
658.13	10.272
658.45	15.065
658.78	15.001
659.10	14.905
659.43	15.487
659.75	16.481
660.08	17.595
660.41	19.181
660.73	21.601
661.06	19.108
661.38	24.182
661.71	23.846
662.03	26.036
662.36	20.477
662.68	21.888
663.01	23.636
663.33	22.718
663.66	22.269
663.98	25.702
664.31	22.689
664.63	20.850
664.96	23.139
665.28	25.410
665.61	21.637
665.93	22.736
666.26	22.718
666.58	25.523
666.91	24.101
667.23	24.270
667.56	23.758
667.88	24.359
668.21	24.520
668.53	23.644
668.86	25.108
669.18	26.013
669.50	24.130
669.83	24.183
670.15	24.667
670.48	24.619
670.80	23.707
671.13	23.779
671.45	24.468
671.77	23.014
672.10	23.475
672.42	24.558
672.75	22.720
673.07	20.423
673.39	22.423
673.72	24.023
674.04	25.490
674.37	20.971
674.69	22.904
675.01	21.967
675.34	26.899
675.66	26.947
675.98	26.273
676.31	23.739
676.63	24.628
676.95	25.996
677.28	24.299
677.60	23.956
677.92	27.426
678.25	24.641
678.57	23.108
678.89	22.645
679.22	22.200
679.54	23.664
679.86	22.385
680.18	23.614
680.51	22.695
680.83	24.733
681.15	23.019
681.48	22.306
681.80	21.470
682.12	23.946
682.44	22.631
682.77	21.792
683.09	27.253
683.41	25.942
683.73	22.517
684.06	25.620
684.38	23.679
684.70	24.225
685.02	24.390
685.34	24.359
685.67	20.804
685.99	20.619
686.31	20.819
686.63	22.792
686.96	20.357
687.28	22.924
687.60	21.558
687.92	22.121
688.24	22.243
688.56	26.305
688.89	23.029
689.21	24.672
689.53	21.503
689.85	26.829
690.17	22.567
690.49	25.053
690.82	25.701
691.14	20.982
691.46	23.629
691.78	21.084
692.10	24.380
692.42	23.752
692.74	22.614
693.06	23.191
693.39	26.078
693.71	24.891
694.03	25.263
694.35	19.913
694.67	23.570
694.99	26.829
695.31	24.020
695.63	22.727
695.95	24.939
696.27	22.335
696.59	24.093
696.91	27.461
697.23	21.596
697.56	25.800
697.88	20.450
698.20	22.917
698.52	25.806
698.84	25.835
699.16	22.350
699.48	23.753
699.80	28.261
700.12	29.870
700.44	27.586
700.76	26.243
701.08	28.161
701.40	25.978
701.72	28.863
702.04	27.841
702.36	24.929
702.68	27.762
703.00	26.039
703.32	25.266
703.64	24.665
703.96	24.513
704.28	27.907
704.60	27.859
704.91	26.409
705.23	28.446
705.55	27.243
705.87	34.884
706.19	25.442
706.51	30.530
706.83	28.485
707.15	24.930
707.47	25.505
707.79	25.061
708.11	26.712
708.43	24.762
708.74	23.980
709.06	27.532
709.38	26.772
709.70	27.326
710.02	32.047
710.34	27.273
710.66	27.164
710.98	25.000
711.29	27.907
711.61	30.088
711.93	26.603
712.25	28.296
712.57	32.353
712.89	28.374
713.20	28.267
713.52	29.605
713.84	26.266
714.16	28.659
714.48	27.586
714.80	30.699
715.11	26.513
715.43	27.300
715.75	29.565
716.07	28.435
716.39	27.900
716.70	28.904
717.02	32.374
717.34	36.042
717.66	31.716
717.97	37.450
718.29	28.889
718.61	28.102
718.93	31.250
719.24	28.720
719.56	31.525
719.88	30.508
720.20	32.095
720.51	30.314
720.83	31.599
721.15	29.851
721.46	25.177
721.78	31.900
722.10	31.698
722.42	30.827
722.73	31.086
723.05	31.148
723.37	30.769
723.68	32.432
724.00	32.927
724.32	29.839
724.63	31.301
724.95	32.218
725.27	33.198
725.58	38.672
725.90	33.942
726.22	36.226
726.53	30.556
726.85	28.328
727.16	28.470
727.48	29.433
727.80	30.682
728.11	29.348
728.43	28.462
728.74	27.957
729.06	36.496
729.38	36.029
729.69	31.317
730.01	28.669
730.32	27.778
730.64	30.769
730.96	23.762
731.27	32.450
731.59	29.969
731.90	27.697
732.22	28.882
732.53	24.768
732.85	29.167
733.16	28.296
733.48	26.578
733.80	27.922
734.11	29.299
734.43	27.811
734.74	24.571
735.06	24.355
735.37	30.347
735.69	25.796
736.00	32.026
736.32	30.218
736.63	28.435
736.95	30.990
737.26	23.469
737.58	23.548
737.89	30.435
738.21	29.352
738.52	28.929
738.83	30.189
739.15	33.462
739.46	31.387
739.78	29.514
740.09	28.000
740.41	28.065
740.72	29.617
741.04	30.370
741.35	33.333
741.66	40.444
741.98	33.491
742.29	38.278
742.61	37.931
742.92	32.127
743.23	31.197
743.55	38.000
743.86	36.842
744.18	38.938
744.49	37.321
744.80	40.376
745.12	39.545
745.43	30.837
745.74	37.838
746.06	37.615
746.37	34.529
746.68	34.842
747.00	35.648
747.31	31.905
747.62	27.434
747.94	32.159
748.25	33.191
748.56	35.242
748.88	37.129
749.19	41.500
749.50	33.023
749.82	32.114
750.13	30.612
750.44	28.102
750.75	32.632
751.07	31.833
751.38	27.875
751.69	30.325
752.01	33.835
752.32	28.520
752.63	31.206
752.94	32.377
753.26	38.400
753.57	29.268
753.88	34.766
754.19	30.714
754.51	34.375
754.82	29.242
755.13	31.321
755.44	31.203
755.75	29.927
756.07	30.851
756.38	27.372
756.69	29.866
757.00	28.743
757.31	27.893
757.63	29.825
757.94	23.592
758.25	26.471
758.56	23.951
758.87	24.462
759.18	30.303
759.50	27.586
759.81	25.545
760.12	26.875
760.43	28.080
760.74	26.902
761.05	28.531
761.36	25.401
761.67	30.682
761.99	31.366
762.30	28.819
762.61	33.969
762.92	31.250
763.23	31.933
763.54	34.800
763.85	29.297
764.16	35.769
764.47	35.361
764.78	27.208
765.10	26.582
765.41	29.794
765.72	27.844
766.03	31.034
766.34	29.333
766.65	37.447
766.96	29.915
767.27	36.548
767.58	38.021
767.89	40.000
768.20	41.954
768.51	35.533
768.82	36.697
769.13	32.114
769.44	35.223
769.75	38.627
770.06	27.982
770.37	31.674
770.68	37.500
770.99	34.667
771.30	29.098
771.61	38.117
771.92	30.738
772.23	41.176
772.54	37.949
772.85	43.455
773.16	43.085
773.47	35.326
773.78	40.609
774.09	42.857
774.39	43.275
774.70	44.444
775.01	51.449
775.32	47.059
775.63	43.421
775.94	53.237
776.25	51.969
776.56	44.030
776.87	45.902
777.18	53.125
777.48	51.145
777.79	46.970
778.10	46.667
778.41	55.357
778.72	45.985
779.03	46.980
779.34	42.953
779.65	41.892
779.95	40.491
780.26	52.288
780.57	49.655
780.88	53.906
781.19	48.120
781.50	52.703
781.80	42.767
782.11	44.068
782.42	36.076
782.73	38.650
783.04	46.622
783.34	46.479
783.65	55.479
783.96	50.746
784.27	45.455
784.57	46.043
784.88	53.704
785.19	52.381
785.50	53.774
785.81	55.970
786.11	54.918
786.42	56.589
786.73	53.982
787.04	50.943
787.34	56.250
787.65	58.000
787.96	56.757
788.26	56.198
788.57	61.017
788.88	61.983
789.19	54.861
789.49	58.333
789.80	51.908
790.11	60.000
790.41	71.287
790.72	81.928
791.03	56.522
791.33	67.442
791.64	55.670
791.95	67.327
792.25	67.778
792.56	85.714
792.87	91.026
793.17	82.278
793.48	60.920
793.79	70.115
794.09	71.591
794.40	56.303
794.70	47.059
795.01	48.148
795.32	47.482
795.62	59.843
795.93	56.897
796.23	60.177
796.54	61.176
796.85	63.514
797.15	90.141
797.46	66.667
797.76	79.518
798.07	73.418
798.37	81.538
798.68	92.424
798.99	71.831
799.29	72.727
799.60	72.727
799.90	68.493
800.21	88.060
800.51	96.552
800.82	105.263
801.12	86.885
801.43	83.333
801.73	74.324
802.04	100.000
802.34	75.309
802.65	104.688
802.95	103.390
803.26	87.500
803.56	81.429
803.87	84.615
804.17	92.647
804.48	85.185
804.78	89.655
805.09	79.412
805.39	86.538
805.70	92.857
806.00	106.557
806.30	74.242
806.61	74.390
806.91	60.759
807.22	68.421
807.52	62.687
807.83	80.282
808.13	98.437
808.43	91.667
808.74	89.474
809.04	94.203
809.35	92.537
809.65	67.105
809.95	114.516
810.26	74.576
810.56	90.476
810.86	122.727
811.17	142.857
811.47	105.000
811.77	109.259
812.08	112.727
812.38	126.000
812.69	150.000
812.99	143.182
813.29	130.612
813.59	109.524
813.90	126.531
814.20	89.091
814.50	84.615
814.81	104.412
815.11	118.367
815.41	103.279
815.72	123.810
816.02	109.091
816.32	121.429
816.62	102.500
816.93	141.463
817.23	147.619
817.53	129.545
817.84	169.697
818.14	113.043
818.44	122.222
818.74	147.059
819.04	125.000
819.35	157.143
819.65	176.471
819.95	178.571
820.25	215.000
820.56	133.333
820.86	113.636
821.16	137.209
821.46	138.462
821.76	136.000
822.07	157.143
822.37	142.500
822.67	172.727
822.97	101.961
823.27	171.429
823.57	140.541
823.88	135.000
824.18	196.667
824.48	130.952
824.78	196.000
825.08	162.500
825.38	159.459
825.69	143.902
825.99	216.667
826.29	155.172
826.59	168.421
826.89	136.842
827.19	176.471
827.49	187.097
827.79	150.000
828.09	118.182
828.39	112.766
828.70	124.490
829.00	140.741
829.30	151.613
829.60	137.500
829.90	273.333
830.20	203.571
830.50	208.696
830.80	243.478
831.10	190.000
831.40	176.667
831.70	186.957
832.00	230.769
832.30	214.815
832.60	281.250
832.90	196.667
833.20	407.143
833.50	196.774
833.80	203.448
834.10	200.000
834.40	215.385
834.70	305.556
835.00	261.905
835.30	160.000
835.60	300.000
835.90	165.517
836.20	350.000
836.50	203.448
836.80	204.000
837.10	180.556
837.40	252.381
837.70	270.588
838.00	225.926
838.30	261.905
838.60	290.476
838.90	234.615
839.19	240.000
839.49	321.429
839.79	255.000
840.09	305.000
840.39	233.333
840.69	260.870
840.99	300.000
841.29	540.000
841.59	316.667
841.88	381.250
842.18	196.552
842.48	266.667
842.78	193.333
843.08	208.696
843.38	168.750
843.68	766.667
843.97	238.462
844.27	189.655
844.57	285.714
844.87	337.500
845.17	196.296
845.47	1566.667
845.76	500.000
846.06	247.059
846.36	625.000
846.66	314.286
846.96	256.250
847.25	345.455
847.55	427.273
847.85	256.522
848.15	450.000
848.44	400.000
848.74	294.444
849.04	282.353
849.34	660.000
849.63	247.368
849.93	463.636
850.23	1060.000
850.53	421.429
850.82	2100.000
851.12	-3400.000
851.42	4600.000
851.71	240.000
852.01	-1200.000
852.31	229.167
852.61	1866.667
852.90	261.905
853.20	260.000
853.50	288.235
853.79	252.381
854.09	200.000
854.39	325.000
854.68	154.054
854.98	219.355
855.28	143.333
855.57	203.448
855.87	214.815
856.17	236.842
856.46	313.333
856.76	317.647
857.05	196.552
857.35	233.333
857.65	373.333
857.94	239.130
858.24	219.231
858.53	275.000
858.83	259.091
859.13	333.333
859.42	0.000
859.72	533.333
860.01	445.455
860.31	245.455
860.60	273.684
860.90	230.435
861.20	422.222
861.49	466.667
861.79	-4800.000
862.08	612.500
862.38	257.143
862.67	338.462
862.97	305.882
863.26	577.778
863.56	266.667
863.85	391.667
864.15	562.500
864.44	393.333
864.74	833.333
865.03	712.500
865.33	300.000
865.62	436.364
865.92	423.077
866.21	383.333
866.51	0.000
866.80	381.818
867.10	1080.000
867.39	476.923
867.69	454.545
867.98	268.421
868.27	500.000
868.57	268.421
868.86	-3800.000
869.16	343.750
869.45	2050.000
869.75	-4300.000
870.04	450.000
870.33	757.143
870.63	1000.000
870.92	2350.000
871.22	757.143
871.51	294.118
871.80	228.571
872.10	364.286
>>>>>End Processed Spectral Data<<<<<
