SpectraSuite Data File
++++++++++++++++++++++++++++++++++++
Date: Wed May 13 20:23:11 PDT 2015
User: schluterlab
Dark Spectrum Present: Yes
Reference Spectrum Present: Yes
Number of Sampled Component Spectra: 1
Spectrometers: USB2E3373
Integration Time (usec): 3000 (USB2E3373)
Spectra Averaged: 3 (USB2E3373)
Boxcar Smoothing: 0 (USB2E3373)
Correct for Electrical Dark: No (USB2E3373)
Strobe/Lamp Enabled: No (USB2E3373)
Correct for Detector Non-linearity: No (USB2E3373)
Correct for Stray Light: No (USB2E3373)
Number of Pixels in Processed Spectrum: 2048
>>>>>Begin Processed Spectral Data<<<<<
178.53	0.000
178.91	-1100.000
179.29	-1550.000
179.67	-283.333
180.04	-1250.000
180.42	2650.000
180.80	1020.000
181.18	-1125.000
181.56	728.571
181.94	0.000
182.31	-614.286
182.69	1533.333
183.07	-575.000
183.45	-433.333
183.83	509.091
184.20	-520.000
184.58	2200.000
184.96	5700.000
185.34	-740.000
185.72	-612.500
186.09	-2400.000
186.47	2700.000
186.85	2150.000
187.23	5000.000
187.61	-1800.000
187.98	1350.000
188.36	554.545
188.74	427.273
189.12	-1020.000
189.49	490.000
189.87	-5300.000
190.25	-1150.000
190.63	407.143
191.00	476.923
191.38	666.667
191.76	-1075.000
192.14	1375.000
192.51	612.500
192.89	833.333
193.27	600.000
193.65	-1325.000
194.02	500.000
194.40	940.000
194.78	580.000
195.15	550.000
195.53	610.000
195.91	-2100.000
196.29	350.000
196.66	342.105
197.04	-370.000
197.42	0.000
197.79	670.000
198.17	-4200.000
198.55	742.857
198.92	712.500
199.30	960.000
199.68	0.000
200.05	383.333
200.43	800.000
200.81	4400.000
201.18	1900.000
201.56	-1466.667
201.94	522.222
202.31	500.000
202.69	400.000
203.07	530.000
203.44	0.000
203.82	1050.000
204.19	785.714
204.57	364.286
204.95	712.500
205.32	1566.667
205.70	563.636
206.08	392.857
206.45	2500.000
206.83	356.250
207.20	800.000
207.58	900.000
207.96	316.667
208.33	700.000
208.71	-900.000
209.08	814.286
209.46	622.222
209.84	445.455
210.21	-1433.333
210.59	1575.000
210.96	-500.000
211.34	2600.000
211.71	640.000
212.09	866.667
212.46	0.000
212.84	1333.333
213.22	1525.000
213.59	-5300.000
213.97	683.333
214.34	842.857
214.72	554.545
215.09	1040.000
215.47	-2200.000
215.84	-2200.000
216.22	1466.667
216.59	421.429
216.97	1475.000
217.34	472.727
217.72	-783.333
218.09	0.000
218.47	-5400.000
218.84	766.667
219.22	757.143
219.59	1733.333
219.97	-671.429
220.34	1000.000
220.72	-1500.000
221.09	378.571
221.47	1475.000
221.84	-933.333
222.22	0.000
222.59	1350.000
222.97	-2500.000
223.34	1100.000
223.72	469.231
224.09	1000.000
224.46	2150.000
224.84	-5100.000
225.21	-900.000
225.59	-4600.000
225.96	620.000
226.34	325.000
226.71	2600.000
227.08	662.500
227.46	630.000
227.83	-1150.000
228.21	-2350.000
228.58	611.111
228.95	-2350.000
229.33	-1950.000
229.70	1600.000
230.08	842.857
230.45	-820.000
230.82	433.333
231.20	750.000
231.57	671.429
231.95	491.667
232.32	240.909
232.69	427.273
233.07	714.286
233.44	353.846
233.81	-1833.333
234.19	315.789
234.56	441.667
234.93	275.000
235.31	454.545
235.68	384.615
236.05	364.286
236.43	163.636
236.80	310.526
237.17	4700.000
237.55	223.810
237.92	210.714
238.29	261.905
238.67	206.452
239.04	186.207
239.41	180.556
239.79	110.870
240.16	159.524
240.53	156.818
240.91	119.608
241.28	114.000
241.65	104.000
242.02	102.899
242.40	103.226
242.77	98.333
243.14	75.269
243.51	89.888
243.89	81.176
244.26	80.000
244.63	75.269
245.00	81.915
245.38	64.356
245.75	65.421
246.12	64.220
246.49	69.343
246.87	74.400
247.24	66.154
247.61	62.143
247.98	53.595
248.36	56.757
248.73	56.688
249.10	57.962
249.47	53.107
249.84	55.080
250.22	49.198
250.59	56.805
250.96	54.545
251.33	51.185
251.70	52.970
252.08	49.524
252.45	42.601
252.82	45.217
253.19	44.255
253.56	47.059
253.94	45.643
254.31	49.219
254.68	45.000
255.05	47.232
255.42	40.244
255.79	45.588
256.16	43.682
256.54	39.223
256.91	41.993
257.28	38.489
257.65	40.594
258.02	39.752
258.39	44.479
258.76	41.806
259.14	40.476
259.51	38.602
259.88	39.752
260.25	40.785
260.62	40.462
260.99	41.615
261.36	42.042
261.73	37.822
262.10	38.953
262.47	41.408
262.85	36.490
263.22	37.322
263.59	43.305
263.96	35.989
264.33	37.076
264.70	38.684
265.07	38.107
265.44	36.869
265.81	34.063
266.18	35.427
266.55	37.317
266.92	36.855
267.29	36.574
267.66	33.716
268.03	35.682
268.40	34.579
268.77	34.129
269.14	34.910
269.51	35.892
269.88	36.131
270.25	35.666
270.62	31.461
270.99	37.419
271.36	36.481
271.73	35.514
272.10	32.391
272.47	35.914
272.84	36.580
273.21	33.962
273.58	31.659
273.95	32.704
274.32	32.645
274.69	34.261
275.06	35.630
275.43	33.191
275.80	32.866
276.17	33.198
276.54	35.135
276.91	33.004
277.28	32.812
277.65	34.043
278.02	34.161
278.39	33.008
278.76	32.182
279.13	33.585
279.50	32.030
279.87	32.072
280.23	31.138
280.60	32.689
280.97	32.348
281.34	31.858
281.71	32.909
282.08	34.357
282.45	32.364
282.82	28.952
283.19	31.194
283.56	31.053
283.92	30.288
284.29	31.922
284.66	29.401
285.03	30.741
285.40	29.577
285.77	30.976
286.14	33.333
286.51	30.333
286.87	30.769
287.24	30.456
287.61	27.608
287.98	27.597
288.35	29.160
288.72	29.128
289.08	30.203
289.45	26.030
289.82	28.943
290.19	28.571
290.56	29.709
290.93	28.550
291.29	30.061
291.66	26.549
292.03	28.634
292.40	27.900
292.77	27.219
293.13	27.761
293.50	26.531
293.87	25.333
294.24	24.889
294.60	25.036
294.97	26.599
295.34	26.939
295.71	25.426
296.08	26.496
296.44	25.447
296.81	24.571
297.18	25.881
297.55	23.615
297.91	24.802
298.28	25.569
298.65	24.413
299.02	24.901
299.38	22.178
299.75	22.372
300.12	23.372
300.48	23.625
300.85	23.305
301.22	23.567
301.59	23.232
301.95	23.174
302.32	22.850
302.69	21.983
303.05	22.909
303.42	21.605
303.79	21.404
304.15	20.746
304.52	21.784
304.89	21.254
305.25	20.534
305.62	21.291
305.99	23.377
306.35	22.819
306.72	20.964
307.09	21.199
307.45	21.959
307.82	20.536
308.19	21.523
308.55	21.467
308.92	20.945
309.29	20.169
309.65	19.618
310.02	21.036
310.38	20.753
310.75	22.070
311.12	20.471
311.48	20.376
311.85	21.488
312.22	20.708
312.58	21.102
312.95	22.598
313.31	20.388
313.68	21.414
314.05	22.485
314.41	21.608
314.78	20.645
315.14	20.357
315.51	22.554
315.87	21.386
316.24	21.847
316.61	21.930
316.97	20.254
317.34	21.135
317.70	21.797
318.07	21.174
318.43	21.135
318.80	21.931
319.16	22.693
319.53	22.045
319.89	21.905
320.26	22.900
320.62	22.222
320.99	22.424
321.35	23.232
321.72	23.101
322.08	23.396
322.45	23.980
322.81	24.516
323.18	25.048
323.54	23.098
323.91	24.906
324.27	25.143
324.64	24.324
325.00	23.354
325.37	26.843
325.73	26.571
326.10	25.419
326.46	25.090
326.83	27.351
327.19	26.132
327.56	27.091
327.92	27.122
328.29	27.595
328.65	26.703
329.01	28.069
329.38	27.382
329.74	26.870
330.11	26.767
330.47	28.191
330.84	29.044
331.20	26.867
331.56	28.716
331.93	28.519
332.29	28.749
332.66	28.407
333.02	27.422
333.38	27.191
333.75	29.501
334.11	28.114
334.48	29.104
334.84	28.860
335.20	29.636
335.57	28.558
335.93	28.661
336.29	29.304
336.66	28.224
337.02	27.602
337.38	29.722
337.75	29.234
338.11	29.812
338.47	29.098
338.84	29.514
339.20	28.165
339.56	29.653
339.93	28.364
340.29	29.076
340.65	30.303
341.02	30.017
341.38	29.893
341.74	30.175
342.11	30.044
342.47	29.956
342.83	29.024
343.20	29.697
343.56	29.233
343.92	29.386
344.28	30.357
344.65	30.009
345.01	28.283
345.37	29.417
345.73	28.934
346.10	30.691
346.46	30.000
346.82	28.913
347.19	30.242
347.55	28.161
347.91	29.288
348.27	29.745
348.63	29.515
349.00	30.340
349.36	29.146
349.72	30.473
350.08	29.822
350.45	30.350
350.81	30.219
351.17	29.579
351.53	29.975
351.89	29.373
352.26	31.018
352.62	30.874
352.98	30.632
353.34	30.731
353.70	29.051
354.07	29.919
354.43	29.444
354.79	29.606
355.15	28.970
355.51	32.534
355.87	29.959
356.24	29.723
356.60	30.553
356.96	30.893
357.32	31.971
357.68	30.551
358.04	30.483
358.40	31.987
358.77	30.751
359.13	30.229
359.49	30.431
359.85	29.762
360.21	30.861
360.57	31.829
360.93	30.923
361.29	30.083
361.66	30.960
362.02	31.045
362.38	30.951
362.74	30.283
363.10	29.830
363.46	29.787
363.82	30.461
364.18	31.938
364.54	32.021
364.90	31.657
365.26	30.588
365.62	31.483
365.98	30.752
366.35	30.731
366.71	32.827
367.07	31.464
367.43	32.583
367.79	33.262
368.15	32.830
368.51	31.395
368.87	32.334
369.23	32.260
369.59	32.875
369.95	31.765
370.31	31.909
370.67	31.667
371.03	32.434
371.39	31.924
371.75	32.721
372.11	32.717
372.47	32.625
372.83	33.573
373.19	31.864
373.55	33.851
373.91	33.579
374.27	31.684
374.63	32.218
374.99	33.475
375.35	32.449
375.71	33.585
376.07	33.196
376.42	33.838
376.78	32.936
377.14	33.175
377.50	34.040
377.86	33.178
378.22	34.324
378.58	32.957
378.94	32.998
379.30	33.206
379.66	33.756
380.02	33.354
380.38	33.212
380.74	34.994
381.09	34.658
381.45	33.989
381.81	34.398
382.17	34.586
382.53	34.969
382.89	34.938
383.25	34.647
383.61	34.634
383.97	34.396
384.32	34.872
384.68	33.147
385.04	34.665
385.40	34.799
385.76	34.214
386.12	34.262
386.48	34.424
386.83	35.536
387.19	34.941
387.55	34.632
387.91	35.308
388.27	35.009
388.62	34.972
388.98	34.337
389.34	35.294
389.70	35.806
390.06	35.615
390.42	36.187
390.77	34.733
391.13	36.822
391.49	36.294
391.85	35.264
392.20	35.268
392.56	35.922
392.92	36.433
393.28	35.680
393.64	36.391
393.99	35.553
394.35	35.546
394.71	35.445
395.07	34.766
395.42	36.836
395.78	35.814
396.14	35.692
396.50	36.842
396.85	36.745
397.21	35.820
397.57	35.524
397.92	35.817
398.28	35.594
398.64	35.305
399.00	35.982
399.35	34.913
399.71	35.359
400.07	36.014
400.42	36.196
400.78	37.033
401.14	35.915
401.49	36.358
401.85	35.995
402.21	36.527
402.57	36.274
402.92	35.561
403.28	36.727
403.63	36.077
403.99	36.688
404.35	36.000
404.70	35.851
405.06	36.051
405.42	36.245
405.77	35.657
406.13	36.851
406.49	35.896
406.84	36.149
407.20	35.757
407.55	37.077
407.91	36.600
408.27	36.120
408.62	35.701
408.98	36.642
409.34	36.224
409.69	36.710
410.05	36.741
410.40	36.697
410.76	36.798
411.11	37.696
411.47	36.166
411.83	35.247
412.18	35.683
412.54	37.049
412.89	37.530
413.25	36.246
413.60	36.072
413.96	36.308
414.31	36.999
414.67	35.932
415.03	36.887
415.38	37.049
415.74	37.106
416.09	36.904
416.45	35.609
416.80	36.021
417.16	37.466
417.51	38.089
417.87	36.609
418.22	37.413
418.58	37.831
418.93	35.995
419.29	36.856
419.64	36.587
420.00	37.561
420.35	36.290
420.71	37.059
421.06	36.158
421.42	36.374
421.77	36.547
422.12	36.440
422.48	35.564
422.83	37.798
423.19	35.635
423.54	37.435
423.90	36.638
424.25	35.623
424.61	35.119
424.96	35.918
425.31	36.102
425.67	35.281
426.02	35.143
426.38	37.241
426.73	36.454
427.09	34.650
427.44	37.090
427.79	36.170
428.15	36.012
428.50	36.279
428.85	36.055
429.21	36.113
429.56	35.562
429.92	35.632
430.27	35.055
430.62	35.637
430.98	37.001
431.33	36.134
431.68	36.178
432.04	35.942
432.39	35.751
432.74	36.206
433.10	36.729
433.45	36.501
433.80	36.308
434.16	35.951
434.51	36.368
434.86	36.431
435.22	36.687
435.57	36.413
435.92	36.279
436.28	37.248
436.63	36.700
436.98	36.405
437.34	37.925
437.69	37.048
438.04	38.111
438.39	36.358
438.75	37.594
439.10	37.486
439.45	36.954
439.81	37.039
440.16	36.364
440.51	36.907
440.86	37.174
441.22	36.819
441.57	36.571
441.92	37.052
442.27	36.921
442.63	36.124
442.98	37.014
443.33	36.739
443.68	36.964
444.03	37.140
444.39	36.368
444.74	36.418
445.09	37.089
445.44	36.577
445.79	36.071
446.15	36.474
446.50	36.564
446.85	36.948
447.20	36.563
447.55	36.628
447.91	37.452
448.26	38.008
448.61	37.818
448.96	37.154
449.31	37.627
449.66	36.860
450.02	36.267
450.37	35.771
450.72	36.830
451.07	36.746
451.42	36.292
451.77	37.111
452.12	37.125
452.47	37.313
452.83	36.713
453.18	36.491
453.53	37.291
453.88	36.562
454.23	37.119
454.58	37.553
454.93	37.572
455.28	36.721
455.63	36.893
455.98	38.274
456.34	36.997
456.69	38.384
457.04	37.028
457.39	36.645
457.74	36.738
458.09	37.493
458.44	37.571
458.79	36.226
459.14	36.795
459.49	37.536
459.84	36.454
460.19	35.533
460.54	36.227
460.89	37.027
461.24	37.401
461.59	37.420
461.94	37.361
462.29	37.329
462.64	36.822
462.99	37.411
463.34	38.400
463.69	37.273
464.04	37.681
464.39	38.029
464.74	36.898
465.09	36.912
465.44	35.956
465.79	37.472
466.14	37.219
466.49	36.986
466.84	37.945
467.19	37.115
467.54	37.250
467.89	37.095
468.24	37.173
468.59	38.645
468.94	36.775
469.29	37.404
469.64	38.019
469.99	38.633
470.34	39.102
470.68	39.009
471.03	36.939
471.38	38.916
471.73	38.508
472.08	39.276
472.43	37.877
472.78	38.249
473.13	38.383
473.48	37.890
473.83	37.439
474.17	37.026
474.52	37.655
474.87	37.653
475.22	37.145
475.57	36.378
475.92	36.431
476.27	37.599
476.61	37.728
476.96	37.658
477.31	37.258
477.66	37.856
478.01	37.794
478.36	38.340
478.70	36.864
479.05	36.954
479.40	37.615
479.75	37.062
480.10	37.575
480.45	35.745
480.79	37.124
481.14	37.476
481.49	38.016
481.84	36.991
482.19	36.847
482.53	37.477
482.88	37.832
483.23	37.944
483.58	37.489
483.92	36.926
484.27	35.948
484.62	36.336
484.97	36.539
485.31	35.993
485.66	34.612
486.01	34.138
486.36	32.952
486.70	33.144
487.05	33.311
487.40	34.270
487.75	33.653
488.09	34.698
488.44	35.390
488.79	36.239
489.13	36.287
489.48	36.827
489.83	36.944
490.17	37.045
490.52	36.670
490.87	37.042
491.22	36.971
491.56	36.128
491.91	36.668
492.26	36.472
492.60	35.945
492.95	36.576
493.30	36.355
493.64	37.984
493.99	36.537
494.34	37.465
494.68	37.179
495.03	36.701
495.37	37.087
495.72	37.524
496.07	37.355
496.41	36.770
496.76	37.511
497.11	37.371
497.45	37.587
497.80	37.812
498.14	37.971
498.49	37.659
498.84	37.392
499.18	36.857
499.53	37.654
499.87	37.698
500.22	37.400
500.56	38.058
500.91	37.308
501.26	36.842
501.60	38.348
501.95	36.664
502.29	37.863
502.64	38.268
502.98	37.915
503.33	37.020
503.67	37.726
504.02	38.307
504.36	38.652
504.71	39.033
505.06	38.506
505.40	38.600
505.75	38.428
506.09	38.144
506.44	39.171
506.78	38.675
507.13	39.273
507.47	39.545
507.82	40.071
508.16	39.514
508.51	39.523
508.85	38.183
509.19	39.796
509.54	39.592
509.88	39.413
510.23	39.332
510.57	40.918
510.92	39.254
511.26	40.082
511.61	40.197
511.95	40.031
512.30	40.350
512.64	40.408
512.98	40.997
513.33	41.542
513.67	39.968
514.02	40.314
514.36	41.726
514.70	41.395
515.05	41.049
515.39	41.615
515.74	41.554
516.08	41.755
516.42	42.231
516.77	42.419
517.11	41.620
517.46	42.043
517.80	43.554
518.14	41.575
518.49	43.232
518.83	42.955
519.17	42.610
519.52	42.898
519.86	42.442
520.20	42.370
520.55	43.208
520.89	43.613
521.23	44.270
521.58	43.818
521.92	44.397
522.26	43.075
522.61	43.302
522.95	44.138
523.29	43.761
523.64	43.110
523.98	43.623
524.32	44.572
524.66	43.476
525.01	44.485
525.35	44.052
525.69	43.534
526.04	44.735
526.38	45.149
526.72	44.233
527.06	43.440
527.41	42.884
527.75	44.437
528.09	44.958
528.43	43.977
528.78	43.823
529.12	43.576
529.46	43.723
529.80	44.864
530.15	44.798
530.49	43.938
530.83	43.924
531.17	45.496
531.51	45.525
531.86	44.903
532.20	45.567
532.54	44.587
532.88	44.865
533.22	42.723
533.57	44.691
533.91	44.010
534.25	44.228
534.59	44.173
534.93	43.248
535.27	43.573
535.62	43.712
535.96	43.691
536.30	43.992
536.64	44.559
536.98	44.990
537.32	44.108
537.66	44.800
538.01	45.227
538.35	44.085
538.69	44.416
539.03	42.755
539.37	43.834
539.71	43.746
540.05	44.837
540.39	43.389
540.73	42.626
541.07	44.257
541.42	44.618
541.76	44.581
542.10	44.955
542.44	43.841
542.78	45.257
543.12	42.674
543.46	44.262
543.80	43.982
544.14	43.453
544.48	44.381
544.82	43.297
545.16	43.396
545.50	42.995
545.84	44.019
546.18	45.455
546.52	44.529
546.86	43.093
547.20	45.179
547.54	43.420
547.88	43.814
548.22	43.587
548.56	43.774
548.90	43.854
549.24	45.051
549.58	43.861
549.92	44.574
550.26	45.597
550.60	44.467
550.94	43.803
551.28	42.721
551.62	44.500
551.96	44.281
552.30	44.778
552.64	43.813
552.98	44.407
553.32	43.156
553.66	43.695
554.00	43.445
554.34	43.064
554.68	44.707
555.02	43.794
555.36	43.702
555.69	42.625
556.03	43.069
556.37	43.793
556.71	43.929
557.05	44.538
557.39	43.107
557.73	43.684
558.07	44.162
558.41	43.343
558.75	44.085
559.08	43.699
559.42	43.840
559.76	44.706
560.10	44.183
560.44	42.348
560.78	42.116
561.12	42.810
561.45	43.351
561.79	42.980
562.13	43.058
562.47	43.511
562.81	42.329
563.15	42.742
563.48	43.236
563.82	42.661
564.16	41.073
564.50	42.448
564.84	41.909
565.17	42.857
565.51	43.323
565.85	41.561
566.19	41.390
566.52	42.685
566.86	41.290
567.20	41.686
567.54	41.553
567.88	39.870
568.21	40.688
568.55	39.585
568.89	40.467
569.23	38.547
569.56	37.733
569.90	37.472
570.24	37.603
570.57	37.504
570.91	35.844
571.25	37.122
571.59	37.084
571.92	36.463
572.26	37.117
572.60	37.087
572.93	36.282
573.27	36.291
573.61	36.711
573.95	36.047
574.28	35.955
574.62	35.860
574.96	35.579
575.29	35.984
575.63	35.899
575.97	35.590
576.30	36.113
576.64	35.810
576.98	35.975
577.31	35.213
577.65	34.962
577.98	35.082
578.32	34.909
578.66	35.115
578.99	35.312
579.33	35.681
579.67	35.660
580.00	35.723
580.34	35.287
580.67	35.098
581.01	34.877
581.35	35.426
581.68	34.852
582.02	34.389
582.35	34.702
582.69	34.546
583.02	35.363
583.36	34.771
583.70	34.990
584.03	34.796
584.37	35.283
584.70	35.475
585.04	35.298
585.37	35.065
585.71	35.009
586.04	35.033
586.38	35.502
586.72	35.653
587.05	35.262
587.39	35.251
587.72	35.146
588.06	35.432
588.39	36.296
588.73	35.876
589.06	36.585
589.40	36.566
589.73	36.783
590.07	36.263
590.40	36.025
590.73	37.080
591.07	36.549
591.40	36.989
591.74	37.359
592.07	37.347
592.41	37.329
592.74	36.479
593.08	36.176
593.41	35.622
593.75	34.728
594.08	35.903
594.41	36.621
594.75	35.749
595.08	36.364
595.42	35.972
595.75	36.717
596.09	37.139
596.42	37.525
596.75	36.724
597.09	37.316
597.42	36.889
597.75	36.999
598.09	37.391
598.42	36.813
598.76	36.968
599.09	36.374
599.42	35.408
599.76	36.493
600.09	35.264
600.42	35.208
600.76	35.321
601.09	35.920
601.42	36.454
601.76	36.205
602.09	36.047
602.42	36.146
602.76	36.195
603.09	35.799
603.42	35.416
603.76	35.480
604.09	35.440
604.42	36.364
604.76	36.229
605.09	36.872
605.42	35.614
605.75	35.844
606.09	36.072
606.42	36.248
606.75	36.126
607.09	35.956
607.42	36.799
607.75	35.570
608.08	36.648
608.42	36.755
608.75	36.384
609.08	36.401
609.41	36.173
609.75	35.970
610.08	36.051
610.41	36.453
610.74	36.613
611.07	36.808
611.41	37.488
611.74	36.903
612.07	37.474
612.40	37.041
612.73	36.474
613.07	37.177
613.40	37.651
613.73	36.917
614.06	37.258
614.39	37.021
614.72	36.895
615.06	38.393
615.39	36.677
615.72	36.503
616.05	36.257
616.38	38.466
616.71	38.064
617.05	37.456
617.38	37.643
617.71	36.937
618.04	37.740
618.37	36.546
618.70	37.834
619.03	39.013
619.36	37.339
619.69	38.169
620.03	39.354
620.36	38.837
620.69	38.014
621.02	37.832
621.35	39.624
621.68	39.019
622.01	39.087
622.34	38.880
622.67	38.935
623.00	38.225
623.33	37.527
623.66	38.027
623.99	38.954
624.32	38.445
624.65	38.277
624.99	38.598
625.32	37.654
625.65	37.340
625.98	38.816
626.31	38.647
626.64	39.837
626.97	40.150
627.30	40.565
627.63	39.705
627.96	40.034
628.29	39.633
628.62	41.171
628.95	42.358
629.28	41.332
629.61	40.422
629.94	40.667
630.26	41.659
630.59	40.515
630.92	41.954
631.25	39.980
631.58	41.441
631.91	38.945
632.24	40.928
632.57	42.078
632.90	42.763
633.23	43.624
633.56	41.582
633.89	41.676
634.22	41.884
634.55	43.905
634.88	41.437
635.20	42.772
635.53	42.771
635.86	43.936
636.19	42.588
636.52	41.292
636.85	40.664
637.18	40.668
637.51	43.972
637.83	41.677
638.16	43.478
638.49	41.688
638.82	45.891
639.15	44.000
639.48	42.145
639.81	44.102
640.13	43.750
640.46	42.819
640.79	42.404
641.12	43.329
641.45	41.061
641.77	45.508
642.10	44.737
642.43	44.294
642.76	43.344
643.09	46.319
643.41	44.158
643.74	46.759
644.07	44.817
644.40	43.712
644.73	47.087
645.05	46.434
645.38	44.392
645.71	46.055
646.04	44.850
646.36	48.080
646.69	46.321
647.02	45.748
647.35	48.110
647.67	47.611
648.00	44.390
648.33	46.205
648.66	43.636
648.98	46.177
649.31	43.049
649.64	43.797
649.96	43.219
650.29	45.656
650.62	42.718
650.94	44.895
651.27	47.466
651.60	45.757
651.92	43.291
652.25	42.997
652.58	45.327
652.90	43.918
653.23	41.757
653.56	44.567
653.88	45.008
654.21	45.024
654.54	44.719
654.86	42.679
655.19	39.595
655.52	30.305
655.84	27.247
656.17	34.737
656.49	46.228
656.82	46.613
657.15	34.871
657.47	25.916
657.80	19.637
658.13	20.252
658.45	30.243
658.78	30.529
659.10	31.607
659.43	33.118
659.75	33.765
660.08	36.835
660.41	41.806
660.73	42.821
661.06	42.675
661.38	46.000
661.71	48.077
662.03	48.915
662.36	43.738
662.68	47.390
663.01	46.465
663.33	45.435
663.66	47.269
663.98	48.812
664.31	45.798
664.63	43.927
664.96	46.479
665.28	47.131
665.61	43.275
665.93	45.473
666.26	47.059
666.58	46.025
666.91	47.780
667.23	47.416
667.56	45.572
667.88	42.949
668.21	47.335
668.53	46.855
668.86	45.022
669.18	46.695
669.50	47.174
669.83	48.366
670.15	47.778
670.48	44.227
670.80	43.534
671.13	49.257
671.45	46.383
671.77	46.843
672.10	43.438
672.42	43.463
672.75	40.796
673.07	43.310
673.39	42.857
673.72	44.922
674.04	42.157
674.37	46.408
674.69	42.740
675.01	43.305
675.34	47.844
675.66	46.316
675.98	45.418
676.31	46.008
676.63	45.435
676.95	45.702
677.28	47.897
677.60	48.571
677.92	47.468
678.25	47.023
678.57	44.622
678.89	44.289
679.22	43.811
679.54	44.275
679.86	43.853
680.18	42.755
680.51	43.617
680.83	43.772
681.15	42.453
681.48	43.856
681.80	43.327
682.12	42.720
682.44	41.393
682.77	44.603
683.09	45.279
683.41	46.341
683.73	45.695
684.06	45.661
684.38	43.249
684.70	43.992
685.02	45.403
685.34	43.223
685.67	40.559
685.99	42.096
686.31	41.980
686.63	39.929
686.96	39.643
687.28	42.238
687.60	42.029
687.92	41.316
688.24	41.255
688.56	45.382
688.89	45.228
689.21	46.725
689.53	43.006
689.85	45.455
690.17	42.443
690.49	46.497
690.82	44.159
691.14	43.973
691.46	40.295
691.78	42.972
692.10	45.868
692.42	44.112
692.74	42.739
693.06	44.043
693.39	46.407
693.71	43.668
694.03	44.842
694.35	43.723
694.67	44.622
694.99	46.585
695.31	42.402
695.63	43.780
695.95	44.743
696.27	42.386
696.59	46.114
696.91	47.668
697.23	40.610
697.56	45.416
697.88	39.877
698.20	43.333
698.52	40.860
698.84	46.102
699.16	42.166
699.48	43.943
699.80	45.411
700.12	49.610
700.44	47.480
700.76	48.619
701.08	47.126
701.40	45.810
701.72	49.271
702.04	51.420
702.36	47.875
702.68	47.309
703.00	46.260
703.32	44.681
703.64	47.185
703.96	47.911
704.28	47.093
704.60	48.094
704.91	50.742
705.23	48.680
705.55	51.163
705.87	53.821
706.19	51.943
706.51	47.040
706.83	45.455
707.15	49.020
707.47	46.465
707.79	44.226
708.11	42.922
708.43	40.952
708.74	40.051
709.06	46.753
709.38	45.669
709.70	47.093
710.02	48.961
710.34	46.061
710.66	44.478
710.98	41.193
711.29	48.837
711.61	45.723
711.93	49.038
712.25	48.875
712.57	50.735
712.89	47.059
713.20	49.240
713.52	51.316
713.84	47.468
714.16	45.427
714.48	46.839
714.80	48.632
715.11	44.669
715.43	47.478
715.75	43.768
716.07	52.716
716.39	45.455
716.70	49.502
717.02	50.360
717.34	45.936
717.66	53.358
717.97	54.183
718.29	48.889
718.61	50.730
718.93	53.309
719.24	49.135
719.56	46.441
719.88	50.169
720.20	54.392
720.51	47.387
720.83	57.249
721.15	50.000
721.46	46.454
721.78	50.179
722.10	50.943
722.42	47.744
722.73	50.187
723.05	50.820
723.37	48.583
723.68	49.421
724.00	51.220
724.32	47.984
724.63	48.780
724.95	55.230
725.27	53.036
725.58	50.000
725.90	50.365
726.22	51.698
726.53	48.264
726.85	43.003
727.16	45.196
727.48	47.163
727.80	43.939
728.11	48.551
728.43	53.077
728.74	48.029
729.06	51.460
729.38	53.676
729.69	47.687
730.01	45.392
730.32	50.347
730.64	46.154
730.96	43.564
731.27	51.656
731.59	45.566
731.90	46.356
732.22	45.342
732.53	44.892
732.85	47.115
733.16	44.373
733.48	48.173
733.80	47.727
734.11	48.089
734.43	48.817
734.74	42.857
735.06	39.255
735.37	43.931
735.69	44.586
736.00	47.386
736.32	45.171
736.63	46.645
736.95	49.840
737.26	46.259
737.58	42.258
737.89	44.147
738.21	44.027
738.52	47.143
738.83	46.038
739.15	46.538
739.46	48.905
739.78	47.917
740.09	44.000
740.41	46.452
740.72	44.599
741.04	46.667
741.35	50.417
741.66	54.667
741.98	54.717
742.29	57.895
742.61	53.017
742.92	51.131
743.23	52.137
743.55	50.400
743.86	51.754
744.18	56.637
744.49	54.545
744.80	54.930
745.12	55.455
745.43	57.269
745.74	53.604
746.06	51.376
746.37	54.260
746.68	53.394
747.00	57.407
747.31	45.714
747.62	49.558
747.94	51.101
748.25	49.362
748.56	56.388
748.88	53.465
749.19	64.000
749.50	55.349
749.82	44.309
750.13	50.204
750.44	47.080
750.75	48.772
751.07	47.267
751.38	47.038
751.69	45.848
752.01	46.992
752.32	46.209
752.63	47.872
752.94	50.000
753.26	52.400
753.57	45.528
753.88	51.562
754.19	45.714
754.51	48.611
754.82	42.238
755.13	46.792
755.44	49.624
755.75	41.971
756.07	42.553
756.38	44.161
756.69	43.960
757.00	44.611
757.31	41.543
757.63	42.690
757.94	41.019
758.25	41.912
758.56	40.000
758.87	37.634
759.18	43.333
759.50	45.455
759.81	45.171
760.12	39.062
760.43	42.120
760.74	43.207
761.05	42.655
761.36	42.513
761.67	42.898
761.99	42.857
762.30	43.750
762.61	44.275
762.92	49.219
763.23	54.202
763.54	47.200
763.85	48.047
764.16	51.923
764.47	47.148
764.78	45.230
765.10	43.671
765.41	43.068
765.72	43.114
766.03	42.633
766.34	42.000
766.65	53.617
766.96	50.427
767.27	62.437
767.58	54.688
767.89	58.947
768.20	59.195
768.51	54.315
768.82	55.505
769.13	48.374
769.44	46.559
769.75	45.494
770.06	53.211
770.37	50.226
770.68	50.000
770.99	46.222
771.30	45.902
771.61	51.121
771.92	51.230
772.23	47.899
772.54	50.256
772.85	52.356
773.16	56.915
773.47	52.717
773.78	59.898
774.09	54.762
774.39	57.310
774.70	60.494
775.01	65.217
775.32	63.399
775.63	61.184
775.94	62.590
776.25	72.441
776.56	64.179
776.87	67.213
777.18	61.719
777.48	72.519
777.79	67.424
778.10	67.407
778.41	75.000
778.72	62.774
779.03	60.403
779.34	62.416
779.65	61.486
779.95	63.190
780.26	60.131
780.57	65.517
780.88	77.344
781.19	67.669
781.50	64.189
781.80	58.491
782.11	59.887
782.42	53.797
782.73	54.601
783.04	58.784
783.34	53.521
783.65	67.808
783.96	67.164
784.27	64.336
784.57	59.712
784.88	62.037
785.19	66.667
785.50	68.868
785.81	77.612
786.11	72.951
786.42	69.767
786.73	76.991
787.04	83.019
787.34	69.643
787.65	75.000
787.96	75.676
788.26	71.074
788.57	71.186
788.88	76.860
789.19	61.806
789.49	71.212
789.80	62.595
790.11	82.857
790.41	79.208
790.72	77.108
791.03	86.957
791.33	94.186
791.64	73.196
791.95	88.119
792.25	87.778
792.56	93.506
792.87	106.410
793.17	94.937
793.48	90.805
793.79	91.954
794.09	77.273
794.40	62.185
794.70	68.382
795.01	61.481
795.32	65.468
795.62	70.079
795.93	69.828
796.23	80.531
796.54	83.529
796.85	85.135
797.15	111.268
797.46	112.121
797.76	100.000
798.07	92.405
798.37	100.000
798.68	101.515
798.99	78.873
799.29	94.805
799.60	79.545
799.90	106.849
800.21	102.985
800.51	105.172
800.82	124.561
801.12	116.393
801.43	100.000
801.73	91.892
802.04	126.984
802.34	90.123
802.65	110.938
802.95	113.559
803.26	128.125
803.56	88.571
803.87	96.923
804.17	105.882
804.48	131.481
804.78	117.241
805.09	95.588
805.39	119.231
805.70	101.786
806.00	106.557
806.30	103.030
806.61	87.805
806.91	78.481
807.22	85.526
807.52	100.000
807.83	101.408
808.13	100.000
808.43	116.667
808.74	86.842
809.04	108.696
809.35	100.000
809.65	98.684
809.95	122.581
810.26	100.000
810.56	115.873
810.86	150.000
811.17	135.714
811.47	125.000
811.77	112.963
812.08	114.545
812.38	130.000
812.69	150.000
812.99	179.545
813.29	134.694
813.59	109.524
813.90	153.061
814.20	112.727
814.50	107.692
814.81	116.176
815.11	132.653
815.41	104.918
815.72	159.524
816.02	118.182
816.32	121.429
816.62	125.000
816.93	175.610
817.23	159.524
817.53	163.636
817.84	193.939
818.14	139.130
818.44	146.667
818.74	167.647
819.04	160.000
819.35	174.286
819.65	182.353
819.95	228.571
820.25	205.000
820.56	179.487
820.86	145.455
821.16	167.442
821.46	151.282
821.76	132.000
822.07	160.000
822.37	140.000
822.67	157.576
822.97	115.686
823.27	210.714
823.57	145.946
823.88	147.500
824.18	210.000
824.48	173.810
824.78	232.000
825.08	200.000
825.38	156.757
825.69	160.976
825.99	195.833
826.29	168.966
826.59	171.053
826.89	168.421
827.19	176.471
827.49	193.548
827.79	172.727
828.09	150.000
828.39	117.021
828.70	130.612
829.00	203.704
829.30	151.613
829.60	162.500
829.90	326.667
830.20	192.857
830.50	234.783
830.80	247.826
831.10	213.333
831.40	176.667
831.70	191.304
832.00	211.538
832.30	200.000
832.60	400.000
832.90	196.667
833.20	364.286
833.50	190.323
833.80	186.207
834.10	181.250
834.40	269.231
834.70	311.111
835.00	300.000
835.30	160.000
835.60	338.462
835.90	206.897
836.20	371.429
836.50	189.655
836.80	196.000
837.10	183.333
837.40	295.238
837.70	288.235
838.00	188.889
838.30	242.857
838.60	285.714
838.90	223.077
839.19	250.000
839.49	457.143
839.79	345.000
840.09	305.000
840.39	257.143
840.69	273.913
840.99	327.778
841.29	490.000
841.59	366.667
841.88	362.500
842.18	186.207
842.48	319.048
842.78	226.667
843.08	230.435
843.38	184.375
843.68	766.667
843.97	211.538
844.27	224.138
844.57	285.714
844.87	325.000
845.17	225.926
845.47	1566.667
845.76	533.333
846.06	341.176
846.36	487.500
846.66	442.857
846.96	287.500
847.25	427.273
847.55	463.636
847.85	256.522
848.15	510.000
848.44	350.000
848.74	250.000
849.04	329.412
849.34	470.000
849.63	236.842
849.93	481.818
850.23	1200.000
850.53	507.143
850.82	2500.000
851.12	-4400.000
851.42	4600.000
851.71	285.000
852.01	-1233.333
852.31	250.000
852.61	1900.000
852.90	238.095
853.20	244.000
853.50	300.000
853.79	233.333
854.09	229.167
854.39	387.500
854.68	164.865
854.98	164.516
855.28	163.333
855.57	172.414
855.87	203.704
856.17	226.316
856.46	220.000
856.76	317.647
857.05	168.966
857.35	208.333
857.65	326.667
857.94	217.391
858.24	253.846
858.53	295.000
858.83	272.727
859.13	380.000
859.42	0.000
859.72	577.778
860.01	518.182
860.31	245.455
860.60	289.474
860.90	278.261
861.20	511.111
861.49	450.000
861.79	-3000.000
862.08	625.000
862.38	309.524
862.67	407.692
862.97	394.118
863.26	500.000
863.56	294.444
863.85	375.000
864.15	712.500
864.44	393.333
864.74	750.000
865.03	600.000
865.33	305.263
865.62	372.727
865.92	407.692
866.21	383.333
866.51	0.000
866.80	490.909
867.10	1140.000
867.39	453.846
867.69	445.455
867.98	257.895
868.27	463.636
868.57	284.211
868.86	-5200.000
869.16	343.750
869.45	2200.000
869.75	-3200.000
870.04	458.333
870.33	642.857
870.63	1050.000
870.92	2300.000
871.22	671.429
871.51	358.824
871.80	228.571
872.10	428.571
>>>>>End Processed Spectral Data<<<<<
