SpectraSuite Data File
++++++++++++++++++++++++++++++++++++
Date: Wed May 13 20:38:26 PDT 2015
User: schluterlab
Dark Spectrum Present: Yes
Reference Spectrum Present: Yes
Number of Sampled Component Spectra: 1
Spectrometers: USB2E3373
Integration Time (usec): 3000 (USB2E3373)
Spectra Averaged: 3 (USB2E3373)
Boxcar Smoothing: 0 (USB2E3373)
Correct for Electrical Dark: No (USB2E3373)
Strobe/Lamp Enabled: No (USB2E3373)
Correct for Detector Non-linearity: No (USB2E3373)
Correct for Stray Light: No (USB2E3373)
Number of Pixels in Processed Spectrum: 2048
>>>>>Begin Processed Spectral Data<<<<<
178.53	0.000
178.91	-975.000
179.29	-975.000
179.67	-155.556
180.04	-775.000
180.42	1450.000
180.80	780.000
181.18	-725.000
181.56	442.857
181.94	0.000
182.31	-471.429
182.69	1300.000
183.07	-362.500
183.45	-366.667
183.83	390.909
184.20	-310.000
184.58	1900.000
184.96	3400.000
185.34	-720.000
185.72	-462.500
186.09	-1600.000
186.47	2100.000
186.85	2150.000
187.23	3900.000
187.61	-1266.667
187.98	1100.000
188.36	381.818
188.74	409.091
189.12	-620.000
189.49	420.000
189.87	-3600.000
190.25	-925.000
190.63	250.000
191.00	346.154
191.38	833.333
191.76	-800.000
192.14	1150.000
192.51	412.500
192.89	633.333
193.27	225.000
193.65	-750.000
194.02	390.000
194.40	580.000
194.78	410.000
195.15	400.000
195.53	460.000
195.91	-1900.000
196.29	337.500
196.66	236.842
197.04	-200.000
197.42	0.000
197.79	570.000
198.17	-3000.000
198.55	600.000
198.92	525.000
199.30	680.000
199.68	0.000
200.05	200.000
200.43	514.286
200.81	3400.000
201.18	1266.667
201.56	-900.000
201.94	411.111
202.31	400.000
202.69	325.000
203.07	440.000
203.44	0.000
203.82	875.000
204.19	557.143
204.57	328.571
204.95	425.000
205.32	1233.333
205.70	454.545
206.08	235.714
206.45	1600.000
206.83	287.500
207.20	883.333
207.58	480.000
207.96	277.778
208.33	587.500
208.71	-683.333
209.08	571.429
209.46	466.667
209.84	336.364
210.21	-1033.333
210.59	1050.000
210.96	-350.000
211.34	1850.000
211.71	450.000
212.09	550.000
212.46	0.000
212.84	1566.667
213.22	1150.000
213.59	-3800.000
213.97	650.000
214.34	614.286
214.72	481.818
215.09	720.000
215.47	-1300.000
215.84	-1650.000
216.22	1200.000
216.59	264.286
216.97	925.000
217.34	436.364
217.72	-500.000
218.09	0.000
218.47	-3100.000
218.84	322.222
219.22	542.857
219.59	1100.000
219.97	-571.429
220.34	700.000
220.72	-1266.667
221.09	350.000
221.47	1225.000
221.84	-666.667
222.22	0.000
222.59	1050.000
222.97	-1600.000
223.34	760.000
223.72	284.615
224.09	820.000
224.46	1700.000
224.84	-3900.000
225.21	-820.000
225.59	-3900.000
225.96	430.000
226.34	245.000
226.71	2550.000
227.08	587.500
227.46	320.000
227.83	-775.000
228.21	-1850.000
228.58	488.889
228.95	-1550.000
229.33	-1400.000
229.70	1400.000
230.08	785.714
230.45	-700.000
230.82	366.667
231.20	633.333
231.57	442.857
231.95	333.333
232.32	209.091
232.69	290.909
233.07	400.000
233.44	261.538
233.81	-1466.667
234.19	268.421
234.56	441.667
234.93	325.000
235.31	390.909
235.68	276.923
236.05	292.857
236.43	178.788
236.80	252.632
237.17	4500.000
237.55	200.000
237.92	178.571
238.29	238.095
238.67	164.516
239.04	186.207
239.41	169.444
239.79	126.087
240.16	157.143
240.53	145.455
240.91	115.686
241.28	116.000
241.65	144.000
242.02	118.841
242.40	104.839
242.77	120.000
243.14	88.172
243.51	98.876
243.89	100.000
244.26	80.000
244.63	96.774
245.00	78.723
245.38	90.099
245.75	78.505
246.12	86.239
246.49	87.591
246.87	86.400
247.24	83.077
247.61	75.000
247.98	69.935
248.36	75.000
248.73	72.611
249.10	76.433
249.47	70.621
249.84	68.984
250.22	70.053
250.59	72.781
250.96	77.273
251.33	71.564
251.70	72.772
252.08	75.238
252.45	61.883
252.82	68.261
253.19	65.106
253.56	64.314
253.94	66.390
254.31	71.094
254.68	68.462
255.05	64.945
255.42	70.325
255.79	67.279
256.16	70.758
256.54	62.544
256.91	64.413
257.28	64.029
257.65	62.046
258.02	66.460
258.39	61.830
258.76	65.552
259.14	61.012
259.51	63.526
259.88	64.286
260.25	67.069
260.62	63.873
260.99	66.770
261.36	64.264
261.73	63.037
262.10	63.663
262.47	61.408
262.85	62.674
263.22	63.533
263.59	65.242
263.96	62.363
264.33	63.185
264.70	61.053
265.07	65.217
265.44	60.606
265.81	56.448
266.18	64.070
266.55	64.390
266.92	59.214
267.29	63.657
267.66	59.174
268.03	58.182
268.40	60.981
268.77	60.382
269.14	58.784
269.51	58.916
269.88	62.937
270.25	60.045
270.62	59.326
270.99	59.570
271.36	59.013
271.73	60.280
272.10	61.957
272.47	62.366
272.84	59.740
273.21	59.119
273.58	56.550
273.95	56.394
274.32	57.231
274.69	59.101
275.06	56.693
275.43	61.915
275.80	58.918
276.17	55.601
276.54	57.173
276.91	56.522
277.28	55.469
277.65	56.673
278.02	57.764
278.39	56.055
278.76	55.273
279.13	56.415
279.50	55.866
279.87	54.382
280.23	58.683
280.60	57.834
280.97	56.562
281.34	55.575
281.71	55.455
282.08	57.390
282.45	53.818
282.82	54.707
283.19	54.902
283.56	55.263
283.92	54.992
284.29	53.792
284.66	54.809
285.03	53.526
285.40	52.993
285.77	53.199
286.14	53.886
286.51	53.833
286.87	55.385
287.24	52.443
287.61	51.685
287.98	51.786
288.35	51.664
288.72	49.533
289.08	51.017
289.45	50.577
289.82	51.382
290.19	50.392
290.56	47.626
290.93	50.000
291.29	49.847
291.66	48.820
292.03	47.529
292.40	47.724
292.77	46.006
293.13	48.657
293.50	47.230
293.87	46.370
294.24	45.185
294.60	46.143
294.97	46.076
295.34	45.416
295.71	46.591
296.08	43.447
296.44	43.741
296.81	43.197
297.18	44.173
297.55	40.765
297.91	45.910
298.28	44.311
298.65	42.559
299.02	42.819
299.38	42.629
299.75	38.679
300.12	40.996
300.48	41.000
300.85	39.457
301.22	40.764
301.59	39.394
301.95	42.191
302.32	42.747
302.69	41.338
303.05	40.364
303.42	40.123
303.79	39.298
304.15	38.462
304.52	38.007
304.89	38.328
305.25	40.023
305.62	38.618
305.99	39.079
306.35	40.940
306.72	38.677
307.09	39.401
307.45	39.640
307.82	38.170
308.19	38.300
308.55	38.727
308.92	38.024
309.29	37.276
309.65	38.282
310.02	37.949
310.38	38.602
310.75	37.592
311.12	38.178
311.48	38.245
311.85	37.631
312.22	38.293
312.58	37.006
312.95	38.226
313.31	36.990
313.68	40.021
314.05	39.941
314.41	39.799
314.78	37.563
315.14	38.034
315.51	40.268
315.87	38.911
316.24	37.140
316.61	38.889
316.97	38.454
317.34	38.552
317.70	39.293
318.07	39.076
318.43	39.530
318.80	38.707
319.16	40.113
319.53	38.743
319.89	40.095
320.26	41.900
320.62	39.881
320.99	40.000
321.35	41.212
321.72	41.889
322.08	42.744
322.45	42.687
322.81	43.605
323.18	44.412
323.54	44.249
323.91	42.830
324.27	43.403
324.64	43.243
325.00	42.741
325.37	43.858
325.73	43.716
326.10	42.807
326.46	44.265
326.83	44.262
327.19	45.346
327.56	44.948
327.92	45.844
328.29	45.963
328.65	45.856
329.01	46.661
329.38	46.346
329.74	45.983
330.11	46.654
330.47	48.209
330.84	47.426
331.20	46.903
331.56	45.872
331.93	48.056
332.29	46.140
332.66	46.372
333.02	46.801
333.38	46.883
333.75	46.881
334.11	46.174
334.48	45.430
334.84	46.783
335.20	47.182
335.57	47.960
335.93	45.714
336.29	47.436
336.66	48.422
337.02	46.697
337.38	48.241
337.75	46.702
338.11	46.732
338.47	48.527
338.84	48.671
339.20	47.615
339.56	48.358
339.93	47.091
340.29	48.551
340.65	46.791
341.02	49.040
341.38	47.420
341.74	47.544
342.11	49.170
342.47	48.634
342.83	48.031
343.20	48.831
343.56	48.020
343.92	48.772
344.28	46.769
344.65	49.183
345.01	46.549
345.37	48.027
345.73	47.377
346.10	48.252
346.46	48.136
346.82	48.353
347.19	47.118
347.55	47.537
347.91	48.625
348.27	47.740
348.63	47.408
349.00	47.249
349.36	46.880
349.72	48.115
350.08	47.569
350.45	47.925
350.81	48.091
351.17	47.812
351.53	48.731
351.89	48.185
352.26	47.356
352.62	48.837
352.98	48.136
353.34	47.823
353.70	47.954
354.07	46.855
354.43	48.254
354.79	47.385
355.15	47.007
355.51	49.081
355.87	50.122
356.24	49.511
356.60	47.233
356.96	48.029
357.32	48.324
357.68	48.898
358.04	48.456
358.40	47.189
358.77	48.044
359.13	47.908
359.49	47.608
359.85	47.143
360.21	48.724
360.57	49.883
360.93	48.385
361.29	48.073
361.66	47.678
362.02	49.328
362.38	48.061
362.74	49.628
363.10	47.298
363.46	47.836
363.82	48.677
364.18	47.137
364.54	48.960
364.90	48.725
365.26	48.529
365.62	48.283
365.98	47.334
366.35	47.994
366.71	47.650
367.07	47.924
367.43	49.492
367.79	48.537
368.15	49.928
368.51	47.892
368.87	49.679
369.23	48.354
369.59	48.516
369.95	49.265
370.31	48.932
370.67	47.464
371.03	50.412
371.39	48.761
371.75	48.309
372.11	47.866
372.47	48.900
372.83	49.784
373.19	48.410
373.55	48.411
373.91	50.295
374.27	47.423
374.63	48.291
374.99	50.000
375.35	47.592
375.71	48.663
376.07	50.069
376.42	49.037
376.78	49.967
377.14	48.440
377.50	49.073
377.86	48.537
378.22	49.684
378.58	48.810
378.94	49.151
379.30	48.855
379.66	49.302
380.02	49.939
380.38	49.180
380.74	49.220
381.09	49.144
381.45	50.891
381.81	49.079
382.17	49.427
382.53	49.623
382.89	50.679
383.25	50.281
383.61	50.186
383.97	49.343
384.32	49.470
384.68	49.442
385.04	50.338
385.40	49.350
385.76	49.816
386.12	50.194
386.48	51.542
386.83	50.096
387.19	51.453
387.55	50.402
387.91	49.637
388.27	50.031
388.62	50.891
388.98	50.369
389.34	50.063
389.70	50.337
390.06	51.077
390.42	50.130
390.77	50.254
391.13	52.138
391.49	50.888
391.85	50.541
392.20	49.653
392.56	51.515
392.92	50.265
393.28	50.059
393.64	51.199
393.99	50.886
394.35	49.938
394.71	51.255
395.07	49.969
395.42	52.410
395.78	50.254
396.14	49.845
396.50	51.754
396.85	51.812
397.21	51.171
397.57	51.271
397.92	50.601
398.28	50.392
398.64	50.836
399.00	51.259
399.35	50.141
399.71	51.678
400.07	50.976
400.42	51.779
400.78	51.870
401.14	52.317
401.49	51.761
401.85	51.603
402.21	50.180
402.57	52.375
402.92	53.657
403.28	52.780
403.63	51.547
403.99	51.720
404.35	51.576
404.70	51.978
405.06	51.019
405.42	52.589
405.77	52.514
406.13	51.354
406.49	52.158
406.84	51.093
407.20	51.773
407.55	52.648
407.91	53.867
408.27	53.350
408.62	50.813
408.98	52.696
409.34	53.444
409.69	53.355
410.05	52.169
410.40	52.294
410.76	52.270
411.11	51.689
411.47	52.780
411.83	51.680
412.18	52.134
412.54	53.300
412.89	51.988
413.25	52.774
413.60	53.305
413.96	52.823
414.31	52.430
414.67	54.056
415.03	53.709
415.38	52.964
415.74	53.698
416.09	53.037
416.45	54.083
416.80	53.536
417.16	54.692
417.51	53.550
417.87	52.216
418.22	53.186
418.58	53.002
418.93	53.563
419.29	53.660
419.64	54.912
420.00	52.927
420.35	52.348
420.71	53.676
421.06	52.029
421.42	52.456
421.77	53.363
422.12	53.172
422.48	52.240
422.83	53.640
423.19	54.199
423.54	54.208
423.90	53.797
424.25	52.987
424.61	52.857
424.96	53.819
425.31	53.544
425.67	52.303
426.02	53.429
426.38	54.396
426.73	52.662
427.09	53.799
427.44	54.284
427.79	54.054
428.15	53.929
428.50	54.418
428.85	53.695
429.21	51.795
429.56	52.255
429.92	53.145
430.27	53.376
430.62	52.688
430.98	53.970
431.33	52.629
431.68	53.717
432.04	53.248
432.39	53.741
432.74	53.860
433.10	52.971
433.45	54.169
433.80	51.885
434.16	52.190
434.51	54.368
434.86	54.333
435.22	53.641
435.57	54.894
435.92	54.886
436.28	54.211
436.63	53.311
436.98	53.349
437.34	54.204
437.69	55.309
438.04	54.806
438.39	54.090
438.75	55.084
439.10	54.749
439.45	54.132
439.81	55.227
440.16	53.981
440.51	53.544
440.86	53.445
441.22	54.060
441.57	53.662
441.92	54.094
442.27	56.189
442.63	53.239
442.98	55.775
443.33	54.239
443.68	53.949
444.03	53.782
444.39	54.187
444.74	54.058
445.09	53.369
445.44	55.167
445.79	54.725
446.15	53.679
446.50	54.496
446.85	54.162
447.20	54.768
447.55	54.718
447.91	54.771
448.26	53.923
448.61	54.720
448.96	55.371
449.31	54.387
449.66	54.024
450.02	53.983
450.37	54.705
450.72	53.187
451.07	54.601
451.42	52.280
451.77	54.786
452.12	54.503
452.47	53.607
452.83	54.837
453.18	54.034
453.53	55.102
453.88	54.578
454.23	54.094
454.58	53.483
454.93	54.800
455.28	53.678
455.63	55.158
455.98	55.000
456.34	54.146
456.69	54.477
457.04	54.799
457.39	53.594
457.74	53.743
458.09	53.709
458.44	54.447
458.79	52.495
459.14	52.652
459.49	53.882
459.84	52.964
460.19	53.329
460.54	52.373
460.89	53.593
461.24	55.131
461.59	53.748
461.94	53.761
462.29	55.193
462.64	53.287
462.99	53.806
463.34	53.467
463.69	53.909
464.04	53.333
464.39	52.232
464.74	52.347
465.09	53.800
465.44	52.410
465.79	53.020
466.14	52.545
466.49	52.336
466.84	53.532
467.19	53.591
467.54	54.937
467.89	54.202
468.24	52.356
468.59	52.625
468.94	52.352
469.29	53.728
469.64	54.418
469.99	54.263
470.34	53.567
470.68	52.802
471.03	52.177
471.38	53.440
471.73	51.765
472.08	52.961
472.43	52.324
472.78	51.350
473.13	52.567
473.48	51.436
473.83	52.622
474.17	52.458
474.52	51.365
474.87	51.664
475.22	51.944
475.57	51.746
475.92	52.310
476.27	51.691
476.61	51.903
476.96	52.007
477.31	52.119
477.66	52.243
478.01	51.019
478.36	53.041
478.70	52.129
479.05	52.077
479.40	51.331
479.75	51.042
480.10	52.286
480.45	50.738
480.79	50.884
481.14	51.174
481.49	51.115
481.84	51.532
482.19	51.204
482.53	50.459
482.88	51.047
483.23	50.888
483.58	50.819
483.92	50.703
484.27	49.542
484.62	50.905
484.97	49.941
485.31	50.959
485.66	48.869
486.01	49.024
486.36	48.421
486.70	49.506
487.05	50.496
487.40	50.894
487.75	51.396
488.09	51.441
488.44	51.101
488.79	52.369
489.13	51.757
489.48	51.101
489.83	49.763
490.17	51.425
490.52	50.266
490.87	48.801
491.22	48.840
491.56	48.884
491.91	50.023
492.26	49.334
492.60	49.263
492.95	48.924
493.30	49.393
493.64	49.417
493.99	48.422
494.34	48.751
494.68	49.954
495.03	49.436
495.37	48.906
495.72	49.513
496.07	48.585
496.41	48.805
496.76	49.692
497.11	48.942
497.45	49.464
497.80	48.896
498.14	48.357
498.49	49.073
498.84	48.945
499.18	49.429
499.53	49.240
499.87	48.788
500.22	48.422
500.56	49.515
500.91	48.173
501.26	48.649
501.60	49.502
501.95	48.396
502.29	49.485
502.64	48.650
502.98	48.948
503.33	48.675
503.67	48.353
504.02	49.345
504.36	48.573
504.71	49.145
505.06	48.578
505.40	49.149
505.75	47.493
506.09	48.056
506.44	48.693
506.78	48.953
507.13	49.268
507.47	48.485
507.82	48.784
508.16	48.531
508.51	48.757
508.85	48.461
509.19	49.439
509.54	48.571
509.88	48.223
510.23	49.100
510.57	50.103
510.92	48.731
511.26	47.688
511.61	48.081
511.95	47.443
512.30	48.727
512.64	48.737
512.98	48.339
513.33	48.019
513.67	47.652
514.02	47.403
514.36	49.208
514.70	48.589
515.05	48.076
515.39	48.345
515.74	48.255
516.08	48.072
516.42	47.503
516.77	49.108
517.11	47.114
517.46	49.266
517.80	49.361
518.14	47.713
518.49	47.550
518.83	47.841
519.17	48.210
519.52	47.991
519.86	47.290
520.20	47.399
520.55	48.773
520.89	48.540
521.23	47.648
521.58	47.599
521.92	47.642
522.26	46.919
522.61	47.913
522.95	46.654
523.29	46.318
523.64	49.024
523.98	47.258
524.32	46.864
524.66	48.467
525.01	47.243
525.35	47.893
525.69	47.167
526.04	46.791
526.38	47.407
526.72	46.258
527.06	48.085
527.41	46.287
527.75	47.653
528.09	47.913
528.43	47.291
528.78	46.835
529.12	46.848
529.46	48.561
529.80	47.649
530.15	48.037
530.49	45.969
530.83	47.089
531.17	48.433
531.51	48.638
531.86	48.258
532.20	47.458
532.54	47.918
532.88	48.588
533.22	46.221
533.57	46.111
533.91	46.779
534.25	46.719
534.59	47.712
534.93	47.412
535.27	46.228
535.62	47.070
535.96	47.583
536.30	46.599
536.64	47.585
536.98	47.512
537.32	46.610
537.66	46.867
538.01	46.873
538.35	46.736
538.69	47.479
539.03	45.744
539.37	46.006
539.71	46.079
540.05	47.320
540.39	47.176
540.73	47.025
541.07	47.631
541.42	46.706
541.76	48.194
542.10	46.054
542.44	47.020
542.78	47.233
543.12	45.361
543.46	47.016
543.80	47.560
544.14	45.443
544.48	47.175
544.82	47.017
545.16	46.324
545.50	46.465
545.84	47.245
546.18	47.205
546.52	46.318
546.86	47.698
547.20	46.595
547.54	45.892
547.88	46.747
548.22	46.824
548.56	46.164
548.90	45.455
549.24	46.128
549.58	47.271
549.92	46.223
550.26	47.159
550.60	45.920
550.94	47.042
551.28	46.818
551.62	46.226
551.96	46.246
552.30	45.666
552.64	46.045
552.98	47.322
553.32	46.864
553.66	46.898
554.00	45.916
554.34	45.687
554.68	45.708
555.02	46.544
555.36	44.537
555.69	44.181
556.03	45.760
556.37	44.952
556.71	44.679
557.05	46.499
557.39	45.346
557.73	46.577
558.07	46.701
558.41	45.007
558.75	44.967
559.08	45.861
559.42	46.259
559.76	45.368
560.10	44.183
560.44	46.122
560.78	45.043
561.12	45.515
561.45	45.893
561.79	45.682
562.13	45.406
562.47	44.331
562.81	45.397
563.15	45.151
563.48	44.761
563.82	45.466
564.16	45.128
564.50	46.094
564.84	44.564
565.17	44.466
565.51	45.559
565.85	45.241
566.19	44.521
566.52	45.852
566.86	45.509
567.20	44.988
567.54	45.776
567.88	44.595
568.21	45.079
568.55	45.096
568.89	45.233
569.23	44.207
569.56	44.251
569.90	44.377
570.24	45.138
570.57	44.679
570.91	44.505
571.25	44.688
571.59	44.860
571.92	45.075
572.26	45.436
572.60	45.435
572.93	45.097
573.27	45.401
573.61	45.087
573.95	44.599
574.28	44.950
574.62	44.412
574.96	43.728
575.29	44.108
575.63	44.665
575.97	44.884
576.30	44.981
576.64	45.262
576.98	44.725
577.31	44.801
577.65	44.647
577.98	44.250
578.32	44.639
578.66	44.969
578.99	45.675
579.33	44.953
579.67	44.636
580.00	45.097
580.34	45.040
580.67	45.143
581.01	44.322
581.35	44.569
581.68	43.984
582.02	44.202
582.35	45.099
582.69	45.348
583.02	45.658
583.36	46.092
583.70	46.528
584.03	45.585
584.37	45.507
584.70	45.585
585.04	44.545
585.37	44.292
585.71	44.807
586.04	44.576
586.38	45.637
586.72	44.960
587.05	44.227
587.39	43.905
587.72	45.040
588.06	44.931
588.39	44.774
588.73	44.823
589.06	45.404
589.40	45.320
589.73	45.195
590.07	44.270
590.40	45.086
590.73	45.511
591.07	45.910
591.40	44.538
591.74	45.455
592.07	45.157
592.41	44.771
592.74	43.296
593.08	43.704
593.41	44.669
593.75	42.567
594.08	44.385
594.41	44.928
594.75	44.436
595.08	43.558
595.42	44.764
595.75	44.231
596.09	45.362
596.42	45.226
596.75	45.293
597.09	44.719
597.42	43.297
597.75	45.192
598.09	44.609
598.42	44.115
598.76	43.332
599.09	43.177
599.42	42.831
599.76	44.034
600.09	43.934
600.42	43.170
600.76	43.036
601.09	43.315
601.42	44.901
601.76	44.516
602.09	43.399
602.42	44.506
602.76	44.458
603.09	42.958
603.42	43.655
603.76	43.483
604.09	42.381
604.42	44.313
604.76	44.707
605.09	44.561
605.42	44.378
605.75	43.502
606.09	44.002
606.42	44.544
606.75	44.255
607.09	43.617
607.42	43.218
607.75	43.755
608.08	43.335
608.42	44.957
608.75	42.651
609.08	42.831
609.41	43.027
609.75	43.020
610.08	43.685
610.41	42.831
610.74	42.999
611.07	43.923
611.41	44.112
611.74	44.093
612.07	43.168
612.40	44.701
612.73	43.474
613.07	44.073
613.40	43.813
613.73	43.471
614.06	44.409
614.39	42.632
614.72	43.842
615.06	43.697
615.39	43.153
615.72	42.689
616.05	42.903
616.38	42.357
616.71	44.774
617.05	42.992
617.38	43.836
617.71	44.865
618.04	44.712
618.37	43.879
618.70	44.119
619.03	43.882
619.36	43.381
619.69	43.239
620.03	44.368
620.36	43.783
620.69	43.356
621.02	43.363
621.35	43.540
621.68	41.745
622.01	42.337
622.34	43.949
622.67	43.498
623.00	42.480
623.33	42.387
623.66	42.530
623.99	42.121
624.32	42.154
624.65	42.020
624.99	41.572
625.32	41.926
625.65	43.501
625.98	44.197
626.31	43.002
626.64	43.918
626.97	43.308
627.30	43.392
627.63	43.478
627.96	43.650
628.29	42.782
628.62	41.995
628.95	44.245
629.28	42.427
629.61	42.988
629.94	42.381
630.26	42.326
630.59	42.040
630.92	41.571
631.25	41.461
631.58	41.341
631.91	41.886
632.24	42.722
632.57	42.812
632.90	43.311
633.23	41.723
633.56	41.921
633.89	43.601
634.22	43.133
634.55	44.615
634.88	41.437
635.20	43.011
635.53	43.614
635.86	43.564
636.19	41.647
636.52	41.522
636.85	44.330
637.18	40.899
637.51	42.435
637.83	40.814
638.16	41.560
638.49	42.569
638.82	42.604
639.15	42.125
639.48	41.646
639.81	43.700
640.13	42.057
640.46	42.819
640.79	42.668
641.12	40.303
641.45	43.575
641.77	44.330
642.10	40.789
642.43	41.592
642.76	43.963
643.09	42.791
643.41	42.640
643.74	42.593
644.07	42.073
644.40	43.558
644.73	41.575
645.05	42.314
645.38	41.390
645.71	41.868
646.04	42.691
646.36	43.406
646.69	40.970
647.02	45.408
647.35	44.330
647.67	41.947
648.00	42.276
648.33	41.749
648.66	40.455
648.98	42.429
649.31	40.209
649.64	42.003
649.96	41.282
650.29	42.654
650.62	42.880
650.94	42.301
651.27	43.243
651.60	41.930
651.92	42.013
652.25	41.368
652.58	41.277
652.90	42.338
653.23	43.297
653.56	42.205
653.88	42.948
654.21	43.760
654.54	41.914
654.86	43.146
655.19	41.216
655.52	35.206
655.84	34.210
656.17	44.527
656.49	61.612
656.82	64.845
657.15	51.085
657.47	38.663
657.80	30.036
658.13	31.440
658.45	47.606
658.78	49.045
659.10	49.471
659.43	51.055
659.75	49.888
660.08	50.380
660.41	50.652
660.73	46.760
661.06	45.223
661.38	47.273
661.71	45.769
662.03	44.181
662.36	40.755
662.68	42.169
663.01	44.040
663.33	42.038
663.66	43.067
663.98	43.197
664.31	40.546
664.63	39.474
664.96	38.229
665.28	42.008
665.61	43.470
665.93	42.455
666.26	42.799
666.58	42.469
666.91	44.186
667.23	42.247
667.56	41.037
667.88	41.453
668.21	43.070
668.53	41.215
668.86	40.909
669.18	45.416
669.50	39.565
669.83	45.098
670.15	44.000
670.48	44.444
670.80	42.888
671.13	41.614
671.45	40.638
671.77	43.381
672.10	41.959
672.42	40.989
672.75	41.791
673.07	44.190
673.39	39.241
673.72	43.750
674.04	44.706
674.37	41.553
674.69	43.149
675.01	42.050
675.34	43.737
675.66	41.053
675.98	42.159
676.31	40.336
676.63	44.798
676.95	43.396
677.28	42.056
677.60	43.297
677.92	42.827
678.25	43.737
678.57	45.219
678.89	41.082
679.22	42.043
679.54	42.176
679.86	42.385
680.18	42.218
680.51	41.135
680.83	41.281
681.15	43.962
681.48	44.991
681.80	43.133
682.12	43.295
682.44	41.006
682.77	44.603
683.09	44.421
683.41	43.459
683.73	43.488
684.06	42.769
684.38	40.705
684.70	43.605
685.02	43.715
685.34	41.392
685.67	37.937
685.99	39.691
686.31	41.809
686.63	41.519
686.96	40.893
687.28	39.170
687.60	40.580
687.92	41.499
688.24	41.635
688.56	43.775
688.89	41.286
689.21	47.380
689.53	42.171
689.85	41.685
690.17	39.752
690.49	43.312
690.82	45.561
691.14	43.527
691.46	41.561
691.78	44.378
692.10	43.802
692.42	42.116
692.74	41.079
693.06	42.340
693.39	43.326
693.71	45.197
694.03	43.368
694.35	42.424
694.67	40.961
694.99	41.707
695.31	43.382
695.63	42.823
695.95	41.809
696.27	43.655
696.59	40.933
696.91	45.337
697.23	41.315
697.56	43.070
697.88	38.650
698.20	41.042
698.52	44.086
698.84	44.098
699.16	42.166
699.48	44.418
699.80	44.203
700.12	44.675
700.44	46.419
700.76	44.475
701.08	43.103
701.40	44.134
701.72	45.481
702.04	46.307
702.36	39.660
702.68	42.210
703.00	40.720
703.32	39.894
703.64	43.432
703.96	40.669
704.28	42.733
704.60	46.628
704.91	43.620
705.23	41.642
705.55	49.169
705.87	46.512
706.19	49.823
706.51	43.925
706.83	48.485
707.15	42.857
707.47	43.182
707.79	44.963
708.11	40.868
708.43	38.571
708.74	44.388
709.06	46.234
709.38	43.045
709.70	46.512
710.02	44.214
710.34	42.121
710.66	47.164
710.98	43.466
711.29	44.477
711.61	45.133
711.93	42.308
712.25	46.945
712.57	44.853
712.89	48.443
713.20	41.033
713.52	48.026
713.84	43.038
714.16	42.683
714.48	43.103
714.80	50.152
715.11	43.228
715.43	48.665
715.75	45.217
716.07	45.048
716.39	43.887
716.70	45.515
717.02	43.525
717.34	46.290
717.66	44.776
717.97	49.004
718.29	45.185
718.61	46.715
718.93	47.426
719.24	41.869
719.56	47.458
719.88	45.424
720.20	48.311
720.51	46.341
720.83	47.212
721.15	43.657
721.46	44.326
721.78	50.896
722.10	49.057
722.42	49.248
722.73	47.940
723.05	45.902
723.37	42.105
723.68	44.402
724.00	47.154
724.32	50.000
724.63	44.309
724.95	48.954
725.27	44.534
725.58	48.047
725.90	45.620
726.22	49.811
726.53	38.542
726.85	46.075
727.16	48.754
727.48	43.617
727.80	42.424
728.11	45.290
728.43	45.000
728.74	43.369
729.06	46.350
729.38	49.632
729.69	44.128
730.01	44.710
730.32	45.486
730.64	44.482
730.96	45.545
731.27	43.046
731.59	44.037
731.90	44.898
732.22	45.031
732.53	42.724
732.85	44.872
733.16	47.267
733.48	47.176
733.80	46.753
734.11	45.860
734.43	42.899
734.74	42.571
735.06	45.272
735.37	46.821
735.69	40.764
736.00	46.732
736.32	47.352
736.63	44.089
736.95	44.409
737.26	39.796
737.58	40.968
737.89	45.485
738.21	46.758
738.52	46.786
738.83	47.547
739.15	46.154
739.46	46.715
739.78	47.222
740.09	41.231
740.41	48.065
740.72	43.554
741.04	42.222
741.35	48.750
741.66	54.222
741.98	46.698
742.29	48.804
742.61	46.121
742.92	49.321
743.23	48.291
743.55	49.600
743.86	46.053
744.18	52.212
744.49	49.282
744.80	52.113
745.12	54.091
745.43	42.291
745.74	50.450
746.06	45.413
746.37	47.085
746.68	49.774
747.00	51.852
747.31	49.048
747.62	43.363
747.94	45.815
748.25	43.830
748.56	48.018
748.88	50.495
749.19	50.000
749.50	48.372
749.82	43.496
750.13	46.531
750.44	44.526
750.75	47.018
751.07	46.624
751.38	49.477
751.69	47.292
752.01	47.368
752.32	45.487
752.63	42.553
752.94	51.230
753.26	49.200
753.57	44.309
753.88	51.953
754.19	46.071
754.51	45.139
754.82	43.682
755.13	48.679
755.44	45.865
755.75	49.635
756.07	46.099
756.38	40.146
756.69	42.617
757.00	45.210
757.31	40.653
757.63	43.567
757.94	38.606
758.25	40.931
758.56	41.481
758.87	41.398
759.18	45.152
759.50	42.947
759.81	43.302
760.12	43.438
760.43	40.401
760.74	42.391
761.05	45.480
761.36	41.444
761.67	43.750
761.99	43.478
762.30	40.625
762.61	46.565
762.92	46.094
763.23	43.697
763.54	51.200
763.85	41.016
764.16	47.692
764.47	46.768
764.78	43.110
765.10	38.924
765.41	44.543
765.72	42.814
766.03	42.947
766.34	46.000
766.65	48.085
766.96	50.427
767.27	51.269
767.58	47.396
767.89	55.263
768.20	48.851
768.51	51.777
768.82	50.000
769.13	40.244
769.44	43.725
769.75	48.069
770.06	44.954
770.37	48.869
770.68	47.222
770.99	49.333
771.30	43.443
771.61	46.637
771.92	50.410
772.23	49.580
772.54	49.744
772.85	49.215
773.16	51.596
773.47	51.087
773.78	54.315
774.09	55.952
774.39	47.368
774.70	54.321
775.01	54.348
775.32	59.477
775.63	55.921
775.94	47.482
776.25	71.654
776.56	59.701
776.87	59.016
777.18	62.500
777.48	61.069
777.79	58.333
778.10	54.074
778.41	66.964
778.72	56.934
779.03	55.705
779.34	45.638
779.65	54.730
779.95	57.669
780.26	54.248
780.57	53.103
780.88	67.969
781.19	59.398
781.50	59.459
781.80	55.975
782.11	50.847
782.42	52.532
782.73	44.172
783.04	54.054
783.34	53.521
783.65	56.849
783.96	66.418
784.27	50.350
784.57	51.799
784.88	63.889
785.19	67.460
785.50	64.151
785.81	52.239
786.11	54.918
786.42	58.915
786.73	54.867
787.04	65.094
787.34	58.036
787.65	73.000
787.96	70.270
788.26	46.281
788.57	68.644
788.88	62.810
789.19	56.944
789.49	67.424
789.80	66.412
790.11	68.571
790.41	78.218
790.72	74.699
791.03	60.870
791.33	72.093
791.64	57.732
791.95	73.267
792.25	68.889
792.56	72.727
792.87	83.333
793.17	81.013
793.48	82.759
793.79	74.713
794.09	73.864
794.40	59.664
794.70	63.235
795.01	49.630
795.32	55.396
795.62	56.693
795.93	65.517
796.23	67.257
796.54	67.059
796.85	60.811
797.15	90.141
797.46	56.061
797.76	71.084
798.07	87.342
798.37	86.154
798.68	78.788
798.99	70.423
799.29	81.818
799.60	61.364
799.90	89.041
800.21	76.119
800.51	91.379
800.82	94.737
801.12	96.721
801.43	81.818
801.73	64.865
802.04	93.651
802.34	72.840
802.65	68.750
802.95	93.220
803.26	87.500
803.56	72.857
803.87	84.615
804.17	89.706
804.48	109.259
804.78	94.828
805.09	83.824
805.39	96.154
805.70	92.857
806.00	83.607
806.30	71.212
806.61	70.732
806.91	63.291
807.22	78.947
807.52	80.597
807.83	76.056
808.13	90.625
808.43	91.667
808.74	64.474
809.04	95.652
809.35	85.075
809.65	89.474
809.95	109.677
810.26	81.356
810.56	92.063
810.86	127.273
811.17	109.524
811.47	98.333
811.77	85.185
812.08	85.455
812.38	110.000
812.69	122.222
812.99	143.182
813.29	118.367
813.59	92.857
813.90	104.082
814.20	98.182
814.50	75.385
814.81	91.176
815.11	112.245
815.41	78.689
815.72	80.952
816.02	89.091
816.32	109.524
816.62	100.000
816.93	114.634
817.23	130.952
817.53	100.000
817.84	166.667
818.14	113.043
818.44	97.778
818.74	158.824
819.04	127.500
819.35	85.714
819.65	132.353
819.95	146.429
820.25	135.000
820.56	143.590
820.86	129.545
821.16	134.884
821.46	128.205
821.76	118.000
822.07	125.714
822.37	135.000
822.67	151.515
822.97	96.078
823.27	160.714
823.57	127.027
823.88	140.000
824.18	156.667
824.48	109.524
824.78	164.000
825.08	137.500
825.38	129.730
825.69	121.951
825.99	179.167
826.29	106.897
826.59	121.053
826.89	134.211
827.19	120.588
827.49	158.065
827.79	136.364
828.09	120.455
828.39	97.872
828.70	104.082
829.00	162.963
829.30	138.710
829.60	100.000
829.90	273.333
830.20	139.286
830.50	165.217
830.80	191.304
831.10	153.333
831.40	143.333
831.70	152.174
832.00	176.923
832.30	196.296
832.60	250.000
832.90	173.333
833.20	314.286
833.50	132.258
833.80	158.621
834.10	146.875
834.40	200.000
834.70	261.111
835.00	252.381
835.30	108.571
835.60	230.769
835.90	110.345
836.20	228.571
836.50	127.586
836.80	128.000
837.10	138.889
837.40	219.048
837.70	288.235
838.00	177.778
838.30	247.619
838.60	219.048
838.90	200.000
839.19	260.000
839.49	300.000
839.79	215.000
840.09	195.000
840.39	180.952
840.69	217.391
840.99	227.778
841.29	360.000
841.59	175.000
841.88	231.250
842.18	141.379
842.48	238.095
842.78	176.667
843.08	169.565
843.38	150.000
843.68	766.667
843.97	184.615
844.27	144.828
844.57	204.762
844.87	331.250
845.17	162.963
845.47	1266.667
845.76	400.000
846.06	241.176
846.36	425.000
846.66	285.714
846.96	175.000
847.25	290.909
847.55	309.091
847.85	200.000
848.15	330.000
848.44	285.714
848.74	133.333
849.04	323.529
849.34	320.000
849.63	200.000
849.93	263.636
850.23	880.000
850.53	321.429
850.82	1800.000
851.12	-2500.000
851.42	2900.000
851.71	180.000
852.01	-933.333
852.31	208.333
852.61	1000.000
852.90	219.048
853.20	180.000
853.50	252.941
853.79	185.714
854.09	183.333
854.39	306.250
854.68	151.351
854.98	161.290
855.28	136.667
855.57	182.759
855.87	159.259
856.17	205.263
856.46	146.667
856.76	264.706
857.05	158.621
857.35	175.000
857.65	286.667
857.94	169.565
858.24	184.615
858.53	235.000
858.83	163.636
859.13	280.000
859.42	0.000
859.72	500.000
860.01	372.727
860.31	218.182
860.60	231.579
860.90	191.304
861.20	388.889
861.49	391.667
861.79	-4500.000
862.08	387.500
862.38	238.095
862.67	246.154
862.97	223.529
863.26	377.778
863.56	233.333
863.85	300.000
864.15	462.500
864.44	260.000
864.74	650.000
865.03	550.000
865.33	263.158
865.62	354.545
865.92	292.308
866.21	241.667
866.51	0.000
866.80	372.727
867.10	720.000
867.39	376.923
867.69	363.636
867.98	200.000
868.27	254.545
868.57	200.000
868.86	-3200.000
869.16	237.500
869.45	1650.000
869.75	-3100.000
870.04	200.000
870.33	514.286
870.63	625.000
870.92	2050.000
871.22	571.429
871.51	323.529
871.80	185.714
872.10	314.286
>>>>>End Processed Spectral Data<<<<<
