SpectraSuite Data File
++++++++++++++++++++++++++++++++++++
Date: Wed May 13 21:05:03 PDT 2015
User: schluterlab
Dark Spectrum Present: Yes
Reference Spectrum Present: Yes
Number of Sampled Component Spectra: 1
Spectrometers: USB2E3373
Integration Time (usec): 3000 (USB2E3373)
Spectra Averaged: 3 (USB2E3373)
Boxcar Smoothing: 0 (USB2E3373)
Correct for Electrical Dark: No (USB2E3373)
Strobe/Lamp Enabled: No (USB2E3373)
Correct for Detector Non-linearity: No (USB2E3373)
Correct for Stray Light: No (USB2E3373)
Number of Pixels in Processed Spectrum: 2048
>>>>>Begin Processed Spectral Data<<<<<
178.53	0.000
178.91	50.000
179.29	125.000
179.67	-600.000
180.04	-300.000
180.42	220.000
180.80	100.000
181.18	233.333
181.56	-250.000
181.94	-250.000
182.31	100.000
182.69	53.846
183.07	-360.000
183.45	266.667
183.83	11.111
184.20	171.429
184.58	300.000
184.96	400.000
185.34	42.857
185.72	0.000
186.09	-300.000
186.47	-300.000
186.85	200.000
187.23	-250.000
187.61	200.000
187.98	100.000
188.36	-100.000
188.74	0.000
189.12	-63.636
189.49	80.000
189.87	50.000
190.25	160.000
190.63	300.000
191.00	-80.000
191.38	80.000
191.76	150.000
192.14	108.333
192.51	52.632
192.89	366.667
193.27	150.000
193.65	-80.000
194.02	81.818
194.40	80.000
194.78	-300.000
195.15	-40.000
195.53	-40.000
195.91	0.000
196.29	-33.333
196.66	0.000
197.04	-50.000
197.42	120.000
197.79	30.000
198.17	62.500
198.55	100.000
198.92	100.000
199.30	-33.333
199.68	-60.000
200.05	150.000
200.43	83.333
200.81	-900.000
201.18	-200.000
201.56	-166.667
201.94	475.000
202.31	47.826
202.69	-57.143
203.07	-233.333
203.44	-240.000
203.82	-266.667
204.19	40.000
204.57	0.000
204.95	-16.667
205.32	0.000
205.70	250.000
206.08	-200.000
206.45	-16.667
206.83	275.000
207.20	33.333
207.58	10.000
207.96	-1500.000
208.33	-157.143
208.71	-700.000
209.08	212.500
209.46	225.000
209.84	0.000
210.21	30.000
210.59	1300.000
210.96	340.000
211.34	1200.000
211.71	-250.000
212.09	-183.333
212.46	-120.000
212.84	-100.000
213.22	125.000
213.59	-400.000
213.97	-350.000
214.34	-50.000
214.72	-7.692
215.09	125.000
215.47	144.444
215.84	-50.000
216.22	-25.000
216.59	-200.000
216.97	666.667
217.34	22.222
217.72	0.000
218.09	333.333
218.47	0.000
218.84	42.857
219.22	-75.000
219.59	33.333
219.97	-100.000
220.34	100.000
220.72	-40.000
221.09	0.000
221.47	-166.667
221.84	500.000
222.22	0.000
222.59	800.000
222.97	-66.667
223.34	58.333
223.72	-1400.000
224.09	150.000
224.46	0.000
224.84	-125.000
225.21	-157.143
225.59	-25.000
225.96	83.333
226.34	20.000
226.71	-128.571
227.08	500.000
227.46	-87.500
227.83	-600.000
228.21	-37.500
228.58	-275.000
228.95	-11.765
229.33	12.500
229.70	-50.000
230.08	46.154
230.45	-37.500
230.82	66.667
231.20	114.286
231.57	-225.000
231.95	1100.000
232.32	83.333
232.69	58.824
233.07	-300.000
233.44	-4.348
233.81	300.000
234.19	45.833
234.56	26.667
234.93	26.667
235.31	52.632
235.68	15.385
236.05	15.385
236.43	66.667
236.80	12.121
237.17	-46.667
237.55	58.824
237.92	-17.241
238.29	-18.519
238.67	2.778
239.04	6.452
239.41	44.681
239.79	53.191
240.16	37.209
240.53	26.786
240.91	57.143
241.28	35.714
241.65	53.226
242.02	32.895
242.40	39.130
242.77	24.638
243.14	29.487
243.51	23.404
243.89	39.423
244.26	45.283
244.63	26.923
245.00	42.708
245.38	38.655
245.75	37.705
246.12	32.331
246.49	28.455
246.87	26.891
247.24	39.865
247.61	37.086
247.98	33.333
248.36	35.503
248.73	32.022
249.10	34.343
249.47	32.258
249.84	36.316
250.22	34.328
250.59	31.308
250.96	43.636
251.33	28.230
251.70	39.749
252.08	34.728
252.45	39.095
252.82	34.221
253.19	36.965
253.56	34.173
253.94	38.790
254.31	35.563
254.68	41.275
255.05	37.954
255.42	35.664
255.79	34.356
256.16	36.909
256.54	36.825
256.91	34.177
257.28	39.308
257.65	35.032
258.02	37.830
258.39	35.088
258.76	34.884
259.14	37.216
259.51	31.180
259.88	36.314
260.25	37.222
260.62	34.831
260.99	37.931
261.36	37.824
261.73	34.321
262.10	37.150
262.47	36.296
262.85	34.577
263.22	37.179
263.59	34.805
263.96	32.603
264.33	33.413
264.70	33.721
265.07	36.343
265.44	40.230
265.81	34.554
266.18	35.080
266.55	34.061
266.92	37.076
267.29	32.922
267.66	35.244
268.03	38.066
268.40	35.381
268.77	33.471
269.14	38.163
269.51	35.318
269.88	33.809
270.25	35.381
270.62	38.934
270.99	34.843
271.36	37.698
271.73	39.558
272.10	36.190
272.47	34.933
272.84	35.236
273.21	34.638
273.58	35.041
273.95	32.830
274.32	36.754
274.69	34.426
275.06	35.336
275.43	32.957
275.80	35.461
276.17	37.201
276.54	33.037
276.91	34.669
277.28	32.852
277.65	35.490
278.02	35.357
278.39	32.149
278.76	35.953
279.13	35.849
279.50	33.966
279.87	32.971
280.23	34.775
280.60	33.564
280.97	33.766
281.34	34.543
281.71	34.309
282.08	34.188
282.45	36.557
282.82	34.185
283.19	34.756
283.56	32.500
283.92	34.098
284.29	33.853
284.66	33.278
285.03	32.410
285.40	31.269
285.77	34.535
286.14	34.043
286.51	35.982
286.87	33.077
287.24	33.776
287.61	34.187
287.98	32.353
288.35	30.849
288.72	32.712
289.08	34.615
289.45	32.012
289.82	31.619
290.19	33.240
290.56	31.676
290.93	30.801
291.29	30.096
291.66	31.421
292.03	32.289
292.40	30.956
292.77	30.790
293.13	30.683
293.50	28.889
293.87	28.267
294.24	29.630
294.60	29.649
294.97	31.217
295.34	27.836
295.71	29.041
296.08	27.880
296.44	29.082
296.81	27.527
297.18	28.875
297.55	26.651
297.91	28.696
298.28	28.935
298.65	28.571
299.02	27.961
299.38	28.221
299.75	27.644
300.12	25.349
300.48	26.199
300.85	27.483
301.22	26.597
301.59	26.291
301.95	25.668
302.32	26.021
302.69	24.181
303.05	26.800
303.42	26.364
303.79	27.655
304.15	26.725
304.52	28.925
304.89	26.357
305.25	26.674
305.62	26.681
305.99	26.659
306.35	27.586
306.72	26.246
307.09	27.112
307.45	25.453
307.82	25.263
308.19	25.392
308.55	25.077
308.92	26.326
309.29	25.626
309.65	25.375
310.02	24.950
310.38	25.305
310.75	24.359
311.12	26.531
311.48	26.607
311.85	25.492
312.22	26.402
312.58	24.638
312.95	25.373
313.31	25.161
313.68	25.668
314.05	25.236
314.41	27.089
314.78	27.040
315.14	26.019
315.51	25.690
315.87	26.506
316.24	24.702
316.61	26.849
316.97	25.556
317.34	25.223
317.70	26.405
318.07	26.353
318.43	26.468
318.80	24.607
319.16	25.641
319.53	26.165
319.89	24.119
320.26	26.340
320.62	26.506
320.99	25.194
321.35	24.602
321.72	25.602
322.08	26.753
322.45	27.660
322.81	27.449
323.18	26.744
323.54	27.888
323.91	27.281
324.27	27.093
324.64	26.307
325.00	28.346
325.37	27.133
325.73	27.441
326.10	27.502
326.46	27.843
326.83	27.751
327.19	28.130
327.56	27.558
327.92	27.997
328.29	29.215
328.65	28.396
329.01	26.209
329.38	29.304
329.74	29.013
330.11	27.592
330.47	28.472
330.84	28.971
331.20	29.035
331.56	27.174
331.93	29.371
332.29	28.410
332.66	27.373
333.02	28.236
333.38	29.211
333.75	26.536
334.11	28.733
334.48	28.596
334.84	29.505
335.20	29.503
335.57	27.937
335.93	28.608
336.29	29.159
336.66	28.205
337.02	29.043
337.38	28.024
337.75	29.371
338.11	27.498
338.47	28.425
338.84	27.663
339.20	28.307
339.56	28.072
339.93	28.263
340.29	28.523
340.65	28.400
341.02	28.120
341.38	27.872
341.74	26.975
342.11	26.920
342.47	28.536
342.83	27.941
343.20	28.596
343.56	28.618
343.92	28.920
344.28	29.140
344.65	27.673
345.01	27.926
345.37	27.632
345.73	27.859
346.10	28.250
346.46	27.886
346.82	28.812
347.19	27.769
347.55	27.625
347.91	27.903
348.27	27.918
348.63	28.365
349.00	28.381
349.36	27.865
349.72	28.616
350.08	28.783
350.45	28.113
350.81	27.700
351.17	28.022
351.53	28.515
351.89	27.323
352.26	27.336
352.62	27.907
352.98	27.396
353.34	28.100
353.70	28.037
354.07	28.863
354.43	27.061
354.79	27.885
355.15	26.863
355.51	28.246
355.87	28.225
356.24	27.368
356.60	29.007
356.96	27.705
357.32	27.786
357.68	29.183
358.04	27.773
358.40	28.605
358.77	28.364
359.13	28.249
359.49	28.463
359.85	27.976
360.21	28.296
360.57	28.897
360.93	28.149
361.29	28.497
361.66	28.702
362.02	28.169
362.38	27.770
362.74	28.209
363.10	28.272
363.46	28.530
363.82	28.899
364.18	28.354
364.54	29.176
364.90	27.805
365.26	27.530
365.62	27.770
365.98	27.758
366.35	29.007
366.71	28.388
367.07	28.561
367.43	28.711
367.79	28.700
368.15	28.481
368.51	27.848
368.87	29.379
369.23	28.327
369.59	29.528
369.95	27.794
370.31	28.103
370.67	29.254
371.03	29.027
371.39	28.815
371.75	28.286
372.11	29.630
372.47	29.632
372.83	29.750
373.19	28.849
373.55	28.974
373.91	29.066
374.27	28.976
374.63	30.299
374.99	29.944
375.35	29.315
375.71	29.144
376.07	29.130
376.42	29.880
376.78	28.930
377.14	30.034
377.50	29.596
377.86	30.677
378.22	29.583
378.58	30.139
378.94	31.188
379.30	30.481
379.66	30.333
380.02	30.025
380.38	30.060
380.74	30.245
381.09	29.674
381.45	29.988
381.81	30.068
382.17	30.561
382.53	31.138
382.89	30.579
383.25	30.309
383.61	31.295
383.97	31.312
384.32	30.687
384.68	30.413
385.04	30.299
385.40	30.386
385.76	30.900
386.12	30.794
386.48	31.536
386.83	31.727
387.19	31.832
387.55	31.698
387.91	31.427
388.27	30.518
388.62	31.710
388.98	32.228
389.34	31.266
389.70	31.990
390.06	31.813
390.42	32.796
390.77	32.735
391.13	31.503
391.49	31.309
391.85	32.780
392.20	32.206
392.56	32.317
392.92	32.066
393.28	33.236
393.64	32.049
393.99	31.885
394.35	33.025
394.71	32.564
395.07	31.698
395.42	32.541
395.78	32.625
396.14	33.037
396.50	32.594
396.85	33.206
397.21	32.147
397.57	31.988
397.92	32.635
398.28	32.149
398.64	32.483
399.00	32.366
399.35	33.485
399.71	32.440
400.07	32.952
400.42	34.044
400.78	32.447
401.14	32.250
401.49	32.834
401.85	33.661
402.21	33.313
402.57	33.231
402.92	33.980
403.28	33.333
403.63	32.486
403.99	32.949
404.35	33.853
404.70	33.293
405.06	34.292
405.42	32.224
405.77	33.410
406.13	33.029
406.49	33.194
406.84	33.700
407.20	33.156
407.55	33.571
407.91	33.620
408.27	32.689
408.62	34.622
408.98	32.676
409.34	33.663
409.69	34.048
410.05	33.271
410.40	31.832
410.76	32.491
411.11	34.017
411.47	35.766
411.83	34.248
412.18	33.501
412.54	33.835
412.89	33.856
413.25	33.451
413.60	34.483
413.96	33.146
414.31	34.525
414.67	33.587
415.03	34.371
415.38	33.620
415.74	34.308
416.09	35.228
416.45	34.313
416.80	33.423
417.16	35.695
417.51	34.896
417.87	34.788
418.22	34.260
418.58	33.640
418.93	33.898
419.29	34.653
419.64	33.651
420.00	34.222
420.35	34.071
420.71	35.344
421.06	34.994
421.42	35.158
421.77	34.393
422.12	35.186
422.48	34.896
422.83	36.149
423.19	35.998
423.54	35.689
423.90	35.273
424.25	35.991
424.61	34.812
424.96	35.600
425.31	33.875
425.67	36.861
426.02	35.807
426.38	36.381
426.73	36.164
427.09	35.772
427.44	36.171
427.79	35.689
428.15	35.657
428.50	36.435
428.85	36.162
429.21	36.353
429.56	36.929
429.92	36.283
430.27	37.117
430.62	36.201
430.98	35.960
431.33	36.056
431.68	36.848
432.04	37.408
432.39	36.778
432.74	35.684
433.10	37.304
433.45	36.391
433.80	37.644
434.16	36.374
434.51	36.250
434.86	37.220
435.22	37.012
435.57	37.162
435.92	37.756
436.28	35.736
436.63	37.182
436.98	38.073
437.34	36.813
437.69	37.367
438.04	37.125
438.39	37.547
438.75	37.187
439.10	37.131
439.45	37.288
439.81	38.547
440.16	36.638
440.51	36.742
440.86	37.344
441.22	37.751
441.57	36.714
441.92	36.962
442.27	36.959
442.63	37.621
442.98	37.384
443.33	38.036
443.68	36.900
444.03	37.556
444.39	38.126
444.74	36.554
445.09	37.885
445.44	38.028
445.79	37.739
446.15	37.438
446.50	37.445
446.85	38.108
447.20	37.428
447.55	37.325
447.91	37.191
448.26	37.736
448.61	37.112
448.96	37.130
449.31	38.435
449.66	38.115
450.02	37.294
450.37	37.662
450.72	38.175
451.07	36.991
451.42	37.243
451.77	38.771
452.12	37.314
452.47	38.089
452.83	37.559
453.18	37.492
453.53	37.831
453.88	37.229
454.23	37.886
454.58	37.194
454.93	36.818
455.28	37.123
455.63	36.744
455.98	37.310
456.34	37.254
456.69	37.827
457.04	37.461
457.39	36.801
457.74	36.864
458.09	37.618
458.44	37.250
458.79	37.727
459.14	36.742
459.49	38.293
459.84	36.189
460.19	36.615
460.54	36.618
460.89	37.613
461.24	36.745
461.59	37.802
461.94	38.306
462.29	36.642
462.64	37.467
462.99	37.894
463.34	37.638
463.69	37.436
464.04	35.714
464.39	37.462
464.74	35.934
465.09	37.136
465.44	36.756
465.79	37.895
466.14	36.659
466.49	36.891
466.84	38.195
467.19	36.752
467.54	37.654
467.89	36.832
468.24	37.615
468.59	36.010
468.94	37.612
469.29	37.145
469.64	37.866
469.99	38.483
470.34	37.154
470.68	37.546
471.03	37.870
471.38	36.439
471.73	37.449
472.08	37.663
472.43	36.873
472.78	36.984
473.13	36.082
473.48	35.877
473.83	36.158
474.17	36.133
474.52	36.699
474.87	36.309
475.22	35.688
475.57	36.531
475.92	36.532
476.27	36.247
476.61	35.787
476.96	35.808
477.31	36.785
477.66	36.780
478.01	36.319
478.36	35.804
478.70	36.842
479.05	37.236
479.40	36.817
479.75	36.079
480.10	36.359
480.45	35.360
480.79	37.282
481.14	36.525
481.49	36.556
481.84	36.239
482.19	35.850
482.53	36.095
482.88	35.523
483.23	34.841
483.58	36.153
483.92	35.846
484.27	35.316
484.62	35.819
484.97	35.711
485.31	35.319
485.66	33.325
486.01	33.891
486.36	34.732
486.70	34.662
487.05	35.806
487.40	35.943
487.75	36.118
488.09	36.003
488.44	36.137
488.79	36.828
489.13	35.109
489.48	34.758
489.83	35.507
490.17	35.452
490.52	36.653
490.87	34.353
491.22	35.893
491.56	36.033
491.91	35.334
492.26	35.542
492.60	34.536
492.95	35.228
493.30	34.641
493.64	34.676
493.99	35.024
494.34	35.067
494.68	34.654
495.03	34.881
495.37	34.891
495.72	35.088
496.07	34.973
496.41	33.318
496.76	34.918
497.11	34.507
497.45	35.506
497.80	34.982
498.14	35.264
498.49	34.342
498.84	34.362
499.18	34.246
499.53	33.826
499.87	34.449
500.22	35.490
500.56	34.453
500.91	34.859
501.26	33.793
501.60	34.069
501.95	34.403
502.29	33.981
502.64	35.005
502.98	34.489
503.33	34.258
503.67	33.934
504.02	35.049
504.36	34.720
504.71	34.146
505.06	34.335
505.40	35.619
505.75	35.351
506.09	33.521
506.44	33.115
506.78	33.977
507.13	34.459
507.47	33.563
507.82	33.909
508.16	34.142
508.51	33.419
508.85	34.370
509.19	33.492
509.54	34.906
509.88	33.656
510.23	33.789
510.57	33.792
510.92	33.675
511.26	35.259
511.61	34.248
511.95	33.462
512.30	33.259
512.64	34.279
512.98	33.296
513.33	33.296
513.67	33.958
514.02	34.607
514.36	32.640
514.70	33.256
515.05	33.704
515.39	32.960
515.74	33.985
516.08	32.389
516.42	32.719
516.77	33.743
517.11	33.216
517.46	33.854
517.80	34.322
518.14	33.007
518.49	33.816
518.83	33.592
519.17	32.952
519.52	33.595
519.86	33.698
520.20	32.990
520.55	33.085
520.89	33.586
521.23	34.295
521.58	34.324
521.92	33.061
522.26	33.051
522.61	33.096
522.95	34.003
523.29	32.825
523.64	33.821
523.98	33.545
524.32	32.262
524.66	32.987
525.01	33.290
525.35	33.443
525.69	33.201
526.04	32.248
526.38	32.632
526.72	33.531
527.06	32.366
527.41	32.495
527.75	33.511
528.09	34.105
528.43	33.989
528.78	33.140
529.12	32.600
529.46	33.205
529.80	33.333
530.15	32.819
530.49	33.356
530.83	32.905
531.17	34.178
531.51	32.839
531.86	33.130
532.20	31.909
532.54	32.414
532.88	32.880
533.22	32.391
533.57	31.921
533.91	32.968
534.25	33.138
534.59	32.368
534.93	31.441
535.27	32.420
535.62	33.224
535.96	33.116
536.30	31.915
536.64	31.921
536.98	31.395
537.32	32.669
537.66	32.934
538.01	31.623
538.35	32.528
538.69	31.639
539.03	30.940
539.37	31.254
539.71	32.060
540.05	31.107
540.39	31.934
540.73	32.961
541.07	30.884
541.42	32.323
541.76	32.273
542.10	31.957
542.44	30.839
542.78	31.437
543.12	31.941
543.46	31.306
543.80	30.686
544.14	31.452
544.48	30.856
544.82	31.002
545.16	30.967
545.50	32.073
545.84	31.557
546.18	30.715
546.52	30.910
546.86	31.025
547.20	32.023
547.54	30.736
547.88	31.781
548.22	31.075
548.56	31.554
548.90	31.597
549.24	31.528
549.58	31.032
549.92	32.869
550.26	32.251
550.60	30.631
550.94	30.597
551.28	31.491
551.62	30.376
551.96	31.698
552.30	29.185
552.64	29.873
552.98	31.179
553.32	30.786
553.66	31.621
554.00	30.598
554.34	30.183
554.68	30.574
555.02	30.838
555.36	30.711
555.69	30.590
556.03	29.664
556.37	30.014
556.71	31.885
557.05	29.520
557.39	30.219
557.73	30.711
558.07	29.766
558.41	29.674
558.75	30.947
559.08	30.393
559.42	30.370
559.76	30.734
560.10	30.208
560.44	30.803
560.78	29.856
561.12	29.923
561.45	28.707
561.79	29.505
562.13	29.184
562.47	31.357
562.81	28.932
563.15	29.108
563.48	29.938
563.82	29.685
564.16	29.858
564.50	30.461
564.84	29.662
565.17	29.868
565.51	31.350
565.85	29.047
566.19	29.868
566.52	29.489
566.86	27.939
567.20	28.772
567.54	28.382
567.88	29.059
568.21	27.865
568.55	28.795
568.89	28.514
569.23	28.873
569.56	29.203
569.90	28.949
570.24	28.231
570.57	28.216
570.91	28.229
571.25	28.057
571.59	27.781
571.92	28.395
572.26	28.690
572.60	28.488
572.93	28.429
573.27	27.847
573.61	28.103
573.95	27.816
574.28	28.564
574.62	28.018
574.96	28.248
575.29	27.733
575.63	28.267
575.97	28.451
576.30	27.781
576.64	28.478
576.98	28.305
577.31	27.860
577.65	27.546
577.98	27.912
578.32	27.156
578.66	27.915
578.99	28.146
579.33	28.211
579.67	28.080
580.00	28.025
580.34	27.921
580.67	28.197
581.01	28.032
581.35	27.552
581.68	27.730
582.02	27.964
582.35	27.986
582.69	28.058
583.02	27.547
583.36	28.245
583.70	27.970
584.03	28.256
584.37	28.607
584.70	28.415
585.04	28.197
585.37	27.339
585.71	27.593
586.04	28.095
586.38	27.046
586.72	27.536
587.05	27.721
587.39	27.858
587.72	27.846
588.06	28.016
588.39	27.932
588.73	27.738
589.06	27.514
589.40	27.692
589.73	26.949
590.07	27.525
590.40	27.906
590.73	28.363
591.07	28.124
591.40	27.609
591.74	28.235
592.07	27.020
592.41	27.971
592.74	27.199
593.08	26.872
593.41	27.200
593.75	26.970
594.08	27.254
594.41	27.239
594.75	26.912
595.08	27.521
595.42	26.414
595.75	27.079
596.09	27.598
596.42	27.451
596.75	27.073
597.09	27.889
597.42	28.174
597.75	27.244
598.09	27.459
598.42	27.785
598.76	26.952
599.09	27.131
599.42	26.964
599.76	27.112
600.09	27.334
600.42	26.667
600.76	26.681
601.09	26.629
601.42	27.283
601.76	27.297
602.09	27.077
602.42	27.404
602.76	27.055
603.09	28.296
603.42	26.429
603.76	27.202
604.09	26.561
604.42	26.789
604.76	26.975
605.09	27.458
605.42	27.305
605.75	26.253
606.09	26.118
606.42	26.600
606.75	26.320
607.09	27.482
607.42	26.401
607.75	25.777
608.08	26.781
608.42	27.085
608.75	27.329
609.08	26.801
609.41	26.826
609.75	27.131
610.08	27.367
610.41	26.531
610.74	27.382
611.07	26.703
611.41	26.612
611.74	26.605
612.07	27.566
612.40	26.703
612.73	26.564
613.07	26.608
613.40	26.101
613.73	26.490
614.06	26.423
614.39	26.848
614.72	27.762
615.06	25.556
615.39	26.049
615.72	25.810
616.05	26.633
616.38	27.148
616.71	25.315
617.05	26.290
617.38	26.987
617.71	25.980
618.04	26.752
618.37	25.868
618.70	26.003
619.03	25.292
619.36	25.836
619.69	26.023
620.03	25.654
620.36	25.678
620.69	25.625
621.02	26.231
621.35	25.102
621.68	26.487
622.01	25.162
622.34	26.249
622.67	25.764
623.00	26.596
623.33	26.253
623.66	25.279
623.99	26.032
624.32	25.092
624.65	26.855
624.99	26.084
625.32	26.288
625.65	25.349
625.98	25.118
626.31	26.286
626.64	26.311
626.97	25.952
627.30	26.518
627.63	25.865
627.96	24.675
628.29	27.070
628.62	26.402
628.95	24.749
629.28	25.911
629.61	26.124
629.94	24.758
630.26	25.419
630.59	25.974
630.92	25.602
631.25	26.468
631.58	27.088
631.91	23.224
632.24	25.027
632.57	24.889
632.90	25.088
633.23	26.379
633.56	26.499
633.89	24.880
634.22	26.973
634.55	25.579
634.88	25.123
635.20	25.375
635.53	25.065
635.86	25.128
636.19	26.675
636.52	23.415
636.85	24.729
637.18	23.630
637.51	24.469
637.83	27.023
638.16	26.933
638.49	24.433
638.82	25.490
639.15	23.404
639.48	25.134
639.81	24.306
640.13	25.775
640.46	25.141
640.79	25.612
641.12	24.852
641.45	24.454
641.77	24.300
642.10	25.265
642.43	25.000
642.76	22.240
643.09	26.358
643.41	23.764
643.74	23.748
644.07	23.301
644.40	25.041
644.73	23.220
645.05	23.735
645.38	21.761
645.71	23.469
646.04	24.411
646.36	24.826
646.69	24.476
647.02	27.322
647.35	24.314
647.67	24.030
648.00	24.275
648.33	25.085
648.66	25.042
648.98	22.981
649.31	23.006
649.64	23.944
649.96	25.276
650.29	21.895
650.62	22.405
650.94	24.310
651.27	23.498
651.60	24.301
651.92	24.373
652.25	25.126
652.58	23.597
652.90	22.727
653.23	24.278
653.56	23.471
653.88	20.819
654.21	21.672
654.54	24.917
654.86	23.415
655.19	22.549
655.52	24.887
655.84	23.491
656.17	28.704
656.49	38.399
656.82	39.319
657.15	29.953
657.47	22.507
657.80	16.783
658.13	18.362
658.45	27.331
658.78	27.425
659.10	27.113
659.43	27.306
659.75	27.384
660.08	26.828
660.41	25.862
660.73	25.207
661.06	23.299
661.38	24.806
661.71	25.205
662.03	23.467
662.36	21.460
662.68	23.656
663.01	26.483
663.33	23.542
663.66	20.177
663.98	22.472
664.31	22.418
664.63	21.171
664.96	24.289
665.28	26.609
665.61	20.302
665.93	23.769
666.26	26.371
666.58	22.270
666.91	24.888
667.23	22.120
667.56	22.989
667.88	22.196
668.21	22.098
668.53	22.759
668.86	21.343
669.18	22.695
669.50	24.885
669.83	20.286
670.15	25.952
670.48	25.057
670.80	23.414
671.13	22.426
671.45	24.429
671.77	22.845
672.10	20.858
672.42	24.809
672.75	21.607
673.07	22.364
673.39	24.627
673.72	24.152
674.04	24.385
674.37	22.154
674.69	20.988
675.01	22.222
675.34	23.414
675.66	21.786
675.98	25.000
676.31	24.208
676.63	23.356
676.95	20.706
677.28	21.789
677.60	24.020
677.92	22.616
678.25	22.126
678.57	27.088
678.89	22.388
679.22	21.946
679.54	22.857
679.86	21.484
680.18	20.192
680.51	23.077
680.83	23.392
681.15	23.183
681.48	22.244
681.80	22.699
682.12	21.667
682.44	22.334
682.77	21.684
683.09	24.330
683.41	20.930
683.73	21.875
684.06	21.460
684.38	21.795
684.70	20.163
685.02	22.314
685.34	22.505
685.67	23.827
685.99	22.242
686.31	22.759
686.63	22.426
686.96	25.974
687.28	21.357
687.60	25.709
687.92	24.514
688.24	24.400
688.56	23.026
688.89	23.163
689.21	21.300
689.53	20.045
689.85	23.146
690.17	24.176
690.49	21.014
690.82	22.434
691.14	19.324
691.46	22.738
691.78	22.637
692.10	21.019
692.42	20.659
692.74	23.478
693.06	20.449
693.39	19.438
693.71	20.667
694.03	24.091
694.35	22.523
694.67	23.000
694.99	22.938
695.31	22.222
695.63	20.732
695.95	22.137
696.27	19.726
696.59	20.968
696.91	20.391
697.23	20.305
697.56	22.542
697.88	23.701
698.20	21.382
698.52	21.963
698.84	19.139
699.16	23.168
699.48	24.691
699.80	26.098
700.12	26.005
700.44	21.690
700.76	21.348
701.08	23.263
701.40	22.754
701.72	23.077
702.04	17.610
702.36	17.378
702.68	17.683
703.00	25.146
703.32	21.170
703.64	23.494
703.96	20.528
704.28	22.289
704.60	24.695
704.91	17.868
705.23	20.253
705.55	18.966
705.87	24.296
706.19	21.978
706.51	17.606
706.83	17.516
707.15	21.037
707.47	23.967
707.79	20.051
708.11	17.995
708.43	22.843
708.74	22.074
709.06	23.797
709.38	23.055
709.70	20.721
710.02	24.299
710.34	17.000
710.66	19.870
710.98	17.647
711.29	22.403
711.61	19.355
711.93	18.387
712.25	13.636
712.57	14.737
712.89	16.850
713.20	17.730
713.52	18.613
713.84	18.065
714.16	18.770
714.48	19.620
714.80	19.489
715.11	24.128
715.43	19.565
715.75	20.186
716.07	21.988
716.39	18.855
716.70	21.942
717.02	19.608
717.34	23.485
717.66	17.672
717.97	17.857
718.29	21.260
718.61	15.880
718.93	17.442
719.24	21.771
719.56	22.097
719.88	16.418
720.20	16.206
720.51	16.406
720.83	23.735
721.15	15.041
721.46	22.519
721.78	22.709
722.10	19.124
722.42	17.742
722.73	21.622
723.05	24.082
723.37	23.109
723.68	15.200
724.00	14.043
724.32	17.155
724.63	22.634
724.95	14.530
725.27	27.848
725.58	23.457
725.90	20.502
726.22	16.304
726.53	12.941
726.85	21.533
727.16	16.667
727.48	22.222
727.80	22.266
728.11	19.262
728.43	22.266
728.74	16.667
729.06	18.400
729.38	22.530
729.69	22.776
730.01	18.216
730.32	22.509
730.64	17.045
730.96	21.678
731.27	18.395
731.59	19.683
731.90	18.447
732.22	22.115
732.53	17.568
732.85	16.107
733.16	24.752
733.48	19.595
733.80	21.622
734.11	24.324
734.43	21.053
734.74	24.024
735.06	19.308
735.37	20.365
735.69	22.977
736.00	20.132
736.32	18.794
736.63	17.586
736.95	22.603
737.26	20.000
737.58	20.833
737.89	21.306
738.21	17.794
738.52	17.871
738.83	21.633
739.15	22.363
739.46	22.957
739.78	19.366
740.09	20.205
740.41	16.071
740.72	19.149
741.04	17.600
741.35	17.982
741.66	22.222
741.98	19.712
742.29	28.218
742.61	16.585
742.92	22.807
743.23	14.623
743.55	21.622
743.86	17.040
744.18	20.588
744.49	18.274
744.80	17.347
745.12	21.028
745.43	22.275
745.74	20.721
746.06	19.626
746.37	16.514
746.68	15.865
747.00	24.880
747.31	20.192
747.62	16.972
747.94	19.651
748.25	21.101
748.56	22.667
748.88	20.657
749.19	23.810
749.50	15.534
749.82	23.005
750.13	15.833
750.44	18.846
750.75	20.664
751.07	19.929
751.38	22.340
751.69	19.691
752.01	23.828
752.32	20.385
752.63	20.149
752.94	19.600
753.26	22.176
753.57	20.417
753.88	21.862
754.19	20.319
754.51	17.669
754.82	19.780
755.13	19.130
755.44	19.919
755.75	17.600
756.07	17.712
756.38	19.784
756.69	20.478
757.00	19.315
757.31	17.799
757.63	16.667
757.94	20.056
758.25	19.841
758.56	21.467
758.87	21.131
759.18	21.136
759.50	19.192
759.81	20.736
760.12	22.462
760.43	15.476
760.74	19.209
761.05	16.022
761.36	19.198
761.67	19.637
761.99	20.275
762.30	18.978
762.61	19.753
762.92	21.795
763.23	19.672
763.54	20.779
763.85	17.143
764.16	16.260
764.47	22.000
764.78	18.929
765.10	18.361
765.41	21.884
765.72	22.050
766.03	18.482
766.34	19.231
766.65	24.268
766.96	17.371
767.27	24.257
767.58	9.551
767.89	15.432
768.20	18.232
768.51	20.101
768.82	21.635
769.13	20.796
769.44	23.013
769.75	15.385
770.06	19.283
770.37	16.667
770.68	20.874
770.99	13.107
771.30	12.605
771.61	20.000
771.92	21.992
772.23	17.117
772.54	17.680
772.85	25.000
773.16	20.106
773.47	13.609
773.78	18.966
774.09	23.750
774.39	15.528
774.70	21.769
775.01	17.241
775.32	17.143
775.63	12.030
775.94	15.038
776.25	11.200
776.56	15.702
776.87	15.079
777.18	18.018
777.48	16.216
777.79	15.748
778.10	12.844
778.41	9.649
778.72	11.765
779.03	16.901
779.34	22.297
779.65	18.310
779.95	17.219
780.26	8.633
780.57	25.899
780.88	11.972
781.19	17.647
781.50	22.148
781.80	15.789
782.11	13.372
782.42	24.528
782.73	22.222
783.04	15.862
783.34	16.794
783.65	14.094
783.96	14.615
784.27	19.286
784.57	19.149
784.88	15.385
785.19	34.545
785.50	14.545
785.81	19.048
786.11	14.286
786.42	18.584
786.73	10.377
787.04	4.587
787.34	9.901
787.65	23.333
787.96	16.529
788.26	18.116
788.57	21.429
788.88	13.821
789.19	14.400
789.49	15.267
789.80	25.758
790.11	7.547
790.41	22.772
790.72	25.532
791.03	16.304
791.33	25.882
791.64	14.815
791.95	8.696
792.25	20.455
792.56	7.692
792.87	12.821
793.17	11.538
793.48	16.667
793.79	16.250
794.09	26.923
794.40	22.917
794.70	21.622
795.01	7.813
795.32	14.783
795.62	5.435
795.93	12.264
796.23	21.212
796.54	14.634
796.85	28.571
797.15	15.152
797.46	18.841
797.76	9.211
798.07	19.318
798.37	1.220
798.68	6.452
798.99	8.108
799.29	18.072
799.60	15.385
799.90	18.462
800.21	19.697
800.51	16.000
800.82	14.667
801.12	-18.750
801.43	1.667
801.73	2.703
802.04	27.143
802.34	13.115
802.65	19.403
802.95	12.727
803.26	22.414
803.56	15.385
803.87	15.094
804.17	11.290
804.48	19.118
804.78	-4.878
805.09	20.290
805.39	19.118
805.70	-6.383
806.00	15.789
806.30	12.821
806.61	22.368
806.91	21.622
807.22	10.526
807.52	34.091
807.83	-8.475
808.13	-12.121
808.43	0.000
808.74	-13.793
809.04	-3.175
809.35	4.082
809.65	21.667
809.95	12.245
810.26	21.127
810.56	-2.083
810.86	0.000
811.17	11.538
811.47	-6.383
811.77	8.333
812.08	30.189
812.38	-3.125
812.69	14.545
812.99	19.512
813.29	5.405
813.59	-10.811
813.90	20.000
814.20	-3.636
814.50	11.667
814.81	16.364
815.11	10.526
815.41	27.907
815.72	20.000
816.02	5.714
816.32	21.622
816.62	12.500
816.93	20.000
817.23	0.000
817.53	-11.111
817.84	2.703
818.14	19.512
818.44	12.000
818.74	20.408
819.04	17.073
819.35	-19.444
819.65	0.000
819.95	-72.222
820.25	-3.030
820.56	7.143
820.86	16.667
821.16	2.273
821.46	30.435
821.76	-1.724
822.07	34.783
822.37	3.030
822.67	21.951
822.97	2.703
823.27	-22.857
823.57	17.241
823.88	0.000
824.18	44.444
824.48	-17.143
824.78	-42.857
825.08	14.286
825.38	-7.407
825.69	-29.032
825.99	7.317
826.29	11.111
826.59	0.000
826.89	-9.677
827.19	-26.087
827.49	0.000
827.79	-17.391
828.09	0.000
828.39	22.917
828.70	-21.875
829.00	-24.138
829.30	5.405
829.60	-25.000
829.90	0.000
830.20	15.625
830.50	40.909
830.80	-141.176
831.10	-13.636
831.40	-23.529
831.70	7.692
832.00	18.182
832.30	20.588
832.60	0.000
832.90	1700.000
833.20	7.143
833.50	-65.000
833.80	13.158
834.10	-8.333
834.40	9.091
834.70	-53.333
835.00	30.000
835.30	16.667
835.60	-38.095
835.90	14.286
836.20	4.000
836.50	-16.667
836.80	10.526
837.10	16.216
837.40	33.333
837.70	-13.043
838.00	54.167
838.30	-5.263
838.60	-150.000
838.90	-80.000
839.19	-66.667
839.49	15.385
839.79	15.789
840.09	-133.333
840.39	-40.000
840.69	-27.273
840.99	-4.762
841.29	-33.333
841.59	-23.077
841.88	-160.000
842.18	50.000
842.48	6.667
842.78	-128.571
843.08	-28.571
843.38	-75.000
843.68	-6.250
843.97	85.714
844.27	-55.556
844.57	-27.273
844.87	-66.667
845.17	45.455
845.47	500.000
845.76	-46.667
846.06	-116.667
846.36	-950.000
846.66	-78.947
846.96	13.636
847.25	-55.556
847.55	-177.778
847.85	-4.762
848.15	-23.077
848.44	-133.333
848.74	-25.000
849.04	-115.385
849.34	-250.000
849.63	-45.455
849.93	-142.857
850.23	25.000
850.53	-112.500
850.82	44.444
851.12	13.333
851.42	-35.294
851.71	-62.500
852.01	-17.647
852.31	-15.385
852.61	750.000
852.90	35.294
853.20	-20.000
853.50	-50.000
853.79	-135.714
854.09	-175.000
854.39	-25.000
854.68	5.000
854.98	-38.095
855.28	-4.000
855.57	25.000
855.87	-8.333
856.17	-16.000
856.46	9.375
856.76	40.000
857.05	12.000
857.35	66.667
857.65	-23.529
857.94	-25.000
858.24	-50.000
858.53	40.000
858.83	-45.455
859.13	0.000
859.42	7.143
859.72	-75.000
860.01	33.333
860.31	-225.000
860.60	-31.250
860.90	16.667
861.20	116.667
861.49	-6.667
861.79	-43.750
862.08	125.000
862.38	-66.667
862.67	342.857
862.97	225.000
863.26	-90.909
863.56	0.000
863.85	21.053
864.15	0.000
864.44	-80.000
864.74	-40.000
865.03	-22.222
865.33	35.714
865.62	150.000
865.92	26.316
866.21	-50.000
866.51	-72.727
866.80	-88.889
867.10	-100.000
867.39	31.250
867.69	-66.667
867.98	10.000
868.27	47.059
868.57	0.000
868.86	1250.000
869.16	-200.000
869.45	-42.857
869.75	350.000
870.04	-60.000
870.33	-1600.000
870.63	-21.053
870.92	41.667
871.22	-1200.000
871.51	-171.429
871.80	-166.667
872.10	-250.000
>>>>>End Processed Spectral Data<<<<<
