SpectraSuite Data File
++++++++++++++++++++++++++++++++++++
Date: Wed May 13 20:48:20 PDT 2015
User: schluterlab
Dark Spectrum Present: Yes
Reference Spectrum Present: Yes
Number of Sampled Component Spectra: 1
Spectrometers: USB2E3373
Integration Time (usec): 3000 (USB2E3373)
Spectra Averaged: 3 (USB2E3373)
Boxcar Smoothing: 0 (USB2E3373)
Correct for Electrical Dark: No (USB2E3373)
Strobe/Lamp Enabled: No (USB2E3373)
Correct for Detector Non-linearity: No (USB2E3373)
Correct for Stray Light: No (USB2E3373)
Number of Pixels in Processed Spectrum: 2048
>>>>>Begin Processed Spectral Data<<<<<
178.53	0.000
178.91	-625.000
179.29	-650.000
179.67	-161.111
180.04	-800.000
180.42	1250.000
180.80	620.000
181.18	-675.000
181.56	371.429
181.94	0.000
182.31	-300.000
182.69	900.000
183.07	-225.000
183.45	-288.889
183.83	345.455
184.20	-110.000
184.58	1400.000
184.96	3000.000
185.34	-460.000
185.72	-337.500
186.09	-1300.000
186.47	2150.000
186.85	1450.000
187.23	3200.000
187.61	-1133.333
187.98	700.000
188.36	336.364
188.74	200.000
189.12	-520.000
189.49	260.000
189.87	-2600.000
190.25	-575.000
190.63	200.000
191.00	253.846
191.38	466.667
191.76	-650.000
192.14	775.000
192.51	350.000
192.89	566.667
193.27	262.500
193.65	-400.000
194.02	240.000
194.40	440.000
194.78	320.000
195.15	350.000
195.53	420.000
195.91	-1100.000
196.29	193.750
196.66	205.263
197.04	-90.000
197.42	0.000
197.79	380.000
198.17	-1700.000
198.55	285.714
198.92	450.000
199.30	600.000
199.68	0.000
200.05	222.222
200.43	542.857
200.81	1700.000
201.18	766.667
201.56	-533.333
201.94	288.889
202.31	377.778
202.69	216.667
203.07	340.000
203.44	0.000
203.82	550.000
204.19	514.286
204.57	321.429
204.95	375.000
205.32	233.333
205.70	254.545
206.08	200.000
206.45	1400.000
206.83	175.000
207.20	516.667
207.58	360.000
207.96	166.667
208.33	425.000
208.71	-616.667
209.08	528.571
209.46	388.889
209.84	227.273
210.21	-700.000
210.59	850.000
210.96	-262.500
211.34	1550.000
211.71	400.000
212.09	466.667
212.46	0.000
212.84	966.667
213.22	850.000
213.59	-2600.000
213.97	500.000
214.34	414.286
214.72	436.364
215.09	440.000
215.47	-1300.000
215.84	-1500.000
216.22	533.333
216.59	242.857
216.97	675.000
217.34	254.545
217.72	-466.667
218.09	0.000
218.47	-2700.000
218.84	355.556
219.22	385.714
219.59	733.333
219.97	-328.571
220.34	360.000
220.72	-933.333
221.09	214.286
221.47	975.000
221.84	-516.667
222.22	0.000
222.59	500.000
222.97	-950.000
223.34	580.000
223.72	253.846
224.09	620.000
224.46	1050.000
224.84	-2600.000
225.21	-540.000
225.59	-2400.000
225.96	380.000
226.34	180.000
226.71	1550.000
227.08	400.000
227.46	280.000
227.83	-350.000
228.21	-1350.000
228.58	300.000
228.95	-1650.000
229.33	-1200.000
229.70	900.000
230.08	585.714
230.45	-360.000
230.82	208.333
231.20	466.667
231.57	400.000
231.95	275.000
232.32	104.545
232.69	181.818
233.07	214.286
233.44	130.769
233.81	-766.667
234.19	142.105
234.56	225.000
234.93	241.667
235.31	209.091
235.68	107.692
236.05	178.571
236.43	106.061
236.80	126.316
237.17	2400.000
237.55	109.524
237.92	117.857
238.29	166.667
238.67	87.097
239.04	100.000
239.41	69.444
239.79	65.217
240.16	88.095
240.53	54.545
240.91	27.451
241.28	68.000
241.65	54.000
242.02	43.478
242.40	40.323
242.77	43.333
243.14	44.086
243.51	49.438
243.89	43.529
244.26	34.444
244.63	26.882
245.00	26.596
245.38	28.713
245.75	31.776
246.12	25.688
246.49	27.007
246.87	31.200
247.24	36.923
247.61	21.429
247.98	22.222
248.36	18.919
248.73	20.382
249.10	21.656
249.47	19.774
249.84	22.995
250.22	19.786
250.59	15.385
250.96	19.697
251.33	22.275
251.70	18.317
252.08	12.857
252.45	18.386
252.82	16.957
253.19	17.872
253.56	17.647
253.94	18.672
254.31	15.234
254.68	15.385
255.05	16.236
255.42	14.228
255.79	14.338
256.16	19.495
256.54	13.428
256.91	17.082
257.28	12.590
257.65	11.551
258.02	13.975
258.39	11.041
258.76	7.358
259.14	14.286
259.51	13.678
259.88	13.354
260.25	12.387
260.62	13.295
260.99	12.733
261.36	11.411
261.73	10.602
262.10	10.465
262.47	12.958
262.85	12.813
263.22	8.832
263.59	11.966
263.96	14.011
264.33	12.272
264.70	11.316
265.07	13.555
265.44	11.616
265.81	10.949
266.18	10.302
266.55	12.439
266.92	12.039
267.29	11.574
267.66	11.927
268.03	10.000
268.40	10.047
268.77	7.637
269.14	11.261
269.51	10.384
269.88	11.189
270.25	10.384
270.62	11.236
270.99	9.462
271.36	13.734
271.73	10.047
272.10	9.130
272.47	10.323
272.84	10.823
273.21	12.159
273.58	7.860
273.95	9.434
274.32	9.917
274.69	9.850
275.06	9.843
275.43	10.426
275.80	7.615
276.17	8.350
276.54	9.979
276.91	9.881
277.28	8.594
277.65	10.832
278.02	9.110
278.39	8.203
278.76	9.636
279.13	12.075
279.50	10.242
279.87	12.151
280.23	9.381
280.60	8.511
280.97	8.688
281.34	10.442
281.71	11.636
282.08	10.749
282.45	8.545
282.82	8.526
283.19	7.308
283.56	8.070
283.92	8.968
284.29	8.466
284.66	7.260
285.03	8.499
285.40	8.099
285.77	8.249
286.14	7.599
286.51	10.333
286.87	8.889
287.24	9.772
287.61	8.668
287.98	9.903
288.35	8.082
288.72	9.190
289.08	8.920
289.45	7.249
289.82	7.642
290.19	6.907
290.56	6.891
290.93	6.193
291.29	6.748
291.66	8.850
292.03	9.884
292.40	9.985
292.77	7.544
293.13	8.806
293.50	7.434
293.87	8.296
294.24	6.519
294.60	4.803
294.97	7.122
295.34	9.450
295.71	9.233
296.08	8.405
296.44	6.465
296.81	7.398
297.18	8.537
297.55	5.673
297.91	6.069
298.28	8.032
298.65	8.616
299.02	7.115
299.38	6.375
299.75	3.774
300.12	6.386
300.48	7.250
300.85	6.165
301.22	5.987
301.59	6.187
301.95	5.668
302.32	6.162
302.69	6.093
303.05	5.576
303.42	6.049
303.79	5.663
304.15	5.012
304.52	5.678
304.89	6.272
305.25	6.845
305.62	6.795
305.99	7.084
306.35	6.600
306.72	6.839
307.09	6.770
307.45	6.982
307.82	5.804
308.19	6.843
308.55	7.228
308.92	5.800
309.29	5.597
309.65	6.681
310.02	5.603
310.38	6.129
310.75	6.019
311.12	6.858
311.48	6.479
311.85	5.346
312.22	5.307
312.58	5.198
312.95	5.913
313.31	4.854
313.68	6.029
314.05	8.087
314.41	6.131
314.78	5.841
315.14	6.356
315.51	5.458
315.87	6.337
316.24	5.760
316.61	5.750
316.97	4.795
317.34	4.305
317.70	6.692
318.07	5.967
318.43	5.969
318.80	7.123
319.16	5.744
319.53	5.910
319.89	6.952
320.26	7.300
320.62	5.853
320.99	6.162
321.35	6.566
321.72	5.955
322.08	6.811
322.45	6.169
322.81	6.589
323.18	7.611
323.54	7.792
323.91	6.981
324.27	7.075
324.64	6.431
325.00	5.861
325.37	8.098
325.73	6.643
326.10	5.914
326.46	5.824
326.83	6.299
327.19	7.088
327.56	6.707
327.92	6.474
328.29	5.945
328.65	6.262
329.01	8.032
329.38	6.568
329.74	5.633
330.11	6.598
330.47	6.152
330.84	7.169
331.20	6.284
331.56	6.972
331.93	6.852
332.29	7.098
332.66	6.991
333.02	6.216
333.38	8.040
333.75	7.576
334.11	7.206
334.48	7.276
334.84	6.618
335.20	7.182
335.57	6.528
335.93	5.804
336.29	6.044
336.66	6.853
337.02	6.697
337.38	8.056
337.75	7.665
338.11	6.356
338.47	6.262
338.84	6.966
339.20	5.596
339.56	7.573
339.93	6.545
340.29	6.884
340.65	6.684
341.02	6.981
341.38	7.117
341.74	5.965
342.11	7.424
342.47	7.225
342.83	7.106
343.20	7.619
343.56	6.318
343.92	6.579
344.28	7.483
344.65	6.363
345.01	6.061
345.37	5.575
345.73	6.853
346.10	6.564
346.46	6.780
346.82	6.755
347.19	5.514
347.55	6.404
347.91	7.120
348.27	6.409
348.63	6.438
349.00	6.149
349.36	5.829
349.72	5.774
350.08	5.673
350.45	5.940
350.81	6.580
351.17	6.321
351.53	6.388
351.89	4.620
352.26	7.182
352.62	6.736
352.98	6.078
353.34	6.163
353.70	5.237
354.07	6.452
354.43	5.476
354.79	5.632
355.15	5.587
355.51	7.354
355.87	6.612
356.24	6.515
356.60	5.453
356.96	5.873
357.32	5.397
357.68	6.142
358.04	6.572
358.40	6.413
358.77	6.416
359.13	5.919
359.49	6.745
359.85	4.365
360.21	5.183
360.57	5.681
360.93	6.692
361.29	6.652
361.66	5.728
362.02	7.015
362.38	6.540
362.74	5.283
363.10	5.625
363.46	4.989
363.82	5.745
364.18	5.286
364.54	6.092
364.90	6.020
365.26	5.147
365.62	6.063
365.98	5.332
366.35	5.229
366.71	5.568
367.07	5.098
367.43	5.733
367.79	6.495
368.15	6.968
368.51	5.233
368.87	6.210
369.23	5.486
369.59	6.083
369.95	5.074
370.31	6.268
370.67	5.435
371.03	5.169
371.39	5.831
371.75	4.853
372.11	5.334
372.47	5.572
372.83	5.692
373.19	5.419
373.55	5.174
373.91	5.965
374.27	5.567
374.63	4.727
374.99	5.720
375.35	4.536
375.71	5.209
376.07	5.830
376.42	5.021
376.78	6.030
377.14	6.038
377.50	5.563
377.86	5.186
378.22	5.689
378.58	4.574
378.94	5.343
379.30	4.962
379.66	4.695
380.02	5.835
380.38	4.311
380.74	5.042
381.09	5.562
381.45	5.593
381.81	5.160
382.17	5.732
382.53	4.717
382.89	5.494
383.25	4.690
383.61	4.771
383.97	5.816
384.32	5.303
384.68	4.833
385.04	5.101
385.40	5.077
385.76	4.791
386.12	5.311
386.48	5.349
386.83	4.875
387.19	5.937
387.55	4.824
387.91	4.716
388.27	5.089
388.62	4.978
388.98	5.405
389.34	5.319
389.70	5.212
390.06	4.816
390.42	5.058
390.77	5.598
391.13	5.424
391.49	5.711
391.85	4.838
392.20	4.795
392.56	4.924
392.92	4.768
393.28	3.964
393.64	5.456
393.99	4.948
394.35	5.273
394.71	4.580
395.07	4.237
395.42	5.377
395.78	5.598
396.14	5.090
396.50	6.203
396.85	4.641
397.21	4.809
397.57	5.208
397.92	5.228
398.28	4.540
398.64	5.974
399.00	5.204
399.35	4.005
399.71	4.803
400.07	4.967
400.42	4.785
400.78	5.790
401.14	5.122
401.49	5.015
401.85	4.598
402.21	4.850
402.57	4.257
402.92	4.224
403.28	5.184
403.63	4.332
403.99	4.204
404.35	5.091
404.70	4.137
405.06	4.019
405.42	4.429
405.77	4.686
406.13	4.966
406.49	5.145
406.84	5.670
407.20	4.433
407.55	4.914
407.91	4.333
408.27	4.531
408.62	5.178
408.98	4.963
409.34	4.982
409.69	5.226
410.05	5.143
410.40	4.465
410.76	4.659
411.11	5.066
411.47	4.792
411.83	5.009
412.18	4.576
412.54	4.172
412.89	5.060
413.25	5.018
413.60	5.188
413.96	4.432
414.31	4.678
414.67	5.577
415.03	3.841
415.38	4.575
415.74	4.502
416.09	5.617
416.45	4.552
416.80	4.164
417.16	4.893
417.51	4.910
417.87	4.881
418.22	4.732
418.58	4.777
418.93	4.791
419.29	4.901
419.64	5.101
420.00	4.451
420.35	5.449
420.71	4.961
421.06	4.415
421.42	5.029
421.77	5.493
422.12	4.436
422.48	4.047
422.83	4.077
423.19	5.028
423.54	4.179
423.90	5.101
424.25	5.025
424.61	5.119
424.96	4.082
425.31	5.371
425.67	5.000
426.02	4.971
426.38	4.945
426.73	4.096
427.09	4.742
427.44	4.198
427.79	4.140
428.15	4.821
428.50	4.623
428.85	5.006
429.21	3.865
429.56	4.614
429.92	4.429
430.27	4.369
430.62	4.352
430.98	4.878
431.33	5.103
431.68	4.921
432.04	4.473
432.39	4.112
432.74	4.428
433.10	3.792
433.45	4.606
433.80	4.490
434.16	4.754
434.51	4.632
434.86	4.789
435.22	4.447
435.57	4.073
435.92	4.389
436.28	5.101
436.63	4.967
436.98	4.694
437.34	5.069
437.69	4.667
438.04	4.384
438.39	4.060
438.75	4.358
439.10	4.581
439.45	5.372
439.81	4.411
440.16	4.969
440.51	5.331
440.86	4.459
441.22	4.171
441.57	4.724
441.92	4.606
442.27	4.360
442.63	4.634
442.98	5.070
443.33	5.109
443.68	4.182
444.03	3.953
444.39	4.236
444.74	4.491
445.09	4.636
445.44	4.374
445.79	4.701
446.15	5.664
446.50	4.847
446.85	4.368
447.20	4.946
447.55	4.634
447.91	3.971
448.26	4.619
448.61	4.862
448.96	4.983
449.31	4.556
449.66	4.896
450.02	4.624
450.37	4.252
450.72	4.174
451.07	4.083
451.42	3.769
451.77	4.874
452.12	4.965
452.47	5.224
452.83	4.079
453.18	4.768
453.53	4.886
453.88	4.253
454.23	4.722
454.58	4.603
454.93	4.832
455.28	4.177
455.63	4.854
455.98	5.179
456.34	4.711
456.69	4.759
457.04	5.387
457.39	4.793
457.74	4.411
458.09	5.060
458.44	4.162
458.79	4.176
459.14	4.740
459.49	4.612
459.84	4.543
460.19	4.184
460.54	4.340
460.89	4.498
461.24	4.614
461.59	5.694
461.94	4.932
462.29	4.926
462.64	4.722
462.99	4.684
463.34	5.800
463.69	5.191
464.04	5.159
464.39	5.101
464.74	4.456
465.09	4.644
465.44	4.543
465.79	3.579
466.14	4.871
466.49	5.006
466.84	4.845
467.19	5.250
467.54	4.938
467.89	5.042
468.24	4.887
468.59	5.006
468.94	4.704
469.29	4.306
469.64	5.288
469.99	4.871
470.34	4.293
470.68	5.029
471.03	4.830
471.38	5.420
471.73	5.063
472.08	5.987
472.43	5.402
472.78	4.477
473.13	5.006
473.48	5.056
473.83	5.000
474.17	4.294
474.52	4.653
474.87	5.429
475.22	4.991
475.57	5.051
475.92	4.195
476.27	4.510
476.61	4.964
476.96	3.683
477.31	5.128
477.66	4.431
478.01	4.234
478.36	4.865
478.70	3.946
479.05	4.420
479.40	4.862
479.75	4.321
480.10	3.976
480.45	4.331
480.79	4.013
481.14	4.452
481.49	4.509
481.84	3.978
482.19	4.362
482.53	4.587
482.88	4.700
483.23	4.393
483.58	4.049
483.92	4.592
484.27	3.791
484.62	4.310
484.97	3.823
485.31	4.349
485.66	3.417
486.01	3.206
486.36	3.207
486.70	3.697
487.05	3.857
487.40	3.652
487.75	3.943
488.09	3.913
488.44	4.036
488.79	4.448
489.13	4.431
489.48	4.445
489.83	3.971
490.17	4.516
490.52	4.252
490.87	4.478
491.22	4.184
491.56	3.964
491.91	3.816
492.26	3.950
492.60	4.424
492.95	3.368
493.30	4.673
493.64	3.780
493.99	4.225
494.34	4.440
494.68	4.625
495.03	4.135
495.37	4.421
495.72	3.996
496.07	4.687
496.41	4.336
496.76	4.090
497.11	4.322
497.45	4.238
497.80	4.223
498.14	3.913
498.49	4.537
498.84	4.842
499.18	4.238
499.53	4.226
499.87	4.287
500.22	4.663
500.56	5.243
500.91	4.135
501.26	4.173
501.60	4.936
501.95	3.987
502.29	4.499
502.64	4.888
502.98	4.208
503.33	3.976
503.67	4.640
504.02	4.443
504.36	4.258
504.71	4.494
505.06	4.578
505.40	4.570
505.75	4.195
506.09	4.859
506.44	4.341
506.78	4.481
507.13	4.089
507.47	5.000
507.82	4.813
508.16	3.749
508.51	4.668
508.85	3.575
509.19	4.184
509.54	4.184
509.88	4.740
510.23	4.113
510.57	4.902
510.92	4.350
511.26	4.368
511.61	5.342
511.95	4.384
512.30	3.765
512.64	4.836
512.98	5.413
513.33	4.604
513.67	4.589
514.02	4.275
514.36	4.806
514.70	4.649
515.05	4.071
515.39	5.272
515.74	4.561
516.08	5.422
516.42	5.605
516.77	5.351
517.11	4.550
517.46	4.797
517.80	4.646
518.14	4.806
518.49	5.076
518.83	5.341
519.17	5.312
519.52	4.414
519.86	5.077
520.20	5.318
520.55	4.907
520.89	5.049
521.23	5.187
521.58	5.342
521.92	5.144
522.26	4.759
522.61	4.611
522.95	4.727
523.29	4.869
523.64	5.122
523.98	4.190
524.32	5.428
524.66	5.472
525.01	5.270
525.35	5.452
525.69	5.480
526.04	5.047
526.38	4.820
526.72	5.153
527.06	5.085
527.41	3.960
527.75	5.659
528.09	5.845
528.43	5.290
528.78	5.655
529.12	4.909
529.46	5.328
529.80	5.074
530.15	6.168
530.49	4.431
530.83	5.316
531.17	6.593
531.51	5.642
531.86	5.097
532.20	6.323
532.54	5.701
532.88	5.263
533.22	4.685
533.57	4.691
533.91	5.719
534.25	5.043
534.59	5.064
534.93	5.413
535.27	4.768
535.62	5.800
535.96	5.022
536.30	6.039
536.64	5.344
536.98	5.375
537.32	4.213
537.66	4.800
538.01	5.398
538.35	5.495
538.69	6.063
539.03	4.418
539.37	5.687
539.71	4.018
540.05	5.098
540.39	5.116
540.73	5.045
541.07	5.840
541.42	6.393
541.76	5.742
542.10	5.951
542.44	4.570
542.78	5.599
543.12	5.118
543.46	5.836
543.80	5.270
544.14	4.236
544.48	5.397
544.82	5.260
545.16	5.010
545.50	4.756
545.84	4.973
546.18	4.983
546.52	5.506
546.86	5.017
547.20	5.732
547.54	4.943
547.88	5.230
548.22	4.981
548.56	5.723
548.90	4.033
549.24	4.714
549.58	5.593
549.92	5.151
550.26	5.753
550.60	5.533
550.94	5.493
551.28	5.340
551.62	5.392
551.96	5.123
552.30	5.392
552.64	5.747
552.98	5.356
553.32	5.799
553.66	6.612
554.00	6.108
554.34	5.728
554.68	5.794
555.02	5.783
555.36	4.871
555.69	5.480
556.03	5.787
556.37	5.321
556.71	5.389
557.05	6.232
557.39	5.248
557.73	5.363
558.07	5.946
558.41	5.355
558.75	5.584
559.08	6.115
559.42	4.157
559.76	5.515
560.10	5.496
560.44	5.101
560.78	3.925
561.12	5.475
561.45	6.063
561.79	5.010
562.13	5.902
562.47	5.055
562.81	5.370
563.15	5.886
563.48	5.504
563.82	5.871
564.16	4.644
564.50	5.078
564.84	5.120
565.17	5.019
565.51	5.751
565.85	5.076
566.19	5.448
566.52	5.256
566.86	4.702
567.20	5.248
567.54	4.909
567.88	4.943
568.21	5.979
568.55	5.308
568.89	4.912
569.23	5.214
569.56	4.696
569.90	4.491
570.24	4.270
570.57	4.624
570.91	4.202
571.25	4.725
571.59	4.418
571.92	4.291
572.26	4.362
572.60	4.655
572.93	4.348
573.27	4.614
573.61	4.327
573.95	4.729
574.28	4.397
574.62	4.227
574.96	4.014
575.29	3.952
575.63	4.294
575.97	4.270
576.30	4.647
576.64	4.296
576.98	4.229
577.31	3.812
577.65	3.952
577.98	4.061
578.32	3.892
578.66	4.444
578.99	4.223
579.33	3.752
579.67	4.160
580.00	4.507
580.34	4.200
580.67	4.349
581.01	4.700
581.35	3.968
581.68	4.017
582.02	3.813
582.35	4.069
582.69	4.226
583.02	4.039
583.36	4.519
583.70	4.545
584.03	4.232
584.37	4.453
584.70	4.258
585.04	4.281
585.37	4.264
585.71	4.699
586.04	4.180
586.38	4.519
586.72	4.640
587.05	4.156
587.39	4.248
587.72	4.586
588.06	4.322
588.39	4.554
588.73	4.371
589.06	5.111
589.40	4.916
589.73	4.224
590.07	4.662
590.40	4.129
590.73	4.723
591.07	4.965
591.40	4.639
591.74	5.498
592.07	4.712
592.41	4.961
592.74	4.457
593.08	4.597
593.41	4.556
593.75	4.310
594.08	4.660
594.41	4.913
594.75	4.325
595.08	4.724
595.42	4.799
595.75	4.487
596.09	5.107
596.42	5.540
596.75	5.023
597.09	5.368
597.42	5.101
597.75	5.002
598.09	4.957
598.42	5.112
598.76	3.891
599.09	4.789
599.42	4.803
599.76	5.015
600.09	4.736
600.42	4.821
600.76	4.643
601.09	4.554
601.42	4.604
601.76	4.820
602.09	4.862
602.42	4.896
602.76	5.522
603.09	5.075
603.42	5.271
603.76	4.802
604.09	4.459
604.42	4.770
604.76	5.399
605.09	5.155
605.42	4.703
605.75	5.671
606.09	4.717
606.42	4.781
606.75	4.811
607.09	5.316
607.42	4.108
607.75	4.557
608.08	4.603
608.42	5.468
608.75	5.005
609.08	5.042
609.41	5.569
609.75	4.859
610.08	6.126
610.41	4.749
610.74	4.920
611.07	5.435
611.41	4.661
611.74	6.083
612.07	5.901
612.40	5.561
612.73	5.316
613.07	5.280
613.40	5.477
613.73	4.405
614.06	5.215
614.39	5.558
614.72	5.263
615.06	5.200
615.39	5.149
615.72	4.755
616.05	4.997
616.38	4.947
616.71	6.057
617.05	5.771
617.38	5.292
617.71	4.805
618.04	5.829
618.37	5.736
618.70	5.414
619.03	6.053
619.36	5.703
619.69	5.493
620.03	6.319
620.36	5.682
620.69	6.164
621.02	5.900
621.35	5.247
621.68	5.062
622.01	5.650
622.34	6.430
622.67	6.768
623.00	5.649
623.33	6.290
623.66	5.504
623.99	6.480
624.32	4.993
624.65	6.215
624.99	5.028
625.32	5.358
625.65	5.860
625.98	5.380
626.31	6.610
626.64	6.286
626.97	5.736
627.30	5.237
627.63	6.645
627.96	6.560
628.29	6.124
628.62	6.953
628.95	8.302
629.28	6.204
629.61	6.874
629.94	6.381
630.26	6.673
630.59	6.864
630.92	5.651
631.25	5.726
631.58	7.708
631.91	6.288
632.24	5.802
632.57	6.716
632.90	7.346
633.23	6.040
633.56	7.458
633.89	7.022
634.22	7.605
634.55	6.154
634.88	6.108
635.20	7.527
635.53	7.470
635.86	5.817
636.19	6.706
636.52	7.843
636.85	7.331
637.18	6.221
637.51	6.501
637.83	4.686
638.16	7.289
638.49	8.438
638.82	8.344
639.15	8.125
639.48	7.731
639.81	7.105
640.13	7.292
640.46	6.577
640.79	8.851
641.12	6.052
641.45	6.145
641.77	6.627
642.10	7.456
642.43	6.607
642.76	7.740
643.09	8.589
643.41	7.132
643.74	7.716
644.07	7.927
644.40	7.669
644.73	9.291
645.05	8.716
645.38	7.267
645.71	9.823
646.04	7.309
646.36	11.519
646.69	9.699
647.02	7.483
647.35	9.966
647.67	8.319
648.00	10.569
648.33	7.756
648.66	6.515
648.98	9.745
649.31	7.025
649.64	6.129
649.96	8.644
650.29	7.425
650.62	6.958
650.94	10.211
651.27	9.966
651.60	9.983
651.92	8.626
652.25	7.166
652.58	7.788
652.90	8.215
653.23	6.626
653.56	8.504
653.88	8.399
654.21	7.267
654.54	7.921
654.86	7.477
655.19	6.351
655.52	4.842
655.84	3.469
656.17	3.880
656.49	5.558
656.82	5.661
657.15	4.715
657.47	3.768
657.80	2.994
658.13	3.190
658.45	4.844
658.78	5.161
659.10	5.365
659.43	5.344
659.75	5.538
660.08	5.190
660.41	7.169
660.73	8.767
661.06	7.643
661.38	7.455
661.71	9.615
662.03	9.665
662.36	9.344
662.68	9.639
663.01	9.697
663.33	8.493
663.66	9.454
663.98	11.015
664.31	9.874
664.63	8.097
664.96	7.042
665.28	10.041
665.61	9.162
665.93	8.451
666.26	8.316
666.58	8.787
666.91	10.571
667.23	10.112
667.56	10.583
667.88	9.402
668.21	10.874
668.53	9.544
668.86	9.307
669.18	8.529
669.50	9.565
669.83	12.418
670.15	10.444
670.48	7.625
670.80	10.129
671.13	9.554
671.45	8.723
671.77	10.794
672.10	9.612
672.42	8.127
672.75	9.619
673.07	7.923
673.39	9.042
673.72	7.031
674.04	7.451
674.37	8.738
674.69	6.748
675.01	7.322
675.34	11.910
675.66	11.579
675.98	10.794
676.31	10.504
676.63	8.493
676.95	9.434
677.28	7.710
677.60	8.352
677.92	10.127
678.25	9.240
678.57	9.363
678.89	6.413
679.22	10.020
679.54	8.779
679.86	9.541
680.18	7.335
680.51	7.979
680.83	9.253
681.15	8.491
681.48	11.153
681.80	7.930
682.12	7.854
682.44	7.930
682.77	9.369
683.09	11.373
683.41	11.308
683.73	9.272
684.06	10.744
684.38	9.002
684.70	8.915
685.02	10.319
685.34	8.791
685.67	6.294
685.99	5.842
686.31	6.997
686.63	4.417
686.96	7.500
687.28	7.762
687.60	7.971
687.92	8.044
688.24	8.365
688.56	9.839
688.89	11.411
689.21	9.607
689.53	12.317
689.85	10.421
690.17	9.317
690.49	10.191
690.82	6.776
691.14	8.482
691.46	8.650
691.78	10.843
692.10	9.504
692.42	9.581
692.74	7.676
693.06	9.362
693.39	8.830
693.71	9.607
694.03	9.684
694.35	9.091
694.67	10.526
694.99	11.951
695.31	9.314
695.63	7.416
695.95	8.557
696.27	8.122
696.59	10.363
696.91	10.104
697.23	7.277
697.56	10.235
697.88	6.748
698.20	6.875
698.52	7.312
698.84	8.909
699.16	8.756
699.48	8.551
699.80	10.145
700.12	12.727
700.44	14.324
700.76	12.707
701.08	10.057
701.40	9.497
701.72	9.913
702.04	17.614
702.36	7.649
702.68	9.632
703.00	10.249
703.32	9.043
703.64	10.456
703.96	8.635
704.28	13.663
704.60	12.903
704.91	10.682
705.23	15.836
705.55	11.628
705.87	13.953
706.19	9.187
706.51	11.526
706.83	13.939
707.15	12.325
707.47	10.101
707.79	10.811
708.11	10.959
708.43	9.762
708.74	7.398
709.06	13.247
709.38	11.024
709.70	13.663
710.02	13.056
710.34	11.212
710.66	11.940
710.98	11.364
711.29	13.953
711.61	12.389
711.93	13.782
712.25	10.289
712.57	10.294
712.89	12.803
713.20	13.374
713.52	12.500
713.84	12.975
714.16	10.366
714.48	12.069
714.80	13.070
715.11	11.527
715.43	10.682
715.75	12.464
716.07	9.265
716.39	9.718
716.70	10.963
717.02	10.432
717.34	14.841
717.66	11.940
717.97	16.733
718.29	12.963
718.61	13.869
718.93	12.500
719.24	12.457
719.56	9.492
719.88	15.593
720.20	13.176
720.51	12.544
720.83	11.896
721.15	7.836
721.46	12.411
721.78	11.828
722.10	13.208
722.42	16.165
722.73	16.854
723.05	13.525
723.37	12.551
723.68	14.286
724.00	12.195
724.32	12.097
724.63	13.415
724.95	12.971
725.27	17.814
725.58	14.453
725.90	18.978
726.22	9.811
726.53	14.583
726.85	14.334
727.16	14.235
727.48	11.348
727.80	10.606
728.11	14.855
728.43	11.154
728.74	10.036
729.06	18.248
729.38	15.809
729.69	13.523
730.01	11.945
730.32	12.847
730.64	13.043
730.96	10.891
731.27	14.901
731.59	15.291
731.90	13.411
732.22	11.801
732.53	10.836
732.85	10.577
733.16	10.289
733.48	7.973
733.80	15.584
734.11	14.013
734.43	14.793
734.74	10.857
735.06	8.596
735.37	14.740
735.69	9.873
736.00	13.725
736.32	12.150
736.63	10.224
736.95	10.863
737.26	6.463
737.58	8.710
737.89	14.716
738.21	12.287
738.52	15.000
738.83	13.585
739.15	11.923
739.46	13.504
739.78	7.639
740.09	13.538
740.41	14.194
740.72	9.756
741.04	10.741
741.35	13.750
741.66	19.111
741.98	14.151
742.29	18.182
742.61	20.259
742.92	15.837
743.23	10.684
743.55	16.800
743.86	14.474
744.18	18.142
744.49	19.617
744.80	21.596
745.12	21.364
745.43	18.062
745.74	17.568
746.06	15.138
746.37	17.489
746.68	19.005
747.00	16.204
747.31	17.143
747.62	15.044
747.94	14.097
748.25	10.638
748.56	14.978
748.88	15.842
749.19	16.000
749.50	17.209
749.82	11.382
750.13	10.612
750.44	12.774
750.75	14.035
751.07	16.399
751.38	12.892
751.69	19.134
752.01	14.662
752.32	12.274
752.63	9.220
752.94	12.295
753.26	16.400
753.57	11.382
753.88	16.406
754.19	13.571
754.51	15.278
754.82	11.913
755.13	13.962
755.44	15.038
755.75	10.219
756.07	9.574
756.38	13.504
756.69	9.396
757.00	11.078
757.31	12.760
757.63	10.234
757.94	11.528
758.25	9.804
758.56	9.630
758.87	10.753
759.18	12.121
759.50	13.166
759.81	9.969
760.12	8.438
760.43	12.034
760.74	10.326
761.05	13.559
761.36	10.428
761.67	12.500
761.99	7.764
762.30	11.806
762.61	16.031
762.92	12.500
763.23	13.445
763.54	20.000
763.85	12.500
764.16	14.231
764.47	12.167
764.78	13.074
765.10	8.861
765.41	12.684
765.72	13.174
766.03	9.091
766.34	10.667
766.65	11.915
766.96	13.248
767.27	16.751
767.58	15.104
767.89	21.053
768.20	16.667
768.51	19.289
768.82	14.220
769.13	15.041
769.44	13.765
769.75	12.446
770.06	6.881
770.37	16.290
770.68	16.667
770.99	13.778
771.30	9.836
771.61	19.731
771.92	18.443
772.23	25.210
772.54	12.821
772.85	21.990
773.16	22.340
773.47	17.935
773.78	24.365
774.09	20.833
774.39	22.222
774.70	16.049
775.01	21.014
775.32	26.144
775.63	24.342
775.94	23.741
776.25	23.622
776.56	23.134
776.87	20.492
777.18	21.875
777.48	27.481
777.79	33.333
778.10	19.259
778.41	24.107
778.72	24.088
779.03	15.436
779.34	18.121
779.65	19.595
779.95	22.699
780.26	28.105
780.57	24.138
780.88	32.031
781.19	21.805
781.50	25.676
781.80	22.013
782.11	21.469
782.42	17.089
782.73	19.018
783.04	19.595
783.34	23.944
783.65	31.507
783.96	20.896
784.27	20.280
784.57	17.266
784.88	13.889
785.19	28.571
785.50	18.868
785.81	32.836
786.11	31.967
786.42	29.457
786.73	24.779
787.04	26.415
787.34	22.321
787.65	33.000
787.96	28.829
788.26	26.446
788.57	27.119
788.88	29.752
789.19	26.389
789.49	35.606
789.80	34.351
790.11	31.429
790.41	32.673
790.72	21.687
791.03	32.609
791.33	29.070
791.64	24.742
791.95	41.584
792.25	37.778
792.56	35.065
792.87	48.718
793.17	45.570
793.48	35.632
793.79	50.575
794.09	44.318
794.40	26.050
794.70	31.618
795.01	24.444
795.32	22.302
795.62	24.409
795.93	22.414
796.23	21.239
796.54	28.235
796.85	32.432
797.15	53.521
797.46	30.303
797.76	37.349
798.07	46.835
798.37	38.462
798.68	37.879
798.99	19.718
799.29	38.961
799.60	30.682
799.90	46.575
800.21	50.746
800.51	39.655
800.82	64.912
801.12	36.066
801.43	54.545
801.73	44.595
802.04	52.381
802.34	44.444
802.65	34.375
802.95	64.407
803.26	60.938
803.56	28.571
803.87	30.769
804.17	57.353
804.48	55.556
804.78	41.379
805.09	54.412
805.39	40.385
805.70	25.000
806.00	67.213
806.30	30.303
806.61	50.000
806.91	29.114
807.22	34.211
807.52	19.403
807.83	47.887
808.13	37.500
808.43	50.000
808.74	42.105
809.04	46.377
809.35	44.776
809.65	47.368
809.95	54.839
810.26	42.373
810.56	49.206
810.86	68.182
811.17	78.571
811.47	55.000
811.77	50.000
812.08	58.182
812.38	38.000
812.69	66.667
812.99	86.364
813.29	57.143
813.59	38.095
813.90	69.388
814.20	43.636
814.50	43.077
814.81	51.471
815.11	38.776
815.41	62.295
815.72	69.048
816.02	63.636
816.32	95.238
816.62	52.500
816.93	56.098
817.23	73.810
817.53	70.455
817.84	81.818
818.14	102.174
818.44	62.222
818.74	79.412
819.04	60.000
819.35	85.714
819.65	67.647
819.95	78.571
820.25	85.000
820.56	76.923
820.86	65.909
821.16	76.744
821.46	51.282
821.76	88.000
822.07	97.143
822.37	92.500
822.67	57.576
822.97	62.745
823.27	92.857
823.57	81.081
823.88	92.500
824.18	126.667
824.48	88.095
824.78	112.000
825.08	83.333
825.38	64.865
825.69	58.537
825.99	125.000
826.29	72.414
826.59	89.474
826.89	68.421
827.19	102.941
827.49	87.097
827.79	84.091
828.09	45.455
828.39	57.447
828.70	55.102
829.00	74.074
829.30	64.516
829.60	60.000
829.90	120.000
830.20	107.143
830.50	69.565
830.80	86.957
831.10	136.667
831.40	100.000
831.70	82.609
832.00	126.923
832.30	100.000
832.60	112.500
832.90	150.000
833.20	257.143
833.50	103.226
833.80	79.310
834.10	134.375
834.40	126.923
834.70	116.667
835.00	123.810
835.30	85.714
835.60	76.923
835.90	93.103
836.20	121.429
836.50	134.483
836.80	92.000
837.10	108.333
837.40	157.143
837.70	123.529
838.00	103.704
838.30	100.000
838.60	161.905
838.90	138.462
839.19	140.000
839.49	214.286
839.79	255.000
840.09	150.000
840.39	109.524
840.69	113.043
840.99	144.444
841.29	250.000
841.59	75.000
841.88	181.250
842.18	72.414
842.48	190.476
842.78	133.333
843.08	130.435
843.38	103.125
843.68	433.333
843.97	153.846
844.27	100.000
844.57	166.667
844.87	168.750
845.17	144.444
845.47	566.667
845.76	66.667
846.06	147.059
846.36	175.000
846.66	178.571
846.96	150.000
847.25	163.636
847.55	218.182
847.85	169.565
848.15	320.000
848.44	178.571
848.74	111.111
849.04	147.059
849.34	340.000
849.63	115.789
849.93	245.455
850.23	640.000
850.53	264.286
850.82	900.000
851.12	-2500.000
851.42	2000.000
851.71	140.000
852.01	-333.333
852.31	87.500
852.61	766.667
852.90	133.333
853.20	120.000
853.50	182.353
853.79	138.095
854.09	104.167
854.39	150.000
854.68	97.297
854.98	138.710
855.28	70.000
855.57	124.138
855.87	107.407
856.17	84.211
856.46	46.667
856.76	82.353
857.05	86.207
857.35	158.333
857.65	160.000
857.94	121.739
858.24	111.538
858.53	145.000
858.83	131.818
859.13	246.667
859.42	0.000
859.72	277.778
860.01	209.091
860.31	150.000
860.60	121.053
860.90	143.478
861.20	300.000
861.49	308.333
861.79	-2000.000
862.08	225.000
862.38	185.714
862.67	200.000
862.97	205.882
863.26	300.000
863.56	172.222
863.85	158.333
864.15	137.500
864.44	153.333
864.74	516.667
865.03	287.500
865.33	157.895
865.62	300.000
865.92	207.692
866.21	216.667
866.51	0.000
866.80	136.364
867.10	540.000
867.39	207.692
867.69	245.455
867.98	189.474
868.27	227.273
868.57	173.684
868.86	-1900.000
869.16	187.500
869.45	500.000
869.75	-1300.000
870.04	208.333
870.33	342.857
870.63	425.000
870.92	1450.000
871.22	342.857
871.51	141.176
871.80	138.095
872.10	185.714
>>>>>End Processed Spectral Data<<<<<
