SpectraSuite Data File
++++++++++++++++++++++++++++++++++++
Date: Wed May 13 20:46:56 PDT 2015
User: schluterlab
Dark Spectrum Present: Yes
Reference Spectrum Present: Yes
Number of Sampled Component Spectra: 1
Spectrometers: USB2E3373
Integration Time (usec): 3000 (USB2E3373)
Spectra Averaged: 3 (USB2E3373)
Boxcar Smoothing: 0 (USB2E3373)
Correct for Electrical Dark: No (USB2E3373)
Strobe/Lamp Enabled: No (USB2E3373)
Correct for Detector Non-linearity: No (USB2E3373)
Correct for Stray Light: No (USB2E3373)
Number of Pixels in Processed Spectrum: 2048
>>>>>Begin Processed Spectral Data<<<<<
178.53	0.000
178.91	-775.000
179.29	-850.000
179.67	-111.111
180.04	-525.000
180.42	1850.000
180.80	660.000
181.18	-425.000
181.56	400.000
181.94	0.000
182.31	-342.857
182.69	833.333
183.07	-237.500
183.45	-200.000
183.83	354.545
184.20	-310.000
184.58	1250.000
184.96	3700.000
185.34	-460.000
185.72	-225.000
186.09	-1500.000
186.47	1550.000
186.85	1150.000
187.23	2600.000
187.61	-1100.000
187.98	925.000
188.36	300.000
188.74	281.818
189.12	-480.000
189.49	300.000
189.87	-3000.000
190.25	-675.000
190.63	264.286
191.00	292.308
191.38	583.333
191.76	-625.000
192.14	925.000
192.51	362.500
192.89	583.333
193.27	350.000
193.65	-750.000
194.02	330.000
194.40	460.000
194.78	330.000
195.15	316.667
195.53	390.000
195.91	-1200.000
196.29	187.500
196.66	173.684
197.04	-140.000
197.42	0.000
197.79	440.000
198.17	-2300.000
198.55	328.571
198.92	400.000
199.30	640.000
199.68	0.000
200.05	200.000
200.43	542.857
200.81	3000.000
201.18	900.000
201.56	-766.667
201.94	422.222
202.31	355.556
202.69	250.000
203.07	370.000
203.44	0.000
203.82	625.000
204.19	400.000
204.57	300.000
204.95	387.500
205.32	466.667
205.70	290.909
206.08	214.286
206.45	1700.000
206.83	268.750
207.20	616.667
207.58	520.000
207.96	233.333
208.33	400.000
208.71	-483.333
209.08	428.571
209.46	355.556
209.84	372.727
210.21	-733.333
210.59	550.000
210.96	-337.500
211.34	1600.000
211.71	320.000
212.09	500.000
212.46	0.000
212.84	933.333
213.22	850.000
213.59	-2200.000
213.97	450.000
214.34	500.000
214.72	318.182
215.09	700.000
215.47	-1450.000
215.84	-1550.000
216.22	1200.000
216.59	314.286
216.97	525.000
217.34	309.091
217.72	-483.333
218.09	0.000
218.47	-3900.000
218.84	477.778
219.22	500.000
219.59	1066.667
219.97	-485.714
220.34	400.000
220.72	-1200.000
221.09	257.143
221.47	875.000
221.84	-416.667
222.22	0.000
222.59	875.000
222.97	-1150.000
223.34	500.000
223.72	300.000
224.09	640.000
224.46	1100.000
224.84	-3000.000
225.21	-700.000
225.59	-2300.000
225.96	370.000
226.34	180.000
226.71	1600.000
227.08	287.500
227.46	430.000
227.83	-525.000
228.21	-900.000
228.58	388.889
228.95	-1400.000
229.33	-1450.000
229.70	933.333
230.08	614.286
230.45	-600.000
230.82	291.667
231.20	616.667
231.57	457.143
231.95	300.000
232.32	113.636
232.69	218.182
233.07	285.714
233.44	284.615
233.81	-900.000
234.19	173.684
234.56	408.333
234.93	225.000
235.31	245.455
235.68	276.923
236.05	264.286
236.43	124.242
236.80	152.632
237.17	2400.000
237.55	123.810
237.92	192.857
238.29	219.048
238.67	141.935
239.04	151.724
239.41	127.778
239.79	113.043
240.16	102.381
240.53	95.455
240.91	90.196
241.28	96.000
241.65	106.000
242.02	82.609
242.40	87.097
242.77	91.667
243.14	67.742
243.51	70.787
243.89	76.471
244.26	71.111
244.63	77.419
245.00	64.894
245.38	65.347
245.75	84.112
246.12	66.972
246.49	62.774
246.87	67.200
247.24	73.846
247.61	65.714
247.98	64.706
248.36	67.568
248.73	63.694
249.10	71.338
249.47	65.537
249.84	63.102
250.22	56.684
250.59	59.172
250.96	63.636
251.33	61.137
251.70	68.812
252.08	59.524
252.45	59.193
252.82	53.913
253.19	65.532
253.56	60.000
253.94	56.432
254.31	54.687
254.68	63.077
255.05	56.089
255.42	58.943
255.79	58.456
256.16	57.040
256.54	53.710
256.91	55.160
257.28	52.518
257.65	54.125
258.02	55.901
258.39	55.205
258.76	55.853
259.14	58.333
259.51	51.064
259.88	54.969
260.25	53.172
260.62	52.890
260.99	51.863
261.36	52.252
261.73	57.020
262.10	52.616
262.47	50.986
262.85	55.710
263.22	52.137
263.59	56.125
263.96	52.473
264.33	54.830
264.70	52.895
265.07	51.407
265.44	52.778
265.81	48.905
266.18	55.528
266.55	51.951
266.92	55.037
267.29	51.620
267.66	51.606
268.03	53.864
268.40	53.037
268.77	51.313
269.14	51.351
269.51	52.822
269.88	52.914
270.25	49.661
270.62	51.011
270.99	53.548
271.36	51.073
271.73	53.738
272.10	49.565
272.47	51.183
272.84	52.597
273.21	46.960
273.58	48.690
273.95	48.218
274.32	47.314
274.69	53.105
275.06	48.622
275.43	52.128
275.80	49.699
276.17	49.084
276.54	51.767
276.91	49.407
277.28	48.047
277.65	50.677
278.02	50.311
278.39	50.391
278.76	49.636
279.13	49.623
279.50	48.231
279.87	48.606
280.23	49.900
280.60	49.710
280.97	47.320
281.34	47.611
281.71	47.273
282.08	49.328
282.45	47.455
282.82	47.780
283.19	47.059
283.56	47.719
283.92	48.054
284.29	46.561
284.66	46.279
285.03	46.835
285.40	45.951
285.77	45.791
286.14	46.114
286.51	47.667
286.87	46.496
287.24	47.557
287.61	45.265
287.98	45.617
288.35	45.166
288.72	43.769
289.08	43.662
289.45	44.811
289.82	42.439
290.19	43.014
290.56	40.888
290.93	41.239
291.29	43.865
291.66	41.888
292.03	42.733
292.40	43.759
292.77	42.160
293.13	41.642
293.50	40.816
293.87	38.963
294.24	41.778
294.60	39.884
294.97	38.663
295.34	39.633
295.71	39.631
296.08	38.034
296.44	37.964
296.81	35.931
297.18	38.482
297.55	36.412
297.91	35.488
298.28	38.153
298.65	37.206
299.02	36.759
299.38	35.857
299.75	33.154
300.12	36.654
300.48	35.875
300.85	35.142
301.22	35.032
301.59	34.596
301.95	35.390
302.32	35.687
302.69	33.333
303.05	33.939
303.42	34.691
303.79	33.069
304.15	32.051
304.52	34.762
304.89	33.333
305.25	33.643
305.62	33.975
305.99	35.773
306.35	33.669
306.72	34.081
307.09	33.851
307.45	35.135
307.82	32.031
308.19	34.327
308.55	33.441
308.92	31.901
309.29	31.468
309.65	32.662
310.02	32.664
310.38	31.935
310.75	32.629
311.12	31.525
311.48	34.483
311.85	33.019
312.22	32.050
312.58	31.809
312.95	32.313
313.31	30.680
313.68	32.952
314.05	34.615
314.41	33.970
314.78	31.521
315.14	31.480
315.51	33.574
315.87	32.673
316.24	32.373
316.61	32.846
316.97	33.855
317.34	29.941
317.70	32.218
318.07	31.858
318.43	33.855
318.80	33.739
319.16	33.333
319.53	32.176
319.89	33.429
320.26	32.600
320.62	34.226
320.99	32.424
321.35	32.424
321.72	33.573
322.08	34.353
322.45	34.826
322.81	35.659
323.18	34.971
323.54	35.065
323.91	34.717
324.27	34.799
324.64	34.576
325.00	33.454
325.37	35.851
325.73	35.996
326.10	34.951
326.46	35.484
326.83	36.152
327.19	35.269
327.56	35.801
327.92	36.133
328.29	36.114
328.65	35.359
329.01	36.643
329.38	36.633
329.74	37.027
330.11	36.381
330.47	36.272
330.84	38.511
331.20	36.339
331.56	35.321
331.93	37.870
332.29	37.356
332.66	36.814
333.02	37.020
333.38	38.663
333.75	38.592
334.11	37.544
334.48	36.114
334.84	36.121
335.20	36.909
335.57	36.899
335.93	36.071
336.29	36.996
336.66	37.601
337.02	37.104
337.38	37.222
337.75	35.740
338.11	36.437
338.47	37.293
338.84	38.772
339.20	36.606
339.56	37.956
339.93	37.545
340.29	37.047
340.65	37.255
341.02	37.609
341.38	39.591
341.74	36.842
342.11	38.515
342.47	38.590
342.83	38.955
343.20	39.654
343.56	38.416
343.92	37.895
344.28	39.201
344.65	39.037
345.01	39.310
345.37	38.851
345.73	40.440
346.10	39.301
346.46	39.407
346.82	39.621
347.19	38.596
347.55	39.737
347.91	39.563
348.27	40.427
348.63	40.552
349.00	39.563
349.36	39.327
349.72	39.695
350.08	40.438
350.45	41.090
350.81	39.886
351.17	40.113
351.53	39.230
351.89	40.017
352.26	40.489
352.62	40.577
352.98	40.519
353.34	39.195
353.70	39.853
354.07	41.048
354.43	40.000
354.79	39.662
355.15	40.702
355.51	41.007
355.87	42.286
356.24	42.101
356.60	40.176
356.96	41.593
357.32	39.166
357.68	42.283
358.04	40.934
358.40	41.251
358.77	40.689
359.13	40.647
359.49	41.882
359.85	40.952
360.21	41.866
360.57	42.568
360.93	42.692
361.29	40.590
361.66	41.254
362.02	40.970
362.38	40.456
362.74	41.220
363.10	40.563
363.46	40.939
363.82	42.630
364.18	41.557
364.54	41.828
364.90	42.068
365.26	41.985
365.62	42.367
365.98	41.709
366.35	39.685
366.71	41.866
367.07	41.733
367.43	43.396
367.79	42.541
368.15	42.888
368.51	41.134
368.87	42.113
369.23	41.331
369.59	41.564
369.95	41.471
370.31	42.023
370.67	41.232
371.03	42.921
371.39	42.128
371.75	41.618
372.11	40.683
372.47	43.109
372.83	42.939
373.19	41.546
373.55	42.868
373.91	44.330
374.27	40.619
374.63	42.764
374.99	42.797
375.35	42.219
375.71	41.193
376.07	42.524
376.42	41.472
376.78	43.009
377.14	41.723
377.50	41.987
377.86	42.088
378.22	42.920
378.58	41.792
378.94	43.118
379.30	42.366
379.66	42.640
380.02	43.428
380.38	41.469
380.74	43.637
381.09	43.826
381.45	43.639
381.81	43.489
382.17	42.739
382.53	43.396
382.89	43.889
383.25	42.902
383.61	44.672
383.97	43.277
384.32	42.233
384.68	43.061
385.04	44.376
385.40	43.406
385.76	42.690
386.12	43.329
386.48	44.682
386.83	44.965
387.19	44.218
387.55	43.785
387.91	44.921
388.27	43.164
388.62	43.577
388.98	42.998
389.34	43.867
389.70	42.918
390.06	45.057
390.42	44.682
390.77	43.766
391.13	43.395
391.49	43.464
391.85	43.348
392.20	43.975
392.56	44.886
392.92	44.614
393.28	44.615
393.64	43.345
393.99	44.533
394.35	44.603
394.71	43.476
395.07	43.364
395.42	44.808
395.78	44.529
396.14	44.817
396.50	45.301
396.85	45.455
397.21	44.328
397.57	45.195
397.92	44.832
398.28	42.993
398.64	44.205
399.00	45.271
399.35	43.824
399.71	44.097
400.07	45.713
400.42	44.908
400.78	45.235
401.14	43.354
401.49	43.821
401.85	43.557
402.21	43.892
402.57	44.294
402.92	45.397
403.28	44.785
403.63	43.379
403.99	45.223
404.35	44.242
404.70	44.245
405.06	44.030
405.42	44.541
405.77	45.143
406.13	43.510
406.49	44.175
406.84	44.241
407.20	44.563
407.55	44.927
407.91	45.933
408.27	44.480
408.62	44.431
408.98	44.669
409.34	45.018
409.69	44.258
410.05	44.548
410.40	44.771
410.76	44.982
411.11	44.511
411.47	43.770
411.83	45.449
412.18	44.465
412.54	44.458
412.89	44.217
413.25	44.687
413.60	46.140
413.96	43.534
414.31	44.532
414.67	46.641
415.03	45.364
415.38	45.232
415.74	44.566
416.09	44.938
416.45	44.712
416.80	45.274
417.16	45.979
417.51	45.455
417.87	43.802
418.22	45.994
418.58	44.287
418.93	44.595
419.29	44.176
419.64	44.899
420.00	45.366
420.35	43.768
420.71	45.129
421.06	44.690
421.42	44.211
421.77	44.170
422.12	44.638
422.48	44.684
422.83	45.253
423.19	44.420
423.54	44.922
423.90	44.870
424.25	43.663
424.61	44.881
424.96	44.956
425.31	43.909
425.67	43.708
426.02	44.114
426.38	44.872
426.73	42.949
427.09	44.498
427.44	45.313
427.79	44.451
428.15	45.238
428.50	44.763
428.85	45.054
429.21	43.954
429.56	44.479
429.92	44.389
430.27	43.793
430.62	44.444
430.98	44.681
431.33	44.072
431.68	45.079
432.04	44.569
432.39	43.918
432.74	45.302
433.10	43.463
433.45	45.073
433.80	44.013
434.16	44.391
434.51	44.053
434.86	44.812
435.22	44.469
435.57	44.681
435.92	45.056
436.28	45.077
436.63	44.371
436.98	43.389
437.34	44.007
437.69	45.916
438.04	44.295
438.39	45.075
438.75	45.904
439.10	44.693
439.45	43.743
439.81	44.955
440.16	43.761
440.51	45.694
440.86	44.760
441.22	43.771
441.57	44.958
441.92	44.473
442.27	45.533
442.63	44.181
442.98	45.859
443.33	44.674
443.68	44.553
444.03	44.510
444.39	44.109
444.74	44.426
445.09	43.881
445.44	44.560
445.79	44.236
446.15	43.568
446.50	44.319
446.85	43.679
447.20	44.824
447.55	44.947
447.91	44.181
448.26	43.962
448.61	44.601
448.96	43.909
449.31	44.826
449.66	44.232
450.02	42.396
450.37	44.218
450.72	43.993
451.07	44.790
451.42	44.012
451.77	44.157
452.12	44.977
452.47	44.154
452.83	44.697
453.18	43.888
453.53	45.083
453.88	44.241
454.23	44.531
454.58	44.216
454.93	45.772
455.28	41.958
455.63	43.750
455.98	44.405
456.34	44.912
456.69	44.771
457.04	45.263
457.39	43.366
457.74	44.922
458.09	44.106
458.44	44.242
458.79	43.059
459.14	44.074
459.49	44.542
459.84	44.266
460.19	44.078
460.54	43.519
460.89	44.048
461.24	44.202
461.59	44.858
461.94	44.205
462.29	44.570
462.64	43.969
462.99	43.787
463.34	44.733
463.69	44.403
464.04	43.420
464.39	43.768
464.74	43.316
465.09	42.702
465.44	44.488
465.79	43.456
466.14	43.733
466.49	44.160
466.84	43.841
467.19	43.150
467.54	44.938
467.89	44.178
468.24	44.154
468.59	44.811
468.94	43.311
469.29	44.344
469.64	44.846
469.99	44.993
470.34	45.178
470.68	45.330
471.03	44.354
471.38	45.448
471.73	43.971
472.08	44.737
472.43	44.158
472.78	44.108
473.13	43.132
473.48	43.758
473.83	44.634
474.17	44.244
474.52	44.913
474.87	43.666
475.22	43.239
475.57	43.149
475.92	43.813
476.27	43.630
476.61	43.574
476.96	43.101
477.31	43.747
477.66	43.982
478.01	42.917
478.36	44.262
478.70	44.081
479.05	43.930
479.40	43.552
479.75	43.518
480.10	43.539
480.45	42.218
480.79	43.526
481.14	42.466
481.49	43.474
481.84	43.118
482.19	43.889
482.53	43.349
482.88	43.369
483.23	43.411
483.58	42.493
483.92	43.252
484.27	41.874
484.62	43.319
484.97	42.846
485.31	42.397
485.66	39.700
486.01	39.554
486.36	39.285
486.70	40.959
487.05	41.137
487.40	41.650
487.75	41.320
488.09	42.038
488.44	41.861
488.79	42.966
489.13	42.131
489.48	42.251
489.83	42.382
490.17	42.832
490.52	42.338
490.87	42.469
491.22	41.701
491.56	42.460
491.91	43.369
492.26	42.260
492.60	42.212
492.95	42.095
493.30	42.196
493.64	43.257
493.99	42.851
494.34	42.553
494.68	42.582
495.03	42.528
495.37	42.811
495.72	43.080
496.07	43.341
496.41	41.593
496.76	42.700
497.11	42.593
497.45	42.850
497.80	42.131
498.14	42.367
498.49	42.293
498.84	42.522
499.18	43.095
499.53	42.925
499.87	43.057
500.22	41.639
500.56	43.155
500.91	42.404
501.26	42.248
501.60	43.284
501.95	42.392
502.29	43.814
502.64	41.620
502.98	42.871
503.33	41.682
503.67	43.295
504.02	42.703
504.36	42.068
504.71	43.087
505.06	42.217
505.40	43.170
505.75	41.369
506.09	41.934
506.44	42.674
506.78	42.621
507.13	42.857
507.47	42.778
507.82	43.161
508.16	42.553
508.51	44.039
508.85	42.502
509.19	42.602
509.54	42.908
509.88	42.710
510.23	42.622
510.57	44.118
510.92	43.345
511.26	42.806
511.61	43.620
511.95	44.102
512.30	43.796
512.64	43.579
512.98	42.980
513.33	43.737
513.67	43.063
514.02	42.695
514.36	43.965
514.70	44.438
515.05	43.112
515.39	43.971
515.74	43.581
516.08	43.823
516.42	43.119
516.77	45.095
517.11	43.008
517.46	44.639
517.80	44.309
518.14	42.907
518.49	43.641
518.83	43.750
519.17	43.533
519.52	43.407
519.86	43.354
520.20	44.277
520.55	44.764
520.89	43.978
521.23	44.451
521.58	44.418
521.92	45.132
522.26	43.868
522.61	44.611
522.95	45.242
523.29	44.309
523.64	44.695
523.98	44.917
524.32	44.029
524.66	43.776
525.01	44.608
525.35	44.734
525.69	43.473
526.04	44.424
526.38	45.027
526.72	43.926
527.06	44.821
527.41	43.626
527.75	45.209
528.09	45.408
528.43	44.869
528.78	43.577
529.12	45.333
529.46	45.132
529.80	44.431
530.15	44.984
530.49	43.323
530.83	44.177
531.17	45.627
531.51	46.304
531.86	43.935
532.20	45.698
532.54	45.099
532.88	44.801
533.22	43.410
533.57	44.321
533.91	44.311
534.25	44.168
534.59	43.990
534.93	43.783
535.27	44.418
535.62	43.834
535.96	44.444
536.30	43.929
536.64	44.495
536.98	44.725
537.32	44.108
537.66	44.533
538.01	45.095
538.35	42.986
538.69	44.033
539.03	43.795
539.37	44.089
539.71	42.320
540.05	44.444
540.39	44.518
540.73	42.691
541.07	42.829
541.42	44.162
541.76	45.097
542.10	44.308
542.44	43.709
542.78	45.916
543.12	43.634
543.46	43.869
543.80	45.088
544.14	42.619
544.48	43.238
544.82	44.644
545.16	44.307
545.50	44.537
545.84	43.616
546.18	44.512
546.52	44.804
546.86	45.086
547.20	44.100
547.54	43.621
547.88	42.666
548.22	43.337
548.56	44.088
548.90	42.766
549.24	44.108
549.58	43.861
549.92	44.025
550.26	45.099
550.60	43.638
550.94	44.225
551.28	42.794
551.62	43.853
551.96	42.807
552.30	42.935
552.64	44.895
552.98	45.559
553.32	45.246
553.66	44.581
554.00	44.955
554.34	42.374
554.68	44.063
555.02	43.300
555.36	44.676
555.69	43.099
556.03	43.742
556.37	43.656
556.71	42.906
557.05	43.417
557.39	42.827
557.73	43.825
558.07	44.307
558.41	43.922
558.75	44.232
559.08	44.444
559.42	45.427
559.76	43.824
560.10	42.827
560.44	43.746
560.78	41.983
561.12	42.810
561.45	43.351
561.79	43.968
562.13	42.924
562.47	44.331
562.81	43.863
563.15	42.809
563.48	43.302
563.82	43.444
564.16	42.773
564.50	42.448
564.84	42.351
565.17	42.535
565.51	44.089
565.85	42.703
566.19	42.642
566.52	43.065
566.86	42.315
567.20	42.099
567.54	42.751
567.88	41.065
568.21	42.487
568.55	42.063
568.89	41.148
569.23	40.820
569.56	40.081
569.90	40.075
570.24	39.254
570.57	39.000
570.91	38.138
571.25	39.438
571.59	38.616
571.92	38.911
572.26	39.630
572.60	39.219
572.93	38.741
573.27	38.864
573.61	38.498
573.95	38.398
574.28	38.166
574.62	38.047
574.96	37.969
575.29	38.191
575.63	38.135
575.97	38.454
576.30	38.157
576.64	37.731
576.98	37.652
577.31	37.708
577.65	38.371
577.98	38.319
578.32	37.093
578.66	37.358
578.99	38.256
579.33	37.812
579.67	37.533
580.00	38.072
580.34	37.708
580.67	37.887
581.01	38.003
581.35	37.370
581.68	37.233
582.02	36.505
582.35	37.342
582.69	37.730
583.02	38.041
583.36	38.068
583.70	38.087
584.03	38.166
584.37	38.314
584.70	37.722
585.04	37.891
585.37	37.605
585.71	37.336
586.04	37.497
586.38	37.905
586.72	38.470
587.05	37.435
587.39	37.836
587.72	37.645
588.06	37.407
588.39	38.957
588.73	38.428
589.06	38.672
589.40	38.283
589.73	38.543
590.07	39.039
590.40	38.327
590.73	39.500
591.07	39.967
591.40	39.899
591.74	39.870
592.07	39.223
592.41	38.280
592.74	38.390
593.08	38.008
593.41	37.710
593.75	37.570
594.08	37.479
594.41	38.317
594.75	38.595
595.08	37.938
595.42	38.949
595.75	38.640
596.09	39.091
596.42	39.725
596.75	39.510
597.09	39.481
597.42	37.690
597.75	38.853
598.09	38.609
598.42	38.488
598.76	38.468
599.09	37.932
599.42	38.064
599.76	38.360
600.09	37.960
600.42	37.874
600.76	37.464
601.09	38.069
601.42	38.242
601.76	38.634
602.09	38.577
602.42	38.455
602.76	39.420
603.09	38.828
603.42	37.915
603.76	37.919
604.09	37.728
604.42	38.687
604.76	38.802
605.09	38.270
605.42	38.478
605.75	38.204
606.09	38.674
606.42	38.333
606.75	38.822
607.09	38.887
607.42	37.741
607.75	38.101
608.08	37.733
608.42	39.355
608.75	38.774
609.08	38.067
609.41	38.458
609.75	38.495
610.08	38.926
610.41	38.641
610.74	38.836
611.07	39.279
611.41	38.960
611.74	39.869
612.07	39.182
612.40	40.609
612.73	40.000
613.07	40.140
613.40	39.547
613.73	39.696
614.06	39.409
614.39	38.228
614.72	38.211
615.06	38.655
615.39	39.066
615.72	37.832
616.05	38.278
616.38	39.411
616.71	40.380
617.05	39.988
617.38	40.649
617.71	39.399
618.04	40.445
618.37	39.740
618.70	40.572
619.03	39.803
619.36	39.308
619.69	41.690
620.03	40.659
620.36	40.709
620.69	39.589
621.02	41.372
621.35	40.016
621.68	40.966
622.01	40.248
622.34	39.334
622.67	40.760
623.00	40.719
623.33	38.456
623.66	39.886
623.99	41.679
624.32	39.872
624.65	39.901
624.99	40.510
625.32	40.695
625.65	40.120
625.98	41.507
626.31	41.369
626.64	40.245
626.97	40.981
627.30	41.230
627.63	40.033
627.96	42.220
628.29	42.257
628.62	42.635
628.95	43.396
629.28	41.606
629.61	42.713
629.94	42.762
630.26	42.231
630.59	41.277
630.92	42.050
631.25	41.362
631.58	41.241
631.91	43.103
632.24	42.300
632.57	41.973
632.90	44.518
633.23	43.289
633.56	43.729
633.89	43.601
634.22	43.927
634.55	45.089
634.88	43.114
635.20	44.683
635.53	43.735
635.86	44.926
636.19	43.647
636.52	43.253
636.85	43.299
637.18	42.281
637.51	43.972
637.83	41.677
638.16	44.118
638.49	42.947
638.82	43.489
639.15	43.875
639.48	43.267
639.81	45.308
640.13	45.443
640.46	44.564
640.79	44.518
641.12	42.503
641.45	45.391
641.77	45.803
642.10	45.614
642.43	43.544
642.76	45.201
643.09	45.399
643.41	45.068
643.74	47.068
644.07	45.579
644.40	46.626
644.73	45.354
645.05	44.849
645.38	44.550
645.71	46.216
646.04	47.176
646.36	47.245
646.69	47.324
647.02	46.088
647.35	47.423
647.67	42.832
648.00	46.667
648.33	44.389
648.66	43.485
648.98	43.928
649.31	43.199
649.64	43.797
649.96	43.964
650.29	45.498
650.62	45.955
650.94	45.057
651.27	48.311
651.60	45.591
651.92	45.208
652.25	43.485
652.58	42.835
652.90	45.814
653.23	43.914
653.56	44.094
653.88	43.265
654.21	46.919
654.54	43.234
654.86	43.458
655.19	42.432
655.52	33.533
655.84	30.883
656.17	38.754
656.49	52.015
656.82	52.945
657.15	41.011
657.47	30.974
657.80	23.700
658.13	24.423
658.45	36.360
658.78	36.459
659.10	37.289
659.43	37.781
659.75	38.053
660.08	38.671
660.41	40.410
660.73	43.964
661.06	44.586
661.38	46.545
661.71	46.346
662.03	46.548
662.36	44.732
662.68	47.189
663.01	46.263
663.33	47.346
663.66	46.639
663.98	46.868
664.31	47.269
664.63	44.534
664.96	44.064
665.28	47.541
665.61	45.809
665.93	42.857
666.26	45.436
666.58	47.490
666.91	48.203
667.23	47.416
667.56	45.572
667.88	45.513
668.21	47.761
668.53	45.987
668.86	48.052
669.18	47.335
669.50	48.913
669.83	49.673
670.15	47.556
670.48	45.316
670.80	45.690
671.13	47.346
671.45	47.021
671.77	48.065
672.10	43.623
672.42	42.226
672.75	42.454
673.07	46.479
673.39	44.123
673.72	45.703
674.04	45.686
674.37	44.466
674.69	46.012
675.01	43.515
675.34	44.559
675.66	45.684
675.98	45.621
676.31	44.958
676.63	46.072
676.95	44.025
677.28	43.925
677.60	48.352
677.92	44.937
678.25	45.585
678.57	48.008
678.89	44.489
679.22	42.829
679.54	43.893
679.86	45.321
680.18	43.470
680.51	44.149
680.83	43.594
681.15	44.717
681.48	43.100
681.80	44.681
682.12	45.019
682.44	44.101
682.77	46.232
683.09	47.425
683.41	47.007
683.73	47.461
684.06	46.281
684.38	43.053
684.70	45.155
685.02	44.090
685.34	44.505
685.67	40.385
685.99	40.550
686.31	42.833
686.63	42.403
686.96	43.750
687.28	42.780
687.60	42.210
687.92	44.790
688.24	42.966
688.56	42.369
688.89	44.191
689.21	47.817
689.53	45.303
689.85	45.233
690.17	42.029
690.49	46.709
690.82	45.093
691.14	43.080
691.46	42.827
691.78	43.173
692.10	45.868
692.42	43.912
692.74	42.946
693.06	43.404
693.39	44.353
693.71	43.886
694.03	46.947
694.35	41.775
694.67	44.851
694.99	45.366
695.31	44.608
695.63	44.258
695.95	43.276
696.27	46.701
696.59	43.523
696.91	47.409
697.23	41.784
697.56	44.563
697.88	41.309
698.20	44.375
698.52	43.441
698.84	44.543
699.16	44.240
699.48	42.280
699.80	45.169
700.12	48.831
700.44	43.767
700.76	48.619
701.08	46.552
701.40	46.648
701.72	48.397
702.04	49.716
702.36	40.793
702.68	49.008
703.00	47.091
703.32	44.415
703.64	45.308
703.96	46.797
704.28	51.453
704.60	44.575
704.91	48.961
705.23	42.522
705.55	51.495
705.87	51.827
706.19	48.763
706.51	47.352
706.83	48.485
707.15	44.538
707.47	42.929
707.79	43.489
708.11	42.466
708.43	44.048
708.74	44.898
709.06	45.714
709.38	47.507
709.70	47.965
710.02	47.181
710.34	46.970
710.66	48.060
710.98	48.864
711.29	48.547
711.61	46.608
711.93	46.474
712.25	46.624
712.57	51.838
712.89	46.021
713.20	42.553
713.52	51.316
713.84	44.620
714.16	49.695
714.48	44.540
714.80	52.280
715.11	50.144
715.43	44.510
715.75	46.957
716.07	44.409
716.39	45.141
716.70	45.183
717.02	44.245
717.34	50.177
717.66	51.493
717.97	54.183
718.29	49.630
718.61	44.526
718.93	45.221
719.24	45.329
719.56	45.763
719.88	43.390
720.20	48.986
720.51	46.690
720.83	50.558
721.15	43.657
721.46	48.582
721.78	45.878
722.10	48.302
722.42	46.617
722.73	45.318
723.05	47.951
723.37	51.012
723.68	44.788
724.00	53.659
724.32	47.177
724.63	48.374
724.95	44.770
725.27	50.202
725.58	49.609
725.90	50.365
726.22	52.830
726.53	44.792
726.85	45.392
727.16	44.484
727.48	46.454
727.80	43.561
728.11	47.826
728.43	46.923
728.74	43.011
729.06	47.810
729.38	50.735
729.69	50.178
730.01	41.980
730.32	43.403
730.64	46.823
730.96	44.884
731.27	47.351
731.59	44.343
731.90	45.190
732.22	44.720
732.53	41.176
732.85	37.821
733.16	43.408
733.48	43.522
733.80	45.455
734.11	45.860
734.43	40.828
734.74	41.143
735.06	42.693
735.37	46.243
735.69	43.631
736.00	47.059
736.32	44.860
736.63	44.728
736.95	43.450
737.26	38.095
737.58	40.645
737.89	49.164
738.21	48.123
738.52	47.143
738.83	43.396
739.15	44.231
739.46	44.891
739.78	44.792
740.09	44.308
740.41	46.452
740.72	44.948
741.04	46.667
741.35	42.917
741.66	52.444
741.98	44.811
742.29	52.632
742.61	49.138
742.92	50.226
743.23	46.581
743.55	49.600
743.86	45.614
744.18	52.655
744.49	51.675
744.80	51.174
745.12	54.545
745.43	49.339
745.74	54.054
746.06	51.376
746.37	50.673
746.68	48.869
747.00	50.926
747.31	52.381
747.62	42.478
747.94	48.458
748.25	41.702
748.56	52.423
748.88	50.000
749.19	55.000
749.50	50.698
749.82	45.935
750.13	44.898
750.44	47.080
750.75	44.211
751.07	41.801
751.38	44.251
751.69	49.819
752.01	43.233
752.32	44.404
752.63	41.489
752.94	47.131
753.26	45.600
753.57	45.122
753.88	47.656
754.19	45.000
754.51	51.042
754.82	39.350
755.13	46.792
755.44	45.865
755.75	48.905
756.07	41.489
756.38	38.686
756.69	43.960
757.00	41.018
757.31	39.466
757.63	40.936
757.94	42.091
758.25	38.480
758.56	38.519
758.87	38.172
759.18	44.545
759.50	38.558
759.81	44.548
760.12	41.562
760.43	42.407
760.74	38.859
761.05	43.220
761.36	41.711
761.67	41.761
761.99	40.994
762.30	43.403
762.61	45.038
762.92	46.875
763.23	45.798
763.54	50.800
763.85	41.016
764.16	47.692
764.47	51.331
764.78	37.809
765.10	38.608
765.41	39.823
765.72	41.317
766.03	39.498
766.34	40.000
766.65	50.213
766.96	40.598
767.27	56.853
767.58	47.396
767.89	47.368
768.20	50.575
768.51	47.716
768.82	49.083
769.13	43.902
769.44	43.320
769.75	45.494
770.06	44.037
770.37	46.154
770.68	50.926
770.99	48.889
771.30	41.393
771.61	47.982
771.92	46.311
772.23	46.639
772.54	47.179
772.85	49.215
773.16	55.851
773.47	57.609
773.78	51.777
774.09	47.619
774.39	45.029
774.70	52.469
775.01	60.870
775.32	58.170
775.63	50.658
775.94	51.079
776.25	60.630
776.56	55.970
776.87	54.918
777.18	60.156
777.48	59.542
777.79	59.091
778.10	51.111
778.41	59.821
778.72	56.934
779.03	58.389
779.34	53.020
779.65	50.676
779.95	44.785
780.26	60.131
780.57	54.483
780.88	63.281
781.19	55.639
781.50	60.811
781.80	52.830
782.11	48.023
782.42	53.797
782.73	46.626
783.04	54.054
783.34	55.634
783.65	61.644
783.96	52.985
784.27	48.252
784.57	42.446
784.88	50.926
785.19	56.349
785.50	58.491
785.81	55.224
786.11	62.295
786.42	57.364
786.73	53.982
787.04	67.925
787.34	63.393
787.65	64.000
787.96	65.766
788.26	64.463
788.57	55.932
788.88	61.157
789.19	61.111
789.49	59.091
789.80	51.908
790.11	66.667
790.41	55.446
790.72	68.675
791.03	79.348
791.33	65.116
791.64	65.979
791.95	59.406
792.25	65.556
792.56	70.130
792.87	78.205
793.17	83.544
793.48	60.920
793.79	68.966
794.09	78.409
794.40	47.059
794.70	58.088
795.01	57.778
795.32	56.835
795.62	54.331
795.93	49.138
796.23	50.442
796.54	71.765
796.85	67.568
797.15	84.507
797.46	84.848
797.76	69.880
798.07	67.089
798.37	73.846
798.68	89.394
798.99	50.704
799.29	68.831
799.60	59.091
799.90	75.342
800.21	67.164
800.51	87.931
800.82	100.000
801.12	77.049
801.43	86.364
801.73	63.514
802.04	77.778
802.34	69.136
802.65	81.250
802.95	91.525
803.26	92.188
803.56	68.571
803.87	75.385
804.17	73.529
804.48	92.593
804.78	89.655
805.09	80.882
805.39	86.538
805.70	69.643
806.00	93.443
806.30	66.667
806.61	82.927
806.91	65.823
807.22	80.263
807.52	61.194
807.83	71.831
808.13	87.500
808.43	76.667
808.74	64.474
809.04	76.812
809.35	91.045
809.65	65.789
809.95	95.161
810.26	72.881
810.56	82.540
810.86	102.273
811.17	109.524
811.47	78.333
811.77	96.296
812.08	90.909
812.38	122.000
812.69	113.889
812.99	140.909
813.29	95.918
813.59	88.095
813.90	95.918
814.20	94.545
814.50	73.846
814.81	85.294
815.11	73.469
815.41	80.328
815.72	133.333
816.02	109.091
816.32	111.905
816.62	82.500
816.93	73.171
817.23	100.000
817.53	90.909
817.84	87.879
818.14	126.087
818.44	91.111
818.74	138.235
819.04	100.000
819.35	120.000
819.65	126.471
819.95	125.000
820.25	125.000
820.56	143.590
820.86	109.091
821.16	127.907
821.46	112.821
821.76	112.000
822.07	122.857
822.37	132.500
822.67	139.394
822.97	105.882
823.27	157.143
823.57	116.216
823.88	107.500
824.18	146.667
824.48	111.905
824.78	152.000
825.08	120.833
825.38	108.108
825.69	100.000
825.99	162.500
826.29	113.793
826.59	100.000
826.89	118.421
827.19	100.000
827.49	125.806
827.79	113.636
828.09	93.182
828.39	72.340
828.70	75.510
829.00	103.704
829.30	125.806
829.60	110.000
829.90	226.667
830.20	121.429
830.50	143.478
830.80	121.739
831.10	120.000
831.40	133.333
831.70	117.391
832.00	134.615
832.30	148.148
832.60	200.000
832.90	160.000
833.20	314.286
833.50	122.581
833.80	131.034
834.10	153.125
834.40	153.846
834.70	166.667
835.00	190.476
835.30	131.429
835.60	253.846
835.90	120.690
836.20	192.857
836.50	134.483
836.80	112.000
837.10	136.111
837.40	138.095
837.70	205.882
838.00	155.556
838.30	180.952
838.60	200.000
838.90	153.846
839.19	205.000
839.49	300.000
839.79	215.000
840.09	190.000
840.39	180.952
840.69	182.609
840.99	161.111
841.29	210.000
841.59	175.000
841.88	212.500
842.18	148.276
842.48	223.810
842.78	136.667
843.08	191.304
843.38	134.375
843.68	600.000
843.97	192.308
844.27	141.379
844.57	161.905
844.87	225.000
845.17	148.148
845.47	666.667
845.76	322.222
846.06	229.412
846.36	312.500
846.66	228.571
846.96	156.250
847.25	236.364
847.55	227.273
847.85	173.913
848.15	290.000
848.44	221.429
848.74	133.333
849.04	200.000
849.34	380.000
849.63	157.895
849.93	272.727
850.23	700.000
850.53	314.286
850.82	1350.000
851.12	-3000.000
851.42	2400.000
851.71	150.000
852.01	-566.667
852.31	170.833
852.61	1000.000
852.90	180.952
853.20	152.000
853.50	217.647
853.79	176.190
854.09	145.833
854.39	262.500
854.68	143.243
854.98	148.387
855.28	103.333
855.57	158.621
855.87	162.963
856.17	168.421
856.46	160.000
856.76	182.353
857.05	141.379
857.35	162.500
857.65	213.333
857.94	204.348
858.24	196.154
858.53	215.000
858.83	159.091
859.13	113.333
859.42	0.000
859.72	411.111
860.01	200.000
860.31	150.000
860.60	163.158
860.90	182.609
861.20	388.889
861.49	250.000
861.79	-2700.000
862.08	512.500
862.38	161.905
862.67	176.923
862.97	188.235
863.26	233.333
863.56	111.111
863.85	233.333
864.15	337.500
864.44	206.667
864.74	600.000
865.03	412.500
865.33	189.474
865.62	272.727
865.92	261.538
866.21	200.000
866.51	0.000
866.80	281.818
867.10	680.000
867.39	269.231
867.69	318.182
867.98	205.263
868.27	327.273
868.57	173.684
868.86	-3000.000
869.16	206.250
869.45	1500.000
869.75	-1700.000
870.04	316.667
870.33	471.429
870.63	350.000
870.92	1450.000
871.22	457.143
871.51	235.294
871.80	185.714
872.10	221.429
>>>>>End Processed Spectral Data<<<<<
