SpectraSuite Data File
++++++++++++++++++++++++++++++++++++
Date: Wed May 13 20:38:03 PDT 2015
User: schluterlab
Dark Spectrum Present: Yes
Reference Spectrum Present: Yes
Number of Sampled Component Spectra: 1
Spectrometers: USB2E3373
Integration Time (usec): 3000 (USB2E3373)
Spectra Averaged: 3 (USB2E3373)
Boxcar Smoothing: 0 (USB2E3373)
Correct for Electrical Dark: No (USB2E3373)
Strobe/Lamp Enabled: No (USB2E3373)
Correct for Detector Non-linearity: No (USB2E3373)
Correct for Stray Light: No (USB2E3373)
Number of Pixels in Processed Spectrum: 2048
>>>>>Begin Processed Spectral Data<<<<<
178.53	0.000
178.91	-650.000
179.29	-950.000
179.67	-166.667
180.04	-925.000
180.42	1650.000
180.80	820.000
181.18	-875.000
181.56	557.143
181.94	0.000
182.31	-514.286
182.69	1133.333
183.07	-462.500
183.45	-333.333
183.83	381.818
184.20	-200.000
184.58	1550.000
184.96	3800.000
185.34	-700.000
185.72	-600.000
186.09	-1650.000
186.47	1850.000
186.85	1900.000
187.23	3600.000
187.61	-1300.000
187.98	1175.000
188.36	445.455
188.74	345.455
189.12	-740.000
189.49	440.000
189.87	-3200.000
190.25	-950.000
190.63	307.143
191.00	261.538
191.38	566.667
191.76	-725.000
192.14	850.000
192.51	562.500
192.89	516.667
193.27	312.500
193.65	-950.000
194.02	360.000
194.40	700.000
194.78	440.000
195.15	408.333
195.53	470.000
195.91	-1800.000
196.29	262.500
196.66	247.368
197.04	-150.000
197.42	0.000
197.79	350.000
198.17	-3200.000
198.55	542.857
198.92	462.500
199.30	660.000
199.68	0.000
200.05	200.000
200.43	457.143
200.81	3300.000
201.18	1366.667
201.56	-933.333
201.94	500.000
202.31	455.556
202.69	300.000
203.07	440.000
203.44	0.000
203.82	850.000
204.19	585.714
204.57	335.714
204.95	437.500
205.32	1066.667
205.70	409.091
206.08	350.000
206.45	1850.000
206.83	368.750
207.20	750.000
207.58	480.000
207.96	261.111
208.33	650.000
208.71	-516.667
209.08	600.000
209.46	422.222
209.84	354.545
210.21	-1000.000
210.59	1075.000
210.96	-300.000
211.34	2050.000
211.71	400.000
212.09	433.333
212.46	0.000
212.84	900.000
213.22	950.000
213.59	-3800.000
213.97	616.667
214.34	500.000
214.72	445.455
215.09	760.000
215.47	-1700.000
215.84	-2000.000
216.22	1733.333
216.59	328.571
216.97	875.000
217.34	372.727
217.72	-516.667
218.09	0.000
218.47	-3300.000
218.84	488.889
219.22	485.714
219.59	1266.667
219.97	-471.429
220.34	620.000
220.72	-1333.333
221.09	378.571
221.47	1175.000
221.84	-683.333
222.22	0.000
222.59	950.000
222.97	-1850.000
223.34	800.000
223.72	261.538
224.09	800.000
224.46	1600.000
224.84	-3100.000
225.21	-680.000
225.59	-4100.000
225.96	360.000
226.34	205.000
226.71	2150.000
227.08	537.500
227.46	360.000
227.83	-825.000
228.21	-1450.000
228.58	355.556
228.95	-2050.000
229.33	-1800.000
229.70	933.333
230.08	471.429
230.45	-460.000
230.82	391.667
231.20	516.667
231.57	500.000
231.95	400.000
232.32	222.727
232.69	290.909
233.07	457.143
233.44	284.615
233.81	-1433.333
234.19	236.842
234.56	316.667
234.93	308.333
235.31	427.273
235.68	215.385
236.05	200.000
236.43	109.091
236.80	205.263
237.17	3500.000
237.55	195.238
237.92	150.000
238.29	180.952
238.67	148.387
239.04	141.379
239.41	122.222
239.79	97.826
240.16	126.190
240.53	122.727
240.91	109.804
241.28	76.000
241.65	86.000
242.02	84.058
242.40	77.419
242.77	85.000
243.14	75.269
243.51	77.528
243.89	58.824
244.26	61.111
244.63	62.366
245.00	55.319
245.38	38.614
245.75	48.598
246.12	53.211
246.49	58.394
246.87	56.000
247.24	53.077
247.61	51.429
247.98	47.712
248.36	37.838
248.73	37.580
249.10	47.134
249.47	41.243
249.84	45.455
250.22	44.920
250.59	42.012
250.96	38.889
251.33	43.128
251.70	44.059
252.08	41.429
252.45	34.978
252.82	38.261
253.19	40.851
253.56	36.078
253.94	37.344
254.31	37.891
254.68	40.000
255.05	35.424
255.42	39.837
255.79	35.294
256.16	40.794
256.54	35.689
256.91	39.146
257.28	33.453
257.65	34.653
258.02	33.230
258.39	33.754
258.76	33.110
259.14	33.333
259.51	31.611
259.88	34.783
260.25	32.931
260.62	30.058
260.99	33.230
261.36	35.435
261.73	32.378
262.10	34.593
262.47	34.930
262.85	32.869
263.22	31.054
263.59	34.473
263.96	34.890
264.33	33.681
264.70	33.421
265.07	31.714
265.44	33.838
265.81	29.927
266.18	30.905
266.55	30.000
266.92	33.661
267.29	30.324
267.66	31.651
268.03	30.682
268.40	32.009
268.77	31.265
269.14	28.378
269.51	31.603
269.88	34.965
270.25	28.894
270.62	31.236
270.99	32.688
271.36	30.043
271.73	31.308
272.10	28.261
272.47	32.473
272.84	30.952
273.21	27.883
273.58	31.004
273.95	28.512
274.32	28.719
274.69	27.837
275.06	29.331
275.43	30.213
275.80	29.259
276.17	30.143
276.54	32.432
276.91	29.249
277.28	29.883
277.65	30.948
278.02	30.642
278.39	30.273
278.76	29.091
279.13	30.189
279.50	27.933
279.87	29.681
280.23	28.942
280.60	29.787
280.97	28.281
281.34	27.611
281.71	29.273
282.08	31.670
282.45	30.182
282.82	26.998
283.19	27.451
283.56	28.421
283.92	29.949
284.29	27.160
284.66	30.853
285.03	27.125
285.40	29.401
285.77	26.599
286.14	27.634
286.51	26.833
286.87	25.812
287.24	29.316
287.61	27.127
287.98	28.896
288.35	26.783
288.72	26.636
289.08	26.291
289.45	27.018
289.82	25.203
290.19	24.804
290.56	24.655
290.93	25.680
291.29	24.693
291.66	25.221
292.03	26.453
292.40	26.725
292.77	24.408
293.13	24.179
293.50	24.344
293.87	24.889
294.24	22.963
294.60	20.815
294.97	22.965
295.34	24.824
295.71	22.443
296.08	23.219
296.44	22.834
296.81	21.929
297.18	23.577
297.55	21.240
297.91	21.768
298.28	23.293
298.65	22.977
299.02	22.266
299.38	20.717
299.75	20.620
300.12	21.839
300.48	20.250
300.85	20.345
301.22	19.745
301.59	21.086
301.95	21.411
302.32	21.053
302.69	21.386
303.05	19.636
303.42	20.000
303.79	19.932
304.15	20.746
304.52	20.394
304.89	20.906
305.25	18.445
305.62	19.706
305.99	19.362
306.35	21.365
306.72	19.170
307.09	20.422
307.45	20.946
307.82	19.085
308.19	20.751
308.55	19.417
308.92	18.367
309.29	19.430
309.65	19.936
310.02	18.922
310.38	19.247
310.75	20.169
311.12	20.164
311.48	19.122
311.85	19.602
312.22	19.043
312.58	18.399
312.95	19.535
313.31	17.864
313.68	19.439
314.05	20.020
314.41	19.196
314.78	17.925
315.14	19.067
315.51	20.185
315.87	19.505
316.24	18.669
316.61	18.713
316.97	17.417
317.34	17.515
317.70	18.738
318.07	17.902
318.43	18.493
318.80	19.119
319.16	18.738
319.53	18.480
319.89	18.952
320.26	19.200
320.62	18.353
320.99	19.192
321.35	18.586
321.72	17.864
322.08	18.460
322.45	19.701
322.81	18.605
323.18	18.786
323.54	19.295
323.91	19.623
324.27	18.356
324.64	17.987
325.00	16.772
325.37	18.562
325.73	18.851
326.10	18.888
326.46	17.204
326.83	18.809
327.19	18.958
327.56	17.422
327.92	18.460
328.29	18.811
328.65	18.140
329.01	17.599
329.38	17.854
329.74	17.729
330.11	18.002
330.47	18.365
330.84	18.474
331.20	18.306
331.56	18.257
331.93	17.315
332.29	17.746
332.66	18.761
333.02	17.185
333.38	18.609
333.75	19.340
334.11	18.683
334.48	17.657
334.84	17.463
335.20	17.909
335.57	17.588
335.93	16.250
336.29	16.667
336.66	18.305
337.02	16.652
337.38	18.148
337.75	17.201
338.11	17.368
338.47	16.759
338.84	16.682
339.20	16.514
339.56	17.974
339.93	17.545
340.29	16.667
340.65	17.023
341.02	17.190
341.38	17.705
341.74	18.421
342.11	17.293
342.47	17.533
342.83	17.637
343.20	18.615
343.56	16.344
343.92	18.158
344.28	17.092
344.65	17.627
345.01	17.929
345.37	17.496
345.73	16.920
346.10	17.477
346.46	17.288
346.82	18.699
347.19	17.210
347.55	17.406
347.91	18.285
348.27	18.488
348.63	17.475
349.00	16.828
349.36	16.092
349.72	17.322
350.08	16.451
350.45	17.494
350.81	16.734
351.17	16.775
351.53	17.117
351.89	16.254
352.26	16.417
352.62	17.803
352.98	17.909
353.34	17.091
353.70	16.367
354.07	16.048
354.43	17.222
354.79	16.492
355.15	16.042
355.51	17.586
355.87	16.082
356.24	17.264
356.60	17.081
356.96	16.010
357.32	16.108
357.68	15.984
358.04	16.152
358.40	16.310
358.77	16.432
359.13	15.627
359.49	15.843
359.85	15.159
360.21	15.391
360.57	16.187
360.93	16.538
361.29	16.175
361.66	15.325
362.02	16.194
362.38	16.122
362.74	16.592
363.10	15.544
363.46	14.747
363.82	16.629
364.18	15.198
364.54	17.311
364.90	16.218
365.26	16.029
365.62	16.289
365.98	15.121
366.35	14.900
366.71	15.546
367.07	16.460
367.43	16.618
367.79	16.417
368.15	16.236
368.51	15.044
368.87	16.060
369.23	15.947
369.59	16.799
369.95	15.294
370.31	16.026
370.67	15.217
371.03	16.105
371.39	15.379
371.75	15.809
372.11	15.576
372.47	16.496
372.83	16.138
373.19	15.535
373.55	14.560
373.91	16.127
374.27	15.120
374.63	15.127
374.99	16.314
375.35	14.375
375.71	15.079
376.07	16.187
376.42	15.199
376.78	15.374
377.14	14.993
377.50	15.762
377.86	14.428
378.22	15.803
378.58	14.912
378.94	15.336
379.30	14.377
379.66	15.419
380.02	15.295
380.38	15.058
380.74	15.186
381.09	15.770
381.45	15.919
381.81	15.111
382.17	15.860
382.53	14.843
382.89	15.679
383.25	15.072
383.61	15.056
383.97	15.260
384.32	14.722
384.68	14.312
385.04	14.935
385.40	14.118
385.76	15.233
386.12	14.702
386.48	14.852
386.83	14.881
387.19	15.708
387.55	15.090
387.91	14.813
388.27	14.899
388.62	15.304
388.98	14.681
389.34	15.269
389.70	14.838
390.06	14.892
390.42	15.045
390.77	15.140
391.13	14.869
391.49	14.594
391.85	14.386
392.20	14.132
392.56	14.899
392.92	14.067
393.28	14.793
393.64	14.868
393.99	15.150
394.35	14.578
394.71	15.433
395.07	14.455
395.42	14.339
395.78	14.758
396.14	14.463
396.50	15.539
396.85	14.940
397.21	14.488
397.57	15.003
397.92	14.243
398.28	14.406
398.64	13.978
399.00	13.878
399.35	13.706
399.71	14.178
400.07	14.725
400.42	15.153
400.78	14.475
401.14	14.634
401.49	14.567
401.85	14.943
402.21	14.251
402.57	14.867
402.92	14.628
403.28	14.741
403.63	14.418
403.99	13.694
404.35	14.606
404.70	14.568
405.06	14.793
405.42	15.034
405.77	13.886
406.13	14.842
406.49	14.784
406.84	14.708
407.20	13.121
407.55	14.167
407.91	14.533
408.27	14.295
408.62	14.509
408.98	14.461
409.34	14.576
409.69	13.935
410.05	14.002
410.40	15.291
410.76	13.680
411.11	15.018
411.47	13.930
411.83	14.844
412.18	14.719
412.54	13.823
412.89	15.422
413.25	14.463
413.60	13.774
413.96	14.511
414.31	14.824
414.67	15.019
415.03	14.503
415.38	14.562
415.74	14.598
416.09	15.023
416.45	15.127
416.80	14.276
417.16	15.013
417.51	15.129
417.87	14.515
418.22	14.953
418.58	15.107
418.93	15.049
419.29	14.449
419.64	15.113
420.00	14.817
420.35	14.899
420.71	15.421
421.06	14.320
421.42	15.029
421.77	14.518
422.12	13.644
422.48	13.438
422.83	13.978
423.19	15.414
423.54	14.103
423.90	14.551
424.25	15.299
424.61	14.107
424.96	15.277
425.31	14.673
425.67	14.326
426.02	14.514
426.38	15.201
426.73	14.277
427.09	14.164
427.44	14.376
427.79	13.974
428.15	14.940
428.50	14.160
428.85	14.958
429.21	13.749
429.56	14.049
429.92	14.142
430.27	14.995
430.62	13.825
430.98	14.478
431.33	14.536
431.68	15.393
432.04	14.217
432.39	13.706
432.74	15.141
433.10	14.601
433.45	14.519
433.80	13.969
434.16	13.996
434.51	15.368
434.86	15.165
435.22	14.675
435.57	14.347
435.92	14.102
436.28	15.421
436.63	14.349
436.98	14.883
437.34	14.729
437.69	15.111
438.04	14.221
438.39	14.388
438.75	15.282
439.10	14.581
439.45	15.289
439.81	14.562
440.16	14.850
440.51	14.470
440.86	14.939
441.22	14.294
441.57	13.854
441.92	14.995
442.27	15.070
442.63	14.113
442.98	14.704
443.33	15.163
443.68	14.042
444.03	13.812
444.39	13.681
444.74	14.502
445.09	14.825
445.44	14.379
445.79	14.844
446.15	15.352
446.50	14.863
446.85	14.954
447.20	14.482
447.55	15.131
447.91	14.948
448.26	15.081
448.61	14.980
448.96	15.006
449.31	14.511
449.66	14.688
450.02	13.983
450.37	15.023
450.72	15.116
451.07	13.772
451.42	15.137
451.77	15.150
452.12	14.838
452.47	14.863
452.83	14.685
453.18	14.670
453.53	15.399
453.88	14.294
454.23	15.182
454.58	13.870
454.93	15.575
455.28	14.776
455.63	14.745
455.98	15.833
456.34	14.698
456.69	15.279
457.04	15.789
457.39	14.904
457.74	15.032
458.09	15.296
458.44	15.165
458.79	14.100
459.14	14.729
459.49	15.353
459.84	15.014
460.19	14.555
460.54	14.294
460.89	14.866
461.24	15.543
461.59	15.630
461.94	14.488
462.29	15.608
462.64	14.742
462.99	14.379
463.34	16.000
463.69	15.697
464.04	15.826
464.39	14.899
464.74	15.686
465.09	15.078
465.44	14.848
465.79	14.262
466.14	14.778
466.49	14.572
466.84	14.769
467.19	15.631
467.54	16.125
467.89	15.246
468.24	14.194
468.59	15.751
468.94	14.783
469.29	16.067
469.64	16.332
469.99	15.359
470.34	14.861
470.68	15.948
471.03	14.966
471.38	15.775
471.73	15.923
472.08	16.053
472.43	15.264
472.78	15.734
473.13	15.661
473.48	16.042
473.83	16.037
474.17	15.557
474.52	15.881
474.87	15.412
475.22	15.728
475.57	15.153
475.92	15.401
476.27	15.614
476.61	16.051
476.96	15.393
477.31	14.704
477.66	15.646
478.01	15.055
478.36	16.023
478.70	15.161
479.05	14.909
479.40	15.097
479.75	15.252
480.10	14.911
480.45	15.278
480.79	14.811
481.14	15.460
481.49	15.994
481.84	15.181
482.19	14.857
482.53	15.321
482.88	15.030
483.23	14.813
483.58	15.423
483.92	16.354
484.27	14.031
484.62	14.871
484.97	13.953
485.31	15.068
485.66	13.397
486.01	13.412
486.36	12.955
486.70	12.701
487.05	13.216
487.40	12.998
487.75	13.253
488.09	13.679
488.44	13.509
488.79	13.779
489.13	14.018
489.48	14.356
489.83	14.199
490.17	14.818
490.52	14.703
490.87	15.468
491.22	14.916
491.56	14.077
491.91	15.123
492.26	14.607
492.60	15.069
492.95	14.920
493.30	15.607
493.64	15.119
493.99	15.042
494.34	15.402
494.68	16.071
495.03	15.414
495.37	15.077
495.72	15.497
496.07	15.592
496.41	14.867
496.76	15.040
497.11	15.128
497.45	14.951
497.80	15.499
498.14	15.459
498.49	15.805
498.84	15.868
499.18	15.238
499.53	14.862
499.87	14.958
500.22	14.602
500.56	15.631
500.91	14.808
501.26	16.216
501.60	15.994
501.95	15.307
502.29	15.230
502.64	15.549
502.98	15.381
503.33	14.945
503.67	15.545
504.02	15.762
504.36	15.255
504.71	15.437
505.06	15.229
505.40	15.265
505.75	15.092
506.09	15.112
506.44	15.639
506.78	16.025
507.13	15.901
507.47	16.162
507.82	16.261
508.16	15.805
508.51	16.235
508.85	15.690
509.19	15.357
509.54	15.714
509.88	15.662
510.23	15.887
510.57	16.563
510.92	15.536
511.26	15.827
511.61	16.857
511.95	15.658
512.30	15.907
512.64	16.013
512.98	16.667
513.33	16.221
513.67	15.795
514.02	15.152
514.36	16.275
514.70	15.993
515.05	16.453
515.39	16.545
515.74	15.653
516.08	16.993
516.42	16.648
516.77	17.224
517.11	15.261
517.46	16.309
517.80	16.725
518.14	16.213
518.49	16.686
518.83	16.136
519.17	16.455
519.52	15.959
519.86	17.114
520.20	17.341
520.55	16.816
520.89	17.153
521.23	17.853
521.58	16.927
521.92	16.718
522.26	16.962
522.61	17.196
522.95	17.004
523.29	17.468
523.64	17.683
523.98	17.252
524.32	16.888
524.66	17.619
525.01	17.708
525.35	16.914
525.69	16.933
526.04	17.508
526.38	17.023
526.72	16.074
527.06	16.635
527.41	17.389
527.75	17.814
528.09	18.176
528.43	17.846
528.78	17.578
529.12	17.091
529.46	17.636
529.80	17.450
530.15	17.321
530.49	17.046
530.83	18.291
531.17	17.298
531.51	17.185
531.86	17.290
532.20	17.797
532.54	17.873
532.88	17.779
533.22	17.114
533.57	16.667
533.91	16.737
534.25	17.558
534.59	17.999
534.93	17.252
535.27	17.019
535.62	17.094
535.96	17.451
536.30	16.529
536.64	17.514
536.98	16.921
537.32	17.314
537.66	17.200
538.01	17.775
538.35	18.035
538.69	17.486
539.03	16.829
539.37	16.294
539.71	16.591
540.05	17.386
540.39	17.076
540.73	16.559
541.07	17.456
541.42	17.678
541.76	17.419
542.10	17.723
542.44	17.285
542.78	18.050
543.12	16.123
543.46	17.574
543.80	18.347
544.14	16.688
544.48	18.095
544.82	16.613
545.16	17.241
545.50	16.195
545.84	17.137
546.18	17.508
546.52	18.513
546.86	16.907
547.20	17.262
547.54	17.702
547.88	17.985
548.22	17.123
548.56	16.855
548.90	16.517
549.24	16.970
549.58	17.599
549.92	17.788
550.26	17.543
550.60	17.082
550.94	17.465
551.28	17.337
551.62	17.757
551.96	17.404
552.30	18.567
552.64	17.715
552.98	17.763
553.32	16.521
553.66	17.587
554.00	17.639
554.34	17.253
554.68	18.598
555.02	16.925
555.36	17.328
555.69	16.644
556.03	17.429
556.37	16.849
556.71	16.644
557.05	17.437
557.39	17.355
557.73	17.219
558.07	18.419
558.41	17.873
558.75	17.928
559.08	17.897
559.42	18.065
559.76	17.868
560.10	17.702
560.44	17.331
560.78	16.833
561.12	16.953
561.45	17.731
561.79	17.271
562.13	17.907
562.47	17.213
562.81	16.806
563.15	18.127
563.48	17.971
563.82	17.156
564.16	17.593
564.50	17.383
564.84	17.193
565.17	16.988
565.51	16.805
565.85	17.830
566.19	16.406
566.52	16.339
566.86	16.878
567.20	17.158
567.54	16.267
567.88	15.970
568.21	16.614
568.55	15.976
568.89	16.099
569.23	15.241
569.56	15.425
569.90	14.943
570.24	14.855
570.57	14.553
570.91	14.480
571.25	14.145
571.59	14.374
571.92	14.171
572.26	14.038
572.60	14.054
572.93	14.243
573.27	14.079
573.61	14.098
573.95	14.186
574.28	13.518
574.62	13.678
574.96	13.644
575.29	13.434
575.63	13.847
575.97	13.512
576.30	13.595
576.64	13.419
576.98	13.515
577.31	13.355
577.65	13.572
577.98	13.450
578.32	13.046
578.66	13.333
578.99	12.988
579.33	13.556
579.67	13.476
580.00	13.306
580.34	13.669
580.67	13.377
581.01	13.470
581.35	13.316
581.68	13.242
582.02	12.944
582.35	13.128
582.69	13.095
583.02	13.287
583.36	13.166
583.70	13.137
584.03	13.454
584.37	13.992
584.70	13.689
585.04	13.748
585.37	13.514
585.71	13.651
586.04	13.047
586.38	13.924
586.72	14.499
587.05	13.230
587.39	13.298
587.72	13.527
588.06	13.954
588.39	14.019
588.73	13.670
589.06	13.805
589.40	14.108
589.73	14.150
590.07	14.306
590.40	14.030
590.73	14.442
591.07	15.181
591.40	14.804
591.74	15.368
592.07	14.965
592.41	15.254
592.74	14.569
593.08	14.424
593.41	14.236
593.75	13.866
594.08	14.415
594.41	14.634
594.75	14.492
595.08	14.245
595.42	14.081
595.75	13.568
596.09	14.382
596.42	14.892
596.75	15.281
597.09	15.065
597.42	14.207
597.75	14.877
598.09	14.696
598.42	14.820
598.76	14.674
599.09	14.557
599.42	14.629
599.76	14.312
600.09	14.317
600.42	14.463
600.76	14.286
601.09	14.390
601.42	14.878
601.76	14.269
602.09	14.625
602.42	14.769
602.76	15.115
603.09	14.752
603.42	14.330
603.76	14.520
604.09	14.153
604.42	14.921
604.76	14.888
605.09	15.247
605.42	14.793
605.75	14.611
606.09	14.437
606.42	14.712
606.75	14.351
607.09	14.943
607.42	14.763
607.75	14.093
608.08	14.937
608.42	15.374
608.75	14.968
609.08	14.385
609.41	14.422
609.75	15.102
610.08	15.504
610.41	14.479
610.74	14.806
611.07	15.168
611.41	15.407
611.74	15.334
612.07	16.356
612.40	16.002
612.73	15.789
613.07	15.625
613.40	15.903
613.73	14.997
614.06	15.323
614.39	15.679
614.72	15.947
615.06	15.861
615.39	15.446
615.72	15.542
616.05	16.002
616.38	15.620
616.71	15.796
617.05	16.254
617.38	15.514
617.71	16.156
618.04	16.767
618.37	16.144
618.70	16.304
619.03	18.289
619.36	16.633
619.69	17.746
620.03	17.514
620.36	17.045
620.69	17.740
621.02	17.330
621.35	16.758
621.68	16.978
622.01	17.647
622.34	17.927
622.67	17.262
623.00	16.948
623.33	16.512
623.66	17.441
623.99	16.937
624.32	17.261
624.65	17.232
624.99	16.289
625.32	16.510
625.65	17.506
625.98	16.833
626.31	17.652
626.64	18.041
626.97	18.121
627.30	17.456
627.63	18.458
627.96	17.998
628.29	18.548
628.62	18.390
628.95	19.434
629.28	18.613
629.61	18.332
629.94	18.095
630.26	18.875
630.59	19.352
630.92	17.912
631.25	19.052
631.58	18.619
631.91	19.371
632.24	18.987
632.57	19.622
632.90	19.408
633.23	19.799
633.56	21.356
633.89	18.913
634.22	20.999
634.55	20.473
634.88	20.719
635.20	21.505
635.53	20.843
635.86	20.916
636.19	20.706
636.52	20.531
636.85	20.160
637.18	20.622
637.51	21.749
637.83	18.989
638.16	19.821
638.49	20.151
638.82	21.871
639.15	21.625
639.48	21.820
639.81	20.241
640.13	20.703
640.46	21.611
640.79	22.457
641.12	21.458
641.45	20.670
641.77	22.239
642.10	22.953
642.43	21.622
642.76	23.684
643.09	23.926
643.41	21.700
643.74	22.685
644.07	21.951
644.40	22.546
644.73	23.622
645.05	24.406
645.38	22.907
645.71	21.739
646.04	23.090
646.36	25.876
646.69	23.077
647.02	22.619
647.35	23.024
647.67	22.478
648.00	22.927
648.33	22.772
648.66	22.424
648.98	23.088
649.31	18.087
649.64	21.973
649.96	22.057
650.29	23.065
650.62	20.227
650.94	23.339
651.27	21.453
651.60	24.792
651.92	22.364
652.25	21.336
652.58	23.520
652.90	21.327
653.23	20.955
653.56	20.315
653.88	23.455
654.21	23.223
654.54	23.762
654.86	22.274
655.19	19.865
655.52	13.867
655.84	11.992
656.17	14.902
656.49	19.745
656.82	19.352
657.15	14.476
657.47	10.650
657.80	8.118
658.13	8.084
658.45	12.234
658.78	12.036
659.10	12.553
659.43	12.730
659.75	13.444
660.08	14.747
660.41	15.922
660.73	20.330
661.06	20.541
661.38	24.727
661.71	23.654
662.03	26.036
662.36	21.670
662.68	24.498
663.01	22.424
663.33	23.355
663.66	27.521
663.98	24.406
664.31	24.370
664.63	24.089
664.96	21.932
665.28	25.410
665.61	23.782
665.93	23.541
666.26	23.327
666.58	25.523
666.91	27.061
667.23	24.944
667.56	22.462
667.88	26.923
668.21	25.800
668.53	24.512
668.86	22.511
669.18	27.505
669.50	26.304
669.83	25.926
670.15	24.444
670.48	25.926
670.80	25.431
671.13	26.752
671.45	23.404
671.77	25.662
672.10	24.214
672.42	22.261
672.75	23.217
673.07	24.472
673.39	21.519
673.72	21.680
674.04	24.510
674.37	24.854
674.69	23.313
675.01	25.732
675.34	26.283
675.66	25.895
675.98	25.255
676.31	24.580
676.63	25.265
676.95	24.319
677.28	25.000
677.60	24.615
677.92	26.160
678.25	25.667
678.57	23.705
678.89	22.445
679.22	23.183
679.54	23.664
679.86	24.587
680.18	22.719
680.51	23.050
680.83	24.555
681.15	22.830
681.48	22.495
681.80	23.791
682.12	22.222
682.44	22.824
682.77	24.440
683.09	25.322
683.41	25.055
683.73	24.283
684.06	23.554
684.38	25.245
684.70	23.837
685.02	24.765
685.34	21.612
685.67	22.902
685.99	21.821
686.31	20.819
686.63	19.965
686.96	22.500
687.28	21.480
687.60	21.196
687.92	24.680
688.24	23.764
688.56	22.691
688.89	23.859
689.21	25.983
689.53	25.261
689.85	24.169
690.17	22.981
690.49	24.841
690.82	25.701
691.14	24.777
691.46	22.785
691.78	24.900
692.10	25.207
692.42	21.158
692.74	23.237
693.06	22.553
693.39	25.462
693.71	20.742
694.03	26.316
694.35	25.108
694.67	24.256
694.99	28.293
695.31	25.245
695.63	25.837
695.95	24.694
696.27	22.081
696.59	24.870
696.91	26.166
697.23	21.831
697.56	25.160
697.88	20.041
698.20	23.333
698.52	23.226
698.84	24.722
699.16	23.041
699.48	24.466
699.80	25.604
700.12	32.208
700.44	27.056
700.76	24.033
701.08	26.437
701.40	28.771
701.72	31.487
702.04	32.102
702.36	24.929
702.68	30.312
703.00	28.809
703.32	26.596
703.64	24.397
703.96	27.019
704.28	27.907
704.60	28.152
704.91	29.377
705.23	26.686
705.55	30.565
705.87	31.561
706.19	27.208
706.51	26.480
706.83	31.515
707.15	30.252
707.47	22.727
707.79	25.061
708.11	26.256
708.43	27.619
708.74	23.214
709.06	27.013
709.38	25.722
709.70	29.651
710.02	27.003
710.34	26.061
710.66	26.866
710.98	27.841
711.29	27.035
711.61	32.153
711.93	25.321
712.25	27.653
712.57	27.941
712.89	29.412
713.20	28.267
713.52	31.579
713.84	22.468
714.16	29.573
714.48	25.000
714.80	31.307
715.11	25.360
715.43	26.113
715.75	28.986
716.07	27.157
716.39	29.467
716.70	27.243
717.02	25.540
717.34	31.095
717.66	29.478
717.97	37.052
718.29	29.630
718.61	33.942
718.93	32.353
719.24	25.952
719.56	27.119
719.88	25.763
720.20	29.392
720.51	31.010
720.83	30.855
721.15	30.224
721.46	24.823
721.78	30.108
722.10	30.566
722.42	29.699
722.73	25.094
723.05	30.738
723.37	28.745
723.68	32.432
724.00	30.894
724.32	28.226
724.63	28.049
724.95	29.289
725.27	29.555
725.58	33.594
725.90	27.372
726.22	30.189
726.53	29.167
726.85	28.328
727.16	28.826
727.48	25.177
727.80	29.167
728.11	28.623
728.43	29.231
728.74	28.674
729.06	32.482
729.38	29.044
729.69	27.402
730.01	26.962
730.32	27.431
730.64	28.094
730.96	25.743
731.27	29.801
731.59	28.135
731.90	27.697
732.22	26.087
732.53	22.910
732.85	25.962
733.16	27.331
733.48	26.910
733.80	28.571
734.11	29.618
734.43	26.036
734.74	22.571
735.06	21.490
735.37	26.301
735.69	24.522
736.00	31.046
736.32	28.349
736.63	25.879
736.95	27.157
737.26	18.367
737.58	26.129
737.89	27.090
738.21	27.986
738.52	26.786
738.83	28.679
739.15	29.615
739.46	30.292
739.78	24.653
740.09	27.385
740.41	30.000
740.72	24.739
741.04	28.148
741.35	28.333
741.66	36.889
741.98	28.774
742.29	35.885
742.61	36.207
742.92	27.149
743.23	37.179
743.55	29.600
743.86	29.825
744.18	38.053
744.49	39.234
744.80	33.803
745.12	35.909
745.43	33.480
745.74	38.288
746.06	32.569
746.37	30.045
746.68	30.317
747.00	35.185
747.31	31.429
747.62	31.416
747.94	31.718
748.25	29.362
748.56	28.194
748.88	28.713
749.19	36.500
749.50	33.953
749.82	27.236
750.13	30.612
750.44	25.182
750.75	31.228
751.07	26.688
751.38	29.617
751.69	26.354
752.01	32.707
752.32	28.881
752.63	31.206
752.94	29.508
753.26	31.600
753.57	30.081
753.88	31.250
754.19	30.714
754.51	31.944
754.82	22.744
755.13	32.830
755.44	29.323
755.75	28.467
756.07	28.723
756.38	26.277
756.69	27.181
757.00	29.042
757.31	25.519
757.63	23.684
757.94	24.933
758.25	22.304
758.56	21.728
758.87	22.312
759.18	25.758
759.50	26.959
759.81	24.922
760.12	24.062
760.43	26.074
760.74	26.630
761.05	24.859
761.36	25.401
761.67	26.136
761.99	26.398
762.30	29.514
762.61	27.481
762.92	32.422
763.23	31.092
763.54	32.000
763.85	27.344
764.16	33.077
764.47	33.460
764.78	27.915
765.10	25.633
765.41	26.549
765.72	27.246
766.03	28.213
766.34	22.000
766.65	29.787
766.96	31.197
767.27	35.025
767.58	35.417
767.89	35.263
768.20	40.805
768.51	24.873
768.82	34.404
769.13	29.268
769.44	31.579
769.75	23.605
770.06	24.771
770.37	31.222
770.68	31.481
770.99	33.778
771.30	25.000
771.61	34.529
771.92	31.148
772.23	34.034
772.54	31.282
772.85	32.984
773.16	31.383
773.47	37.500
773.78	36.548
774.09	34.524
774.39	34.503
774.70	33.333
775.01	43.478
775.32	48.366
775.63	41.447
775.94	36.691
776.25	52.756
776.56	43.284
776.87	42.623
777.18	44.531
777.48	45.802
777.79	43.939
778.10	42.222
778.41	44.643
778.72	45.985
779.03	45.638
779.34	38.926
779.65	33.108
779.95	38.037
780.26	41.830
780.57	42.759
780.88	51.562
781.19	42.105
781.50	44.595
781.80	39.623
782.11	36.723
782.42	41.139
782.73	36.196
783.04	43.919
783.34	40.845
783.65	45.890
783.96	47.761
784.27	34.266
784.57	32.374
784.88	42.593
785.19	39.683
785.50	50.943
785.81	47.761
786.11	50.820
786.42	45.736
786.73	45.133
787.04	39.623
787.34	46.429
787.65	46.000
787.96	42.342
788.26	45.455
788.57	44.915
788.88	48.760
789.19	43.056
789.49	43.182
789.80	45.038
790.11	53.333
790.41	52.475
790.72	48.193
791.03	54.348
791.33	54.651
791.64	40.206
791.95	56.436
792.25	58.889
792.56	62.338
792.87	74.359
793.17	63.291
793.48	55.172
793.79	67.816
794.09	60.227
794.40	46.218
794.70	51.471
795.01	37.778
795.32	47.482
795.62	43.307
795.93	51.724
796.23	40.708
796.54	54.118
796.85	54.054
797.15	71.831
797.46	62.121
797.76	69.880
798.07	68.354
798.37	70.769
798.68	72.727
798.99	47.887
799.29	59.740
799.60	57.955
799.90	76.712
800.21	74.627
800.51	60.345
800.82	77.193
801.12	67.213
801.43	80.303
801.73	64.865
802.04	80.952
802.34	67.901
802.65	62.500
802.95	77.966
803.26	70.313
803.56	51.429
803.87	61.538
804.17	64.706
804.48	85.185
804.78	77.586
805.09	70.588
805.39	94.231
805.70	71.429
806.00	68.852
806.30	74.242
806.61	60.976
806.91	58.228
807.22	57.895
807.52	49.254
807.83	59.155
808.13	62.500
808.43	73.333
808.74	63.158
809.04	76.812
809.35	76.119
809.65	71.053
809.95	103.226
810.26	67.797
810.56	84.127
810.86	111.364
811.17	95.238
811.47	83.333
811.77	90.741
812.08	81.818
812.38	98.000
812.69	111.111
812.99	102.273
813.29	89.796
813.59	71.429
813.90	91.837
814.20	85.455
814.50	61.538
814.81	83.824
815.11	67.347
815.41	73.770
815.72	102.381
816.02	92.727
816.32	102.381
816.62	112.500
816.93	112.195
817.23	109.524
817.53	88.636
817.84	127.273
818.14	91.304
818.44	104.444
818.74	138.235
819.04	97.500
819.35	114.286
819.65	135.294
819.95	157.143
820.25	155.000
820.56	112.821
820.86	106.818
821.16	109.302
821.46	94.872
821.76	94.000
822.07	114.286
822.37	100.000
822.67	106.061
822.97	80.392
823.27	160.714
823.57	127.027
823.88	125.000
824.18	140.000
824.48	107.143
824.78	148.000
825.08	104.167
825.38	100.000
825.69	87.805
825.99	145.833
826.29	103.448
826.59	92.105
826.89	128.947
827.19	114.706
827.49	151.613
827.79	97.727
828.09	97.727
828.39	87.234
828.70	102.041
829.00	111.111
829.30	77.419
829.60	112.500
829.90	193.333
830.20	164.286
830.50	108.696
830.80	143.478
831.10	163.333
831.40	133.333
831.70	139.130
832.00	153.846
832.30	148.148
832.60	206.250
832.90	160.000
833.20	264.286
833.50	135.484
833.80	151.724
834.10	131.250
834.40	180.769
834.70	166.667
835.00	252.381
835.30	122.857
835.60	215.385
835.90	127.586
836.20	185.714
836.50	165.517
836.80	160.000
837.10	138.889
837.40	219.048
837.70	241.176
838.00	155.556
838.30	190.476
838.60	209.524
838.90	157.692
839.19	190.000
839.49	300.000
839.79	265.000
840.09	175.000
840.39	261.905
840.69	169.565
840.99	200.000
841.29	300.000
841.59	325.000
841.88	262.500
842.18	134.483
842.48	157.143
842.78	163.333
843.08	226.087
843.38	131.250
843.68	700.000
843.97	165.385
844.27	144.828
844.57	257.143
844.87	281.250
845.17	162.963
845.47	1033.333
845.76	388.889
846.06	288.235
846.36	437.500
846.66	257.143
846.96	200.000
847.25	227.273
847.55	300.000
847.85	226.087
848.15	420.000
848.44	271.429
848.74	222.222
849.04	264.706
849.34	340.000
849.63	215.789
849.93	272.727
850.23	1040.000
850.53	314.286
850.82	1550.000
851.12	-2800.000
851.42	3100.000
851.71	225.000
852.01	-900.000
852.31	145.833
852.61	1166.667
852.90	223.810
853.20	172.000
853.50	276.471
853.79	223.810
854.09	154.167
854.39	225.000
854.68	137.838
854.98	132.258
855.28	113.333
855.57	158.621
855.87	133.333
856.17	163.158
856.46	186.667
856.76	223.529
857.05	162.069
857.35	150.000
857.65	320.000
857.94	182.609
858.24	184.615
858.53	230.000
858.83	177.273
859.13	206.667
859.42	0.000
859.72	377.778
860.01	281.818
860.31	204.545
860.60	168.421
860.90	213.043
861.20	422.222
861.49	300.000
861.79	-3500.000
862.08	412.500
862.38	238.095
862.67	307.692
862.97	258.824
863.26	366.667
863.56	177.778
863.85	325.000
864.15	375.000
864.44	253.333
864.74	516.667
865.03	475.000
865.33	247.368
865.62	318.182
865.92	315.385
866.21	283.333
866.51	0.000
866.80	327.273
867.10	900.000
867.39	307.692
867.69	372.727
867.98	226.316
868.27	372.727
868.57	215.789
868.86	-2900.000
869.16	250.000
869.45	1300.000
869.75	-3300.000
870.04	300.000
870.33	542.857
870.63	650.000
870.92	1750.000
871.22	542.857
871.51	347.059
871.80	142.857
872.10	321.429
>>>>>End Processed Spectral Data<<<<<
