SpectraSuite Data File
++++++++++++++++++++++++++++++++++++
Date: Wed May 13 21:10:15 PDT 2015
User: schluterlab
Dark Spectrum Present: Yes
Reference Spectrum Present: Yes
Number of Sampled Component Spectra: 1
Spectrometers: USB2E3373
Integration Time (usec): 3000 (USB2E3373)
Spectra Averaged: 3 (USB2E3373)
Boxcar Smoothing: 0 (USB2E3373)
Correct for Electrical Dark: No (USB2E3373)
Strobe/Lamp Enabled: No (USB2E3373)
Correct for Detector Non-linearity: No (USB2E3373)
Correct for Stray Light: No (USB2E3373)
Number of Pixels in Processed Spectrum: 2048
>>>>>Begin Processed Spectral Data<<<<<
178.53	0.000
178.91	250.000
179.29	275.000
179.67	-850.000
180.04	-533.333
180.42	60.000
180.80	2000.000
181.18	233.333
181.56	-350.000
181.94	-50.000
182.31	63.636
182.69	130.769
183.07	-320.000
183.45	350.000
183.83	211.111
184.20	28.571
184.58	-166.667
184.96	466.667
185.34	157.143
185.72	0.000
186.09	-1200.000
186.47	-100.000
186.85	160.000
187.23	-350.000
187.61	800.000
187.98	1500.000
188.36	-87.500
188.74	0.000
189.12	36.364
189.49	-20.000
189.87	200.000
190.25	160.000
190.63	1200.000
191.00	-200.000
191.38	280.000
191.76	125.000
192.14	125.000
192.51	-52.632
192.89	133.333
193.27	200.000
193.65	-320.000
194.02	190.909
194.40	110.000
194.78	-900.000
195.15	240.000
195.53	-340.000
195.91	-100.000
196.29	-66.667
196.66	0.000
197.04	250.000
197.42	0.000
197.79	50.000
198.17	-150.000
198.55	-200.000
198.92	250.000
199.30	-400.000
199.68	30.000
200.05	500.000
200.43	350.000
200.81	-1200.000
201.18	-200.000
201.56	-50.000
201.94	475.000
202.31	8.696
202.69	-57.143
203.07	-400.000
203.44	-100.000
203.82	-400.000
204.19	-30.000
204.57	0.000
204.95	-100.000
205.32	0.000
205.70	-250.000
206.08	-425.000
206.45	-133.333
206.83	575.000
207.20	-333.333
207.58	-60.000
207.96	-2200.000
208.33	-71.429
208.71	-1500.000
209.08	350.000
209.46	400.000
209.84	0.000
210.21	130.000
210.59	2000.000
210.96	300.000
211.34	300.000
211.71	-950.000
212.09	-283.333
212.46	-160.000
212.84	-133.333
213.22	-250.000
213.59	-1300.000
213.97	-450.000
214.34	-650.000
214.72	0.000
215.09	112.500
215.47	144.444
215.84	800.000
216.22	-237.500
216.59	-150.000
216.97	533.333
217.34	166.667
217.72	0.000
218.09	200.000
218.47	-200.000
218.84	-228.571
219.22	-100.000
219.59	-433.333
219.97	25.000
220.34	-50.000
220.72	-100.000
221.09	0.000
221.47	-150.000
221.84	0.000
222.22	0.000
222.59	600.000
222.97	-366.667
223.34	-25.000
223.72	-1800.000
224.09	-450.000
224.46	-81.818
224.84	-37.500
225.21	-171.429
225.59	-225.000
225.96	-66.667
226.34	-110.000
226.71	-171.429
227.08	400.000
227.46	-62.500
227.83	-700.000
228.21	-81.250
228.58	-250.000
228.95	-47.059
229.33	37.500
229.70	-137.500
230.08	-7.692
230.45	-100.000
230.82	-125.000
231.20	128.571
231.57	-400.000
231.95	700.000
232.32	83.333
232.69	-58.824
233.07	-1900.000
233.44	-56.522
233.81	-800.000
234.19	-33.333
234.56	-100.000
234.93	-20.000
235.31	-5.263
235.68	-84.615
236.05	-61.538
236.43	-38.889
236.80	-9.091
237.17	-33.333
237.55	-5.882
237.92	-37.931
238.29	-11.111
238.67	-19.444
239.04	-29.032
239.41	-4.255
239.79	4.255
240.16	-4.651
240.53	-7.143
240.91	3.571
241.28	1.786
241.65	16.129
242.02	6.579
242.40	15.942
242.77	-7.246
243.14	1.282
243.51	6.383
243.89	8.654
244.26	18.868
244.63	0.962
245.00	6.250
245.38	15.966
245.75	13.115
246.12	7.519
246.49	7.317
246.87	0.000
247.24	10.811
247.61	5.298
247.98	10.256
248.36	6.509
248.73	10.112
249.10	14.141
249.47	10.753
249.84	14.211
250.22	7.960
250.59	12.617
250.96	10.909
251.33	10.048
251.70	16.318
252.08	12.971
252.45	16.049
252.82	12.548
253.19	8.949
253.56	12.590
253.94	16.370
254.31	10.915
254.68	14.094
255.05	17.162
255.42	15.734
255.79	16.564
256.16	16.404
256.54	12.381
256.91	11.709
257.28	11.950
257.65	9.236
258.02	12.317
258.39	15.205
258.76	12.791
259.14	13.068
259.51	13.483
259.88	10.840
260.25	14.722
260.62	14.326
260.99	16.180
261.36	15.026
261.73	14.074
262.10	11.450
262.47	12.099
262.85	13.930
263.22	16.154
263.59	12.208
263.96	13.382
264.33	14.183
264.70	13.488
265.07	16.667
265.44	17.241
265.81	12.357
266.18	16.629
266.55	12.009
266.92	14.195
267.29	12.963
267.66	12.739
268.03	18.107
268.40	12.500
268.77	15.909
269.14	15.714
269.51	16.427
269.88	12.220
270.25	14.831
270.62	13.730
270.99	15.945
271.36	13.690
271.73	13.655
272.10	15.810
272.47	14.395
272.84	15.748
273.21	13.699
273.58	14.139
273.95	15.660
274.32	14.552
274.69	13.661
275.06	15.018
275.43	15.254
275.80	15.957
276.17	14.733
276.54	13.499
276.91	14.111
277.28	14.621
277.65	13.636
278.02	15.357
278.39	10.657
278.76	15.385
279.13	14.580
279.50	13.103
279.87	13.225
280.23	14.775
280.60	12.284
280.97	12.662
281.34	17.350
281.71	14.309
282.08	12.137
282.45	11.148
282.82	13.578
283.19	15.396
283.56	14.219
283.92	14.220
284.29	12.949
284.66	12.685
285.03	12.378
285.40	14.653
285.77	14.715
286.14	14.286
286.51	15.592
286.87	12.615
287.24	13.422
287.61	13.253
287.98	13.971
288.35	12.221
288.72	13.630
289.08	14.815
289.45	14.097
289.82	13.918
290.19	13.184
290.56	12.784
290.93	12.293
291.29	12.585
291.66	12.022
292.03	12.670
292.40	12.651
292.77	13.119
293.13	13.250
293.50	11.373
293.87	10.933
294.24	12.434
294.60	13.784
294.97	13.360
295.34	10.950
295.71	11.958
296.08	12.958
296.44	11.352
296.81	11.937
297.18	11.000
297.55	11.675
297.91	11.304
298.28	12.107
298.65	10.345
299.02	12.698
299.38	11.411
299.75	11.899
300.12	10.814
300.48	9.942
300.85	12.471
301.22	10.569
301.59	11.033
301.95	10.105
302.32	11.669
302.69	9.266
303.05	11.628
303.42	11.477
303.79	11.882
304.15	9.967
304.52	12.151
304.89	10.631
305.25	9.660
305.62	10.954
305.99	12.187
306.35	11.181
306.72	11.699
307.09	11.157
307.45	10.224
307.82	11.053
308.19	9.718
308.55	10.338
308.92	13.065
309.29	9.710
309.65	11.089
310.02	10.835
310.38	10.772
310.75	10.355
311.12	11.079
311.48	10.979
311.85	11.220
312.22	11.315
312.58	11.014
312.95	9.950
313.31	11.203
313.68	10.878
314.05	10.586
314.41	12.488
314.78	11.670
315.14	11.574
315.51	12.655
315.87	12.697
316.24	12.397
316.61	13.242
316.97	11.944
317.34	11.943
317.70	12.667
318.07	14.552
318.43	13.279
318.80	13.613
319.16	13.263
319.53	13.799
319.89	13.460
320.26	13.494
320.62	13.531
320.99	13.469
321.35	14.780
321.72	14.533
322.08	15.683
322.45	16.651
322.81	17.468
323.18	17.531
323.54	17.690
323.91	19.241
324.27	18.452
324.64	16.638
325.00	18.548
325.37	19.795
325.73	18.939
326.10	20.437
326.46	19.983
326.83	20.793
327.19	20.894
327.56	21.354
327.92	21.319
328.29	22.955
328.65	22.699
329.01	22.515
329.38	25.043
329.74	23.691
330.11	23.805
330.47	22.917
330.84	23.917
331.20	25.705
331.56	24.275
331.93	24.462
332.29	26.412
332.66	24.831
333.02	25.891
333.38	26.404
333.75	26.365
334.11	26.389
334.48	26.678
334.84	26.678
335.20	26.158
335.57	26.719
335.93	25.687
336.29	26.270
336.66	26.496
337.02	27.478
337.38	27.850
337.75	26.960
338.11	27.242
338.47	26.455
338.84	27.148
339.20	28.042
339.56	27.816
339.93	27.312
340.29	27.242
340.65	27.802
341.02	27.787
341.38	27.196
341.74	27.731
342.11	27.828
342.47	28.285
342.83	27.614
343.20	29.019
343.56	28.373
343.92	28.676
344.28	29.058
344.65	28.163
345.01	27.684
345.37	29.852
345.73	28.350
346.10	28.973
346.46	30.081
346.82	29.294
347.19	29.035
347.55	29.806
347.91	29.540
348.27	28.233
348.63	29.728
349.00	28.616
349.36	29.592
349.72	29.621
350.08	29.329
350.45	28.661
350.81	28.404
351.17	30.023
351.53	29.615
351.89	29.786
352.26	29.112
352.62	30.078
352.98	31.390
353.34	29.630
353.70	30.062
354.07	29.882
354.43	29.393
354.79	31.410
355.15	30.668
355.51	31.131
355.87	30.805
356.24	30.658
356.60	30.493
356.96	31.312
357.32	31.347
357.68	31.322
358.04	30.954
358.40	31.240
358.77	31.651
359.13	32.140
359.49	31.794
359.85	31.312
360.21	32.614
360.57	31.863
360.93	32.018
361.29	32.050
361.66	32.422
362.02	32.172
362.38	32.496
362.74	32.415
363.10	33.261
363.46	31.484
363.82	33.481
364.18	33.140
364.54	33.260
364.90	31.916
365.26	32.626
365.62	33.168
365.98	33.879
366.35	33.830
366.71	32.382
367.07	34.515
367.43	34.077
367.79	33.565
368.15	34.177
368.51	32.982
368.87	34.473
369.23	34.164
369.59	33.545
369.95	33.890
370.31	34.240
370.67	34.178
371.03	34.967
371.39	35.415
371.75	34.714
372.11	36.111
372.47	35.616
372.83	36.338
373.19	35.036
373.55	34.827
373.91	35.856
374.27	34.371
374.63	34.780
374.99	35.376
375.35	36.164
375.71	34.307
376.07	35.984
376.42	36.898
376.78	36.988
377.14	37.763
377.50	36.115
377.86	37.450
378.22	35.777
378.58	37.453
378.94	37.250
379.30	37.601
379.66	37.546
380.02	36.949
380.38	37.108
380.74	38.135
381.09	37.093
381.45	37.545
381.81	37.646
382.17	36.169
382.53	36.862
382.89	36.912
383.25	38.333
383.61	37.893
383.97	38.250
384.32	38.185
384.68	38.927
385.04	37.813
385.40	39.539
385.76	38.260
386.12	39.187
386.48	38.119
386.83	38.986
387.19	38.433
387.55	38.872
387.91	38.807
388.27	39.211
388.62	39.388
388.98	40.113
389.34	39.160
389.70	38.767
390.06	39.500
390.42	40.528
390.77	40.679
391.13	39.268
391.49	40.987
391.85	38.850
392.20	38.534
392.56	39.492
392.92	38.209
393.28	39.454
393.64	40.550
393.99	38.433
394.35	39.321
394.71	40.577
395.07	39.245
395.42	40.341
395.78	39.447
396.14	39.062
396.50	39.759
396.85	40.025
397.21	39.326
397.57	38.882
397.92	39.281
398.28	39.199
398.64	39.344
399.00	39.509
399.35	39.841
399.71	39.429
400.07	39.458
400.42	39.373
400.78	39.215
401.14	38.811
401.49	39.425
401.85	38.391
402.21	39.319
402.57	38.749
402.92	39.424
403.28	39.712
403.63	39.430
403.99	39.347
404.35	38.653
404.70	37.885
405.06	39.049
405.42	38.379
405.77	39.459
406.13	38.686
406.49	38.886
406.84	39.988
407.20	39.609
407.55	40.260
407.91	39.113
408.27	38.740
408.62	39.779
408.98	40.012
409.34	39.109
409.69	39.246
410.05	39.739
410.40	38.588
410.76	38.387
411.11	38.930
411.47	39.350
411.83	39.676
412.18	38.980
412.54	38.033
412.89	38.119
413.25	37.640
413.60	38.746
413.96	37.828
414.31	39.211
414.67	38.286
415.03	38.430
415.38	38.177
415.74	38.986
416.09	39.128
416.45	39.234
416.80	38.255
417.16	38.934
417.51	37.776
417.87	38.558
418.22	38.268
418.58	38.633
418.93	38.418
419.29	39.670
419.64	37.977
420.00	38.667
420.35	37.657
420.71	38.147
421.06	38.315
421.42	37.956
421.77	37.977
422.12	38.625
422.48	36.914
422.83	38.689
423.19	37.608
423.54	38.280
423.90	38.124
424.25	39.515
424.61	38.447
424.96	37.493
425.31	38.082
425.67	37.566
426.02	39.223
426.38	38.060
426.73	37.752
427.09	38.336
427.44	37.639
427.79	37.648
428.15	37.125
428.50	37.221
428.85	37.946
429.21	37.198
429.56	37.460
429.92	37.845
430.27	37.014
430.62	38.090
430.98	36.700
431.33	36.916
431.68	37.966
432.04	37.803
432.39	37.240
432.74	36.297
433.10	37.246
433.45	36.864
433.80	36.609
434.16	36.100
434.51	36.957
434.86	37.161
435.22	36.503
435.57	35.197
435.92	36.852
436.28	36.456
436.63	36.490
436.98	36.134
437.34	37.179
437.69	36.718
438.04	35.314
438.39	36.800
438.75	36.710
439.10	38.057
439.45	36.864
439.81	36.823
440.16	36.870
440.51	36.207
440.86	36.277
441.22	35.915
441.57	36.551
441.92	36.703
442.27	35.823
442.63	35.414
442.98	35.127
443.33	36.512
443.68	34.844
444.03	36.513
444.39	36.539
444.74	36.002
445.09	35.628
445.44	36.282
445.79	35.054
446.15	36.495
446.50	34.416
446.85	36.398
447.20	36.592
447.55	35.199
447.91	35.281
448.26	35.220
448.61	34.638
448.96	36.446
449.31	35.694
449.66	36.032
450.02	35.304
450.37	34.019
450.72	35.304
451.07	34.545
451.42	33.999
451.77	34.814
452.12	34.462
452.47	35.507
452.83	34.611
453.18	33.736
453.53	34.048
453.88	34.639
454.23	34.178
454.58	34.681
454.93	33.996
455.28	34.104
455.63	33.624
455.98	34.571
456.34	33.121
456.69	34.633
457.04	33.189
457.39	33.854
457.74	34.051
458.09	33.412
458.44	33.196
458.79	32.839
459.14	34.101
459.49	33.476
459.84	32.864
460.19	31.993
460.54	34.002
460.89	32.995
461.24	32.244
461.59	33.333
461.94	33.249
462.29	32.414
462.64	32.520
462.99	32.059
463.34	33.287
463.69	32.925
464.04	31.633
464.39	31.422
464.74	31.450
465.09	31.804
465.44	31.706
465.79	32.605
466.14	31.870
466.49	32.023
466.84	31.441
467.19	31.465
467.54	32.145
467.89	31.490
468.24	32.022
468.59	31.995
468.94	32.056
469.29	31.989
469.64	30.753
469.99	31.517
470.34	30.816
470.68	30.781
471.03	31.241
471.38	30.807
471.73	30.178
472.08	30.997
472.43	30.805
472.78	29.817
473.13	30.079
473.48	30.267
473.83	29.316
474.17	29.622
474.52	29.903
474.87	29.071
475.22	29.891
475.57	28.834
475.92	29.662
476.27	29.371
476.61	29.955
476.96	30.040
477.31	29.935
477.66	29.887
478.01	28.352
478.36	29.537
478.70	29.860
479.05	30.466
479.40	30.005
479.75	29.118
480.10	29.373
480.45	29.230
480.79	29.467
481.14	29.838
481.49	29.896
481.84	28.322
482.19	28.346
482.53	29.143
482.88	29.099
483.23	27.960
483.58	28.497
483.92	28.405
484.27	27.630
484.62	28.628
484.97	28.536
485.31	28.220
485.66	26.590
486.01	28.008
486.36	27.591
486.70	28.316
487.05	29.192
487.40	29.033
487.75	28.768
488.09	28.621
488.44	28.391
488.79	28.236
489.13	27.276
489.48	27.063
489.83	26.932
490.17	26.918
490.52	28.237
490.87	27.075
491.22	27.320
491.56	27.887
491.91	26.980
492.26	26.838
492.60	26.118
492.95	27.454
493.30	26.647
493.64	25.995
493.99	27.101
494.34	26.975
494.68	26.730
495.03	25.247
495.37	26.326
495.72	26.717
496.07	26.400
496.41	25.409
496.76	26.691
497.11	25.493
497.45	26.800
497.80	26.148
498.14	26.146
498.49	25.265
498.84	26.670
499.18	25.933
499.53	26.292
499.87	25.425
500.22	25.983
500.56	26.530
500.91	26.308
501.26	25.074
501.60	25.882
501.95	25.395
502.29	25.000
502.64	25.796
502.98	24.904
503.33	26.326
503.67	25.414
504.02	24.951
504.36	25.310
504.71	25.000
505.06	25.471
505.40	24.485
505.75	25.890
506.09	24.681
506.44	25.151
506.78	25.190
507.13	25.416
507.47	24.602
507.82	23.967
508.16	25.594
508.51	24.329
508.85	24.520
509.19	24.233
509.54	25.094
509.88	24.355
510.23	24.000
510.57	24.947
510.92	25.485
511.26	25.028
511.61	24.424
511.95	23.870
512.30	24.486
512.64	25.085
512.98	24.543
513.33	25.296
513.67	24.872
514.02	25.143
514.36	23.989
514.70	24.307
515.05	24.342
515.39	23.998
515.74	23.742
516.08	23.894
516.42	23.963
516.77	23.023
517.11	24.280
517.46	24.430
517.80	24.334
518.14	24.127
518.49	24.051
518.83	23.449
519.17	22.831
519.52	23.824
519.86	23.922
520.20	23.105
520.55	24.378
520.89	24.162
521.23	23.526
521.58	24.336
521.92	23.130
522.26	23.162
522.61	22.754
522.95	23.899
523.29	23.365
523.64	23.458
523.98	22.236
524.32	23.125
524.66	22.662
525.01	23.657
525.35	23.041
525.69	23.393
526.04	22.932
526.38	23.773
526.72	22.880
527.06	23.146
527.41	23.494
527.75	21.963
528.09	24.506
528.43	23.338
528.78	22.287
529.12	23.480
529.46	23.736
529.80	23.689
530.15	22.780
530.49	23.181
530.83	23.900
531.17	22.123
531.51	22.252
531.86	22.629
532.20	23.156
532.54	23.034
532.88	23.349
533.22	22.155
533.57	22.715
533.91	22.839
534.25	24.479
534.59	22.136
534.93	22.832
535.27	23.312
535.62	23.289
535.96	22.707
536.30	23.072
536.64	21.463
536.98	22.425
537.32	21.566
537.66	23.061
538.01	21.983
538.35	22.514
538.69	22.140
539.03	21.812
539.37	21.932
539.71	23.056
540.05	21.592
540.39	21.679
540.73	22.905
541.07	22.313
541.42	21.886
541.76	22.327
542.10	21.869
542.44	21.830
542.78	22.831
543.12	21.698
543.46	21.562
543.80	21.317
544.14	22.092
544.48	21.632
544.82	21.856
545.16	21.231
545.50	21.607
545.84	21.739
546.18	20.757
546.52	22.089
546.86	20.777
547.20	21.158
547.54	21.658
547.88	21.390
548.22	21.433
548.56	21.348
548.90	20.974
549.24	21.667
549.58	21.281
549.92	21.643
550.26	22.435
550.60	21.547
550.94	20.970
551.28	20.969
551.62	21.203
551.96	21.010
552.30	20.378
552.64	20.551
552.98	21.449
553.32	20.908
553.66	21.570
554.00	20.302
554.34	20.586
554.68	20.880
555.02	22.605
555.36	20.877
555.69	21.413
556.03	21.301
556.37	20.128
556.71	20.322
557.05	20.812
557.39	21.100
557.73	20.197
558.07	20.045
558.41	20.818
558.75	21.632
559.08	19.727
559.42	20.535
559.76	20.719
560.10	20.523
560.44	20.855
560.78	20.216
561.12	20.392
561.45	20.340
561.79	20.014
562.13	20.675
562.47	20.929
562.81	20.274
563.15	20.184
563.48	20.096
563.82	20.520
564.16	20.244
564.50	21.031
564.84	20.338
565.17	20.596
565.51	19.719
565.85	19.187
566.19	20.596
566.52	20.183
566.86	19.406
567.20	21.075
567.54	19.804
567.88	19.429
568.21	19.880
568.55	19.092
568.89	19.840
569.23	19.707
569.56	20.943
569.90	20.169
570.24	19.458
570.57	20.300
570.91	20.273
571.25	20.287
571.59	20.114
571.92	20.651
572.26	20.018
572.60	19.957
572.93	19.806
573.27	19.982
573.61	20.299
573.95	20.148
574.28	20.443
574.62	20.217
574.96	20.300
575.29	20.286
575.63	20.100
575.97	20.516
576.30	20.182
576.64	20.147
576.98	20.610
577.31	20.382
577.65	19.837
577.98	19.988
578.32	19.922
578.66	19.767
578.99	20.352
579.33	19.990
579.67	19.756
580.00	19.975
580.34	20.019
580.67	20.309
581.01	20.079
581.35	19.599
581.68	19.837
582.02	19.928
582.35	20.158
582.69	20.193
583.02	19.574
583.36	20.424
583.70	20.169
584.03	20.410
584.37	20.219
584.70	20.133
585.04	20.118
585.37	19.587
585.71	19.971
586.04	19.774
586.38	19.890
586.72	20.062
587.05	20.446
587.39	20.011
587.72	19.973
588.06	20.055
588.39	19.647
588.73	19.465
589.06	19.399
589.40	20.021
589.73	19.260
590.07	19.504
590.40	19.690
590.73	19.773
591.07	19.557
591.40	19.174
591.74	19.475
592.07	19.763
592.41	19.520
592.74	19.329
593.08	18.838
593.41	19.236
593.75	18.831
594.08	19.136
594.41	19.634
594.75	19.265
595.08	19.716
595.42	18.361
595.75	19.270
596.09	19.169
596.42	19.077
596.75	19.307
597.09	19.154
597.42	19.964
597.75	19.067
598.09	18.898
598.42	19.195
598.76	18.724
599.09	19.088
599.42	18.844
599.76	19.339
600.09	18.675
600.42	19.209
600.76	19.512
601.09	18.832
601.42	18.895
601.76	19.498
602.09	18.403
602.42	19.851
602.76	18.414
603.09	18.932
603.42	18.992
603.76	18.550
604.09	18.893
604.42	18.292
604.76	18.333
605.09	19.166
605.42	18.848
605.75	18.715
606.09	18.088
606.42	18.121
606.75	18.658
607.09	18.794
607.42	19.002
607.75	18.556
608.08	19.116
608.42	18.744
608.75	19.207
609.08	18.765
609.41	18.877
609.75	18.507
610.08	18.195
610.41	18.950
610.74	17.757
611.07	18.036
611.41	19.345
611.74	18.841
612.07	18.082
612.40	18.703
612.73	18.441
613.07	18.625
613.40	18.502
613.73	18.472
614.06	18.463
614.39	17.287
614.72	19.045
615.06	17.778
615.39	18.102
615.72	17.981
616.05	18.694
616.38	17.812
616.71	18.176
617.05	19.042
617.38	17.437
617.71	17.953
618.04	17.855
618.37	18.423
618.70	17.853
619.03	17.182
619.36	18.505
619.69	18.494
620.03	18.799
620.36	18.024
620.69	17.059
621.02	17.615
621.35	17.580
621.68	17.685
622.01	18.366
622.34	17.446
622.67	18.324
623.00	17.933
623.33	17.577
623.66	15.985
623.99	17.404
624.32	18.048
624.65	18.546
624.99	17.708
625.32	18.297
625.65	17.132
625.98	17.694
626.31	18.694
626.64	15.907
626.97	18.945
627.30	17.194
627.63	15.744
627.96	15.844
628.29	16.930
628.62	17.408
628.95	17.034
629.28	16.355
629.61	18.278
629.94	17.795
630.26	17.241
630.59	17.483
630.92	16.466
631.25	15.757
631.58	18.308
631.91	15.270
632.24	16.136
632.57	17.667
632.90	16.569
633.23	16.307
633.56	16.667
633.89	17.225
634.22	18.846
634.55	17.783
634.88	16.176
635.20	17.625
635.53	15.504
635.86	17.949
636.19	16.625
636.52	16.098
636.85	16.647
637.18	15.834
637.51	15.980
637.83	16.449
638.16	15.467
638.49	14.686
638.82	16.078
639.15	16.489
639.48	16.310
639.81	17.083
640.13	17.324
640.46	16.949
640.79	15.971
641.12	15.976
641.45	14.702
641.77	15.169
642.10	16.641
642.43	14.780
642.76	15.931
643.09	15.974
643.41	18.182
643.74	15.670
644.07	15.696
644.40	14.594
644.73	17.288
645.05	14.660
645.38	14.950
645.71	16.497
646.04	13.300
646.36	15.799
646.69	16.259
647.02	14.390
647.35	15.722
647.67	15.527
648.00	15.942
648.33	15.254
648.66	13.856
648.98	15.994
649.31	15.798
649.64	15.493
649.96	14.850
650.29	15.196
650.62	15.651
650.94	16.207
651.27	14.134
651.60	15.559
651.92	15.591
652.25	17.420
652.58	15.347
652.90	17.340
653.23	14.092
653.56	15.207
653.88	13.311
654.21	14.334
654.54	15.781
654.86	14.797
655.19	14.426
655.52	18.117
655.84	16.627
656.17	20.654
656.49	27.219
656.82	27.685
657.15	21.344
657.47	15.521
657.80	11.645
658.13	12.642
658.45	18.705
658.78	18.354
659.10	18.434
659.43	18.155
659.75	17.848
660.08	17.517
660.41	15.517
660.73	16.253
661.06	14.456
661.38	16.473
661.71	14.344
662.03	18.393
662.36	14.823
662.68	15.699
663.01	14.195
663.33	13.823
663.66	13.082
663.98	15.730
664.31	13.407
664.63	11.486
664.96	14.004
665.28	18.884
665.61	13.607
665.93	10.493
666.26	15.823
666.58	13.490
666.91	15.695
667.23	15.207
667.56	15.402
667.88	12.850
668.21	14.286
668.53	15.632
668.86	15.588
669.18	13.712
669.50	15.207
669.83	11.456
670.15	13.571
670.48	12.874
670.80	17.943
671.13	14.416
671.45	13.927
671.77	14.655
672.10	12.086
672.42	15.267
672.75	13.929
673.07	14.545
673.39	14.179
673.72	14.970
674.04	15.574
674.37	15.854
674.69	13.992
675.01	14.530
675.34	13.348
675.66	15.468
675.98	14.159
676.31	14.027
676.63	14.512
676.95	13.647
677.28	14.679
677.60	14.706
677.92	13.525
678.25	17.354
678.57	16.904
678.89	11.727
679.22	14.286
679.54	16.735
679.86	15.234
680.18	13.462
680.51	15.192
680.83	14.035
681.15	15.717
681.48	12.625
681.80	16.155
682.12	13.958
682.44	15.292
682.77	13.053
683.09	14.063
683.41	13.488
683.73	13.616
684.06	14.602
684.38	14.316
684.70	13.442
685.02	16.736
685.34	16.634
685.67	14.071
685.99	14.057
686.31	14.655
686.63	15.257
686.96	15.584
687.28	13.772
687.60	15.690
687.92	14.008
688.24	14.200
688.56	15.351
688.89	13.140
689.21	13.229
689.53	10.135
689.85	14.607
690.17	13.187
690.49	13.043
690.82	11.933
691.14	12.319
691.46	16.009
691.78	15.824
692.10	15.074
692.42	12.527
692.74	13.478
693.06	10.562
693.39	14.286
693.71	15.111
694.03	17.955
694.35	14.865
694.67	15.250
694.99	15.206
695.31	15.762
695.63	17.561
695.95	12.723
696.27	12.877
696.59	12.097
696.91	9.497
697.23	12.944
697.56	14.388
697.88	17.256
698.20	15.767
698.52	14.019
698.84	15.072
699.16	12.530
699.48	13.580
699.80	18.346
700.12	13.137
700.44	11.549
700.76	12.360
701.08	15.710
701.40	12.275
701.72	14.769
702.04	10.692
702.36	12.500
702.68	10.976
703.00	16.959
703.32	11.421
703.64	12.349
703.96	11.730
704.28	15.060
704.60	10.671
704.91	12.853
705.23	16.456
705.55	10.000
705.87	11.268
706.19	12.088
706.51	12.676
706.83	8.280
707.15	10.976
707.47	13.499
707.79	12.437
708.11	11.825
708.43	15.990
708.74	15.426
709.06	14.706
709.38	14.409
709.70	13.213
710.02	12.773
710.34	11.000
710.66	11.726
710.98	9.598
711.29	16.234
711.61	11.935
711.93	12.903
712.25	11.888
712.57	11.228
712.89	12.821
713.20	16.312
713.52	11.679
713.84	13.871
714.16	11.650
714.48	10.127
714.80	13.419
715.11	16.570
715.43	12.112
715.75	13.354
716.07	13.253
716.39	14.141
716.70	19.424
717.02	7.843
717.34	12.879
717.66	8.621
717.97	7.540
718.29	12.992
718.61	7.725
718.93	8.527
719.24	13.284
719.56	8.614
719.88	13.433
720.20	13.043
720.51	11.328
720.83	14.786
721.15	9.350
721.46	10.687
721.78	10.757
722.10	11.554
722.42	9.677
722.73	10.039
723.05	9.796
723.37	10.504
723.68	11.200
724.00	5.532
724.32	11.297
724.63	13.169
724.95	12.393
725.27	13.924
725.58	15.638
725.90	10.460
726.22	11.594
726.53	7.059
726.85	14.964
727.16	11.481
727.48	10.345
727.80	15.625
728.11	8.197
728.43	11.328
728.74	12.698
729.06	10.000
729.38	10.277
729.69	12.811
730.01	10.781
730.32	12.915
730.64	10.227
730.96	16.084
731.27	12.375
731.59	11.111
731.90	9.709
732.22	12.179
732.53	12.838
732.85	15.101
733.16	14.191
733.48	11.486
733.80	11.149
734.11	14.865
734.43	13.313
734.74	14.114
735.06	13.545
735.37	10.334
735.69	13.592
736.00	14.191
736.32	9.929
736.63	12.414
736.95	13.356
737.26	11.724
737.58	11.458
737.89	12.371
738.21	11.388
738.52	8.745
738.83	14.694
739.15	14.768
739.46	13.619
739.78	9.859
740.09	8.904
740.41	12.143
740.72	10.638
741.04	7.600
741.35	12.281
741.66	12.889
741.98	12.019
742.29	12.871
742.61	8.780
742.92	9.211
743.23	12.264
743.55	11.261
743.86	8.520
744.18	9.314
744.49	7.614
744.80	8.163
745.12	13.551
745.43	10.900
745.74	14.865
746.06	10.280
746.37	7.798
746.68	10.577
747.00	11.962
747.31	12.019
747.62	8.716
747.94	16.157
748.25	13.303
748.56	16.889
748.88	13.146
749.19	11.905
749.50	5.825
749.82	10.329
750.13	7.083
750.44	4.615
750.75	7.749
751.07	13.523
751.38	15.248
751.69	10.039
752.01	9.375
752.32	10.769
752.63	11.194
752.94	11.200
753.26	9.205
753.57	13.750
753.88	9.717
754.19	13.546
754.51	9.023
754.82	8.425
755.13	9.565
755.44	13.008
755.75	8.000
756.07	10.701
756.38	7.914
756.69	6.143
757.00	14.953
757.31	9.385
757.63	8.025
757.94	10.169
758.25	13.757
758.56	13.043
758.87	12.202
759.18	14.196
759.50	11.111
759.81	13.378
760.12	13.538
760.43	11.012
760.74	12.994
761.05	12.431
761.36	12.894
761.67	10.876
761.99	9.622
762.30	11.314
762.61	10.700
762.92	13.675
763.23	11.475
763.54	16.017
763.85	8.571
764.16	11.382
764.47	10.000
764.78	13.571
765.10	11.475
765.41	13.374
765.72	14.286
766.03	11.551
766.34	6.923
766.65	10.879
766.96	11.737
767.27	11.386
767.58	3.371
767.89	6.173
768.20	10.497
768.51	14.573
768.82	11.058
769.13	11.504
769.44	12.971
769.75	5.556
770.06	9.417
770.37	11.275
770.68	15.534
770.99	8.738
771.30	12.605
771.61	9.388
771.92	13.693
772.23	10.811
772.54	4.420
772.85	5.233
773.16	17.460
773.47	5.917
773.78	9.195
774.09	8.750
774.39	6.211
774.70	12.925
775.01	3.448
775.32	5.714
775.63	12.782
775.94	-1.504
776.25	6.400
776.56	4.132
776.87	9.524
777.18	2.703
777.48	5.405
777.79	9.449
778.10	11.009
778.41	-3.509
778.72	-4.202
779.03	1.408
779.34	16.216
779.65	1.408
779.95	9.934
780.26	8.633
780.57	8.633
780.88	4.225
781.19	11.765
781.50	11.409
781.80	8.187
782.11	4.651
782.42	10.063
782.73	11.765
783.04	6.897
783.34	6.870
783.65	1.342
783.96	9.231
784.27	7.857
784.57	5.674
784.88	-7.692
785.19	14.545
785.50	1.818
785.81	-1.905
786.11	6.723
786.42	8.850
786.73	-5.660
787.04	-0.917
787.34	-7.921
787.65	10.833
787.96	9.091
788.26	8.696
788.57	-0.794
788.88	9.756
789.19	4.000
789.49	0.763
789.80	15.909
790.11	8.491
790.41	9.901
790.72	15.957
791.03	7.609
791.33	0.000
791.64	1.235
791.95	3.261
792.25	5.682
792.56	10.256
792.87	-3.846
793.17	-8.974
793.48	7.143
793.79	-1.250
794.09	8.654
794.40	8.333
794.70	2.703
795.01	0.781
795.32	6.087
795.62	-3.261
795.93	-1.887
796.23	7.071
796.54	0.000
796.85	8.333
797.15	16.667
797.46	2.899
797.76	2.632
798.07	5.682
798.37	-4.878
798.68	-12.903
798.99	2.703
799.29	-4.819
799.60	-8.974
799.90	10.769
800.21	3.030
800.51	-2.667
800.82	6.667
801.12	-22.917
801.43	-18.333
801.73	-6.757
802.04	22.857
802.34	-9.836
802.65	22.388
802.95	-5.455
803.26	-10.345
803.56	15.385
803.87	9.434
804.17	-1.613
804.48	2.941
804.78	-24.390
805.09	11.594
805.39	-1.471
805.70	-19.149
806.00	-8.772
806.30	10.256
806.61	13.158
806.91	6.757
807.22	2.632
807.52	12.500
807.83	-10.169
808.13	-18.182
808.43	-10.000
808.74	-22.414
809.04	-12.698
809.35	-16.327
809.65	5.000
809.95	-16.327
810.26	1.408
810.56	-18.750
810.86	-12.245
811.17	-3.846
811.47	-4.255
811.77	16.667
812.08	-7.547
812.38	-46.875
812.69	-5.455
812.99	-4.878
813.29	-24.324
813.59	-32.432
813.90	-12.727
814.20	-1.818
814.50	-15.000
814.81	-3.636
815.11	10.526
815.41	27.907
815.72	-27.500
816.02	-22.857
816.32	-27.027
816.62	-10.417
816.93	4.444
817.23	-13.333
817.53	-41.667
817.84	-35.135
818.14	-21.951
818.44	4.000
818.74	-12.245
819.04	-21.951
819.35	0.000
819.65	-13.636
819.95	-77.778
820.25	-18.182
820.56	-28.571
820.86	-8.333
821.16	-13.636
821.46	2.174
821.76	-15.517
822.07	-17.391
822.37	15.152
822.67	26.829
822.97	8.108
823.27	-11.429
823.57	3.448
823.88	-23.529
824.18	-11.111
824.48	-8.571
824.78	-42.857
825.08	-46.429
825.38	-22.222
825.69	-12.903
825.99	-24.390
826.29	-14.815
826.59	18.750
826.89	16.129
827.19	-39.130
827.49	-16.667
827.79	-8.696
828.09	-16.129
828.39	-10.417
828.70	-65.625
829.00	-20.690
829.30	-5.405
829.60	-50.000
829.90	40.741
830.20	-28.125
830.50	-22.727
830.80	-152.941
831.10	-50.000
831.40	-41.176
831.70	0.000
832.00	9.091
832.30	-5.882
832.60	-16.216
832.90	900.000
833.20	-21.429
833.50	-65.000
833.80	-15.789
834.10	-8.333
834.40	-45.455
834.70	-46.667
835.00	-90.000
835.30	-62.500
835.60	-42.857
835.90	0.000
836.20	-84.000
836.50	-16.667
836.80	-68.421
837.10	10.811
837.40	0.000
837.70	-17.391
838.00	-8.333
838.30	0.000
838.60	-180.000
838.90	-180.000
839.19	-41.667
839.49	7.692
839.79	-26.316
840.09	-333.333
840.39	-180.000
840.69	-9.091
840.99	0.000
841.29	-66.667
841.59	-53.846
841.88	-80.000
842.18	-64.286
842.48	20.000
842.78	-242.857
843.08	-64.286
843.38	-100.000
843.68	-37.500
843.97	64.286
844.27	-177.778
844.57	-127.273
844.87	-53.333
845.17	4.545
845.47	600.000
845.76	-46.667
846.06	-58.333
846.36	-1000.000
846.66	-26.316
846.96	4.545
847.25	-38.889
847.55	-200.000
847.85	-52.381
848.15	15.385
848.44	-283.333
848.74	-91.667
849.04	-100.000
849.34	-425.000
849.63	-90.909
849.93	-150.000
850.23	-5.000
850.53	-175.000
850.82	-44.444
851.12	-13.333
851.42	-64.706
851.71	-50.000
852.01	-41.176
852.31	-146.154
852.61	550.000
852.90	-29.412
853.20	-26.667
853.50	12.500
853.79	-157.143
854.09	-225.000
854.39	-55.000
854.68	-15.000
854.98	-23.810
855.28	-64.000
855.57	-25.000
855.87	-45.833
856.17	-24.000
856.46	-12.500
856.76	25.000
857.05	20.000
857.35	-116.667
857.65	-94.118
857.94	-133.333
858.24	-41.667
858.53	-40.000
858.83	-72.727
859.13	-16.000
859.42	-100.000
859.72	-200.000
860.01	8.333
860.31	-137.500
860.60	-37.500
860.90	-266.667
861.20	-83.333
861.49	-33.333
861.79	-25.000
862.08	525.000
862.38	-191.667
862.67	357.143
862.97	275.000
863.26	0.000
863.56	-90.909
863.85	15.789
864.15	-58.824
864.44	-160.000
864.74	-60.000
865.03	-100.000
865.33	-28.571
865.62	178.571
865.92	-15.789
866.21	-27.778
866.51	-90.909
866.80	-111.111
867.10	-250.000
867.39	-31.250
867.69	-120.000
867.98	-120.000
868.27	23.529
868.57	0.000
868.86	1150.000
869.16	-375.000
869.45	-242.857
869.75	200.000
870.04	-60.000
870.33	-900.000
870.63	-31.579
870.92	-58.333
871.22	-1100.000
871.51	-100.000
871.80	-100.000
872.10	-250.000
>>>>>End Processed Spectral Data<<<<<
