SpectraSuite Data File
++++++++++++++++++++++++++++++++++++
Date: Wed May 13 21:10:00 PDT 2015
User: schluterlab
Dark Spectrum Present: Yes
Reference Spectrum Present: Yes
Number of Sampled Component Spectra: 1
Spectrometers: USB2E3373
Integration Time (usec): 3000 (USB2E3373)
Spectra Averaged: 3 (USB2E3373)
Boxcar Smoothing: 0 (USB2E3373)
Correct for Electrical Dark: No (USB2E3373)
Strobe/Lamp Enabled: No (USB2E3373)
Correct for Detector Non-linearity: No (USB2E3373)
Correct for Stray Light: No (USB2E3373)
Number of Pixels in Processed Spectrum: 2048
>>>>>Begin Processed Spectral Data<<<<<
178.53	0.000
178.91	400.000
179.29	175.000
179.67	-900.000
180.04	-466.667
180.42	80.000
180.80	1200.000
181.18	250.000
181.56	-450.000
181.94	25.000
182.31	9.091
182.69	169.231
183.07	-140.000
183.45	283.333
183.83	233.333
184.20	200.000
184.58	200.000
184.96	466.667
185.34	142.857
185.72	0.000
186.09	-100.000
186.47	-160.000
186.85	200.000
187.23	150.000
187.61	550.000
187.98	1800.000
188.36	-112.500
188.74	0.000
189.12	-18.182
189.49	20.000
189.87	150.000
190.25	240.000
190.63	1600.000
191.00	-220.000
191.38	300.000
191.76	550.000
192.14	125.000
192.51	-31.579
192.89	566.667
193.27	425.000
193.65	-120.000
194.02	209.091
194.40	250.000
194.78	-800.000
195.15	160.000
195.53	-100.000
195.91	75.000
196.29	0.000
196.66	0.000
197.04	750.000
197.42	-120.000
197.79	40.000
198.17	-62.500
198.55	-166.667
198.92	-50.000
199.30	-300.000
199.68	-60.000
200.05	700.000
200.43	233.333
200.81	-1800.000
201.18	-360.000
201.56	-183.333
201.94	550.000
202.31	4.348
202.69	-42.857
203.07	-500.000
203.44	-60.000
203.82	-200.000
204.19	-70.000
204.57	0.000
204.95	-33.333
205.32	0.000
205.70	-450.000
206.08	-275.000
206.45	-216.667
206.83	200.000
207.20	-166.667
207.58	-10.000
207.96	-1200.000
208.33	-128.571
208.71	-2100.000
209.08	175.000
209.46	450.000
209.84	0.000
210.21	260.000
210.59	1300.000
210.96	400.000
211.34	600.000
211.71	-900.000
212.09	-200.000
212.46	-130.000
212.84	0.000
213.22	75.000
213.59	-600.000
213.97	-400.000
214.34	-750.000
214.72	-53.846
215.09	175.000
215.47	233.333
215.84	500.000
216.22	25.000
216.59	-600.000
216.97	666.667
217.34	122.222
217.72	0.000
218.09	200.000
218.47	500.000
218.84	-128.571
219.22	12.500
219.59	-66.667
219.97	-50.000
220.34	-25.000
220.72	60.000
221.09	0.000
221.47	-83.333
221.84	-600.000
222.22	0.000
222.59	1200.000
222.97	-166.667
223.34	16.667
223.72	-1500.000
224.09	-700.000
224.46	-63.636
224.84	-87.500
225.21	-42.857
225.59	-225.000
225.96	-150.000
226.34	-120.000
226.71	-157.143
227.08	550.000
227.46	12.500
227.83	-200.000
228.21	-25.000
228.58	-300.000
228.95	-29.412
229.33	75.000
229.70	-150.000
230.08	-61.538
230.45	-137.500
230.82	-116.667
231.20	228.571
231.57	-125.000
231.95	-100.000
232.32	-25.000
232.69	-11.765
233.07	-1400.000
233.44	13.043
233.81	-450.000
234.19	-4.167
234.56	-60.000
234.93	-46.667
235.31	-5.263
235.68	-123.077
236.05	-61.538
236.43	-11.111
236.80	-12.121
237.17	-80.000
237.55	-88.235
237.92	-31.034
238.29	-62.963
238.67	13.889
239.04	12.903
239.41	6.383
239.79	-12.766
240.16	0.000
240.53	0.000
240.91	-1.786
241.28	-1.786
241.65	-11.290
242.02	1.316
242.40	10.145
242.77	-4.348
243.14	2.564
243.51	-1.064
243.89	1.923
244.26	10.377
244.63	-1.923
245.00	-2.083
245.38	9.244
245.75	5.738
246.12	3.759
246.49	-4.878
246.87	-11.765
247.24	3.378
247.61	6.623
247.98	8.333
248.36	2.959
248.73	4.494
249.10	6.566
249.47	5.376
249.84	11.053
250.22	8.955
250.59	10.280
250.96	10.455
251.33	-2.871
251.70	10.460
252.08	9.205
252.45	11.934
252.82	11.787
253.19	6.615
253.56	7.914
253.94	9.609
254.31	7.746
254.68	6.711
255.05	8.911
255.42	5.944
255.79	8.896
256.16	11.356
256.54	6.984
256.91	4.747
257.28	8.805
257.65	4.140
258.02	6.158
258.39	9.064
258.76	5.233
259.14	5.398
259.51	7.865
259.88	7.317
260.25	7.778
260.62	3.933
260.99	10.610
261.36	11.140
261.73	9.136
262.10	5.344
262.47	7.654
262.85	8.209
263.22	8.718
263.59	5.714
263.96	7.786
264.33	6.250
264.70	8.837
265.07	9.259
265.44	9.425
265.81	8.238
266.18	6.834
266.55	6.550
266.92	8.263
267.29	7.819
267.66	8.493
268.03	10.288
268.40	6.568
268.77	6.612
269.14	9.388
269.51	12.320
269.88	8.147
270.25	8.263
270.62	7.377
270.99	9.646
271.36	7.341
271.73	9.639
272.10	8.190
272.47	9.789
272.84	10.433
273.21	7.045
273.58	5.123
273.95	8.491
274.32	11.007
274.69	9.107
275.06	10.954
275.43	7.533
275.80	9.574
276.17	7.366
276.54	7.993
276.91	10.279
277.28	6.137
277.65	9.266
278.02	8.750
278.39	7.815
278.76	8.528
279.13	9.434
279.50	8.966
279.87	8.696
280.23	9.910
280.60	7.093
280.97	8.604
281.34	9.937
281.71	7.967
282.08	7.350
282.45	8.033
282.82	7.827
283.19	10.213
283.56	10.000
283.92	11.315
284.29	9.204
284.66	9.061
285.03	7.166
285.40	9.215
285.77	9.159
286.14	8.663
286.51	8.246
286.87	7.231
287.24	8.112
287.61	8.735
287.98	8.235
288.35	6.259
288.72	8.895
289.08	9.972
289.45	7.930
289.82	9.531
290.19	8.976
290.56	6.534
290.93	6.906
291.29	7.250
291.66	7.104
292.03	7.357
292.40	8.614
292.77	10.442
293.13	8.647
293.50	7.712
293.87	9.600
294.24	8.069
294.60	7.932
294.97	9.921
295.34	6.860
295.71	6.307
296.08	4.319
296.44	8.418
296.81	7.552
297.18	8.000
297.55	7.429
297.91	8.820
298.28	6.901
298.65	7.143
299.02	8.547
299.38	6.748
299.75	7.452
300.12	5.698
300.48	7.018
300.85	7.275
301.22	6.620
301.59	7.394
301.95	6.504
302.32	7.001
302.69	5.989
303.05	5.426
303.42	5.909
303.79	7.992
304.15	6.462
304.52	8.172
304.89	5.648
305.25	6.586
305.62	6.941
305.99	8.487
306.35	8.150
306.72	7.325
307.09	7.299
307.45	7.029
307.82	5.895
308.19	6.479
308.55	5.629
308.92	7.466
309.29	7.808
309.65	5.894
310.02	7.157
310.38	6.809
310.75	7.594
311.12	8.260
311.48	6.429
311.85	7.382
312.22	7.737
312.58	6.860
312.95	7.264
313.31	8.540
313.68	7.347
314.05	8.318
314.41	7.589
314.78	7.590
315.14	9.352
315.51	7.897
315.87	7.785
316.24	9.642
316.61	8.858
316.97	8.148
317.34	8.556
317.70	9.634
318.07	9.583
318.43	10.569
318.80	9.599
319.16	9.814
319.53	10.484
319.89	10.569
320.26	11.183
320.62	10.287
320.99	11.337
321.35	12.535
321.72	12.223
322.08	13.376
322.45	13.876
322.81	14.140
323.18	14.848
323.54	14.531
323.91	15.357
324.27	15.392
324.64	14.983
325.00	16.448
325.37	17.918
325.73	16.414
326.10	16.905
326.46	18.311
326.83	18.204
327.19	19.268
327.56	20.467
327.92	20.434
328.29	21.369
328.65	22.174
329.01	21.724
329.38	23.304
329.74	21.974
330.11	22.904
330.47	22.830
330.84	24.097
331.20	23.655
331.56	25.362
331.93	24.289
332.29	26.586
332.66	24.915
333.02	25.369
333.38	25.877
333.75	26.365
334.11	26.562
334.48	25.458
334.84	26.590
335.20	26.587
335.57	26.023
335.93	26.546
336.29	26.445
336.66	26.325
337.02	26.696
337.38	27.328
337.75	26.012
338.11	26.302
338.47	27.997
338.84	27.491
339.20	27.778
339.56	27.304
339.93	28.868
340.29	27.498
340.65	27.802
341.02	27.038
341.38	28.716
341.74	27.479
342.11	26.837
342.47	27.531
342.83	27.451
343.20	27.157
343.56	28.128
343.92	28.920
344.28	28.084
344.65	27.592
345.01	27.441
345.37	28.865
345.73	29.984
346.10	27.769
346.46	27.642
346.82	28.250
347.19	29.351
347.55	28.756
347.91	27.670
348.27	27.681
348.63	28.365
349.00	27.280
349.36	28.807
349.72	29.002
350.08	28.783
350.45	29.444
350.81	28.795
351.17	29.176
351.53	29.065
351.89	27.323
352.26	27.645
352.62	28.992
352.98	28.834
353.34	29.469
353.70	28.660
354.07	28.471
354.43	28.694
354.79	29.487
355.15	28.571
355.51	27.259
355.87	29.476
356.24	28.491
356.60	29.242
356.96	28.473
357.32	29.334
357.68	28.724
358.04	28.394
358.40	29.225
358.77	29.052
359.13	30.350
359.49	28.917
359.85	29.568
360.21	28.682
360.57	28.897
360.93	29.514
361.29	28.793
361.66	29.461
362.02	28.984
362.38	29.616
362.74	28.644
363.10	29.646
363.46	28.458
363.82	29.342
364.18	28.281
364.54	29.322
364.90	28.780
365.26	29.441
365.62	29.048
365.98	29.609
366.35	29.787
366.71	29.886
367.07	29.128
367.43	29.686
367.79	28.978
368.15	30.098
368.51	29.114
368.87	30.286
369.23	29.039
369.59	30.021
369.95	29.390
370.31	30.056
370.67	28.892
371.03	30.141
371.39	30.660
371.75	29.429
372.11	29.843
372.47	28.983
372.83	29.265
373.19	29.640
373.55	30.202
373.91	29.986
374.27	29.876
374.63	30.370
374.99	29.944
375.35	30.137
375.71	29.484
376.07	31.186
376.42	30.281
376.78	30.449
377.14	30.780
377.50	31.226
377.86	29.947
378.22	30.910
378.58	30.958
378.94	31.312
379.30	29.731
379.66	31.196
380.02	30.392
380.38	29.518
380.74	31.321
381.09	31.062
381.45	30.895
381.81	30.992
382.17	30.876
382.53	30.523
382.89	31.484
383.25	30.802
383.61	31.053
383.97	30.937
384.32	29.805
384.68	30.105
385.04	30.238
385.40	31.694
385.76	31.265
386.12	29.890
386.48	31.034
386.83	31.101
387.19	30.969
387.55	31.576
387.91	30.935
388.27	30.826
388.62	30.524
388.98	31.101
389.34	30.764
389.70	30.647
390.06	30.938
390.42	31.250
390.77	31.582
391.13	31.503
391.49	31.183
391.85	31.374
392.20	31.140
392.56	30.540
392.92	31.012
393.28	30.622
393.64	31.009
393.99	29.927
394.35	31.049
394.71	31.090
395.07	29.937
395.42	31.200
395.78	30.373
396.14	31.642
396.50	29.994
396.85	30.274
397.21	30.524
397.57	29.752
397.92	31.018
398.28	30.513
398.64	30.115
399.00	31.027
399.35	31.158
399.71	30.810
400.07	30.964
400.42	30.219
400.78	30.634
401.14	30.472
401.49	31.336
401.85	30.098
402.21	30.464
402.57	30.472
402.92	31.602
403.28	31.019
403.63	30.254
403.99	30.518
404.35	31.047
404.70	30.030
405.06	30.358
405.42	30.214
405.77	30.127
406.13	30.743
406.49	29.958
406.84	31.319
407.20	30.728
407.55	30.260
407.91	30.245
408.27	29.694
408.62	30.755
408.98	30.148
409.34	29.579
409.69	29.695
410.05	30.100
410.40	29.641
410.76	30.084
411.11	30.535
411.47	30.458
411.83	29.258
412.18	30.164
412.54	30.263
412.89	30.784
413.25	29.086
413.60	31.160
413.96	30.649
414.31	29.901
414.67	30.159
415.03	30.108
415.38	29.921
415.74	29.825
416.09	31.395
416.45	29.802
416.80	30.940
417.16	30.297
417.51	30.007
417.87	29.299
418.22	29.670
418.58	28.384
418.93	30.069
419.29	30.363
419.64	29.962
420.00	30.222
420.35	29.647
420.71	29.129
421.06	29.705
421.42	29.988
421.77	29.191
422.12	29.914
422.48	28.735
422.83	29.592
423.19	29.672
423.54	29.564
423.90	30.582
424.25	31.138
424.61	30.253
424.96	29.687
425.31	29.052
425.67	30.100
426.02	30.153
426.38	30.597
426.73	29.383
427.09	30.206
427.44	29.536
427.79	29.394
428.15	29.419
428.50	29.668
428.85	30.074
429.21	29.207
429.56	29.330
429.92	29.932
430.27	29.959
430.62	29.119
430.98	29.085
431.33	29.608
431.68	30.138
432.04	29.972
432.39	29.446
432.74	29.368
433.10	29.924
433.45	28.521
433.80	30.115
434.16	29.328
434.51	30.163
434.86	29.800
435.22	30.051
435.57	28.624
435.92	29.855
436.28	28.529
436.63	29.099
436.98	30.259
437.34	30.220
437.69	29.162
438.04	28.353
438.39	30.324
438.75	29.023
439.10	29.555
439.45	29.358
439.81	29.988
440.16	30.261
440.51	29.429
440.86	29.520
441.22	29.260
441.57	29.555
441.92	29.290
442.27	28.571
442.63	28.902
442.98	28.125
443.33	30.079
443.68	29.889
444.03	29.111
444.39	29.103
444.74	29.376
445.09	29.295
445.44	29.352
445.79	29.479
446.15	29.118
446.50	30.231
446.85	30.037
447.20	29.064
447.55	28.819
447.91	28.933
448.26	28.588
448.61	28.884
448.96	29.784
449.31	29.298
449.66	29.844
450.02	30.244
450.37	29.612
450.72	28.875
451.07	29.530
451.42	29.507
451.77	28.911
452.12	28.877
452.47	29.955
452.83	29.186
453.18	29.344
453.53	28.752
453.88	29.217
454.23	29.975
454.58	27.696
454.93	28.929
455.28	29.094
455.63	27.885
455.98	29.763
456.34	28.226
456.69	29.776
457.04	28.978
457.39	28.623
457.74	28.306
458.09	28.199
458.44	29.083
458.79	29.325
459.14	28.539
459.49	29.146
459.84	27.790
460.19	27.551
460.54	28.832
460.89	29.505
461.24	28.792
461.59	28.865
461.94	28.951
462.29	28.370
462.64	28.628
462.99	28.840
463.34	28.039
463.69	28.866
464.04	28.932
464.39	28.920
464.74	28.624
465.09	27.650
465.44	28.676
465.79	28.350
466.14	28.791
466.49	28.622
466.84	28.033
467.19	28.217
467.54	28.775
467.89	28.158
468.24	29.502
468.59	27.980
468.94	28.991
469.29	27.429
469.64	27.824
469.99	29.655
470.34	27.579
470.68	27.732
471.03	27.645
471.38	28.929
471.73	28.669
472.08	28.041
472.43	29.222
472.78	28.803
473.13	26.913
473.48	27.984
473.83	29.441
474.17	28.516
474.52	27.638
474.87	27.141
475.22	28.140
475.57	27.830
475.92	28.081
476.27	28.497
476.61	27.180
476.96	28.041
477.31	28.101
477.66	27.910
478.01	26.538
478.36	27.520
478.70	27.873
479.05	28.912
479.40	28.497
479.75	27.949
480.10	28.098
480.45	26.925
480.79	27.227
481.14	27.305
481.49	27.232
481.84	26.909
482.19	26.633
482.53	27.524
482.88	27.709
483.23	27.526
483.58	27.977
483.92	27.091
484.27	26.441
484.62	27.341
484.97	27.540
485.31	26.507
485.66	25.484
486.01	25.508
486.36	25.551
486.70	26.324
487.05	26.321
487.40	26.616
487.75	26.845
488.09	27.119
488.44	26.849
488.79	27.479
489.13	26.799
489.48	26.678
489.83	27.155
490.17	26.645
490.52	28.144
490.87	27.399
491.22	27.179
491.56	28.366
491.91	26.884
492.26	27.224
492.60	27.321
492.95	27.648
493.30	27.374
493.64	26.523
493.99	27.295
494.34	27.264
494.68	27.112
495.03	26.383
495.37	27.007
495.72	26.967
496.07	26.985
496.41	26.205
496.76	26.965
497.11	27.089
497.45	28.307
497.80	27.612
498.14	27.406
498.49	26.021
498.84	26.619
499.18	27.327
499.53	26.489
499.87	26.201
500.22	26.680
500.56	27.282
500.91	27.264
501.26	27.685
501.60	26.618
501.95	26.210
502.29	27.136
502.64	27.146
502.98	27.601
503.33	26.764
503.67	26.826
504.02	26.716
504.36	26.994
504.71	26.982
505.06	26.490
505.40	26.701
505.75	27.263
506.09	26.571
506.44	27.571
506.78	27.019
507.13	27.183
507.47	27.200
507.82	26.269
508.16	27.177
508.51	26.240
508.85	27.009
509.19	26.825
509.54	27.775
509.88	27.043
510.23	26.632
510.57	26.801
510.92	27.640
511.26	27.503
511.61	26.345
511.95	27.122
512.30	26.874
512.64	27.866
512.98	27.202
513.33	26.817
513.67	26.860
514.02	27.537
514.36	26.629
514.70	26.963
515.05	27.911
515.39	26.651
515.74	27.235
516.08	26.785
516.42	26.555
516.77	26.479
517.11	25.985
517.46	28.151
517.80	26.695
518.14	27.618
518.49	26.823
518.83	26.730
519.17	26.807
519.52	28.468
519.86	27.201
520.20	27.714
520.55	27.861
520.89	26.818
521.23	29.103
521.58	27.497
521.92	27.090
522.26	27.586
522.61	27.925
522.95	27.461
523.29	27.048
523.64	27.718
523.98	26.747
524.32	26.717
524.66	25.974
525.01	27.457
525.35	27.584
525.69	27.833
526.04	27.492
526.38	27.597
526.72	27.613
527.06	27.724
527.41	26.671
527.75	27.170
528.09	28.114
528.43	28.155
528.78	26.163
529.12	27.749
529.46	26.296
529.80	28.155
530.15	25.869
530.49	27.089
530.83	28.165
531.17	26.438
531.51	26.096
531.86	26.626
532.20	27.016
532.54	27.448
532.88	27.774
533.22	26.869
533.57	26.755
533.91	26.968
534.25	26.693
534.59	27.156
534.93	26.849
535.27	26.242
535.62	27.303
535.96	27.066
536.30	26.463
536.64	26.452
536.98	25.999
537.32	26.121
537.66	28.138
538.01	25.798
538.35	26.036
538.69	25.953
539.03	25.503
539.37	25.956
539.71	26.603
540.05	26.113
540.39	27.392
540.73	25.838
541.07	25.918
541.42	25.455
541.76	26.725
542.10	25.999
542.44	26.750
542.78	26.718
543.12	26.819
543.46	26.399
543.80	25.662
544.14	26.290
544.48	25.348
544.82	26.026
545.16	25.355
545.50	26.063
545.84	26.227
546.18	26.157
546.52	26.323
546.86	25.724
547.20	25.375
547.54	25.232
547.88	26.383
548.22	24.560
548.56	25.484
548.90	25.710
549.24	25.764
549.58	26.050
549.92	26.999
550.26	25.756
550.60	25.300
550.94	26.493
551.28	26.117
551.62	26.165
551.96	25.549
552.30	24.818
552.64	24.788
552.98	26.847
553.32	24.441
553.66	26.779
554.00	24.478
554.34	24.615
554.68	25.951
555.02	25.299
555.36	26.551
555.69	25.346
556.03	24.732
556.37	24.893
556.71	25.298
557.05	24.428
557.39	24.642
557.73	26.399
558.07	25.772
558.41	26.268
558.75	26.636
559.08	25.902
559.42	25.570
559.76	25.535
560.10	25.288
560.44	25.055
560.78	23.957
561.12	25.438
561.45	24.218
561.79	24.415
562.13	25.527
562.47	24.357
562.81	25.397
563.15	25.142
563.48	25.671
563.82	23.940
564.16	24.983
564.50	24.627
564.84	24.459
565.17	24.967
565.51	24.866
565.85	24.783
566.19	24.967
566.52	24.246
566.86	24.147
567.20	24.740
567.54	23.431
567.88	23.236
568.21	24.172
568.55	23.579
568.89	23.131
569.23	23.098
569.56	22.862
569.90	22.354
570.24	21.949
570.57	22.006
570.91	22.104
571.25	22.261
571.59	21.557
571.92	21.854
572.26	22.008
572.60	22.267
572.93	21.993
573.27	21.804
573.61	22.056
573.95	21.655
574.28	21.681
574.62	21.155
574.96	21.875
575.29	21.289
575.63	21.628
575.97	22.364
576.30	21.558
576.64	21.666
576.98	21.241
577.31	21.467
577.65	20.742
577.98	20.898
578.32	21.291
578.66	21.168
578.99	21.737
579.33	21.864
579.67	21.461
580.00	21.068
580.34	20.868
580.67	21.485
581.01	21.035
581.35	20.852
581.68	20.784
582.02	20.937
582.35	20.764
582.69	21.024
583.02	21.177
583.36	21.154
583.70	21.298
584.03	21.785
584.37	20.984
584.70	21.145
585.04	21.482
585.37	20.753
585.71	21.032
586.04	20.902
586.38	20.758
586.72	21.467
587.05	20.925
587.39	21.477
587.72	21.250
588.06	21.423
588.39	21.299
588.73	21.570
589.06	21.435
589.40	21.672
589.73	20.805
590.07	21.145
590.40	21.280
590.73	21.759
591.07	21.396
591.40	21.130
591.74	21.521
592.07	22.182
592.41	22.094
592.74	21.836
593.08	20.205
593.41	21.516
593.75	20.963
594.08	21.520
594.41	20.951
594.75	21.177
595.08	21.434
595.42	20.580
595.75	20.897
596.09	21.286
596.42	21.446
596.75	22.027
597.09	22.202
597.42	21.938
597.75	22.044
598.09	21.903
598.42	22.058
598.76	21.704
599.09	21.769
599.42	21.299
599.76	21.029
600.09	20.896
600.42	20.942
600.76	20.806
601.09	21.055
601.42	21.129
601.76	21.351
602.09	21.929
602.42	21.874
602.76	21.015
603.09	21.314
603.42	20.912
603.76	20.928
604.09	21.107
604.42	20.929
604.76	21.126
605.09	21.568
605.42	21.727
605.75	21.242
606.09	21.109
606.42	21.114
606.75	20.866
607.09	20.833
607.42	21.454
607.75	20.525
608.08	21.280
608.42	20.993
608.75	21.405
609.08	21.362
609.41	21.510
609.75	21.785
610.08	20.661
610.41	21.283
610.74	21.415
611.07	21.894
611.41	22.671
611.74	21.946
612.07	21.574
612.40	22.649
612.73	21.240
613.07	21.563
613.40	21.311
613.73	21.668
614.06	21.061
614.39	21.568
614.72	22.432
615.06	21.833
615.39	21.302
615.72	21.382
616.05	21.453
616.38	22.337
616.71	20.816
617.05	22.604
617.38	21.380
617.71	21.385
618.04	21.085
618.37	21.956
618.70	22.251
619.03	21.168
619.36	21.993
619.69	21.930
620.03	21.908
620.36	22.338
620.69	20.914
621.02	21.538
621.35	21.504
621.68	22.494
622.01	24.029
622.34	21.729
622.67	22.631
623.00	22.264
623.33	21.765
623.66	21.190
623.99	22.656
624.32	22.230
624.65	22.849
624.99	20.500
625.32	22.255
625.65	21.860
625.98	22.986
626.31	22.041
626.64	22.184
626.97	22.145
627.30	22.669
627.63	22.405
627.96	21.818
628.29	22.419
628.62	23.114
628.95	22.745
629.28	22.463
629.61	24.402
629.94	23.888
630.26	24.532
630.59	21.978
630.92	22.490
631.25	23.378
631.58	22.912
631.91	21.527
632.24	22.942
632.57	21.444
632.90	24.037
633.23	22.902
633.56	25.180
633.89	25.000
634.22	25.324
634.55	22.777
634.88	25.245
635.20	23.875
635.53	22.093
635.86	23.718
636.19	22.581
636.52	23.049
636.85	23.040
637.18	21.681
637.51	23.720
637.83	22.977
638.16	22.933
638.49	23.899
638.82	23.529
639.15	23.936
639.48	22.861
639.81	23.056
640.13	24.085
640.46	25.141
640.79	23.597
641.12	23.817
641.45	24.309
641.77	23.564
642.10	23.752
642.43	25.314
642.76	24.606
643.09	25.080
643.41	23.923
643.74	23.586
644.07	23.625
644.40	25.041
644.73	24.915
645.05	23.211
645.38	25.083
645.71	24.150
646.04	22.054
646.36	24.132
646.69	23.427
647.02	27.140
647.35	26.691
647.67	25.139
648.00	23.188
648.33	24.915
648.66	20.868
648.98	25.000
649.31	22.853
649.64	22.066
649.96	23.697
650.29	21.895
650.62	22.570
650.94	22.759
651.27	24.028
651.60	22.902
651.92	24.731
652.25	22.111
652.58	24.752
652.90	22.222
653.23	21.222
653.56	21.488
653.88	21.672
654.21	21.160
654.54	22.591
654.86	23.089
655.19	20.728
655.52	20.890
655.84	17.147
656.17	21.156
656.49	27.797
656.82	27.762
657.15	21.165
657.47	16.039
657.80	11.781
658.13	12.653
658.45	18.964
658.78	18.937
659.10	18.661
659.43	19.077
659.75	20.147
660.08	19.310
660.41	19.980
660.73	21.488
661.06	20.748
661.38	21.124
661.71	23.566
662.03	25.370
662.36	23.673
662.68	22.366
663.01	26.059
663.33	23.110
663.66	21.286
663.98	25.393
664.31	22.637
664.63	20.721
664.96	24.070
665.28	24.678
665.61	21.814
665.93	23.769
666.26	27.215
666.58	23.555
666.91	26.682
667.23	23.963
667.56	24.138
667.88	24.766
668.21	24.554
668.53	24.598
668.86	26.859
669.18	22.931
669.50	23.733
669.83	25.776
670.15	22.619
670.48	20.920
670.80	28.009
671.13	24.714
671.45	26.941
671.77	23.060
672.10	20.663
672.42	23.664
672.75	19.464
673.07	23.636
673.39	22.201
673.72	23.553
674.04	24.590
674.37	22.967
674.69	20.370
675.01	22.650
675.34	25.164
675.66	23.747
675.98	25.000
676.31	23.982
676.63	23.356
676.95	22.588
677.28	22.936
677.60	24.020
677.92	25.721
678.25	22.560
678.57	25.458
678.89	20.469
679.22	21.739
679.54	22.449
679.86	22.070
680.18	22.308
680.51	20.192
680.83	20.663
681.15	18.861
681.48	23.246
681.80	19.836
682.12	20.417
682.44	20.523
682.77	20.421
683.09	20.089
683.41	20.000
683.73	22.098
684.06	21.903
684.38	18.803
684.70	18.737
685.02	22.727
685.34	25.049
685.67	23.265
685.99	21.708
686.31	21.034
686.63	21.691
686.96	21.707
687.28	20.758
687.60	22.117
687.92	20.817
688.24	21.400
688.56	20.833
688.89	21.604
689.21	22.197
689.53	18.243
689.85	22.697
690.17	21.099
690.49	21.981
690.82	23.150
691.14	20.531
691.46	22.042
691.78	19.780
692.10	21.231
692.42	18.462
692.74	23.913
693.06	18.202
693.39	16.628
693.71	20.444
694.03	22.500
694.35	22.072
694.67	22.000
694.99	23.454
695.31	21.447
695.63	21.220
695.95	20.102
696.27	21.096
696.59	20.161
696.91	20.670
697.23	21.066
697.56	23.022
697.88	18.503
698.20	23.542
698.52	18.925
698.84	18.660
699.16	21.513
699.48	22.716
699.80	22.481
700.12	22.788
700.44	21.690
700.76	22.191
701.08	21.450
701.40	21.557
701.72	23.385
702.04	21.698
702.36	18.293
702.68	20.732
703.00	24.561
703.32	22.284
703.64	21.687
703.96	21.408
704.28	21.084
704.60	21.646
704.91	21.944
705.23	22.468
705.55	17.586
705.87	23.944
706.19	20.513
706.51	20.423
706.83	18.471
707.15	21.951
707.47	20.937
707.79	20.812
708.11	20.051
708.43	22.335
708.74	19.947
709.06	19.786
709.38	21.614
709.70	20.420
710.02	23.988
710.34	17.000
710.66	19.870
710.98	21.053
711.29	20.130
711.61	20.323
711.93	17.097
712.25	18.881
712.57	17.895
712.89	20.879
713.20	26.241
713.52	18.978
713.84	16.774
714.16	22.006
714.48	16.139
714.80	17.572
715.11	24.419
715.43	17.702
715.75	25.155
716.07	22.289
716.39	21.886
716.70	20.144
717.02	15.686
717.34	22.348
717.66	19.828
717.97	17.857
718.29	18.110
718.61	18.455
718.93	24.419
719.24	21.402
719.56	17.228
719.88	16.791
720.20	20.553
720.51	19.141
720.83	26.459
721.15	13.821
721.46	22.137
721.78	18.725
722.10	16.335
722.42	18.145
722.73	19.305
723.05	19.184
723.37	22.269
723.68	14.800
724.00	15.745
724.32	17.992
724.63	18.930
724.95	10.684
725.27	25.316
725.58	22.222
725.90	19.665
726.22	17.754
726.53	13.333
726.85	22.628
727.16	19.630
727.48	20.690
727.80	21.875
728.11	26.230
728.43	19.531
728.74	16.270
729.06	14.400
729.38	20.158
729.69	20.996
730.01	24.907
730.32	19.557
730.64	14.773
730.96	25.175
731.27	16.054
731.59	19.365
731.90	17.476
732.22	14.103
732.53	15.878
732.85	17.450
733.16	18.482
733.48	21.622
733.80	17.568
734.11	19.932
734.43	18.576
734.74	22.823
735.06	16.138
735.37	20.669
735.69	20.065
736.00	16.832
736.32	19.858
736.63	20.000
736.95	20.548
737.26	16.897
737.58	19.792
737.89	17.526
738.21	17.438
738.52	14.068
738.83	19.592
739.15	17.722
739.46	12.840
739.78	14.789
740.09	17.123
740.41	14.643
740.72	18.440
741.04	14.800
741.35	12.281
741.66	20.444
741.98	22.596
742.29	23.762
742.61	12.683
742.92	21.491
743.23	14.151
743.55	16.667
743.86	13.901
744.18	17.647
744.49	17.259
744.80	17.857
745.12	23.832
745.43	20.853
745.74	17.568
746.06	15.421
746.37	16.514
746.68	11.058
747.00	18.660
747.31	19.712
747.62	17.431
747.94	18.341
748.25	16.055
748.56	17.333
748.88	19.249
749.19	23.333
749.50	13.592
749.82	13.615
750.13	10.833
750.44	16.154
750.75	14.022
751.07	21.708
751.38	19.149
751.69	15.830
752.01	17.578
752.32	16.538
752.63	14.552
752.94	18.000
753.26	17.992
753.57	15.833
753.88	15.385
754.19	16.733
754.51	18.421
754.82	16.484
755.13	10.870
755.44	16.260
755.75	18.000
756.07	17.343
756.38	16.906
756.69	19.113
757.00	15.576
757.31	14.563
757.63	12.654
757.94	18.927
758.25	19.048
758.56	16.304
758.87	15.774
759.18	17.350
759.50	18.182
759.81	18.060
760.12	16.000
760.43	13.988
760.74	15.819
761.05	15.470
761.36	13.467
761.67	16.314
761.99	14.089
762.30	14.599
762.61	11.523
762.92	16.239
763.23	20.492
763.54	15.152
763.85	14.694
764.16	11.382
764.47	14.800
764.78	12.500
765.10	11.803
765.41	16.717
765.72	12.733
766.03	13.201
766.34	16.154
766.65	14.644
766.96	15.023
767.27	18.812
767.58	11.236
767.89	12.346
768.20	14.917
768.51	20.101
768.82	19.712
769.13	19.912
769.44	14.644
769.75	14.103
770.06	11.659
770.37	16.176
770.68	14.563
770.99	10.194
771.30	15.546
771.61	11.020
771.92	19.917
772.23	13.964
772.54	15.470
772.85	13.372
773.16	22.751
773.47	11.834
773.78	14.943
774.09	19.375
774.39	18.012
774.70	18.367
775.01	13.793
775.32	12.143
775.63	11.278
775.94	8.271
776.25	8.000
776.56	8.264
776.87	19.841
777.18	6.306
777.48	16.216
777.79	18.110
778.10	15.596
778.41	13.158
778.72	8.403
779.03	10.563
779.34	19.595
779.65	15.493
779.95	5.960
780.26	16.547
780.57	17.986
780.88	7.746
781.19	11.765
781.50	13.423
781.80	9.357
782.11	12.209
782.42	11.321
782.73	15.033
783.04	7.586
783.34	9.160
783.65	9.396
783.96	10.769
784.27	15.714
784.57	7.092
784.88	3.846
785.19	29.091
785.50	13.636
785.81	10.476
786.11	6.723
786.42	12.389
786.73	7.547
787.04	6.422
787.34	9.901
787.65	15.833
787.96	14.876
788.26	18.116
788.57	11.111
788.88	11.382
789.19	6.400
789.49	5.344
789.80	20.455
790.11	9.434
790.41	12.871
790.72	10.638
791.03	14.130
791.33	4.706
791.64	8.642
791.95	-3.261
792.25	19.318
792.56	25.641
792.87	11.538
793.17	2.564
793.48	2.381
793.79	8.750
794.09	16.346
794.40	9.375
794.70	9.910
795.01	7.813
795.32	7.826
795.62	-4.348
795.93	2.830
796.23	9.091
796.54	2.439
796.85	0.000
797.15	18.182
797.46	10.145
797.76	6.579
798.07	9.091
798.37	6.098
798.68	-9.677
798.99	-6.757
799.29	13.253
799.60	10.256
799.90	4.615
800.21	31.818
800.51	4.000
800.82	8.000
801.12	-14.583
801.43	-6.667
801.73	9.459
802.04	20.000
802.34	-4.918
802.65	10.448
802.95	14.545
803.26	22.414
803.56	12.308
803.87	-3.774
804.17	12.903
804.48	7.353
804.78	-7.317
805.09	11.594
805.39	7.353
805.70	-8.511
806.00	19.298
806.30	25.641
806.61	17.105
806.91	17.568
807.22	10.526
807.52	17.045
807.83	-16.949
808.13	-13.636
808.43	3.333
808.74	-31.034
809.04	11.111
809.35	6.122
809.65	6.667
809.95	-4.082
810.26	15.493
810.56	6.250
810.86	4.082
811.17	19.231
811.47	-8.511
811.77	8.333
812.08	0.000
812.38	21.875
812.69	-9.091
812.99	7.317
813.29	-37.838
813.59	2.703
813.90	-5.455
814.20	5.455
814.50	3.333
814.81	5.455
815.11	1.754
815.41	32.558
815.72	7.500
816.02	-5.714
816.32	-8.108
816.62	6.250
816.93	0.000
817.23	-11.111
817.53	-19.444
817.84	2.703
818.14	-2.439
818.44	8.000
818.74	-6.122
819.04	21.951
819.35	-5.556
819.65	-13.636
819.95	-55.556
820.25	-18.182
820.56	-28.571
820.86	-25.000
821.16	-15.909
821.46	-19.565
821.76	12.069
822.07	15.217
822.37	21.212
822.67	31.707
822.97	29.730
823.27	-22.857
823.57	0.000
823.88	-23.529
824.18	30.556
824.48	11.429
824.78	4.762
825.08	-17.857
825.38	-14.815
825.69	-9.677
825.99	-9.756
826.29	7.407
826.59	21.875
826.89	19.355
827.19	-26.087
827.49	-25.000
827.79	-21.739
828.09	3.226
828.39	0.000
828.70	-15.625
829.00	-58.621
829.30	5.405
829.60	-50.000
829.90	-14.815
830.20	-37.500
830.50	40.909
830.80	-88.235
831.10	-45.455
831.40	-35.294
831.70	-11.538
832.00	12.121
832.30	-5.882
832.60	-13.514
832.90	-0.000
833.20	10.714
833.50	-40.000
833.80	-5.263
834.10	-16.667
834.40	-54.545
834.70	-100.000
835.00	-90.000
835.30	-29.167
835.60	-100.000
835.90	33.333
836.20	-36.000
836.50	-50.000
836.80	-42.105
837.10	0.000
837.40	3.333
837.70	-8.696
838.00	54.167
838.30	-42.105
838.60	-120.000
838.90	-160.000
839.19	0.000
839.49	-15.385
839.79	-21.053
840.09	-66.667
840.39	-60.000
840.69	-13.636
840.99	4.762
841.29	-45.833
841.59	-61.538
841.88	-93.333
842.18	57.143
842.48	3.333
842.78	-142.857
843.08	14.286
843.38	-137.500
843.68	-50.000
843.97	-21.429
844.27	-111.111
844.57	-63.636
844.87	-73.333
845.17	40.909
845.47	266.667
845.76	6.667
846.06	-116.667
846.36	-1550.000
846.66	-63.158
846.96	-40.909
847.25	-72.222
847.55	-200.000
847.85	-9.524
848.15	-38.462
848.44	-200.000
848.74	-108.333
849.04	-138.462
849.34	-250.000
849.63	-36.364
849.93	-107.143
850.23	0.000
850.53	-150.000
850.82	-27.778
851.12	-73.333
851.42	-41.176
851.71	-37.500
852.01	5.882
852.31	-15.385
852.61	850.000
852.90	-23.529
853.20	-26.667
853.50	-62.500
853.79	-92.857
854.09	-250.000
854.39	-35.000
854.68	2.500
854.98	-14.286
855.28	-20.000
855.57	0.000
855.87	0.000
856.17	-40.000
856.46	12.500
856.76	-25.000
857.05	20.000
857.35	-58.333
857.65	-23.529
857.94	-83.333
858.24	-41.667
858.53	-30.000
858.83	-118.182
859.13	4.000
859.42	-92.857
859.72	-100.000
860.01	12.500
860.31	-162.500
860.60	-75.000
860.90	-183.333
861.20	-200.000
861.49	-6.667
861.79	-50.000
862.08	400.000
862.38	-216.667
862.67	328.571
862.97	200.000
863.26	-63.636
863.56	-9.091
863.85	-15.789
864.15	-41.176
864.44	-380.000
864.74	-170.000
865.03	-177.778
865.33	0.000
865.62	142.857
865.92	10.526
866.21	-94.444
866.51	-118.182
866.80	-177.778
867.10	-162.500
867.39	6.250
867.69	-80.000
867.98	-80.000
868.27	-58.824
868.57	0.000
868.86	550.000
869.16	-325.000
869.45	-185.714
869.75	450.000
870.04	40.000
870.33	-1600.000
870.63	-31.579
870.92	-116.667
871.22	-600.000
871.51	-214.286
871.80	-122.222
872.10	-200.000
>>>>>End Processed Spectral Data<<<<<
