SpectraSuite Data File
++++++++++++++++++++++++++++++++++++
Date: Wed May 13 21:35:38 PDT 2015
User: schluterlab
Dark Spectrum Present: Yes
Reference Spectrum Present: Yes
Number of Sampled Component Spectra: 1
Spectrometers: USB2E3373
Integration Time (usec): 3000 (USB2E3373)
Spectra Averaged: 3 (USB2E3373)
Boxcar Smoothing: 0 (USB2E3373)
Correct for Electrical Dark: No (USB2E3373)
Strobe/Lamp Enabled: No (USB2E3373)
Correct for Detector Non-linearity: No (USB2E3373)
Correct for Stray Light: No (USB2E3373)
Number of Pixels in Processed Spectrum: 2048
>>>>>Begin Processed Spectral Data<<<<<
178.53	0.000
178.91	800.000
179.29	200.000
179.67	-850.000
180.04	-433.333
180.42	120.000
180.80	1800.000
181.18	233.333
181.56	-375.000
181.94	-375.000
182.31	-63.636
182.69	161.538
183.07	-80.000
183.45	383.333
183.83	200.000
184.20	157.143
184.58	-200.000
184.96	333.333
185.34	185.714
185.72	0.000
186.09	-1800.000
186.47	-320.000
186.85	260.000
187.23	-650.000
187.61	500.000
187.98	1700.000
188.36	-87.500
188.74	0.000
189.12	-63.636
189.49	-30.000
189.87	208.333
190.25	340.000
190.63	500.000
191.00	-100.000
191.38	420.000
191.76	500.000
192.14	200.000
192.51	-31.579
192.89	500.000
193.27	325.000
193.65	-240.000
194.02	209.091
194.40	190.000
194.78	-1300.000
195.15	320.000
195.53	-60.000
195.91	-150.000
196.29	0.000
196.66	0.000
197.04	350.000
197.42	-60.000
197.79	-30.000
198.17	-112.500
198.55	-433.333
198.92	275.000
199.30	-400.000
199.68	-40.000
200.05	700.000
200.43	266.667
200.81	-1300.000
201.18	-220.000
201.56	-233.333
201.94	500.000
202.31	13.043
202.69	-171.429
203.07	-766.667
203.44	-420.000
203.82	-433.333
204.19	-30.000
204.57	0.000
204.95	-216.667
205.32	0.000
205.70	-450.000
206.08	-375.000
206.45	-300.000
206.83	625.000
207.20	-333.333
207.58	-50.000
207.96	-1200.000
208.33	-228.571
208.71	-2600.000
209.08	275.000
209.46	150.000
209.84	0.000
210.21	180.000
210.59	2500.000
210.96	440.000
211.34	1100.000
211.71	-1200.000
212.09	-250.000
212.46	-130.000
212.84	-100.000
213.22	-150.000
213.59	-1500.000
213.97	-750.000
214.34	-500.000
214.72	-53.846
215.09	325.000
215.47	233.333
215.84	750.000
216.22	-100.000
216.59	-300.000
216.97	966.667
217.34	233.333
217.72	0.000
218.09	266.667
218.47	-1300.000
218.84	-42.857
219.22	-112.500
219.59	-100.000
219.97	-300.000
220.34	-75.000
220.72	-260.000
221.09	0.000
221.47	-133.333
221.84	-200.000
222.22	0.000
222.59	1400.000
222.97	-466.667
223.34	-150.000
223.72	-1100.000
224.09	-700.000
224.46	-118.182
224.84	-100.000
225.21	-214.286
225.59	-675.000
225.96	-183.333
226.34	-110.000
226.71	-271.429
227.08	700.000
227.46	-187.500
227.83	200.000
228.21	-62.500
228.58	-250.000
228.95	5.882
229.33	-12.500
229.70	-250.000
230.08	-100.000
230.45	-150.000
230.82	-125.000
231.20	157.143
231.57	-325.000
231.95	500.000
232.32	16.667
232.69	-35.294
233.07	-1700.000
233.44	-8.696
233.81	-500.000
234.19	-8.333
234.56	-126.667
234.93	-40.000
235.31	5.263
235.68	-84.615
236.05	-61.538
236.43	16.667
236.80	-21.212
237.17	-40.000
237.55	-35.294
237.92	-10.345
238.29	-40.741
238.67	0.000
239.04	-22.581
239.41	0.000
239.79	14.894
240.16	39.535
240.53	21.429
240.91	57.143
241.28	41.071
241.65	27.419
242.02	28.947
242.40	27.536
242.77	18.841
243.14	26.923
243.51	26.596
243.89	28.846
244.26	42.453
244.63	24.038
245.00	35.417
245.38	36.134
245.75	30.328
246.12	26.316
246.49	30.894
246.87	30.252
247.24	38.514
247.61	35.762
247.98	33.974
248.36	36.095
248.73	34.831
249.10	32.828
249.47	36.022
249.84	42.632
250.22	38.806
250.59	34.579
250.96	40.455
251.33	31.100
251.70	38.494
252.08	35.983
252.45	35.802
252.82	36.122
253.19	36.576
253.56	35.612
253.94	37.722
254.31	38.732
254.68	40.940
255.05	38.284
255.42	34.266
255.79	38.957
256.16	37.855
256.54	41.905
256.91	35.759
257.28	38.994
257.65	35.350
258.02	36.070
258.39	38.304
258.76	36.919
259.14	38.636
259.51	36.798
259.88	39.837
260.25	37.222
260.62	35.955
260.99	39.788
261.36	39.896
261.73	34.815
262.10	35.369
262.47	35.309
262.85	38.308
263.22	37.179
263.59	38.961
263.96	37.470
264.33	35.096
264.70	36.512
265.07	37.500
265.44	41.609
265.81	38.673
266.18	38.497
266.55	37.991
266.92	36.864
267.29	37.449
267.66	40.977
268.03	38.477
268.40	37.712
268.77	41.322
269.14	41.020
269.51	39.425
269.88	37.067
270.25	40.042
270.62	37.910
270.99	38.386
271.36	37.302
271.73	38.956
272.10	39.048
272.47	38.388
272.84	38.583
273.21	40.509
273.58	39.344
273.95	37.547
274.32	37.313
274.69	38.434
275.06	38.163
275.43	37.100
275.80	36.879
276.17	41.252
276.54	34.103
276.91	35.714
277.28	36.462
277.65	40.210
278.02	37.679
278.39	37.655
278.76	37.124
279.13	37.221
279.50	37.414
279.87	38.043
280.23	37.477
280.60	38.235
280.97	35.714
281.34	38.486
281.71	35.935
282.08	37.607
282.45	36.885
282.82	35.783
283.19	36.433
283.56	36.250
283.92	37.920
284.29	36.349
284.66	35.750
285.03	34.853
285.40	34.139
285.77	35.285
286.14	37.994
286.51	38.081
286.87	35.538
287.24	35.546
287.61	37.048
287.98	35.294
288.35	37.109
288.72	37.877
289.08	36.467
289.45	34.361
289.82	37.065
290.19	33.520
290.56	35.227
290.93	33.287
291.29	34.200
291.66	35.929
292.03	33.106
292.40	31.898
292.77	31.593
293.13	31.381
293.50	33.203
293.87	33.333
294.24	31.746
294.60	31.339
294.97	32.672
295.34	29.947
295.71	31.012
296.08	29.712
296.44	30.740
296.81	28.745
297.18	31.500
297.55	30.660
297.91	31.180
298.28	31.719
298.65	31.897
299.02	30.403
299.38	30.429
299.75	31.250
300.12	29.070
300.48	29.240
300.85	30.139
301.22	30.894
301.59	28.638
301.95	28.804
302.32	29.288
302.69	27.797
303.05	30.565
303.42	30.341
303.79	28.812
304.15	29.135
304.52	31.505
304.89	31.229
305.25	28.979
305.62	29.501
305.99	29.380
306.35	30.930
306.72	30.621
307.09	29.197
307.45	30.138
307.82	28.737
308.19	29.154
308.55	29.171
308.92	30.157
309.29	30.330
309.65	30.769
310.02	29.225
310.38	30.894
310.75	29.389
311.12	30.126
311.48	30.959
311.85	31.496
312.22	32.108
312.58	31.111
312.95	31.940
313.31	32.782
313.68	32.252
314.05	31.947
314.41	33.237
314.78	32.922
315.14	33.426
315.51	32.826
315.87	34.569
316.24	33.609
316.61	33.699
316.97	34.167
317.34	34.135
317.70	35.593
318.07	34.516
318.43	36.495
318.80	36.387
319.16	35.367
319.53	36.738
319.89	36.495
320.26	36.599
320.62	37.905
320.99	38.566
321.35	36.296
321.72	39.172
322.08	40.129
322.45	41.073
322.81	42.884
323.18	40.698
323.54	41.697
323.91	41.644
324.27	42.664
324.64	42.160
325.00	41.557
325.37	42.662
325.73	42.172
326.10	41.884
326.46	42.391
326.83	42.799
327.19	43.415
327.56	43.836
327.92	44.409
328.29	46.411
328.65	47.853
329.01	45.910
329.38	48.957
329.74	45.494
330.11	46.889
330.47	45.660
330.84	47.292
331.20	45.260
331.56	48.279
331.93	48.493
332.29	48.566
332.66	47.458
333.02	48.132
333.38	48.421
333.75	48.976
334.11	49.306
334.48	49.259
334.84	49.028
335.20	49.228
335.57	48.477
335.93	48.368
336.29	49.387
336.66	48.547
337.02	48.783
337.38	50.044
337.75	48.923
338.11	49.701
338.47	49.572
338.84	48.969
339.20	50.617
339.56	49.573
339.93	49.697
340.29	50.128
340.65	48.931
341.02	48.918
341.38	48.649
341.74	47.899
342.11	48.803
342.47	49.372
342.83	48.938
343.20	48.816
343.56	48.651
343.92	48.253
344.28	48.214
344.65	49.061
345.01	47.538
345.37	48.026
345.73	49.346
346.10	48.234
346.46	49.106
346.82	49.117
347.19	48.497
347.55	49.192
347.91	46.765
348.27	48.423
348.63	48.397
349.00	47.720
349.36	46.703
349.72	47.254
350.08	46.022
350.45	47.455
350.81	48.357
351.17	47.652
351.53	46.740
351.89	47.975
352.26	46.332
352.62	46.899
352.98	48.003
353.34	47.424
353.70	47.352
354.07	47.059
354.43	46.656
354.79	47.997
355.15	46.351
355.51	46.393
355.87	47.381
356.24	47.111
356.60	45.817
356.96	47.045
357.32	46.285
357.68	47.441
358.04	46.470
358.40	46.589
358.77	46.177
359.13	46.537
359.49	45.874
359.85	45.641
360.21	45.875
360.57	45.779
360.93	46.662
361.29	46.484
361.66	45.103
362.02	45.145
362.38	45.790
362.74	45.323
363.10	47.578
363.46	44.813
363.82	45.528
364.18	46.193
364.54	44.858
364.90	43.415
365.26	45.648
365.62	44.744
365.98	45.480
366.35	45.816
366.71	45.007
367.07	45.571
367.43	46.063
367.79	45.101
368.15	45.007
368.51	43.741
368.87	44.662
369.23	45.125
369.59	44.961
369.95	44.630
370.31	44.351
370.67	44.026
371.03	44.915
371.39	43.861
371.75	45.357
372.11	44.943
372.47	45.566
372.83	44.591
373.19	44.029
373.55	44.147
373.91	43.706
374.27	43.914
374.63	44.310
374.99	43.663
375.35	44.178
375.71	42.052
376.07	44.414
376.42	44.586
376.78	44.452
377.14	45.356
377.50	44.003
377.86	44.821
378.22	44.185
378.58	44.073
378.94	44.688
379.30	43.410
379.66	43.773
380.02	43.627
380.38	44.036
380.74	45.487
381.09	43.969
381.45	43.591
381.81	43.561
382.17	42.911
382.53	42.523
382.89	44.150
383.25	44.321
383.61	44.007
383.97	44.250
384.32	42.281
384.68	43.060
385.04	42.211
385.40	43.462
385.76	43.248
386.12	43.899
386.48	42.571
386.83	43.116
387.19	41.579
387.55	42.673
387.91	44.526
388.27	43.773
388.62	43.695
388.98	43.304
389.34	42.105
389.70	43.284
390.06	42.750
390.42	43.041
390.77	43.370
391.13	43.119
391.49	42.821
391.85	42.492
392.20	41.667
392.56	42.667
392.92	43.183
393.28	42.824
393.64	42.875
393.99	42.411
394.35	42.963
394.71	42.179
395.07	42.075
395.42	42.657
395.78	40.862
396.14	43.754
396.50	42.930
396.85	43.722
397.21	41.698
397.57	41.180
397.92	42.575
398.28	41.342
398.64	41.530
399.00	42.355
399.35	41.317
399.71	41.526
400.07	41.807
400.42	42.445
400.78	41.390
401.14	41.815
401.49	42.241
401.85	42.076
402.21	42.167
402.57	41.815
402.92	40.926
403.28	42.089
403.63	41.971
403.99	41.971
404.35	40.960
404.70	40.242
405.06	41.221
405.42	40.201
405.77	39.919
406.13	39.771
406.49	40.383
406.84	42.430
407.20	41.563
407.55	40.844
407.91	39.643
408.27	39.676
408.62	41.068
408.98	40.074
409.34	40.161
409.69	40.546
410.05	39.739
410.40	39.014
410.76	39.952
411.11	39.303
411.47	41.739
411.83	39.863
412.18	41.688
412.54	40.100
412.89	39.687
413.25	39.233
413.60	41.129
413.96	39.513
414.31	40.321
414.67	40.190
415.03	40.866
415.38	40.225
415.74	39.831
416.09	40.582
416.45	39.986
416.80	39.329
417.16	39.609
417.51	39.384
417.87	39.683
418.22	39.496
418.58	38.830
418.93	38.983
419.29	39.934
419.64	39.695
420.00	41.016
420.35	39.151
420.71	39.366
421.06	39.360
421.42	40.085
421.77	38.324
422.12	40.630
422.48	38.495
422.83	39.929
423.19	39.735
423.54	39.340
423.90	39.430
424.25	40.035
424.61	40.234
424.96	39.976
425.31	38.194
425.67	39.859
426.02	40.106
426.38	40.672
426.73	39.462
427.09	39.087
427.44	39.225
427.79	39.311
428.15	38.593
428.50	38.792
428.85	39.606
429.21	39.111
429.56	39.267
429.92	39.355
430.27	37.935
430.62	39.822
430.98	39.344
431.33	39.011
431.68	39.510
432.04	39.944
432.39	40.300
432.74	39.792
433.10	40.442
433.45	38.935
433.80	39.023
434.16	38.940
434.51	40.326
434.86	40.577
435.22	40.464
435.57	38.759
435.92	40.169
436.28	39.520
436.63	40.358
436.98	40.188
437.34	40.476
437.69	39.551
438.04	38.823
438.39	39.664
438.75	39.511
439.10	40.197
439.45	39.649
439.81	41.749
440.16	39.884
440.51	39.893
440.86	40.249
441.22	40.161
441.57	39.751
441.92	40.332
442.27	40.368
442.63	40.151
442.98	41.030
443.33	41.422
443.68	40.169
444.03	41.679
444.39	40.902
444.74	41.358
445.09	41.850
445.44	42.761
445.79	41.353
446.15	41.542
446.50	42.070
446.85	42.170
447.20	42.708
447.55	42.529
447.91	41.742
448.26	43.053
448.61	42.520
448.96	44.021
449.31	42.947
449.66	42.337
450.02	42.581
450.37	44.066
450.72	42.423
451.07	42.696
451.42	41.921
451.77	43.579
452.12	43.375
452.47	43.254
452.83	43.337
453.18	45.067
453.53	43.758
453.88	43.373
454.23	44.005
454.58	44.179
454.93	43.489
455.28	44.444
455.63	43.668
455.98	44.614
456.34	44.374
456.69	43.642
457.04	44.272
457.39	45.280
457.74	43.986
458.09	43.661
458.44	44.125
458.79	43.987
459.14	43.989
459.49	45.183
459.84	44.419
460.19	44.418
460.54	45.560
460.89	44.707
461.24	44.266
461.59	44.263
461.94	45.954
462.29	45.159
462.64	45.317
462.99	44.467
463.34	46.133
463.69	46.070
464.04	44.538
464.39	45.455
464.74	44.165
465.09	45.009
465.44	44.893
465.79	45.486
466.14	44.014
466.49	45.279
466.84	46.145
467.19	45.478
467.54	46.014
467.89	46.197
468.24	46.404
468.59	44.296
468.94	45.594
469.29	44.812
469.64	46.304
469.99	44.621
470.34	45.853
470.68	45.279
471.03	45.769
471.38	45.341
471.73	45.542
472.08	46.598
472.43	47.230
472.78	45.301
473.13	44.261
473.48	45.532
473.83	45.512
474.17	47.201
474.52	46.019
474.87	45.175
475.22	45.954
475.57	47.239
475.92	46.728
476.27	46.387
476.61	46.772
476.96	47.002
477.31	46.009
477.66	47.119
478.01	45.824
478.36	45.777
478.70	47.261
479.05	47.336
479.40	46.178
479.75	47.184
480.10	46.048
480.45	45.905
480.79	47.785
481.14	47.214
481.49	47.755
481.84	47.125
482.19	46.735
482.53	47.762
482.88	48.226
483.23	46.728
483.58	47.259
483.92	46.741
484.27	46.981
484.62	46.294
484.97	48.030
485.31	46.771
485.66	44.584
486.01	45.902
486.36	46.792
486.70	48.921
487.05	49.862
487.40	49.947
487.75	51.105
488.09	50.266
488.44	51.244
488.79	50.984
489.13	48.231
489.48	48.525
489.83	47.432
490.17	47.299
490.52	48.808
490.87	46.917
491.22	47.244
491.56	48.922
491.91	47.384
492.26	47.582
492.60	47.571
492.95	46.793
493.30	47.384
493.64	46.811
493.99	47.391
494.34	48.362
494.68	47.876
495.03	47.974
495.37	48.418
495.72	47.820
496.07	48.709
496.41	47.403
496.76	48.629
497.11	47.793
497.45	47.909
497.80	48.208
498.14	48.463
498.49	47.806
498.84	49.140
499.18	47.287
499.53	47.710
499.87	47.744
500.22	49.477
500.56	48.696
500.91	48.692
501.26	48.719
501.60	48.529
501.95	48.107
502.29	48.932
502.64	48.698
502.98	48.459
503.33	48.127
503.67	49.270
504.02	47.892
504.36	48.737
504.71	49.441
505.06	49.618
505.40	49.485
505.75	49.034
506.09	49.412
506.44	48.236
506.78	49.060
507.13	49.428
507.47	49.311
507.82	49.137
508.16	49.710
508.51	48.089
508.85	48.626
509.19	49.259
509.54	49.330
509.88	48.710
510.23	48.105
510.57	48.570
510.92	48.976
511.26	50.330
511.61	48.793
511.95	48.567
512.30	49.473
512.64	50.000
512.98	48.255
513.33	49.408
513.67	48.154
514.02	49.544
514.36	48.258
514.70	48.326
515.05	49.035
515.39	49.292
515.74	49.852
516.08	47.611
516.42	48.560
516.77	47.979
517.11	48.325
517.46	49.280
517.80	49.939
518.14	48.377
518.49	48.463
518.83	48.270
519.17	48.313
519.52	48.311
519.86	49.727
520.20	48.272
520.55	49.067
520.89	49.020
521.23	50.705
521.58	48.799
521.92	48.460
522.26	47.951
522.61	49.386
522.95	49.806
523.29	49.587
523.64	50.795
523.98	50.191
524.32	49.464
524.66	49.286
525.01	50.721
525.35	50.428
525.69	49.901
526.04	49.381
526.38	50.414
526.72	50.230
527.06	49.259
527.41	49.173
527.75	47.397
528.09	51.055
528.43	49.729
528.78	48.708
529.12	49.288
529.46	49.008
529.80	50.356
530.15	47.941
530.49	50.000
530.83	49.831
531.17	49.521
531.51	50.101
531.86	49.864
532.20	51.344
532.54	49.517
532.88	49.898
533.22	50.572
533.57	50.066
533.91	50.710
534.25	51.172
534.59	50.129
534.93	51.084
535.27	50.892
535.62	50.592
535.96	50.488
536.30	51.662
536.64	50.923
536.98	49.895
537.32	52.028
537.66	51.058
538.01	49.307
538.35	50.069
538.69	49.030
539.03	47.987
539.37	48.290
539.71	50.546
540.05	48.853
540.39	49.140
540.73	51.047
541.07	50.068
541.42	51.111
541.76	50.677
542.10	48.341
542.44	50.520
542.78	50.867
543.12	50.539
543.46	50.726
543.80	49.219
544.14	52.306
544.48	48.441
544.82	50.101
545.16	50.507
545.50	51.519
545.84	50.842
546.18	49.509
546.52	49.682
546.86	50.459
547.20	49.750
547.54	50.465
547.88	51.687
548.22	50.423
548.56	49.900
548.90	51.286
549.24	50.069
549.58	48.683
549.92	52.384
550.26	52.472
550.60	49.700
550.94	50.672
551.28	49.054
551.62	50.677
551.96	49.707
552.30	49.491
552.64	49.435
552.98	50.710
553.32	50.541
553.66	52.971
554.00	49.100
554.34	50.916
554.68	50.559
555.02	50.374
555.36	51.589
555.69	50.473
556.03	49.964
556.37	50.498
556.71	49.334
557.05	51.144
557.39	51.168
557.73	51.513
558.07	50.791
558.41	51.400
558.75	51.116
559.08	51.163
559.42	50.669
559.76	50.076
560.10	52.037
560.44	50.995
560.78	50.647
561.12	50.946
561.45	50.136
561.79	50.619
562.13	52.039
562.47	52.214
562.81	50.866
563.15	50.779
563.48	49.553
563.82	52.462
564.16	50.643
564.50	52.171
564.84	51.284
565.17	51.457
565.51	52.406
565.85	50.633
566.19	51.126
566.52	52.687
566.86	51.454
567.20	52.230
567.54	50.892
567.88	51.344
568.21	51.439
568.55	51.852
568.89	51.496
569.23	51.787
569.56	51.398
569.90	51.304
570.24	51.697
570.57	51.143
570.91	52.097
571.25	52.834
571.59	52.495
571.92	53.623
572.26	53.312
572.60	54.173
572.93	53.577
573.27	53.629
573.61	53.700
573.95	53.384
574.28	54.112
574.62	52.901
574.96	53.174
575.29	54.363
575.63	54.663
575.97	55.516
576.30	54.047
576.64	54.336
576.98	54.591
577.31	53.645
577.65	53.590
577.98	55.018
578.32	54.189
578.66	54.796
578.99	55.728
579.33	55.822
579.67	55.652
580.00	55.652
580.34	55.065
580.67	56.124
581.01	56.017
581.35	54.415
581.68	53.682
582.02	54.811
582.35	55.292
582.69	56.213
583.02	55.853
583.36	56.726
583.70	57.198
584.03	57.509
584.37	56.284
584.70	56.272
585.04	56.470
585.37	55.407
585.71	54.920
586.04	56.366
586.38	55.538
586.72	56.252
587.05	55.950
587.39	56.096
587.72	55.931
588.06	56.443
588.39	56.535
588.73	56.829
589.06	57.646
589.40	57.379
589.73	56.126
590.07	56.070
590.40	56.948
590.73	57.780
591.07	56.456
591.40	56.130
591.74	56.247
592.07	56.321
592.41	56.199
592.74	55.633
593.08	55.077
593.41	56.583
593.75	56.331
594.08	56.649
594.41	57.916
594.75	57.421
595.08	57.244
595.42	56.514
595.75	57.122
596.09	57.352
596.42	58.333
596.75	57.832
597.09	58.007
597.42	58.098
597.75	57.022
598.09	57.559
598.42	58.523
598.76	57.011
599.09	58.463
599.42	57.062
599.76	58.468
600.09	57.794
600.42	57.137
600.76	57.280
601.09	57.514
601.42	58.252
601.76	57.915
602.09	57.438
602.42	58.976
602.76	57.299
603.09	60.041
603.42	57.497
603.76	57.638
604.09	56.957
604.42	57.765
604.76	57.617
605.09	59.493
605.42	59.559
605.75	57.730
606.09	57.947
606.42	58.479
606.75	58.182
607.09	58.555
607.42	59.019
607.75	57.024
608.08	58.656
608.42	58.669
608.75	58.576
609.08	59.579
609.41	59.165
609.75	59.859
610.08	59.862
610.41	59.329
610.74	58.614
611.07	58.567
611.41	59.058
611.74	58.696
612.07	58.885
612.40	60.216
612.73	59.934
613.07	59.091
613.40	59.857
613.73	59.209
614.06	59.480
614.39	58.032
614.72	58.356
615.06	58.722
615.39	59.272
615.72	58.801
616.05	59.291
616.38	59.679
616.71	59.088
617.05	61.057
617.38	58.349
617.71	59.007
618.04	58.379
618.37	59.369
618.70	59.508
619.03	60.825
619.36	59.715
619.69	58.845
620.03	58.587
620.36	59.569
620.69	59.743
621.02	58.692
621.35	60.016
621.68	58.517
622.01	59.223
622.34	59.556
622.67	58.183
623.00	58.587
623.33	60.135
623.66	58.662
623.99	59.865
624.32	59.428
624.65	59.941
624.99	59.882
625.32	60.119
625.65	59.535
625.98	59.874
626.31	60.408
626.64	59.415
626.97	60.035
627.30	58.768
627.63	59.602
627.96	60.346
628.29	61.116
628.62	59.284
628.95	58.317
629.28	58.227
629.61	59.043
629.94	58.897
630.26	58.522
630.59	58.741
630.92	58.333
631.25	58.187
631.58	61.777
631.91	58.537
632.24	58.288
632.57	60.222
632.90	60.910
633.23	58.993
633.56	59.832
633.89	60.167
634.22	59.246
634.55	58.831
634.88	56.740
635.20	60.375
635.53	57.623
635.86	57.949
636.19	57.816
636.52	55.610
636.85	57.901
637.18	59.318
637.51	57.428
637.83	58.094
638.16	60.400
638.49	57.410
638.82	57.908
639.15	60.239
639.48	58.289
639.81	58.056
640.13	59.437
640.46	57.910
640.79	58.561
641.12	58.432
641.45	59.680
641.77	59.352
642.10	58.245
642.43	59.277
642.76	54.259
643.09	59.105
643.41	58.533
643.74	57.674
644.07	60.032
644.40	59.536
644.73	61.695
645.05	57.243
645.38	52.990
645.71	58.333
646.04	53.199
646.36	59.028
646.69	57.517
647.02	61.202
647.35	60.329
647.67	56.932
648.00	58.333
648.33	59.322
648.66	57.429
648.98	58.696
649.31	57.209
649.64	58.216
649.96	56.714
650.29	55.229
650.62	57.331
650.94	58.793
651.27	59.187
651.60	59.965
651.92	60.932
652.25	58.459
652.58	59.406
652.90	55.556
653.23	58.404
653.56	56.860
653.88	59.556
654.21	58.703
654.54	54.319
654.86	56.423
655.19	57.423
655.52	62.605
655.84	57.706
656.17	68.287
656.49	91.228
656.82	93.174
657.15	73.628
657.47	55.818
657.80	43.118
658.13	46.169
658.45	69.721
658.78	70.429
659.10	70.420
659.43	70.775
659.75	68.802
660.08	66.138
660.41	63.489
660.73	59.780
661.06	61.054
661.38	60.078
661.71	57.787
662.03	60.677
662.36	58.186
662.68	59.570
663.01	60.593
663.33	56.587
663.66	58.980
663.98	58.427
664.31	58.462
664.63	53.604
664.96	56.455
665.28	59.442
665.61	56.371
665.93	58.244
666.26	59.705
666.58	57.173
666.91	60.538
667.23	58.986
667.56	59.540
667.88	59.346
668.21	57.143
668.53	59.080
668.86	57.074
669.18	58.629
669.50	55.069
669.83	57.041
670.15	57.619
670.48	59.080
670.80	59.300
671.13	56.293
671.45	60.274
671.77	57.759
672.10	57.505
672.42	58.015
672.75	56.071
673.07	60.364
673.39	56.903
673.72	60.479
674.04	60.656
674.37	59.146
674.69	54.733
675.01	57.479
675.34	56.455
675.66	57.081
675.98	57.743
676.31	56.561
676.63	60.544
676.95	56.706
677.28	55.275
677.60	60.784
677.92	58.980
678.25	58.351
678.57	56.212
678.89	59.062
679.22	59.627
679.54	57.755
679.86	59.961
680.18	59.231
680.51	59.231
680.83	57.700
681.15	56.189
681.48	59.118
681.80	53.783
682.12	59.792
682.44	55.131
682.77	53.895
683.09	58.259
683.41	56.512
683.73	56.250
684.06	59.292
684.38	58.974
684.70	58.452
685.02	60.331
685.34	59.295
685.67	61.914
685.99	58.897
686.31	55.345
686.63	59.559
686.96	57.514
687.28	58.882
687.60	61.248
687.92	60.117
688.24	59.800
688.56	61.623
688.89	56.347
689.21	58.296
689.53	56.306
689.85	60.449
690.17	57.363
690.49	63.527
690.82	61.098
691.14	58.454
691.46	57.077
691.78	59.121
692.10	59.873
692.42	57.802
692.74	58.043
693.06	55.056
693.39	56.440
693.71	57.556
694.03	60.682
694.35	55.856
694.67	59.750
694.99	59.021
695.31	60.982
695.63	59.756
695.95	55.725
696.27	54.521
696.59	55.645
696.91	54.190
697.23	55.330
697.56	57.794
697.88	53.846
698.20	59.179
698.52	56.776
698.84	57.177
699.16	56.501
699.48	58.765
699.80	58.398
700.12	59.786
700.44	57.183
700.76	55.337
701.08	60.423
701.40	59.281
701.72	54.154
702.04	59.119
702.36	57.012
702.68	55.488
703.00	54.094
703.32	55.989
703.64	62.349
703.96	56.598
704.28	56.928
704.60	56.707
704.91	56.740
705.23	55.696
705.55	56.552
705.87	51.761
706.19	57.509
706.51	58.099
706.83	53.822
707.15	54.878
707.47	58.127
707.79	55.076
708.11	58.869
708.43	58.376
708.74	54.255
709.06	57.219
709.38	57.637
709.70	53.453
710.02	56.698
710.34	54.333
710.66	54.723
710.98	54.180
711.29	55.519
711.61	54.839
711.93	50.968
712.25	53.147
712.57	50.175
712.89	53.846
713.20	56.738
713.52	58.394
713.84	52.258
714.16	55.663
714.48	51.899
714.80	53.035
715.11	57.267
715.43	57.453
715.75	58.385
716.07	53.916
716.39	57.576
716.70	55.036
717.02	54.902
717.34	50.758
717.66	51.293
717.97	47.619
718.29	54.724
718.61	56.223
718.93	53.488
719.24	56.458
719.56	51.685
719.88	53.731
720.20	59.684
720.51	59.375
720.83	56.420
721.15	50.407
721.46	53.053
721.78	52.590
722.10	54.183
722.42	56.048
722.73	57.529
723.05	53.061
723.37	57.983
723.68	52.800
724.00	49.787
724.32	49.791
724.63	55.967
724.95	52.991
725.27	55.274
725.58	57.613
725.90	54.393
726.22	54.348
726.53	54.118
726.85	58.394
727.16	54.074
727.48	55.172
727.80	52.344
728.11	50.000
728.43	51.953
728.74	54.365
729.06	51.600
729.38	57.312
729.69	52.313
730.01	53.532
730.32	58.303
730.64	54.167
730.96	53.846
731.27	51.505
731.59	54.921
731.90	52.751
732.22	51.603
732.53	52.027
732.85	53.691
733.16	52.805
733.48	51.351
733.80	54.054
734.11	56.757
734.43	51.393
734.74	57.658
735.06	55.620
735.37	53.495
735.69	52.104
736.00	53.135
736.32	52.128
736.63	54.828
736.95	51.712
737.26	52.414
737.58	53.819
737.89	58.076
738.21	50.890
738.52	56.654
738.83	54.286
739.15	53.165
739.46	53.696
739.78	47.535
740.09	52.740
740.41	51.429
740.72	52.128
741.04	52.400
741.35	49.561
741.66	51.111
741.98	51.923
742.29	58.911
742.61	51.707
742.92	61.842
743.23	50.000
743.55	53.153
743.86	47.982
744.18	57.353
744.49	54.315
744.80	50.510
745.12	45.794
745.43	52.607
745.74	53.153
746.06	47.196
746.37	54.587
746.68	50.481
747.00	56.459
747.31	53.365
747.62	50.000
747.94	54.148
748.25	52.752
748.56	52.889
748.88	54.460
749.19	50.476
749.50	47.087
749.82	54.460
750.13	47.083
750.44	52.692
750.75	53.137
751.07	55.872
751.38	50.709
751.69	52.124
752.01	55.469
752.32	49.615
752.63	55.597
752.94	51.600
753.26	49.372
753.57	57.083
753.88	56.680
754.19	52.590
754.51	48.496
754.82	47.985
755.13	51.304
755.44	52.846
755.75	55.600
756.07	51.292
756.38	49.281
756.69	54.608
757.00	50.779
757.31	53.398
757.63	51.852
757.94	55.932
758.25	51.852
758.56	53.533
758.87	47.917
759.18	54.259
759.50	49.495
759.81	55.184
760.12	53.538
760.43	50.298
760.74	50.565
761.05	51.381
761.36	50.716
761.67	53.776
761.99	55.326
762.30	51.095
762.61	49.383
762.92	57.692
763.23	51.230
763.54	51.515
763.85	51.020
764.16	47.967
764.47	48.800
764.78	46.786
765.10	52.787
765.41	51.976
765.72	50.000
766.03	48.845
766.34	55.769
766.65	56.067
766.96	49.296
767.27	50.495
767.58	44.944
767.89	57.407
768.20	51.381
768.51	47.739
768.82	54.808
769.13	50.885
769.44	53.975
769.75	44.872
770.06	50.224
770.37	52.451
770.68	50.971
770.99	56.311
771.30	49.160
771.61	52.653
771.92	51.867
772.23	50.000
772.54	43.646
772.85	48.837
773.16	46.561
773.47	47.337
773.78	54.023
774.09	46.250
774.39	43.478
774.70	49.660
775.01	48.966
775.32	52.143
775.63	51.128
775.94	37.594
776.25	48.800
776.56	53.719
776.87	50.000
777.18	45.946
777.48	48.649
777.79	45.669
778.10	44.037
778.41	48.246
778.72	49.580
779.03	33.803
779.34	52.027
779.65	46.479
779.95	50.993
780.26	50.360
780.57	41.007
780.88	37.324
781.19	51.261
781.50	50.336
781.80	49.123
782.11	47.674
782.42	57.233
782.73	54.248
783.04	44.828
783.34	51.145
783.65	44.966
783.96	58.462
784.27	45.714
784.57	42.553
784.88	36.538
785.19	49.091
785.50	46.364
785.81	51.429
786.11	41.176
786.42	38.053
786.73	41.509
787.04	33.945
787.34	41.584
787.65	47.500
787.96	39.669
788.26	40.580
788.57	41.270
788.88	46.341
789.19	44.000
789.49	35.878
789.80	34.848
790.11	41.509
790.41	49.505
790.72	34.043
791.03	40.217
791.33	35.294
791.64	48.148
791.95	46.739
792.25	48.864
792.56	50.000
792.87	33.333
793.17	26.923
793.48	28.571
793.79	36.250
794.09	51.923
794.40	48.958
794.70	49.550
795.01	44.531
795.32	44.348
795.62	34.783
795.93	41.509
796.23	36.364
796.54	29.268
796.85	34.524
797.15	33.333
797.46	20.290
797.76	48.684
798.07	39.773
798.37	39.024
798.68	33.871
798.99	37.838
799.29	38.554
799.60	32.051
799.90	36.923
800.21	27.273
800.51	37.333
800.82	40.000
801.12	10.417
801.43	28.333
801.73	16.216
802.04	38.571
802.34	24.590
802.65	37.313
802.95	18.182
803.26	25.862
803.56	32.308
803.87	45.283
804.17	32.258
804.48	38.235
804.78	39.024
805.09	31.884
805.39	33.824
805.70	31.915
806.00	21.053
806.30	33.333
806.61	25.000
806.91	28.378
807.22	36.842
807.52	32.955
807.83	42.373
808.13	24.242
808.43	23.333
808.74	13.793
809.04	28.571
809.35	28.571
809.65	31.667
809.95	14.286
810.26	46.479
810.56	25.000
810.86	14.286
811.17	50.000
811.47	25.532
811.77	18.750
812.08	18.868
812.38	21.875
812.69	23.636
812.99	0.000
813.29	21.622
813.59	8.108
813.90	20.000
814.20	34.545
814.50	23.333
814.81	40.000
815.11	43.860
815.41	41.860
815.72	20.000
816.02	25.714
816.32	24.324
816.62	56.250
816.93	53.333
817.23	28.889
817.53	8.333
817.84	0.000
818.14	17.073
818.44	10.000
818.74	22.449
819.04	26.829
819.35	2.778
819.65	27.273
819.95	22.222
820.25	12.121
820.56	-7.143
820.86	5.556
821.16	4.545
821.46	21.739
821.76	-3.448
822.07	36.957
822.37	3.030
822.67	29.268
822.97	16.216
823.27	-17.143
823.57	48.276
823.88	-23.529
824.18	11.111
824.48	22.857
824.78	19.048
825.08	17.857
825.38	-22.222
825.69	29.032
825.99	31.707
826.29	44.444
826.59	15.625
826.89	-9.677
827.19	-17.391
827.49	5.556
827.79	-8.696
828.09	19.355
828.39	18.750
828.70	-12.500
829.00	6.897
829.30	37.838
829.60	-16.667
829.90	51.852
830.20	-3.125
830.50	-13.636
830.80	-52.941
831.10	-9.091
831.40	-2.941
831.70	-3.846
832.00	6.061
832.30	0.000
832.60	32.432
832.90	900.000
833.20	28.571
833.50	-25.000
833.80	7.895
834.10	-16.667
834.40	-36.364
834.70	-46.667
835.00	-20.000
835.30	-16.667
835.60	-23.810
835.90	-19.048
836.20	0.000
836.50	16.667
836.80	-42.105
837.10	13.514
837.40	16.667
837.70	-21.739
838.00	45.833
838.30	-15.789
838.60	-110.000
838.90	-160.000
839.19	-41.667
839.49	-7.692
839.79	-21.053
840.09	-216.667
840.39	-120.000
840.69	-90.909
840.99	-14.286
841.29	-75.000
841.59	-53.846
841.88	-60.000
842.18	-35.714
842.48	20.000
842.78	-242.857
843.08	-14.286
843.38	-112.500
843.68	-56.250
843.97	42.857
844.27	-155.556
844.57	-100.000
844.87	-93.333
845.17	18.182
845.47	500.000
845.76	-33.333
846.06	-116.667
846.36	-800.000
846.66	-52.632
846.96	-72.727
847.25	-88.889
847.55	-166.667
847.85	-38.095
848.15	-23.077
848.44	-333.333
848.74	-83.333
849.04	-100.000
849.34	-250.000
849.63	-90.909
849.93	-157.143
850.23	5.000
850.53	-125.000
850.82	11.111
851.12	6.667
851.42	-135.294
851.71	-100.000
852.01	-52.941
852.31	-23.077
852.61	500.000
852.90	-35.294
853.20	0.000
853.50	12.500
853.79	-64.286
854.09	-125.000
854.39	15.000
854.68	-2.500
854.98	-23.810
855.28	-4.000
855.57	-8.333
855.87	-4.167
856.17	-24.000
856.46	-18.750
856.76	20.000
857.05	8.000
857.35	-33.333
857.65	-58.824
857.94	-150.000
858.24	-75.000
858.53	-40.000
858.83	-81.818
859.13	24.000
859.42	7.143
859.72	-100.000
860.01	-16.667
860.31	-162.500
860.60	-31.250
860.90	-250.000
861.20	-66.667
861.49	20.000
861.79	-12.500
862.08	275.000
862.38	-133.333
862.67	242.857
862.97	350.000
863.26	-81.818
863.56	-109.091
863.85	-10.526
864.15	-58.824
864.44	-180.000
864.74	-60.000
865.03	-200.000
865.33	-14.286
865.62	178.571
865.92	-10.526
866.21	-61.111
866.51	-63.636
866.80	-122.222
867.10	-125.000
867.39	25.000
867.69	-120.000
867.98	-130.000
868.27	0.000
868.57	0.000
868.86	1050.000
869.16	-250.000
869.45	-200.000
869.75	550.000
870.04	-110.000
870.33	-1800.000
870.63	-21.053
870.92	-41.667
871.22	-400.000
871.51	-42.857
871.80	-144.444
872.10	-425.000
>>>>>End Processed Spectral Data<<<<<
