SpectraSuite Data File
++++++++++++++++++++++++++++++++++++
Date: Wed May 13 21:33:55 PDT 2015
User: schluterlab
Dark Spectrum Present: Yes
Reference Spectrum Present: Yes
Number of Sampled Component Spectra: 1
Spectrometers: USB2E3373
Integration Time (usec): 3000 (USB2E3373)
Spectra Averaged: 3 (USB2E3373)
Boxcar Smoothing: 0 (USB2E3373)
Correct for Electrical Dark: No (USB2E3373)
Strobe/Lamp Enabled: No (USB2E3373)
Correct for Detector Non-linearity: No (USB2E3373)
Correct for Stray Light: No (USB2E3373)
Number of Pixels in Processed Spectrum: 2048
>>>>>Begin Processed Spectral Data<<<<<
178.53	0.000
178.91	650.000
179.29	175.000
179.67	-1100.000
180.04	-700.000
180.42	200.000
180.80	1200.000
181.18	250.000
181.56	-400.000
181.94	-200.000
182.31	-72.727
182.69	161.538
183.07	-100.000
183.45	183.333
183.83	100.000
184.20	157.143
184.58	-100.000
184.96	533.333
185.34	300.000
185.72	0.000
186.09	-1900.000
186.47	-180.000
186.85	240.000
187.23	-450.000
187.61	900.000
187.98	1700.000
188.36	-200.000
188.74	0.000
189.12	-45.455
189.49	-10.000
189.87	125.000
190.25	540.000
190.63	1300.000
191.00	-140.000
191.38	380.000
191.76	250.000
192.14	141.667
192.51	-36.842
192.89	500.000
193.27	350.000
193.65	-240.000
194.02	136.364
194.40	160.000
194.78	-1000.000
195.15	280.000
195.53	-160.000
195.91	-150.000
196.29	-300.000
196.66	0.000
197.04	400.000
197.42	-240.000
197.79	-20.000
198.17	-212.500
198.55	-666.667
198.92	225.000
199.30	-433.333
199.68	-80.000
200.05	700.000
200.43	100.000
200.81	-1100.000
201.18	-160.000
201.56	-83.333
201.94	475.000
202.31	-26.087
202.69	-100.000
203.07	-466.667
203.44	-180.000
203.82	-400.000
204.19	30.000
204.57	0.000
204.95	66.667
205.32	0.000
205.70	-100.000
206.08	-300.000
206.45	-283.333
206.83	500.000
207.20	-666.667
207.58	-40.000
207.96	-500.000
208.33	-171.429
208.71	-1300.000
209.08	237.500
209.46	600.000
209.84	0.000
210.21	150.000
210.59	1300.000
210.96	220.000
211.34	1500.000
211.71	-1150.000
212.09	-233.333
212.46	-210.000
212.84	-266.667
213.22	-150.000
213.59	-1100.000
213.97	-800.000
214.34	-1050.000
214.72	-30.769
215.09	237.500
215.47	222.222
215.84	750.000
216.22	-187.500
216.59	-650.000
216.97	466.667
217.34	200.000
217.72	0.000
218.09	200.000
218.47	-400.000
218.84	-85.714
219.22	-112.500
219.59	-266.667
219.97	-300.000
220.34	-87.500
220.72	-100.000
221.09	0.000
221.47	-16.667
221.84	-1100.000
222.22	0.000
222.59	2000.000
222.97	-433.333
223.34	-75.000
223.72	-1300.000
224.09	-350.000
224.46	9.091
224.84	37.500
225.21	-14.286
225.59	-325.000
225.96	-33.333
226.34	-40.000
226.71	-242.857
227.08	1000.000
227.46	-137.500
227.83	-200.000
228.21	-31.250
228.58	175.000
228.95	-47.059
229.33	-56.250
229.70	-125.000
230.08	-61.538
230.45	-112.500
230.82	-116.667
231.20	285.714
231.57	-475.000
231.95	1200.000
232.32	16.667
232.69	-11.765
233.07	-2200.000
233.44	-65.217
233.81	-300.000
234.19	-12.500
234.56	-46.667
234.93	-26.667
235.31	21.053
235.68	-146.154
236.05	-76.923
236.43	-44.444
236.80	-18.182
237.17	-33.333
237.55	-88.235
237.92	-20.690
238.29	-51.852
238.67	-2.778
239.04	16.129
239.41	-6.383
239.79	12.766
240.16	18.605
240.53	-5.357
240.91	26.786
241.28	17.857
241.65	14.516
242.02	5.263
242.40	7.246
242.77	10.145
243.14	12.821
243.51	13.830
243.89	9.615
244.26	25.472
244.63	13.462
245.00	15.625
245.38	15.126
245.75	19.672
246.12	16.541
246.49	8.130
246.87	14.286
247.24	15.541
247.61	13.907
247.98	21.154
248.36	18.935
248.73	18.539
249.10	20.707
249.47	23.656
249.84	19.474
250.22	24.876
250.59	22.897
250.96	24.091
251.33	15.311
251.70	28.870
252.08	21.339
252.45	24.280
252.82	22.814
253.19	26.459
253.56	21.223
253.94	24.911
254.31	21.831
254.68	24.161
255.05	25.413
255.42	23.776
255.79	22.699
256.16	24.606
256.54	25.714
256.91	23.418
257.28	25.157
257.65	20.701
258.02	21.114
258.39	22.222
258.76	21.221
259.14	22.443
259.51	18.539
259.88	22.764
260.25	25.556
260.62	23.876
260.99	22.016
261.36	26.684
261.73	21.481
262.10	23.410
262.47	23.951
262.85	22.139
263.22	26.410
263.59	23.377
263.96	23.358
264.33	25.240
264.70	24.651
265.07	25.231
265.44	26.897
265.81	23.799
266.18	25.513
266.55	23.799
266.92	26.695
267.29	22.016
267.66	23.779
268.03	23.868
268.40	22.246
268.77	25.000
269.14	24.286
269.51	27.105
269.88	24.644
270.25	25.212
270.62	24.795
270.99	25.197
271.36	23.810
271.73	23.896
272.10	23.619
272.47	23.992
272.84	27.953
273.21	22.701
273.58	25.410
273.95	23.208
274.32	22.388
274.69	25.683
275.06	25.442
275.43	25.424
275.80	24.823
276.17	23.204
276.54	23.801
276.91	22.822
277.28	24.188
277.65	23.077
278.02	24.821
278.39	22.558
278.76	24.080
279.13	22.127
279.50	23.103
279.87	20.652
280.23	23.604
280.60	20.415
280.97	23.864
281.34	25.552
281.71	22.764
282.08	23.077
282.45	25.738
282.82	24.441
283.19	24.390
283.56	22.969
283.92	24.465
284.29	22.777
284.66	24.876
285.03	21.987
285.40	23.263
285.77	23.724
286.14	23.252
286.51	23.388
286.87	21.692
287.24	22.714
287.61	23.193
287.98	21.618
288.35	22.355
288.72	23.673
289.08	23.362
289.45	21.733
289.82	23.903
290.19	23.001
290.56	21.165
290.93	20.028
291.29	21.067
291.66	20.355
292.03	21.798
292.40	21.938
292.77	22.222
293.13	20.781
293.50	23.007
293.87	22.933
294.24	20.767
294.60	21.066
294.97	22.751
295.34	18.997
295.71	19.974
296.08	20.157
296.44	19.260
296.81	18.149
297.18	20.375
297.55	19.693
297.91	19.876
298.28	19.007
298.65	19.335
299.02	19.780
299.38	18.528
299.75	18.750
300.12	18.256
300.48	18.830
300.85	18.360
301.22	16.609
301.59	18.779
301.95	18.351
302.32	19.837
302.69	17.401
303.05	17.719
303.42	17.955
303.79	18.191
304.15	19.277
304.52	19.247
304.89	19.269
305.25	17.344
305.62	18.004
305.99	18.063
306.35	19.331
306.72	18.311
307.09	18.248
307.45	17.572
307.82	18.000
308.19	17.241
308.55	18.628
308.92	17.976
309.29	17.317
309.65	18.382
310.02	18.091
310.38	17.175
310.75	18.146
311.12	17.881
311.48	17.903
311.85	17.913
312.22	19.342
312.58	17.971
312.95	19.204
313.31	19.467
313.68	17.844
314.05	19.660
314.41	19.597
314.78	19.450
315.14	19.630
315.51	18.744
315.87	20.482
316.24	20.478
316.61	20.548
316.97	18.704
317.34	18.984
317.70	19.982
318.07	21.650
318.43	21.319
318.80	21.030
319.16	20.336
319.53	22.939
319.89	21.680
320.26	20.518
320.62	22.335
320.99	20.349
321.35	22.732
321.72	21.559
322.08	24.539
322.45	24.052
322.81	23.105
323.18	23.614
323.54	25.451
323.91	25.294
324.27	26.373
324.64	25.348
325.00	25.109
325.37	25.853
325.73	26.010
326.10	26.577
326.46	27.258
326.83	26.699
327.19	27.724
327.56	28.525
327.92	27.595
328.29	28.297
328.65	29.448
329.01	27.880
329.38	31.130
329.74	30.215
330.11	30.117
330.47	30.382
330.84	29.964
331.20	29.547
331.56	31.250
331.93	31.008
332.29	31.885
332.66	30.169
333.02	31.885
333.38	30.614
333.75	31.826
334.11	32.031
334.48	32.084
334.84	30.300
335.20	31.218
335.57	31.245
335.93	31.787
336.29	31.524
336.66	30.256
337.02	31.217
337.38	30.983
337.75	31.697
338.11	31.085
338.47	30.908
338.84	32.216
339.20	31.481
339.56	31.229
339.93	31.806
340.29	30.658
340.65	31.480
341.02	31.531
341.38	30.743
341.74	31.681
342.11	31.214
342.47	32.552
342.83	31.454
343.20	31.980
343.56	31.643
343.92	30.382
344.28	32.143
344.65	31.837
345.01	32.526
345.37	32.401
345.73	32.435
346.10	32.584
346.46	31.138
346.82	31.541
347.19	30.775
347.55	31.664
347.91	31.333
348.27	32.019
348.63	31.651
349.00	32.311
349.36	31.397
349.72	31.477
350.08	31.903
350.45	31.637
350.81	32.473
351.17	32.948
351.53	33.150
351.89	31.295
352.26	32.046
352.62	32.791
352.98	31.310
353.34	33.092
353.70	32.399
354.07	32.157
354.43	31.804
354.79	33.253
355.15	32.065
355.51	31.207
355.87	34.089
356.24	32.424
356.60	32.291
356.96	32.617
357.32	31.424
357.68	33.384
358.04	33.514
358.40	33.256
358.77	33.333
359.13	33.696
359.49	32.854
359.85	33.207
360.21	32.691
360.57	33.916
360.93	32.777
361.29	34.123
361.66	33.106
362.02	33.506
362.38	34.121
362.74	33.212
363.10	33.406
363.46	33.501
363.82	34.885
364.18	33.212
364.54	33.990
364.90	33.728
365.26	33.900
365.62	34.943
365.98	34.235
366.35	34.752
366.71	33.595
367.07	34.444
367.43	34.774
367.79	34.260
368.15	34.810
368.51	34.388
368.87	35.450
369.23	35.231
369.59	34.602
369.95	35.196
370.31	34.379
370.67	36.568
371.03	36.229
371.39	35.770
371.75	36.500
372.11	35.755
372.47	36.914
372.83	36.338
373.19	35.324
373.55	36.199
373.91	35.502
374.27	35.408
374.63	36.842
374.99	35.515
375.35	36.986
375.71	36.005
376.07	37.354
376.42	36.765
376.78	38.309
377.14	38.305
377.50	37.419
377.86	37.384
378.22	38.369
378.58	38.462
378.94	39.000
379.30	37.477
379.66	38.594
380.02	37.500
380.38	38.675
380.74	39.211
381.09	38.420
381.45	38.573
381.81	38.632
382.17	38.059
382.53	39.077
382.89	39.144
383.25	39.259
383.61	39.891
383.97	39.000
384.32	39.382
384.68	39.482
385.04	38.607
385.40	40.162
385.76	40.268
386.12	39.574
386.48	40.627
386.83	39.987
387.19	40.160
387.55	40.098
387.91	40.590
388.27	40.444
388.62	40.449
388.98	40.488
389.34	41.291
389.70	40.049
390.06	41.000
390.42	42.010
390.77	41.832
391.13	41.035
391.49	40.038
391.85	40.831
392.20	41.165
392.56	41.524
392.92	41.837
393.28	40.442
393.64	42.569
393.99	40.147
394.35	40.432
394.71	42.372
395.07	40.692
395.42	42.840
395.78	41.313
396.14	43.247
396.50	41.852
396.85	41.555
397.21	42.946
397.57	42.112
397.92	41.617
398.28	42.132
398.64	41.651
399.00	41.964
399.35	42.565
399.71	41.875
400.07	42.410
400.42	41.129
400.78	42.719
401.14	42.428
401.49	42.720
401.85	42.629
402.21	42.786
402.57	43.102
402.92	43.054
403.28	42.402
403.63	42.715
403.99	42.802
404.35	42.706
404.70	41.813
405.06	43.277
405.42	44.033
405.77	42.800
406.13	41.943
406.49	43.319
406.84	42.979
407.20	42.688
407.55	43.831
407.91	41.760
408.27	42.358
408.62	42.726
408.98	43.095
409.34	42.946
409.69	43.405
410.05	42.786
410.40	41.023
410.76	41.757
411.11	43.097
411.47	43.464
411.83	42.732
412.18	43.829
412.54	43.296
412.89	42.821
413.25	42.714
413.60	42.508
413.96	42.010
414.31	42.540
414.67	42.349
415.03	43.234
415.38	41.942
415.74	42.365
416.09	42.961
416.45	44.019
416.80	42.550
417.16	42.982
417.51	42.934
417.87	42.526
418.22	42.663
418.58	41.919
418.93	42.875
419.29	43.498
419.64	42.684
420.00	42.984
420.35	42.977
420.71	43.023
421.06	43.296
421.42	44.404
421.77	43.064
422.12	43.725
422.48	42.475
422.83	44.182
423.19	42.668
423.54	42.108
423.90	43.052
424.25	42.634
424.61	44.177
424.96	43.051
425.31	42.176
425.67	42.857
426.02	43.168
426.38	42.537
426.73	43.128
427.09	42.589
427.44	43.100
427.79	42.162
428.15	42.508
428.50	42.779
428.85	42.804
429.21	43.219
429.56	43.039
429.92	43.103
430.27	42.331
430.62	43.442
430.98	42.147
431.33	42.934
431.68	42.865
432.04	43.887
432.39	41.744
432.74	43.164
433.10	42.766
433.45	42.781
433.80	42.931
434.16	41.780
434.51	42.446
434.86	42.697
435.22	43.011
435.57	41.462
435.92	42.823
436.28	42.282
436.63	42.436
436.98	42.538
437.34	43.101
437.69	41.972
438.04	41.935
438.39	42.154
438.75	42.849
439.10	42.973
439.45	43.099
439.81	43.842
440.16	42.783
440.51	41.677
440.86	42.087
441.22	42.513
441.57	42.354
441.92	43.027
442.27	42.857
442.63	41.765
442.98	42.998
443.33	42.833
443.68	42.172
444.03	41.679
444.39	42.241
444.74	43.015
445.09	41.685
445.44	42.761
445.79	43.418
446.15	42.651
446.50	42.566
446.85	43.185
447.20	42.760
447.55	42.417
447.91	42.079
448.26	41.681
448.61	41.254
448.96	43.394
449.31	42.204
449.66	41.411
450.02	41.728
450.37	42.656
450.72	41.561
451.07	41.567
451.42	41.110
451.77	42.727
452.12	41.771
452.47	42.092
452.83	41.097
453.18	42.393
453.53	41.047
453.88	42.048
454.23	42.398
454.58	41.667
454.93	41.629
455.28	42.646
455.63	41.797
455.98	41.753
456.34	41.704
456.69	42.236
457.04	40.929
457.39	41.070
457.74	41.472
458.09	39.929
458.44	40.541
458.79	39.703
459.14	40.730
459.49	40.732
459.84	40.812
460.19	40.756
460.54	41.119
460.89	41.723
461.24	41.060
461.59	42.512
461.94	40.202
462.29	40.564
462.64	40.765
462.99	40.845
463.34	41.713
463.69	41.495
464.04	40.096
464.39	40.268
464.74	40.049
465.09	40.360
465.44	41.190
465.79	41.116
466.14	40.593
466.49	40.176
466.84	40.705
467.19	40.764
467.54	40.894
467.89	40.038
468.24	39.582
468.59	40.153
468.94	39.974
469.29	41.044
469.64	40.586
469.99	40.276
470.34	39.447
470.68	40.297
471.03	39.774
471.38	39.638
471.73	39.232
472.08	39.038
472.43	41.227
472.78	39.554
473.13	38.522
473.48	39.269
473.83	39.109
474.17	39.518
474.52	40.000
474.87	38.058
475.22	40.399
475.57	39.598
475.92	38.550
476.27	38.986
476.61	38.845
476.96	39.406
477.31	39.051
477.66	38.814
478.01	38.516
478.36	39.401
478.70	38.292
479.05	39.512
479.40	38.014
479.75	39.639
480.10	38.501
480.45	38.254
480.79	38.925
481.14	39.260
481.49	39.122
481.84	37.983
482.19	38.583
482.53	37.952
482.88	38.159
483.23	37.151
483.58	37.713
483.92	37.889
484.27	37.557
484.62	37.905
484.97	37.578
485.31	38.138
485.66	36.642
486.01	38.120
486.36	37.989
486.70	38.388
487.05	38.999
487.40	38.071
487.75	38.300
488.09	37.191
488.44	37.189
488.79	37.926
489.13	37.773
489.48	37.067
489.83	35.954
490.17	36.087
490.52	38.008
490.87	36.161
491.22	36.929
491.56	37.518
491.91	37.398
492.26	36.799
492.60	35.642
492.95	36.540
493.30	35.610
493.64	34.916
493.99	35.556
494.34	36.368
494.68	36.325
495.03	35.672
495.37	35.328
495.72	35.338
496.07	36.581
496.41	35.704
496.76	36.197
497.11	36.244
497.45	36.138
497.80	36.446
498.14	35.567
498.49	35.502
498.84	35.577
499.18	35.391
499.53	36.041
499.87	34.789
500.22	35.839
500.56	35.005
500.91	35.714
501.26	34.729
501.60	34.804
501.95	35.218
502.29	34.515
502.64	34.619
502.98	34.682
503.33	35.474
503.67	34.567
504.02	33.725
504.36	34.671
504.71	33.841
505.06	34.947
505.40	33.711
505.75	34.893
506.09	34.440
506.44	33.871
506.78	34.535
507.13	33.524
507.47	32.609
507.82	33.543
508.16	34.090
508.51	34.762
508.85	33.748
509.19	33.651
509.54	34.477
509.88	34.032
510.23	33.105
510.57	33.316
510.92	33.136
511.26	34.598
511.61	34.193
511.95	33.462
512.30	32.704
512.64	34.506
512.98	32.853
513.33	33.465
513.67	32.765
514.02	34.436
514.36	32.809
514.70	32.044
515.05	33.645
515.39	32.960
515.74	32.149
516.08	32.920
516.42	32.373
516.77	32.806
517.11	32.569
517.46	32.353
517.80	33.232
518.14	31.904
518.49	30.983
518.83	31.862
519.17	32.229
519.52	31.846
519.86	31.998
520.20	32.141
520.55	32.525
520.89	32.448
521.23	33.013
521.58	32.048
521.92	30.673
522.26	32.075
522.61	31.739
522.95	31.801
523.29	31.175
523.64	31.278
523.98	31.385
524.32	31.191
524.66	31.948
525.01	31.258
525.35	31.007
525.69	30.815
526.04	30.033
526.38	31.867
526.72	30.901
527.06	30.819
527.41	31.833
527.75	30.708
528.09	31.450
528.43	32.022
528.78	30.491
529.12	30.207
529.46	30.902
529.80	31.068
530.15	29.858
530.49	30.121
530.83	31.415
531.17	30.205
531.51	30.074
531.86	29.268
532.20	29.221
532.54	29.517
532.88	30.020
533.22	31.852
533.57	30.331
533.91	30.387
534.25	31.055
534.59	30.695
534.93	30.357
535.27	29.363
535.62	30.789
535.96	30.969
536.30	30.120
536.64	27.956
536.98	29.012
537.32	30.036
537.66	29.690
538.01	29.057
538.35	29.213
538.69	29.766
539.03	29.262
539.37	29.309
539.71	30.014
540.05	29.690
540.39	28.493
540.73	29.399
541.07	29.660
541.42	29.158
541.76	28.823
542.10	28.910
542.44	28.829
542.78	29.077
543.12	29.447
543.46	28.680
543.80	29.124
544.14	29.663
544.48	27.273
544.82	29.455
545.16	28.398
545.50	28.629
545.84	28.962
546.18	27.770
546.52	28.370
546.86	27.491
547.20	27.591
547.54	28.520
547.88	28.543
548.22	27.231
548.56	27.685
548.90	28.484
549.24	27.778
549.58	28.114
549.92	28.247
550.26	28.708
550.60	27.928
550.94	28.358
551.28	28.766
551.62	28.496
551.96	27.160
552.30	26.783
552.64	27.189
552.98	27.841
553.32	27.830
553.66	27.366
554.00	28.006
554.34	26.886
554.68	28.337
555.02	27.096
555.36	27.988
555.69	27.312
556.03	27.019
556.37	27.667
556.71	26.419
557.05	27.011
557.39	26.526
557.73	27.458
558.07	26.827
558.41	26.495
558.75	26.559
559.08	26.383
559.42	26.515
559.76	26.988
560.10	26.826
560.44	27.266
560.78	26.115
561.12	27.190
561.45	25.646
561.79	27.923
562.13	27.848
562.47	26.786
562.81	26.407
563.15	25.779
563.48	25.671
563.82	26.402
564.16	27.150
564.50	26.526
564.84	25.676
565.17	26.358
565.51	27.139
565.85	26.183
566.19	26.424
566.52	26.081
566.86	25.790
567.20	26.206
567.54	26.310
567.88	26.540
568.21	26.616
568.55	26.761
568.89	26.271
569.23	26.673
569.56	27.534
569.90	26.840
570.24	26.065
570.57	26.783
570.91	27.297
571.25	26.497
571.59	26.729
571.92	27.105
572.26	27.057
572.60	26.794
572.93	26.617
573.27	26.875
573.61	27.555
573.95	26.600
574.28	27.224
574.62	27.030
574.96	26.969
575.29	26.881
575.63	26.870
575.97	26.549
576.30	25.991
576.64	27.142
576.98	27.296
577.31	27.058
577.65	26.486
577.98	27.167
578.32	26.706
578.66	27.161
578.99	27.113
579.33	26.512
579.67	26.680
580.00	26.534
580.34	25.933
580.67	26.776
581.01	26.702
581.35	26.592
581.68	26.122
582.02	27.027
582.35	26.516
582.69	26.512
583.02	26.113
583.36	26.196
583.70	26.559
584.03	26.126
584.37	26.448
584.70	26.072
585.04	26.216
585.37	25.832
585.71	26.266
586.04	25.614
586.38	26.072
586.72	25.850
587.05	26.029
587.39	26.310
587.72	25.771
588.06	25.527
588.39	26.280
588.73	25.542
589.06	25.542
589.40	25.731
589.73	24.757
590.07	25.191
590.40	26.126
590.73	25.567
591.07	25.449
591.40	24.913
591.74	25.300
592.07	25.285
592.41	25.354
592.74	24.961
593.08	24.581
593.41	25.177
593.75	25.355
594.08	25.250
594.41	25.082
594.75	25.300
595.08	24.981
595.42	24.588
595.75	24.440
596.09	24.634
596.42	24.592
596.75	24.397
597.09	24.340
597.42	24.495
597.75	24.133
598.09	24.681
598.42	24.519
598.76	24.559
599.09	24.610
599.42	24.924
599.76	25.498
600.09	24.511
600.42	24.444
600.76	23.947
601.09	24.670
601.42	23.795
601.76	24.903
602.09	24.564
602.42	24.969
602.76	24.161
603.09	24.435
603.42	24.350
603.76	24.825
604.09	23.715
604.42	24.194
604.76	23.832
605.09	24.286
605.42	24.561
605.75	23.769
606.09	23.344
606.42	23.732
606.75	23.939
607.09	23.582
607.42	23.643
607.75	22.757
608.08	24.482
608.42	23.852
608.75	23.650
609.08	23.665
609.41	24.242
609.75	23.903
610.08	23.422
610.41	24.587
610.74	23.484
611.07	23.697
611.41	23.337
611.74	23.551
612.07	23.398
612.40	23.189
612.73	23.052
613.07	23.559
613.40	23.789
613.73	23.944
614.06	22.886
614.39	23.235
614.72	23.487
615.06	22.778
615.39	22.792
615.72	22.678
616.05	23.198
616.38	22.967
616.71	22.136
617.05	23.464
617.38	22.489
617.71	23.407
618.04	22.730
618.37	23.155
618.70	22.380
619.03	22.131
619.36	22.918
619.69	22.807
620.03	21.201
620.36	21.990
620.69	21.199
621.02	21.462
621.35	22.404
621.68	21.027
622.01	22.006
622.34	21.332
622.67	22.318
623.00	22.264
623.33	21.541
623.66	21.784
623.99	21.530
624.32	21.497
624.65	22.033
624.99	22.704
625.32	20.762
625.65	21.938
625.98	21.643
626.31	21.551
626.64	21.152
626.97	22.145
627.30	21.300
627.63	21.280
627.96	20.346
628.29	21.116
628.62	21.567
628.95	20.641
629.28	20.887
629.61	22.392
629.94	20.793
630.26	22.266
630.59	22.078
630.92	19.478
631.25	20.494
631.58	20.450
631.91	20.042
632.24	19.539
632.57	18.444
632.90	21.004
633.23	18.945
633.56	20.983
633.89	19.139
634.22	20.966
634.55	19.854
634.88	19.608
635.20	20.250
635.53	19.251
635.86	18.846
636.19	20.471
636.52	19.390
636.85	19.180
637.18	17.661
637.51	19.226
637.83	19.452
638.16	17.333
638.49	17.623
638.82	19.477
639.15	19.149
639.48	19.519
639.81	18.889
640.13	18.310
640.46	20.480
640.79	18.561
641.12	17.751
641.45	19.360
641.77	18.115
642.10	20.424
642.43	17.138
642.76	17.508
643.09	16.613
643.41	18.660
643.74	20.355
644.07	16.828
644.40	18.242
644.73	17.458
645.05	17.976
645.38	16.611
645.71	16.837
646.04	15.993
646.36	19.618
646.69	17.832
647.02	18.033
647.35	15.174
647.67	16.821
648.00	16.486
648.33	19.322
648.66	16.361
648.98	19.410
649.31	17.331
649.64	17.058
649.96	19.273
650.29	15.850
650.62	15.815
650.94	18.621
651.27	17.845
651.60	18.881
651.92	18.459
652.25	18.425
652.58	16.337
652.90	20.370
653.23	13.243
653.56	17.686
653.88	15.870
654.21	17.918
654.54	19.435
654.86	16.098
655.19	19.188
655.52	22.695
655.84	22.676
656.17	27.879
656.49	36.978
656.82	36.460
657.15	27.546
657.47	20.382
657.80	15.201
658.13	15.939
658.45	23.725
658.78	23.321
659.10	23.142
659.43	23.395
659.75	21.956
660.08	21.172
660.41	17.850
660.73	18.320
661.06	16.497
661.38	16.085
661.71	18.238
662.03	17.336
662.36	13.938
662.68	17.204
663.01	18.008
663.33	18.359
663.66	13.525
663.98	19.326
664.31	14.725
664.63	13.063
664.96	17.068
665.28	16.738
665.61	15.983
665.93	18.844
666.26	17.089
666.58	14.133
666.91	16.143
667.23	15.207
667.56	14.483
667.88	16.589
668.21	14.732
668.53	15.172
668.86	16.547
669.18	17.494
669.50	14.516
669.83	15.513
670.15	16.905
670.48	13.793
670.80	19.912
671.13	15.332
671.45	16.895
671.77	16.810
672.10	18.129
672.42	15.076
672.75	15.893
673.07	18.182
673.39	19.776
673.72	17.964
674.04	16.393
674.37	19.106
674.69	17.695
675.01	16.453
675.34	16.849
675.66	15.904
675.98	16.814
676.31	14.480
676.63	18.594
676.95	16.941
677.28	13.761
677.60	17.402
677.92	16.630
678.25	16.920
678.57	18.737
678.89	15.139
679.22	16.977
679.54	16.531
679.86	16.016
680.18	14.615
680.51	17.885
680.83	15.984
681.15	17.485
681.48	15.631
681.80	16.360
682.12	16.667
682.44	15.895
682.77	14.526
683.09	13.393
683.41	13.256
683.73	14.286
684.06	15.044
684.38	10.897
684.70	15.275
685.02	15.083
685.34	17.417
685.67	17.261
685.99	20.285
686.31	19.483
686.63	14.522
686.96	19.109
687.28	13.174
687.60	19.471
687.92	16.926
688.24	14.400
688.56	15.789
688.89	12.695
689.21	16.592
689.53	13.514
689.85	18.876
690.17	16.044
690.49	14.251
690.82	13.126
691.14	16.667
691.46	16.009
691.78	17.802
692.10	14.862
692.42	11.209
692.74	15.652
693.06	13.034
693.39	13.115
693.71	17.111
694.03	16.364
694.35	17.117
694.67	15.750
694.99	16.237
695.31	14.987
695.63	15.122
695.95	13.740
696.27	13.151
696.59	16.667
696.91	15.084
697.23	17.259
697.56	14.628
697.88	17.879
698.20	16.199
698.52	19.159
698.84	16.268
699.16	14.657
699.48	14.568
699.80	18.346
700.12	16.086
700.44	14.085
700.76	13.202
701.08	12.387
701.40	17.665
701.72	15.077
702.04	14.151
702.36	14.329
702.68	10.061
703.00	14.620
703.32	15.599
703.64	15.964
703.96	17.595
704.28	13.253
704.60	11.585
704.91	12.226
705.23	11.392
705.55	11.724
705.87	10.211
706.19	9.158
706.51	8.803
706.83	10.191
707.15	15.854
707.47	17.355
707.79	16.497
708.11	15.681
708.43	16.497
708.74	13.298
709.06	14.706
709.38	15.274
709.70	14.114
710.02	13.707
710.34	10.333
710.66	14.007
710.98	12.693
711.29	13.961
711.61	13.226
711.93	11.290
712.25	13.636
712.57	5.965
712.89	11.355
713.20	17.376
713.52	10.584
713.84	15.484
714.16	11.327
714.48	12.025
714.80	15.335
715.11	17.733
715.43	12.112
715.75	13.665
716.07	15.964
716.39	15.488
716.70	14.029
717.02	7.451
717.34	10.985
717.66	13.793
717.97	9.524
718.29	15.748
718.61	9.013
718.93	10.853
719.24	16.236
719.56	13.483
719.88	12.313
720.20	11.858
720.51	12.500
720.83	12.840
721.15	8.130
721.46	11.450
721.78	13.546
722.10	11.554
722.42	6.855
722.73	12.355
723.05	15.102
723.37	10.924
723.68	7.600
724.00	5.957
724.32	13.389
724.63	16.049
724.95	13.675
725.27	13.080
725.58	12.346
725.90	12.971
726.22	14.493
726.53	13.333
726.85	15.328
727.16	10.370
727.48	14.176
727.80	16.797
728.11	9.426
728.43	15.625
728.74	13.095
729.06	9.600
729.38	11.067
729.69	15.302
730.01	13.011
730.32	13.284
730.64	10.985
730.96	16.434
731.27	10.368
731.59	12.063
731.90	13.269
732.22	14.423
732.53	11.824
732.85	13.758
733.16	11.221
733.48	13.851
733.80	14.189
734.11	16.554
734.43	10.836
734.74	18.318
735.06	16.427
735.37	14.286
735.69	12.945
736.00	10.231
736.32	12.411
736.63	11.724
736.95	13.699
737.26	12.069
737.58	13.889
737.89	14.089
738.21	13.879
738.52	13.308
738.83	14.286
739.15	14.346
739.46	12.062
739.78	11.268
740.09	8.562
740.41	11.071
740.72	10.638
741.04	12.800
741.35	7.018
741.66	9.333
741.98	13.462
742.29	16.337
742.61	11.707
742.92	16.667
743.23	5.189
743.55	14.414
743.86	13.004
744.18	12.255
744.49	7.614
744.80	8.163
745.12	7.477
745.43	10.427
745.74	14.414
746.06	14.019
746.37	7.798
746.68	7.692
747.00	14.833
747.31	8.173
747.62	14.679
747.94	14.410
748.25	11.468
748.56	18.667
748.88	10.329
749.19	16.667
749.50	5.340
749.82	7.981
750.13	5.000
750.44	12.692
750.75	10.332
751.07	16.014
751.38	12.766
751.69	13.900
752.01	12.891
752.32	13.846
752.63	13.060
752.94	12.400
753.26	11.715
753.57	12.917
753.88	9.312
754.19	11.554
754.51	14.662
754.82	12.821
755.13	7.391
755.44	13.821
755.75	14.800
756.07	13.284
756.38	14.029
756.69	15.358
757.00	13.084
757.31	12.945
757.63	11.728
757.94	12.429
758.25	13.757
758.56	11.957
758.87	16.071
759.18	15.773
759.50	14.815
759.81	18.729
760.12	17.538
760.43	11.905
760.74	12.429
761.05	15.746
761.36	12.607
761.67	11.178
761.99	14.433
762.30	7.664
762.61	6.173
762.92	18.376
763.23	14.754
763.54	14.719
763.85	11.020
764.16	12.602
764.47	14.000
764.78	13.571
765.10	13.443
765.41	14.286
765.72	12.733
766.03	15.182
766.34	13.077
766.65	13.389
766.96	8.920
767.27	17.327
767.58	8.427
767.89	11.728
768.20	7.735
768.51	13.568
768.82	13.462
769.13	15.487
769.44	13.389
769.75	9.402
770.06	16.592
770.37	11.275
770.68	11.650
770.99	13.592
771.30	15.546
771.61	17.551
771.92	14.938
772.23	13.063
772.54	4.972
772.85	11.047
773.16	14.815
773.47	7.101
773.78	12.644
774.09	14.375
774.39	8.696
774.70	10.204
775.01	6.897
775.32	15.714
775.63	8.271
775.94	6.015
776.25	4.800
776.56	7.438
776.87	8.730
777.18	4.505
777.48	10.811
777.79	14.961
778.10	11.009
778.41	-0.877
778.72	8.403
779.03	6.338
779.34	7.432
779.65	3.521
779.95	3.311
780.26	0.719
780.57	8.633
780.88	1.408
781.19	0.000
781.50	12.081
781.80	7.602
782.11	4.651
782.42	12.579
782.73	12.418
783.04	11.724
783.34	7.634
783.65	2.013
783.96	4.615
784.27	13.571
784.57	6.383
784.88	-12.500
785.19	25.455
785.50	3.636
785.81	7.619
786.11	-4.202
786.42	-0.885
786.73	3.774
787.04	4.587
787.34	-8.911
787.65	10.000
787.96	7.438
788.26	16.667
788.57	3.968
788.88	3.252
789.19	12.000
789.49	3.817
789.80	15.909
790.11	5.660
790.41	7.921
790.72	11.702
791.03	-3.261
791.33	-4.706
791.64	2.469
791.95	-2.174
792.25	4.545
792.56	6.410
792.87	0.000
793.17	-7.692
793.48	0.000
793.79	-1.250
794.09	16.346
794.40	1.042
794.70	6.306
795.01	9.375
795.32	8.696
795.62	1.087
795.93	-2.830
796.23	11.111
796.54	-15.854
796.85	13.095
797.15	-10.606
797.46	-7.246
797.76	-14.474
798.07	17.045
798.37	3.659
798.68	-14.516
798.99	-4.054
799.29	15.663
799.60	-2.564
799.90	-1.538
800.21	6.061
800.51	-8.000
800.82	6.667
801.12	-33.333
801.43	-11.667
801.73	-5.405
802.04	10.000
802.34	-6.557
802.65	0.000
802.95	9.091
803.26	-5.172
803.56	-7.692
803.87	20.755
804.17	4.839
804.48	0.000
804.78	-24.390
805.09	5.797
805.39	-1.471
805.70	-29.787
806.00	0.000
806.30	2.564
806.61	5.263
806.91	-5.405
807.22	-2.632
807.52	12.500
807.83	-27.119
808.13	-24.242
808.43	-3.333
808.74	-22.414
809.04	7.937
809.35	-26.531
809.65	-8.333
809.95	-28.571
810.26	21.127
810.56	-12.500
810.86	8.163
811.17	-7.692
811.47	-19.149
811.77	-16.667
812.08	-22.642
812.38	-15.625
812.69	-3.636
812.99	-21.951
813.29	0.000
813.59	-24.324
813.90	-9.091
814.20	-27.273
814.50	8.333
814.81	0.000
815.11	-10.526
815.41	-6.977
815.72	-20.000
816.02	-5.714
816.32	-37.838
816.62	-10.417
816.93	-11.111
817.23	-17.778
817.53	-25.000
817.84	-45.946
818.14	0.000
818.44	-6.000
818.74	-4.082
819.04	-12.195
819.35	-19.444
819.65	-4.545
819.95	-88.889
820.25	-21.212
820.56	-26.190
820.86	-52.778
821.16	-29.545
821.46	-17.391
821.76	1.724
822.07	-6.522
822.37	9.091
822.67	21.951
822.97	-24.324
823.27	-25.714
823.57	6.897
823.88	8.824
824.18	-5.556
824.48	-14.286
824.78	-80.952
825.08	-28.571
825.38	-29.630
825.69	-51.613
825.99	-34.146
826.29	-11.111
826.59	-25.000
826.89	-25.806
827.19	-39.130
827.49	-22.222
827.79	-91.304
828.09	-9.677
828.39	-6.250
828.70	-59.375
829.00	-6.897
829.30	-16.216
829.60	-45.833
829.90	-25.926
830.20	-21.875
830.50	-18.182
830.80	-129.412
831.10	-45.455
831.40	-41.176
831.70	-46.154
832.00	9.091
832.30	-14.706
832.60	-29.730
832.90	1800.000
833.20	-35.714
833.50	-70.000
833.80	-50.000
834.10	-8.333
834.40	-90.909
834.70	-93.333
835.00	-60.000
835.30	-25.000
835.60	-61.905
835.90	-38.095
836.20	-16.000
836.50	-41.667
836.80	-110.526
837.10	5.405
837.40	6.667
837.70	-34.783
838.00	8.333
838.30	-36.842
838.60	-220.000
838.90	-150.000
839.19	-75.000
839.49	-107.692
839.79	-42.105
840.09	-316.667
840.39	-170.000
840.69	-27.273
840.99	-42.857
841.29	-54.167
841.59	-61.538
841.88	-146.667
842.18	-92.857
842.48	-6.667
842.78	-242.857
843.08	-42.857
843.38	-112.500
843.68	-93.750
843.97	-14.286
844.27	-177.778
844.57	-190.909
844.87	-100.000
845.17	4.545
845.47	833.333
845.76	-93.333
846.06	-125.000
846.36	-1550.000
846.66	-110.526
846.96	-68.182
847.25	-105.556
847.55	-155.556
847.85	-90.476
848.15	-7.692
848.44	-200.000
848.74	-58.333
849.04	-100.000
849.34	-600.000
849.63	-81.818
849.93	-164.286
850.23	0.000
850.53	-200.000
850.82	-33.333
851.12	-53.333
851.42	-47.059
851.71	-137.500
852.01	-47.059
852.31	-92.308
852.61	600.000
852.90	-35.294
853.20	-86.667
853.50	-50.000
853.79	-142.857
854.09	-700.000
854.39	-75.000
854.68	10.000
854.98	-28.571
855.28	-60.000
855.57	-54.167
855.87	-25.000
856.17	-48.000
856.46	0.000
856.76	10.000
857.05	-20.000
857.35	-91.667
857.65	-76.471
857.94	-141.667
858.24	-141.667
858.53	0.000
858.83	-172.727
859.13	-32.000
859.42	-57.143
859.72	-237.500
860.01	-4.167
860.31	-162.500
860.60	-56.250
860.90	-316.667
861.20	-100.000
861.49	-93.333
861.79	-68.750
862.08	200.000
862.38	-141.667
862.67	428.571
862.97	375.000
863.26	-109.091
863.56	-90.909
863.85	-31.579
864.15	-5.882
864.44	-520.000
864.74	-90.000
865.03	-166.667
865.33	-107.143
865.62	192.857
865.92	-26.316
866.21	-50.000
866.51	-136.364
866.80	-166.667
867.10	-162.500
867.39	-81.250
867.69	-80.000
867.98	-110.000
868.27	-52.941
868.57	0.000
868.86	1100.000
869.16	-275.000
869.45	-200.000
869.75	450.000
870.04	-100.000
870.33	-1700.000
870.63	-63.158
870.92	-100.000
871.22	-1800.000
871.51	-271.429
871.80	-266.667
872.10	-500.000
>>>>>End Processed Spectral Data<<<<<
