SpectraSuite Data File
++++++++++++++++++++++++++++++++++++
Date: Wed May 13 21:29:16 PDT 2015
User: schluterlab
Dark Spectrum Present: Yes
Reference Spectrum Present: Yes
Number of Sampled Component Spectra: 1
Spectrometers: USB2E3373
Integration Time (usec): 3000 (USB2E3373)
Spectra Averaged: 3 (USB2E3373)
Boxcar Smoothing: 0 (USB2E3373)
Correct for Electrical Dark: No (USB2E3373)
Strobe/Lamp Enabled: No (USB2E3373)
Correct for Detector Non-linearity: No (USB2E3373)
Correct for Stray Light: No (USB2E3373)
Number of Pixels in Processed Spectrum: 2048
>>>>>Begin Processed Spectral Data<<<<<
178.53	0.000
178.91	400.000
179.29	150.000
179.67	-850.000
180.04	-400.000
180.42	140.000
180.80	1500.000
181.18	316.667
181.56	-250.000
181.94	-100.000
182.31	-81.818
182.69	153.846
183.07	-60.000
183.45	183.333
183.83	66.667
184.20	128.571
184.58	-166.667
184.96	233.333
185.34	142.857
185.72	0.000
186.09	-700.000
186.47	-280.000
186.85	140.000
187.23	-300.000
187.61	500.000
187.98	1100.000
188.36	-150.000
188.74	0.000
189.12	27.273
189.49	60.000
189.87	91.667
190.25	540.000
190.63	200.000
191.00	-260.000
191.38	300.000
191.76	525.000
192.14	200.000
192.51	-31.579
192.89	266.667
193.27	150.000
193.65	-280.000
194.02	209.091
194.40	210.000
194.78	-1400.000
195.15	380.000
195.53	-200.000
195.91	-62.500
196.29	-266.667
196.66	0.000
197.04	1000.000
197.42	-60.000
197.79	-10.000
198.17	-100.000
198.55	-166.667
198.92	250.000
199.30	-433.333
199.68	-20.000
200.05	50.000
200.43	183.333
200.81	-1600.000
201.18	-160.000
201.56	-133.333
201.94	875.000
202.31	-17.391
202.69	-100.000
203.07	-500.000
203.44	0.000
203.82	-266.667
204.19	-90.000
204.57	0.000
204.95	-183.333
205.32	0.000
205.70	-350.000
206.08	-275.000
206.45	-300.000
206.83	375.000
207.20	-300.000
207.58	-40.000
207.96	-1600.000
208.33	-114.286
208.71	-1800.000
209.08	175.000
209.46	300.000
209.84	0.000
210.21	140.000
210.59	2700.000
210.96	580.000
211.34	1100.000
211.71	-750.000
212.09	-333.333
212.46	-190.000
212.84	33.333
213.22	-50.000
213.59	-1100.000
213.97	-550.000
214.34	-800.000
214.72	-69.231
215.09	237.500
215.47	177.778
215.84	650.000
216.22	-162.500
216.59	-550.000
216.97	900.000
217.34	222.222
217.72	0.000
218.09	300.000
218.47	-800.000
218.84	-171.429
219.22	-162.500
219.59	-133.333
219.97	-300.000
220.34	-37.500
220.72	-120.000
221.09	0.000
221.47	-166.667
221.84	-400.000
222.22	0.000
222.59	1000.000
222.97	-266.667
223.34	-100.000
223.72	-2000.000
224.09	-350.000
224.46	18.182
224.84	50.000
225.21	-142.857
225.59	-350.000
225.96	-50.000
226.34	-60.000
226.71	-128.571
227.08	700.000
227.46	-50.000
227.83	-300.000
228.21	-93.750
228.58	-450.000
228.95	5.882
229.33	-6.250
229.70	-137.500
230.08	-7.692
230.45	-175.000
230.82	-66.667
231.20	271.429
231.57	-250.000
231.95	1300.000
232.32	25.000
232.69	-47.059
233.07	-2100.000
233.44	-26.087
233.81	-550.000
234.19	12.500
234.56	-80.000
234.93	-40.000
235.31	-31.579
235.68	-76.923
236.05	-46.154
236.43	50.000
236.80	-51.515
237.17	-100.000
237.55	-11.765
237.92	-13.793
238.29	-44.444
238.67	5.556
239.04	-45.161
239.41	-14.894
239.79	6.383
240.16	-6.977
240.53	8.929
240.91	10.714
241.28	0.000
241.65	1.613
242.02	-5.263
242.40	-4.348
242.77	-11.594
243.14	-2.564
243.51	8.511
243.89	8.654
244.26	21.698
244.63	1.923
245.00	2.083
245.38	2.521
245.75	0.000
246.12	0.752
246.49	8.943
246.87	-12.605
247.24	11.486
247.61	5.960
247.98	1.923
248.36	2.959
248.73	5.618
249.10	10.101
249.47	8.602
249.84	9.474
250.22	4.975
250.59	7.477
250.96	5.909
251.33	-3.828
251.70	12.971
252.08	2.929
252.45	9.465
252.82	10.646
253.19	6.226
253.56	4.317
253.94	9.253
254.31	7.042
254.68	13.087
255.05	9.571
255.42	6.643
255.79	7.975
256.16	8.517
256.54	10.794
256.91	6.329
257.28	8.176
257.65	5.096
258.02	8.211
258.39	8.480
258.76	8.140
259.14	9.943
259.51	5.618
259.88	10.569
260.25	10.000
260.62	8.146
260.99	10.345
261.36	8.549
261.73	10.370
262.10	8.142
262.47	7.654
262.85	5.473
263.22	10.513
263.59	10.909
263.96	5.596
264.33	8.173
264.70	8.837
265.07	9.954
265.44	11.264
265.81	10.069
266.18	7.973
266.55	10.917
266.92	9.534
267.29	9.465
267.66	9.766
268.03	12.346
268.40	5.720
268.77	8.471
269.14	9.388
269.51	11.704
269.88	6.517
270.25	7.203
270.62	8.402
270.99	10.630
271.36	10.119
271.73	9.036
272.10	10.476
272.47	10.173
272.84	10.630
273.21	8.611
273.58	7.992
273.95	9.623
274.32	10.075
274.69	8.743
275.06	9.364
275.43	9.605
275.80	9.220
276.17	8.840
276.54	5.684
276.91	9.408
277.28	7.762
277.65	10.664
278.02	9.464
278.39	9.059
278.76	9.365
279.13	10.120
279.50	7.931
279.87	9.964
280.23	10.270
280.60	7.785
280.97	8.117
281.34	10.095
281.71	8.130
282.08	10.256
282.45	9.344
282.82	9.265
283.19	10.671
283.56	8.438
283.92	9.021
284.29	10.764
284.66	8.731
285.03	8.958
285.40	9.063
285.77	9.159
286.14	8.511
286.51	9.895
286.87	7.692
287.24	8.997
287.61	9.187
287.98	8.824
288.35	7.452
288.72	8.178
289.08	8.832
289.45	9.104
289.82	10.287
290.19	9.116
290.56	8.239
290.93	7.459
291.29	8.892
291.66	9.973
292.03	7.902
292.40	9.017
292.77	8.701
293.13	8.229
293.50	7.712
293.87	8.667
294.24	8.201
294.60	8.322
294.97	7.804
295.34	7.124
295.71	8.016
296.08	7.199
296.44	5.995
296.81	6.821
297.18	8.250
297.55	6.958
297.91	6.584
298.28	7.627
298.65	7.266
299.02	8.303
299.38	7.117
299.75	8.774
300.12	6.628
300.48	6.433
300.85	6.813
301.22	6.852
301.59	6.573
301.95	7.317
302.32	7.585
302.69	7.345
303.05	6.755
303.42	7.841
303.79	7.992
304.15	7.338
304.52	9.355
304.89	5.980
305.25	5.818
305.62	7.375
305.99	7.617
306.35	8.464
306.72	8.240
307.09	8.029
307.45	8.200
307.82	5.895
308.19	5.434
308.55	7.984
308.92	8.350
309.29	7.908
309.65	6.993
310.02	8.847
310.38	8.638
310.75	6.509
311.12	8.066
311.48	7.319
311.85	8.563
312.22	8.124
312.58	7.633
312.95	7.960
313.31	9.366
313.68	8.397
314.05	9.074
314.41	8.838
314.78	10.057
315.14	9.815
315.51	9.610
315.87	11.307
316.24	9.917
316.61	11.507
316.97	10.278
317.34	10.963
317.70	11.686
318.07	12.600
318.43	11.472
318.80	12.042
319.16	12.821
319.53	13.262
319.89	11.924
320.26	13.216
320.62	15.199
320.99	12.694
321.35	14.312
321.72	14.244
322.08	14.852
322.45	16.096
322.81	16.636
323.18	17.352
323.54	17.148
323.91	17.164
324.27	18.182
324.64	18.728
325.00	18.373
325.37	18.857
325.73	18.519
326.10	19.680
326.46	22.492
326.83	21.036
327.19	20.813
327.56	20.709
327.92	22.124
328.29	22.204
328.65	23.050
329.01	21.548
329.38	24.348
329.74	22.575
330.11	23.445
330.47	22.222
330.84	23.466
331.20	23.399
331.56	25.000
331.93	24.203
332.29	25.022
332.66	23.390
333.02	25.804
333.38	25.965
333.75	23.208
334.11	25.174
334.48	24.760
334.84	24.293
335.20	24.700
335.57	24.456
335.93	24.656
336.29	24.518
336.66	24.786
337.02	24.696
337.38	25.674
337.75	25.754
338.11	25.107
338.47	24.572
338.84	25.859
339.20	24.780
339.56	25.256
339.93	24.460
340.29	25.107
340.65	26.091
341.02	24.875
341.38	26.098
341.74	24.958
342.11	24.360
342.47	24.937
342.83	25.163
343.20	25.127
343.56	26.247
343.92	24.452
344.28	24.756
344.65	25.224
345.01	25.262
345.37	26.316
345.73	25.082
346.10	25.923
346.46	25.528
346.82	25.843
347.19	25.237
347.55	25.767
347.91	25.487
348.27	25.868
348.63	24.920
349.00	24.450
349.36	26.217
349.72	25.058
350.08	25.195
350.45	24.980
350.81	25.822
351.17	26.636
351.53	26.551
351.89	24.464
352.26	24.170
352.62	26.124
352.98	25.000
353.34	25.926
353.70	26.012
354.07	25.804
354.43	25.350
354.79	26.362
355.15	27.174
355.51	26.120
355.87	27.443
356.24	26.164
356.60	25.410
356.96	26.554
357.32	26.316
357.68	27.273
358.04	25.213
358.40	25.659
358.77	26.758
359.13	27.549
359.49	26.949
359.85	27.369
360.21	27.448
360.57	27.224
360.93	26.859
361.29	26.055
361.66	27.183
362.02	26.538
362.38	27.253
362.74	27.049
363.10	26.681
363.46	27.089
363.82	27.864
364.18	27.266
364.54	27.644
364.90	27.526
365.26	27.318
365.62	27.912
365.98	28.399
366.35	27.589
366.71	27.175
367.07	27.498
367.43	28.641
367.79	28.353
368.15	28.411
368.51	27.356
368.87	28.890
369.23	28.683
369.59	28.330
369.95	29.100
370.31	27.964
370.67	28.965
371.03	29.176
371.39	27.750
371.75	29.000
372.11	29.060
372.47	28.407
372.83	30.097
373.19	28.489
373.55	29.697
373.91	28.571
374.27	29.253
374.63	29.801
374.99	29.596
375.35	30.411
375.71	29.280
376.07	29.746
376.42	30.147
376.78	30.647
377.14	30.373
377.50	30.900
377.86	30.412
378.22	29.646
378.58	30.202
378.94	31.500
379.30	31.293
379.66	31.813
380.02	30.453
380.38	30.181
380.74	31.321
381.09	31.544
381.45	31.137
381.81	31.177
382.17	30.498
382.53	30.892
382.89	30.398
383.25	32.037
383.61	32.203
383.97	32.312
384.32	31.695
384.68	31.030
385.04	31.827
385.40	32.379
385.76	31.569
386.12	32.795
386.48	31.724
386.83	31.727
387.19	32.141
387.55	32.373
387.91	33.518
388.27	32.491
388.62	32.709
388.98	32.541
389.34	32.331
389.70	33.272
390.06	31.625
390.42	33.892
390.77	33.824
391.13	33.333
391.49	32.764
391.85	32.907
392.20	33.145
392.56	33.397
392.92	32.651
393.28	33.585
393.64	33.028
393.99	32.007
394.35	33.889
394.71	33.910
395.07	33.208
395.42	33.943
395.78	33.012
396.14	34.306
396.50	33.545
396.85	34.863
397.21	32.709
397.57	33.416
397.92	32.635
398.28	32.882
398.64	34.001
399.00	34.152
399.35	33.882
399.71	33.081
400.07	33.614
400.42	33.292
400.78	34.139
401.14	34.335
401.49	32.834
401.85	34.029
402.21	34.737
402.57	33.538
402.92	33.104
403.28	34.334
403.63	33.788
403.99	33.461
404.35	33.791
404.70	33.112
405.06	32.824
405.42	33.103
405.77	33.583
406.13	32.286
406.49	32.475
406.84	33.639
407.20	32.860
407.55	35.130
407.91	32.892
408.27	33.125
408.62	32.904
408.98	33.169
409.34	33.230
409.69	33.008
410.05	33.582
410.40	32.441
410.76	32.912
411.11	32.836
411.47	34.174
411.83	32.314
412.18	33.501
412.54	33.835
412.89	33.542
413.25	32.330
413.60	33.856
413.96	33.521
414.31	33.354
414.67	33.524
415.03	33.559
415.38	32.893
415.74	33.398
416.09	33.377
416.45	33.083
416.80	32.483
417.16	32.996
417.51	32.887
417.87	31.878
418.22	32.967
418.58	32.326
418.93	33.396
419.29	32.475
419.64	32.570
420.00	33.460
420.35	32.576
420.71	32.419
421.06	32.411
421.42	33.759
421.77	33.237
422.12	33.352
422.48	31.352
422.83	32.487
423.19	33.065
423.54	33.392
423.90	32.542
424.25	32.929
424.61	32.594
424.96	33.176
425.31	30.174
425.67	33.451
426.02	33.981
426.38	32.960
426.73	32.560
427.09	32.395
427.44	32.648
427.79	32.838
428.15	31.254
428.50	31.178
428.85	32.903
429.21	32.020
429.56	33.316
429.92	32.431
430.27	32.720
430.62	32.739
430.98	33.157
431.33	32.080
431.68	33.014
432.04	32.845
432.39	31.467
432.74	32.618
433.10	32.249
433.45	32.071
433.80	31.782
434.16	31.513
434.51	32.011
434.86	32.921
435.22	32.654
435.57	32.371
435.92	31.846
436.28	31.892
436.63	31.928
436.98	31.727
437.34	32.601
437.69	32.054
438.04	31.522
438.39	31.569
438.75	30.989
439.10	32.331
439.45	31.719
439.81	32.820
440.16	32.580
440.51	32.402
440.86	32.721
441.22	32.243
441.57	32.701
441.92	31.674
442.27	31.548
442.63	31.216
442.98	32.176
443.33	32.280
443.68	31.734
444.03	32.489
444.39	33.466
444.74	32.027
445.09	32.599
445.44	33.127
445.79	31.802
446.15	32.169
446.50	32.159
446.85	32.122
447.20	31.783
447.55	31.841
447.91	31.966
448.26	31.675
448.61	32.509
448.96	32.403
449.31	32.381
449.66	32.157
450.02	32.177
450.37	33.314
450.72	31.688
451.07	31.724
451.42	32.065
451.77	31.102
452.12	31.313
452.47	32.860
452.83	31.014
453.18	31.827
453.53	32.346
453.88	31.928
454.23	31.706
454.58	30.944
454.93	31.110
455.28	32.113
455.63	30.942
455.98	31.528
456.34	30.896
456.69	31.502
457.04	31.022
457.39	31.449
457.74	31.538
458.09	30.746
458.44	31.257
458.79	31.631
459.14	30.169
459.49	32.012
459.84	31.229
460.19	30.432
460.54	31.813
460.89	31.194
461.24	31.319
461.59	31.039
461.94	31.795
462.29	30.760
462.64	31.398
462.99	30.584
463.34	32.113
463.69	31.314
464.04	30.252
464.39	30.872
464.74	30.405
465.09	30.378
465.44	29.798
465.79	31.455
466.14	30.160
466.49	30.205
466.84	30.484
467.19	30.382
467.54	30.784
467.89	30.798
468.24	30.793
468.59	30.338
468.94	31.354
469.29	30.007
469.64	29.986
469.99	31.586
470.34	30.546
470.68	29.368
471.03	30.324
471.38	29.972
471.73	30.453
472.08	30.378
472.43	30.871
472.78	30.629
473.13	28.958
473.48	30.137
473.83	30.257
474.17	29.297
474.52	29.838
474.87	29.312
475.22	29.831
475.57	29.950
475.92	30.098
476.27	28.963
476.61	28.935
476.96	29.469
477.31	29.881
477.66	29.718
478.01	28.681
478.36	28.556
478.70	29.431
479.05	29.467
479.40	28.445
479.75	28.587
480.10	29.832
480.45	28.543
480.79	28.671
481.14	29.838
481.49	29.699
481.84	28.275
482.19	28.393
482.53	28.762
482.88	28.955
483.23	27.767
483.58	28.922
483.92	28.210
484.27	27.768
484.62	28.495
484.97	28.992
485.31	28.719
485.66	27.394
486.01	27.274
486.36	27.657
486.70	27.523
487.05	28.204
487.40	28.166
487.75	28.252
488.09	28.495
488.44	28.181
488.79	28.388
489.13	27.515
489.48	27.961
489.83	28.182
490.17	28.098
490.52	28.097
490.87	27.492
491.22	28.121
491.56	28.366
491.91	27.220
492.26	28.385
492.60	27.706
492.95	27.502
493.30	27.471
493.64	27.290
493.99	27.005
494.34	27.938
494.68	27.924
495.03	26.877
495.37	27.543
495.72	27.820
496.07	27.375
496.41	27.141
496.76	27.102
497.11	26.901
497.45	27.432
497.80	27.663
498.14	26.952
498.49	27.131
498.84	27.126
499.18	26.431
499.53	26.637
499.87	25.861
500.22	26.730
500.56	27.232
500.91	27.616
501.26	26.601
501.60	25.882
501.95	26.689
502.29	26.456
502.64	27.580
502.98	26.830
503.33	26.034
503.67	26.582
504.02	25.882
504.36	25.953
504.71	26.169
505.06	26.949
505.40	25.825
505.75	26.653
506.09	27.236
506.44	26.109
506.78	26.511
507.13	26.871
507.47	25.822
507.82	26.531
508.16	26.544
508.51	25.775
508.85	26.490
509.19	26.455
509.54	27.024
509.88	26.344
510.23	26.211
510.57	26.165
510.92	26.401
511.26	26.788
511.61	26.125
511.95	26.461
512.30	25.042
512.64	26.107
512.98	25.651
513.33	25.803
513.67	25.497
514.02	26.283
514.36	26.292
514.70	25.462
515.05	26.273
515.39	26.415
515.74	26.110
516.08	25.841
516.42	25.518
516.77	25.366
517.11	25.338
517.46	26.651
517.80	26.211
518.14	25.842
518.49	25.196
518.83	25.716
519.17	25.181
519.52	25.694
519.86	26.897
520.20	25.531
520.55	26.306
520.89	26.755
521.23	26.026
521.58	25.474
521.92	26.147
522.26	26.415
522.61	25.145
522.95	25.518
523.29	25.397
523.64	25.366
523.98	25.095
524.32	25.331
524.66	25.519
525.01	25.819
525.35	26.201
525.69	25.646
526.04	25.928
526.38	26.004
526.72	24.984
527.06	24.694
527.41	25.811
527.75	25.167
528.09	26.344
528.43	25.645
528.78	24.225
529.12	25.485
529.46	26.040
529.80	25.307
530.15	24.775
530.49	25.202
530.83	25.186
531.17	24.110
531.51	25.017
531.86	24.593
532.20	25.500
532.54	24.759
532.88	24.779
533.22	25.455
533.57	24.570
533.91	25.032
534.25	25.065
534.59	24.775
534.93	24.872
535.27	24.140
535.62	23.947
535.96	25.439
536.30	25.598
536.64	23.923
536.98	23.546
537.32	24.911
537.66	24.683
538.01	24.133
538.35	24.378
538.69	23.612
539.03	23.356
539.37	23.944
539.71	24.420
540.05	23.617
540.39	24.157
540.73	23.324
541.07	24.082
541.42	24.310
541.76	24.357
542.10	23.764
542.44	24.116
542.78	24.913
543.12	24.394
543.46	23.428
543.80	23.014
544.14	23.538
544.48	23.026
544.82	23.874
545.16	23.800
545.50	23.633
545.84	22.861
546.18	23.492
546.52	23.147
546.86	22.544
547.20	23.517
547.54	22.302
547.88	23.617
548.22	23.648
548.56	23.282
548.90	23.207
549.24	24.097
549.58	22.562
549.92	22.524
550.26	24.207
550.60	22.147
550.94	23.284
551.28	22.332
551.62	22.932
551.96	23.060
552.30	22.052
552.64	22.458
552.98	22.869
553.32	23.071
553.66	24.505
554.00	22.102
554.34	22.930
554.68	22.819
555.02	22.380
555.36	22.769
555.69	21.850
556.03	21.730
556.37	22.333
556.71	21.654
557.05	21.919
557.39	22.457
557.73	22.088
558.07	20.799
558.41	22.861
558.75	22.479
559.08	21.652
559.42	22.659
559.76	21.560
560.10	22.060
560.44	22.697
560.78	21.295
561.12	22.565
561.45	21.837
561.79	22.146
562.13	22.082
562.47	21.929
562.81	21.934
563.15	21.671
563.48	22.092
563.82	21.135
564.16	21.327
564.50	21.506
564.84	20.811
565.17	22.649
565.51	21.992
565.85	21.252
566.19	22.119
566.52	21.166
566.86	20.670
567.20	20.709
567.54	20.956
567.88	20.157
568.21	21.130
568.55	21.231
568.89	20.489
569.23	20.807
569.56	20.359
569.90	20.437
570.24	19.964
570.57	20.471
570.91	20.340
571.25	20.223
571.59	20.295
571.92	20.241
572.26	20.196
572.60	20.480
572.93	20.087
573.27	20.103
573.61	20.328
573.95	20.307
574.28	20.547
574.62	19.896
574.96	20.522
575.29	19.910
575.63	20.074
575.97	20.299
576.30	20.264
576.64	20.409
576.98	20.005
577.31	19.887
577.65	19.549
577.98	19.781
578.32	19.555
578.66	19.789
578.99	20.305
579.33	19.740
579.67	20.061
580.00	19.578
580.34	20.068
580.67	20.162
581.01	19.496
581.35	19.912
581.68	19.591
582.02	19.514
582.35	20.011
582.69	19.729
583.02	19.384
583.36	19.788
583.70	19.528
584.03	20.032
584.37	19.672
584.70	20.373
585.04	19.810
585.37	19.417
585.71	19.826
586.04	19.549
586.38	19.205
586.72	19.472
587.05	19.684
587.39	19.414
587.72	19.681
588.06	19.808
588.39	20.011
588.73	19.344
589.06	18.978
589.40	19.401
589.73	19.008
590.07	19.358
590.40	19.122
590.73	19.935
591.07	19.390
591.40	19.348
591.74	18.942
592.07	19.306
592.41	19.391
592.74	18.981
593.08	18.154
593.41	19.621
593.75	18.411
594.08	18.929
594.41	18.757
594.75	19.528
595.08	19.081
595.42	18.790
595.75	18.655
596.09	19.515
596.42	18.627
596.75	19.219
597.09	19.700
597.42	19.560
597.75	19.111
598.09	18.989
598.42	19.911
598.76	18.724
599.09	18.447
599.42	18.731
599.76	19.189
600.09	18.976
600.42	19.284
600.76	18.736
601.09	18.795
601.42	18.659
601.76	19.382
602.09	19.619
602.42	19.397
602.76	17.953
603.09	19.261
603.42	18.353
603.76	18.589
604.09	18.814
604.42	17.957
604.76	18.333
605.09	18.804
605.42	19.253
605.75	18.073
606.09	18.171
606.42	18.537
606.75	17.619
607.09	18.839
607.42	18.695
607.75	17.899
608.08	19.297
608.42	18.416
608.75	18.968
609.08	18.177
609.41	18.579
609.75	17.700
610.08	17.653
610.41	18.902
610.74	18.720
611.07	18.537
611.41	19.396
611.74	18.323
612.07	18.134
612.40	19.243
612.73	18.332
613.07	19.678
613.40	18.227
613.73	18.689
614.06	18.353
614.39	17.843
614.72	18.490
615.06	18.000
615.39	17.826
615.72	17.657
616.05	17.736
616.38	18.270
616.71	18.476
617.05	18.243
617.38	17.683
617.71	17.892
618.04	18.647
618.37	19.117
618.70	18.887
619.03	18.007
619.36	18.434
619.69	17.544
620.03	18.445
620.36	17.606
620.69	17.131
621.02	17.000
621.35	17.743
621.68	18.419
622.01	17.718
622.34	16.653
622.67	18.794
623.00	18.921
623.33	17.951
623.66	17.175
623.99	17.704
624.32	18.415
624.65	17.136
624.99	18.148
625.32	17.700
625.65	16.899
625.98	17.773
626.31	18.449
626.64	17.455
626.97	17.907
627.30	17.451
627.63	17.388
627.96	17.143
628.29	17.395
628.62	18.375
628.95	17.936
629.28	17.438
629.61	18.852
629.94	17.795
630.26	18.128
630.59	17.283
630.92	17.470
631.25	17.302
631.58	18.844
631.91	16.861
632.24	17.014
632.57	17.333
632.90	18.320
633.23	17.746
633.56	19.185
633.89	19.617
634.22	20.495
634.55	19.367
634.88	18.995
635.20	19.125
635.53	16.925
635.86	16.667
636.19	18.114
636.52	15.610
636.85	18.577
637.18	16.322
637.51	16.854
637.83	18.146
638.16	17.600
638.49	17.891
638.82	15.948
639.15	18.351
639.48	17.513
639.81	17.778
640.13	18.169
640.46	18.927
640.79	16.547
641.12	16.864
641.45	18.049
641.77	16.937
642.10	18.608
642.43	17.138
642.76	16.088
643.09	16.294
643.41	18.182
643.74	16.640
644.07	16.828
644.40	18.408
644.73	15.763
645.05	17.277
645.38	14.452
645.71	17.517
646.04	14.646
646.36	16.319
646.69	19.056
647.02	17.668
647.35	16.088
647.67	19.224
648.00	14.674
648.33	17.119
648.66	18.030
648.98	18.478
649.31	16.411
649.64	15.806
649.96	16.272
650.29	16.503
650.62	16.145
650.94	18.793
651.27	16.078
651.60	16.783
651.92	15.054
652.25	17.420
652.58	16.172
652.90	14.983
653.23	14.092
653.56	14.711
653.88	15.700
654.21	15.700
654.54	15.615
654.86	13.984
655.19	15.406
655.52	16.957
655.84	15.264
656.17	18.725
656.49	24.972
656.82	25.013
657.15	18.766
657.47	13.778
657.80	10.454
658.13	11.015
658.45	16.892
658.78	16.511
659.10	16.279
659.43	16.384
659.75	16.137
660.08	15.586
660.41	15.213
660.73	16.391
661.06	15.986
661.38	14.535
661.71	17.418
662.03	16.279
662.36	15.265
662.68	14.839
663.01	15.890
663.33	15.983
663.66	14.412
663.98	15.506
664.31	14.286
664.63	10.360
664.96	15.317
665.28	17.597
665.61	13.391
665.93	16.274
666.26	16.245
666.58	14.561
666.91	14.126
667.23	18.433
667.56	15.172
667.88	14.953
668.21	15.625
668.53	16.782
668.86	16.307
669.18	14.657
669.50	15.899
669.83	15.752
670.15	15.476
670.48	14.713
670.80	18.818
671.13	15.332
671.45	15.982
671.77	16.810
672.10	15.400
672.42	16.603
672.75	14.107
673.07	14.727
673.39	17.164
673.72	16.766
674.04	15.574
674.37	15.650
674.69	13.992
675.01	14.744
675.34	15.098
675.66	15.686
675.98	13.274
676.31	16.742
676.63	16.100
676.95	15.529
677.28	14.679
677.60	14.951
677.92	16.630
678.25	14.100
678.57	18.126
678.89	16.418
679.22	14.079
679.54	15.918
679.86	13.477
680.18	14.231
680.51	15.192
680.83	11.306
681.15	17.289
681.48	15.431
681.80	14.724
682.12	11.667
682.44	12.072
682.77	10.737
683.09	13.839
683.41	15.581
683.73	12.723
684.06	14.159
684.38	12.179
684.70	11.813
685.02	16.116
685.34	14.090
685.67	13.884
685.99	15.480
686.31	15.862
686.63	14.890
686.96	13.915
687.28	14.172
687.60	15.501
687.92	12.451
688.24	13.200
688.56	16.667
688.89	16.258
689.21	14.574
689.53	10.586
689.85	13.483
690.17	16.923
690.49	13.285
690.82	13.365
691.14	14.734
691.46	12.065
691.78	12.527
692.10	14.437
692.42	12.308
692.74	11.522
693.06	12.135
693.39	12.412
693.71	15.111
694.03	15.455
694.35	15.766
694.67	15.500
694.99	17.010
695.31	13.953
695.63	15.122
695.95	13.740
696.27	8.493
696.59	14.785
696.91	9.497
697.23	13.706
697.56	15.588
697.88	13.929
698.20	15.335
698.52	12.150
698.84	14.354
699.16	13.475
699.48	15.556
699.80	16.021
700.12	15.550
700.44	10.704
700.76	9.270
701.08	11.782
701.40	13.772
701.72	12.923
702.04	12.893
702.36	11.585
702.68	13.110
703.00	14.912
703.32	14.485
703.64	11.747
703.96	12.317
704.28	11.145
704.60	9.756
704.91	10.972
705.23	12.342
705.55	10.345
705.87	14.789
706.19	7.326
706.51	11.620
706.83	10.191
707.15	13.415
707.47	13.499
707.79	10.914
708.11	13.625
708.43	14.721
708.74	15.691
709.06	11.765
709.38	13.545
709.70	13.814
710.02	10.592
710.34	11.333
710.66	14.007
710.98	13.313
711.29	14.286
711.61	13.871
711.93	10.000
712.25	12.937
712.57	8.421
712.89	12.454
713.20	9.220
713.52	8.394
713.84	12.581
714.16	8.738
714.48	10.443
714.80	10.863
715.11	17.733
715.43	9.938
715.75	13.043
716.07	14.458
716.39	12.121
716.70	14.029
717.02	9.020
717.34	9.848
717.66	12.931
717.97	8.333
718.29	14.173
718.61	9.442
718.93	10.465
719.24	12.177
719.56	11.985
719.88	9.701
720.20	7.115
720.51	11.328
720.83	10.506
721.15	8.943
721.46	13.359
721.78	13.944
722.10	8.765
722.42	9.274
722.73	12.355
723.05	15.510
723.37	11.765
723.68	11.200
724.00	7.660
724.32	7.950
724.63	13.169
724.95	8.547
725.27	16.878
725.58	14.403
725.90	7.950
726.22	10.507
726.53	11.765
726.85	13.504
727.16	8.519
727.48	11.111
727.80	7.422
728.11	8.197
728.43	12.500
728.74	11.905
729.06	6.400
729.38	11.462
729.69	9.964
730.01	8.922
730.32	9.594
730.64	10.227
730.96	11.538
731.27	9.365
731.59	7.302
731.90	11.974
732.22	6.410
732.53	8.446
732.85	11.074
733.16	8.251
733.48	11.486
733.80	11.149
734.11	14.527
734.43	11.765
734.74	12.913
735.06	12.680
735.37	13.374
735.69	10.356
736.00	9.901
736.32	10.284
736.63	7.241
736.95	9.247
737.26	8.621
737.58	11.806
737.89	11.340
738.21	8.185
738.52	9.506
738.83	9.388
739.15	9.283
739.46	11.284
739.78	9.507
740.09	9.932
740.41	8.571
740.72	9.929
741.04	11.600
741.35	9.649
741.66	12.000
741.98	9.615
742.29	13.366
742.61	6.829
742.92	9.649
743.23	9.434
743.55	15.766
743.86	12.556
744.18	9.314
744.49	10.660
744.80	13.776
745.12	9.813
745.43	8.531
745.74	13.514
746.06	8.879
746.37	11.009
746.68	7.692
747.00	10.048
747.31	9.135
747.62	11.468
747.94	10.044
748.25	8.257
748.56	12.889
748.88	18.310
749.19	10.476
749.50	3.398
749.82	8.920
750.13	2.917
750.44	9.615
750.75	7.749
751.07	14.591
751.38	10.993
751.69	8.108
752.01	13.281
752.32	7.308
752.63	9.701
752.94	10.000
753.26	9.623
753.57	14.167
753.88	10.121
754.19	8.367
754.51	8.271
754.82	10.256
755.13	4.348
755.44	11.789
755.75	5.200
756.07	7.380
756.38	14.029
756.69	11.263
757.00	14.642
757.31	7.767
757.63	7.407
757.94	11.299
758.25	11.376
758.56	8.424
758.87	11.012
759.18	12.618
759.50	9.428
759.81	13.378
760.12	12.000
760.43	12.500
760.74	9.887
761.05	9.669
761.36	8.309
761.67	9.063
761.99	10.653
762.30	5.839
762.61	3.704
762.92	15.812
763.23	20.492
763.54	8.225
763.85	8.980
764.16	4.065
764.47	8.800
764.78	10.000
765.10	12.131
765.41	10.030
765.72	9.317
766.03	11.551
766.34	8.077
766.65	7.113
766.96	7.042
767.27	12.871
767.58	0.562
767.89	7.407
768.20	8.840
768.51	12.060
768.82	10.096
769.13	9.735
769.44	11.297
769.75	2.564
770.06	8.072
770.37	8.333
770.68	9.223
770.99	4.854
771.30	9.244
771.61	8.980
771.92	13.278
772.23	7.207
772.54	5.525
772.85	6.395
773.16	15.873
773.47	-1.183
773.78	13.218
774.09	4.375
774.39	8.696
774.70	9.524
775.01	5.517
775.32	2.143
775.63	6.767
775.94	6.015
776.25	0.800
776.56	14.876
776.87	7.143
777.18	4.505
777.48	1.802
777.79	3.150
778.10	3.670
778.41	-7.895
778.72	1.681
779.03	-2.817
779.34	12.838
779.65	10.563
779.95	16.556
780.26	2.158
780.57	1.439
780.88	0.000
781.19	-1.681
781.50	15.436
781.80	11.111
782.11	2.326
782.42	11.321
782.73	7.190
783.04	7.586
783.34	13.740
783.65	6.040
783.96	0.000
784.27	5.714
784.57	6.383
784.88	-6.731
785.19	22.727
785.50	2.727
785.81	-1.905
786.11	2.521
786.42	3.540
786.73	3.774
787.04	-4.587
787.34	-2.970
787.65	10.833
787.96	4.959
788.26	10.145
788.57	7.143
788.88	4.878
789.19	3.200
789.49	3.053
789.80	12.121
790.11	-0.943
790.41	6.931
790.72	-8.511
791.03	-11.957
791.33	1.176
791.64	2.469
791.95	11.957
792.25	9.091
792.56	5.128
792.87	-5.128
793.17	-2.564
793.48	-4.762
793.79	-1.250
794.09	14.423
794.40	17.708
794.70	11.712
795.01	2.344
795.32	7.826
795.62	-8.696
795.93	-2.830
796.23	0.000
796.54	-7.317
796.85	-8.333
797.15	-10.606
797.46	7.246
797.76	-2.632
798.07	13.636
798.37	3.659
798.68	-3.226
798.99	-4.054
799.29	16.867
799.60	-2.564
799.90	-4.615
800.21	1.515
800.51	-6.667
800.82	4.000
801.12	-35.417
801.43	-20.000
801.73	9.459
802.04	14.286
802.34	8.197
802.65	7.463
802.95	3.636
803.26	-8.621
803.56	-6.154
803.87	11.321
804.17	3.226
804.48	8.824
804.78	-21.951
805.09	5.797
805.39	-2.941
805.70	-27.660
806.00	-5.263
806.30	2.564
806.61	0.000
806.91	1.351
807.22	6.579
807.52	3.409
807.83	-13.559
808.13	-28.788
808.43	-8.333
808.74	3.448
809.04	-9.524
809.35	-12.245
809.65	-5.000
809.95	-26.531
810.26	7.042
810.56	0.000
810.86	-14.286
811.17	-15.385
811.47	4.255
811.77	-6.250
812.08	-26.415
812.38	-21.875
812.69	-1.818
812.99	-19.512
813.29	-24.324
813.59	-35.135
813.90	1.818
814.20	-9.091
814.50	-8.333
814.81	-9.091
815.11	-3.509
815.41	13.953
815.72	-17.500
816.02	-17.143
816.32	-29.730
816.62	8.333
816.93	20.000
817.23	2.222
817.53	-44.444
817.84	-8.108
818.14	0.000
818.44	-10.000
818.74	-22.449
819.04	2.439
819.35	-33.333
819.65	-13.636
819.95	-83.333
820.25	-15.152
820.56	-42.857
820.86	-25.000
821.16	-13.636
821.46	-21.739
821.76	8.621
822.07	-10.870
822.37	-12.121
822.67	-2.439
822.97	21.622
823.27	-37.143
823.57	10.345
823.88	-26.471
824.18	0.000
824.48	-20.000
824.78	-9.524
825.08	-25.000
825.38	-22.222
825.69	-19.355
825.99	-7.317
826.29	-22.222
826.59	-25.000
826.89	-38.710
827.19	-17.391
827.49	-8.333
827.79	-69.565
828.09	-41.935
828.39	4.167
828.70	-50.000
829.00	-31.034
829.30	-16.216
829.60	-100.000
829.90	-25.926
830.20	-40.625
830.50	-27.273
830.80	-117.647
831.10	-63.636
831.40	-35.294
831.70	-15.385
832.00	-3.030
832.30	-20.588
832.60	-24.324
832.90	600.000
833.20	-39.286
833.50	-70.000
833.80	-2.632
834.10	-37.500
834.40	-72.727
834.70	-160.000
835.00	-160.000
835.30	-75.000
835.60	-38.095
835.90	-57.143
836.20	-24.000
836.50	-50.000
836.80	-73.684
837.10	0.000
837.40	6.667
837.70	-47.826
838.00	-4.167
838.30	-47.368
838.60	-130.000
838.90	-180.000
839.19	-116.667
839.49	-107.692
839.79	-57.895
840.09	-166.667
840.39	-100.000
840.69	-31.818
840.99	14.286
841.29	-45.833
841.59	-100.000
841.88	-113.333
842.18	-28.571
842.48	6.667
842.78	-285.714
843.08	-57.143
843.38	-187.500
843.68	-75.000
843.97	-42.857
844.27	-200.000
844.57	-163.636
844.87	-53.333
845.17	-13.636
845.47	1000.000
845.76	-33.333
846.06	-25.000
846.36	-1250.000
846.66	-78.947
846.96	-40.909
847.25	-100.000
847.55	-188.889
847.85	-109.524
848.15	-38.462
848.44	-316.667
848.74	-50.000
849.04	-123.077
849.34	-275.000
849.63	-109.091
849.93	-114.286
850.23	-5.000
850.53	-162.500
850.82	-27.778
851.12	6.667
851.42	-47.059
851.71	-75.000
852.01	-5.882
852.31	-76.923
852.61	650.000
852.90	11.765
853.20	-80.000
853.50	-18.750
853.79	-185.714
854.09	-425.000
854.39	-35.000
854.68	-20.000
854.98	-19.048
855.28	-8.000
855.57	-25.000
855.87	-25.000
856.17	-8.000
856.46	-21.875
856.76	-20.000
857.05	4.000
857.35	-83.333
857.65	-82.353
857.94	-91.667
858.24	-133.333
858.53	-40.000
858.83	-181.818
859.13	-8.000
859.42	-185.714
859.72	-125.000
860.01	4.167
860.31	-237.500
860.60	-37.500
860.90	-216.667
861.20	-133.333
861.49	6.667
861.79	-81.250
862.08	300.000
862.38	-166.667
862.67	271.429
862.97	300.000
863.26	-127.273
863.56	-63.636
863.85	5.263
864.15	-70.588
864.44	-300.000
864.74	-150.000
865.03	-166.667
865.33	-21.429
865.62	178.571
865.92	-63.158
866.21	-33.333
866.51	-63.636
866.80	-144.444
867.10	-212.500
867.39	-43.750
867.69	-80.000
867.98	-90.000
868.27	-23.529
868.57	0.000
868.86	450.000
869.16	-350.000
869.45	-228.571
869.75	350.000
870.04	-20.000
870.33	-1200.000
870.63	-68.421
870.92	-91.667
871.22	-1100.000
871.51	-228.571
871.80	-300.000
872.10	-175.000
>>>>>End Processed Spectral Data<<<<<
