SpectraSuite Data File
++++++++++++++++++++++++++++++++++++
Date: Wed May 13 21:30:46 PDT 2015
User: schluterlab
Dark Spectrum Present: Yes
Reference Spectrum Present: Yes
Number of Sampled Component Spectra: 1
Spectrometers: USB2E3373
Integration Time (usec): 3000 (USB2E3373)
Spectra Averaged: 3 (USB2E3373)
Boxcar Smoothing: 0 (USB2E3373)
Correct for Electrical Dark: No (USB2E3373)
Strobe/Lamp Enabled: No (USB2E3373)
Correct for Detector Non-linearity: No (USB2E3373)
Correct for Stray Light: No (USB2E3373)
Number of Pixels in Processed Spectrum: 2048
>>>>>Begin Processed Spectral Data<<<<<
178.53	0.000
178.91	400.000
179.29	250.000
179.67	-700.000
180.04	-433.333
180.42	200.000
180.80	1200.000
181.18	216.667
181.56	-500.000
181.94	-375.000
182.31	-27.273
182.69	176.923
183.07	-280.000
183.45	283.333
183.83	111.111
184.20	42.857
184.58	0.000
184.96	500.000
185.34	242.857
185.72	0.000
186.09	-700.000
186.47	-240.000
186.85	180.000
187.23	-150.000
187.61	700.000
187.98	1900.000
188.36	-62.500
188.74	0.000
189.12	-127.273
189.49	-70.000
189.87	150.000
190.25	560.000
190.63	1200.000
191.00	-280.000
191.38	240.000
191.76	425.000
192.14	108.333
192.51	-10.526
192.89	566.667
193.27	450.000
193.65	-120.000
194.02	190.909
194.40	160.000
194.78	-1400.000
195.15	380.000
195.53	-420.000
195.91	-75.000
196.29	-200.000
196.66	0.000
197.04	250.000
197.42	-160.000
197.79	-30.000
198.17	-100.000
198.55	-166.667
198.92	175.000
199.30	-433.333
199.68	-80.000
200.05	750.000
200.43	316.667
200.81	-300.000
201.18	-200.000
201.56	-283.333
201.94	750.000
202.31	17.391
202.69	-42.857
203.07	-433.333
203.44	-80.000
203.82	-866.667
204.19	-50.000
204.57	0.000
204.95	-216.667
205.32	0.000
205.70	-500.000
206.08	-325.000
206.45	-166.667
206.83	375.000
207.20	-466.667
207.58	-100.000
207.96	-900.000
208.33	-71.429
208.71	-1700.000
209.08	212.500
209.46	500.000
209.84	0.000
210.21	190.000
210.59	1300.000
210.96	440.000
211.34	1800.000
211.71	-950.000
212.09	-50.000
212.46	-190.000
212.84	-266.667
213.22	-75.000
213.59	300.000
213.97	-850.000
214.34	-400.000
214.72	-61.538
215.09	175.000
215.47	155.556
215.84	900.000
216.22	-25.000
216.59	0.000
216.97	533.333
217.34	188.889
217.72	0.000
218.09	633.333
218.47	-800.000
218.84	-128.571
219.22	-212.500
219.59	-266.667
219.97	-300.000
220.34	-200.000
220.72	-240.000
221.09	0.000
221.47	-133.333
221.84	-900.000
222.22	0.000
222.59	1100.000
222.97	-300.000
223.34	-41.667
223.72	-1100.000
224.09	-650.000
224.46	-27.273
224.84	-100.000
225.21	-100.000
225.59	-200.000
225.96	-50.000
226.34	-160.000
226.71	-328.571
227.08	500.000
227.46	-100.000
227.83	-500.000
228.21	-31.250
228.58	-250.000
228.95	-29.412
229.33	-56.250
229.70	-125.000
230.08	-30.769
230.45	-100.000
230.82	-116.667
231.20	185.714
231.57	-275.000
231.95	1600.000
232.32	-33.333
232.69	0.000
233.07	-1800.000
233.44	-17.391
233.81	-750.000
234.19	-4.167
234.56	-126.667
234.93	-86.667
235.31	15.789
235.68	-123.077
236.05	-84.615
236.43	-50.000
236.80	-30.303
237.17	-126.667
237.55	-117.647
237.92	-55.172
238.29	-103.704
238.67	-47.222
239.04	-48.387
239.41	-31.915
239.79	-19.149
240.16	-16.279
240.53	-14.286
240.91	-19.643
241.28	-33.929
241.65	-16.129
242.02	0.000
242.40	-13.043
242.77	-24.638
243.14	-16.667
243.51	-11.702
243.89	-6.731
244.26	0.943
244.63	-22.115
245.00	-6.250
245.38	-5.042
245.75	-9.016
246.12	-9.023
246.49	-19.512
246.87	-16.807
247.24	1.351
247.61	-6.623
247.98	-4.487
248.36	-7.692
248.73	-8.989
249.10	-4.040
249.47	-13.441
249.84	-10.000
250.22	-3.980
250.59	-3.738
250.96	-2.727
251.33	-9.091
251.70	1.674
252.08	-6.276
252.45	-1.235
252.82	0.000
253.19	-3.891
253.56	-3.957
253.94	3.559
254.31	-3.521
254.68	-0.336
255.05	-0.330
255.42	-1.049
255.79	-2.761
256.16	1.577
256.54	-2.857
256.91	-4.430
257.28	0.314
257.65	-1.592
258.02	-2.639
258.39	0.000
258.76	-2.907
259.14	-2.557
259.51	-1.685
259.88	-1.084
260.25	-2.778
260.62	-4.213
260.99	-1.326
261.36	0.000
261.73	-2.716
262.10	-3.817
262.47	-4.691
262.85	-1.493
263.22	-2.308
263.59	-4.156
263.96	-3.893
264.33	-2.885
264.70	-0.233
265.07	-0.231
265.44	0.230
265.81	0.686
266.18	-2.733
266.55	-2.620
266.92	-1.483
267.29	-2.263
267.66	-1.274
268.03	1.440
268.40	-2.331
268.77	-0.620
269.14	-0.816
269.51	4.312
269.88	-0.611
270.25	-1.059
270.62	-1.639
270.99	-0.787
271.36	-2.976
271.73	-1.004
272.10	0.762
272.47	-0.768
272.84	-1.969
273.21	-1.566
273.58	-3.279
273.95	-2.453
274.32	0.000
274.69	-1.275
275.06	3.534
275.43	-1.130
275.80	-0.177
276.17	-0.552
276.54	-0.355
276.91	-1.045
277.28	-1.625
277.65	0.350
278.02	0.179
278.39	-1.066
278.76	-0.167
279.13	0.000
279.50	-0.862
279.87	-0.906
280.23	-0.360
280.60	-1.730
280.97	-0.649
281.34	1.420
281.71	-1.301
282.08	-0.684
282.45	-1.148
282.82	0.319
283.19	0.305
283.56	-0.312
283.92	-1.070
284.29	0.000
284.66	-0.494
285.03	-1.792
285.40	-1.813
285.77	0.601
286.14	0.608
286.51	2.099
286.87	-1.385
287.24	-0.442
287.61	-0.452
287.98	-0.294
288.35	-0.894
288.72	1.148
289.08	0.997
289.45	0.587
289.82	0.000
290.19	0.000
290.56	-1.278
290.93	-1.105
291.29	-0.821
291.66	-1.230
292.03	0.272
292.40	0.000
292.77	1.071
293.13	0.558
293.50	1.569
293.87	-0.800
294.24	1.852
294.60	-0.260
294.97	2.513
295.34	-1.187
295.71	-0.394
296.08	-1.440
296.44	-0.383
296.81	-1.218
297.18	0.500
297.55	0.708
297.91	-0.497
298.28	0.121
298.65	0.246
299.02	0.977
299.38	-0.736
299.75	0.361
300.12	-0.116
300.48	-1.053
300.85	0.808
301.22	0.465
301.59	0.587
301.95	-1.161
302.32	0.467
302.69	-0.339
303.05	0.000
303.42	1.705
303.79	0.946
304.15	-0.329
304.52	0.430
304.89	-0.775
305.25	-0.659
305.62	0.000
305.99	0.326
306.35	0.940
306.72	0.916
307.09	0.626
307.45	-0.213
307.82	0.316
308.19	-0.627
308.55	-0.307
308.92	1.277
309.29	-0.400
309.65	0.699
310.02	1.789
310.38	0.508
310.75	-0.197
311.12	0.972
311.48	0.791
311.85	1.476
312.22	1.547
312.58	1.063
312.95	0.597
313.31	1.837
313.68	1.431
314.05	2.647
314.41	2.402
314.78	1.708
315.14	2.130
315.51	2.569
315.87	3.336
316.24	3.857
316.61	3.470
316.97	3.333
317.34	3.743
317.70	4.014
318.07	4.437
318.43	3.884
318.80	4.014
319.16	4.598
319.53	4.480
319.89	4.336
320.26	5.453
320.62	5.746
320.99	6.105
321.35	6.174
321.72	6.352
322.08	7.934
322.45	7.863
322.81	8.041
323.18	8.945
323.54	8.394
323.91	10.027
324.27	10.261
324.64	9.408
325.00	11.636
325.37	12.713
325.73	11.448
326.10	11.690
326.46	14.047
326.83	13.026
327.19	14.878
327.56	16.358
327.92	14.964
328.29	16.945
328.65	17.353
329.01	16.535
329.38	18.522
329.74	18.369
330.11	18.665
330.47	16.406
330.84	18.682
331.20	19.727
331.56	19.384
331.93	20.930
332.29	19.983
332.66	20.085
333.02	21.199
333.38	21.491
333.75	21.246
334.11	20.312
334.48	21.970
334.84	21.378
335.20	21.012
335.57	21.932
335.93	20.876
336.29	21.016
336.66	22.137
337.02	20.870
337.38	21.758
337.75	21.447
338.11	21.947
338.47	21.490
338.84	21.649
339.20	21.869
339.56	21.758
339.93	22.990
340.29	22.886
340.65	22.412
341.02	21.631
341.38	22.466
341.74	20.924
342.11	22.461
342.47	21.506
342.83	22.386
343.20	22.843
343.56	23.140
343.92	21.933
344.28	22.159
344.65	22.204
345.01	22.357
345.37	23.684
345.73	22.958
346.10	22.713
346.46	21.138
346.82	22.231
347.19	20.965
347.55	21.809
347.91	21.278
348.27	21.924
348.63	22.115
349.00	21.148
349.36	22.841
349.72	22.506
350.08	22.075
350.45	22.005
350.81	22.379
351.17	21.324
351.53	21.681
351.89	21.128
352.26	20.772
352.62	21.085
352.98	21.086
353.34	21.981
353.70	22.664
354.07	21.725
354.43	20.995
354.79	22.917
355.15	22.283
355.51	21.868
355.87	21.188
356.24	20.385
356.60	20.407
356.96	22.717
357.32	21.362
357.68	21.772
358.04	21.877
358.40	22.326
358.77	21.636
359.13	22.568
359.49	22.256
359.85	22.062
360.21	21.511
360.57	22.129
360.93	22.382
361.29	21.244
361.66	22.323
362.02	21.423
362.38	22.452
362.74	21.102
363.10	21.620
363.46	20.749
363.82	21.656
364.18	22.117
364.54	21.736
364.90	21.394
365.26	21.515
365.62	21.804
365.98	21.566
366.35	22.411
366.71	21.184
367.07	21.970
367.43	21.463
367.79	21.543
368.15	21.449
368.51	22.011
368.87	21.982
369.23	22.135
369.59	22.058
369.95	20.537
370.31	21.130
370.67	21.941
371.03	23.385
371.39	21.434
371.75	22.429
372.11	21.795
372.47	22.134
372.83	22.538
373.19	22.302
373.55	21.460
373.91	22.631
374.27	21.300
374.63	22.333
374.99	21.448
375.35	21.712
375.71	20.856
376.07	22.207
376.42	22.393
376.78	22.919
377.14	22.576
377.50	23.338
377.86	21.912
378.22	22.124
378.58	21.059
378.94	22.750
379.30	21.736
379.66	22.811
380.02	22.549
380.38	22.048
380.74	22.714
381.09	22.075
381.45	22.854
381.81	22.921
382.17	22.558
382.53	22.277
382.89	21.834
383.25	22.778
383.61	22.518
383.97	22.500
384.32	21.928
384.68	21.653
385.04	21.747
385.40	22.478
385.76	22.871
386.12	22.531
386.48	21.693
386.83	21.652
387.19	22.270
387.55	22.685
387.91	23.247
388.27	22.503
388.62	21.973
388.98	22.841
389.34	22.682
389.70	22.161
390.06	23.375
390.42	23.196
390.77	22.357
391.13	23.106
391.49	22.770
391.85	21.917
392.20	22.494
392.56	23.048
392.92	22.411
393.28	21.964
393.64	22.385
393.99	21.542
394.35	22.716
394.71	22.821
395.07	21.698
395.42	22.243
395.78	22.136
396.14	21.877
396.50	22.575
396.85	24.156
397.21	22.722
397.57	22.547
397.92	21.976
398.28	22.448
398.64	22.404
399.00	22.768
399.35	22.588
399.71	22.248
400.07	23.193
400.42	22.633
400.78	22.417
401.14	22.011
401.49	22.229
401.85	22.359
402.21	22.539
402.57	22.134
402.92	22.090
403.28	21.639
403.63	22.133
403.99	21.561
404.35	22.195
404.70	21.511
405.06	22.020
405.42	21.734
405.77	21.832
406.13	22.114
406.49	22.828
406.84	22.711
407.20	22.499
407.55	22.468
407.91	21.972
408.27	22.084
408.62	23.143
408.98	22.996
409.34	21.844
409.69	23.197
410.05	22.388
410.40	21.120
410.76	22.082
411.11	22.637
411.47	22.495
411.83	21.772
412.18	22.040
412.54	22.995
412.89	22.257
413.25	21.239
413.60	22.382
413.96	22.285
414.31	21.332
414.67	21.778
415.03	22.124
415.38	22.391
415.74	20.988
416.09	21.877
416.45	22.898
416.80	22.148
417.16	22.132
417.51	22.237
417.87	21.627
418.22	23.012
418.58	21.353
418.93	23.164
419.29	22.244
419.64	22.137
420.00	23.048
420.35	21.937
420.71	22.730
421.06	22.448
421.42	23.236
421.77	22.601
422.12	22.464
422.48	22.301
422.83	23.272
423.19	22.887
423.54	23.204
423.90	23.219
424.25	22.877
424.61	22.859
424.96	23.063
425.31	22.658
425.67	23.516
426.02	23.380
426.38	22.264
426.73	22.541
427.09	22.952
427.44	23.605
427.79	23.100
428.15	22.446
428.50	23.686
428.85	23.739
429.21	23.241
429.56	23.486
429.92	24.466
430.27	22.904
430.62	22.718
430.98	23.797
431.33	23.751
431.68	24.228
432.04	23.944
432.39	23.268
432.74	22.869
433.10	24.579
433.45	23.550
433.80	25.000
434.16	24.577
434.51	23.641
434.86	24.146
435.22	24.958
435.57	23.649
435.92	24.789
436.28	23.664
436.63	23.788
436.98	24.324
437.34	24.969
437.69	23.849
438.04	23.543
438.39	24.097
438.75	23.897
439.10	25.390
439.45	25.000
439.81	25.924
440.16	24.986
440.51	24.614
440.86	24.422
441.22	25.531
441.57	25.000
441.92	25.402
442.27	24.621
442.63	24.973
442.98	25.231
443.33	25.564
443.68	25.040
444.03	25.286
444.39	25.632
444.74	25.511
445.09	25.000
445.44	27.099
445.79	25.710
446.15	26.511
446.50	26.211
446.85	26.510
447.20	26.503
447.55	26.301
447.91	25.787
448.26	26.815
448.61	25.949
448.96	26.651
449.31	26.271
449.66	27.357
450.02	26.606
450.37	26.792
450.72	26.464
451.07	26.771
451.42	26.263
451.77	26.963
452.12	26.500
452.47	26.598
452.83	26.002
453.18	27.116
453.53	27.554
453.88	26.566
454.23	26.761
454.58	26.838
454.93	27.710
455.28	27.168
455.63	26.450
455.98	27.145
456.34	26.383
456.69	26.773
457.04	26.254
457.39	27.180
457.74	27.409
458.09	27.133
458.44	27.438
458.79	26.963
459.14	27.472
459.49	28.232
459.84	26.945
460.19	27.251
460.54	26.825
460.89	27.703
461.24	27.682
461.59	28.321
461.94	27.876
462.29	27.451
462.64	28.694
462.99	28.504
463.34	29.006
463.69	27.384
464.04	27.851
464.39	27.456
464.74	26.597
465.09	27.774
465.44	27.273
465.79	28.407
466.14	27.765
466.49	27.977
466.84	27.496
467.19	26.752
467.54	28.645
467.89	28.096
468.24	27.781
468.59	27.980
468.94	28.161
469.29	28.288
469.64	27.755
469.99	28.000
470.34	28.186
470.68	27.881
471.03	28.138
471.38	27.955
471.73	27.846
472.08	28.866
472.43	28.562
472.78	28.871
473.13	27.441
473.48	28.180
473.83	28.688
474.17	27.409
474.52	28.867
474.87	27.684
475.22	28.321
475.57	27.719
475.92	27.644
476.27	28.147
476.61	28.199
476.96	28.784
477.31	28.749
477.66	29.266
478.01	27.857
478.36	27.847
478.70	28.894
479.05	29.079
479.40	27.925
479.75	29.065
480.10	28.506
480.45	28.249
480.79	28.571
481.14	29.737
481.49	28.466
481.84	27.144
482.19	28.578
482.53	28.714
482.88	28.571
483.23	28.152
483.58	29.159
483.92	28.307
484.27	27.859
484.62	28.051
484.97	28.577
485.31	28.255
485.66	26.564
486.01	27.312
486.36	26.719
486.70	27.615
487.05	27.768
487.40	28.140
487.75	28.309
488.09	28.214
488.44	28.181
488.79	28.917
489.13	28.986
489.48	28.901
489.83	28.495
490.17	28.961
490.52	29.313
490.87	28.697
491.22	29.298
491.56	29.372
491.91	27.844
492.26	29.255
492.60	28.571
492.95	28.960
493.30	28.198
493.64	29.592
493.99	28.937
494.34	29.046
494.68	28.878
495.03	28.508
495.37	29.197
495.72	28.922
496.07	28.592
496.41	28.591
496.76	28.885
497.11	29.296
497.45	28.405
497.80	29.278
498.14	28.967
498.49	27.988
498.84	28.897
499.18	28.621
499.53	29.197
499.87	28.918
500.22	29.766
500.56	28.887
500.91	29.326
501.26	29.803
501.60	28.922
501.95	28.654
502.29	28.932
502.64	29.653
502.98	28.950
503.33	28.905
503.67	29.357
504.02	28.137
504.36	29.074
504.71	27.846
505.06	30.362
505.40	29.433
505.75	30.061
506.09	29.637
506.44	29.335
506.78	28.847
507.13	29.418
507.47	29.056
507.82	28.153
508.16	29.921
508.51	29.700
508.85	28.720
509.19	29.206
509.54	29.437
509.88	29.892
510.23	29.632
510.57	29.078
510.92	30.442
511.26	28.988
511.61	29.034
511.95	29.879
512.30	29.539
512.64	29.966
512.98	29.197
513.33	29.296
513.67	29.074
514.02	28.905
514.36	28.989
514.70	29.677
515.05	29.549
515.39	29.658
515.74	29.366
516.08	28.968
516.42	29.666
516.77	29.525
517.11	29.159
517.46	29.712
517.80	29.843
518.14	29.761
518.49	29.174
518.83	28.699
519.17	28.916
519.52	29.493
519.86	29.690
520.20	28.866
520.55	29.415
520.89	29.159
521.23	30.000
521.58	30.215
521.92	29.101
522.26	28.757
522.61	29.864
522.95	29.210
523.29	28.190
523.64	29.816
523.98	29.733
524.32	30.498
524.66	29.481
525.01	30.210
525.35	29.625
525.69	29.887
526.04	29.186
526.38	29.446
526.72	29.783
527.06	28.756
527.41	28.987
527.75	29.372
528.09	31.110
528.43	30.190
528.78	29.393
529.12	29.625
529.46	28.343
529.80	28.091
530.15	27.864
530.49	30.526
530.83	29.858
531.17	29.589
531.51	28.456
531.86	28.252
532.20	28.877
532.54	29.448
532.88	29.816
533.22	29.428
533.57	29.338
533.91	28.903
534.25	29.427
534.59	28.314
534.93	28.954
535.27	28.662
535.62	28.750
535.96	29.148
536.30	28.324
536.64	27.546
536.98	27.120
537.32	28.399
537.66	29.055
538.01	29.057
538.35	28.522
538.69	27.826
539.03	28.255
539.37	26.962
539.71	28.718
540.05	27.868
540.39	28.217
540.73	28.422
541.07	28.435
541.42	28.350
541.76	28.552
542.10	28.639
542.44	27.166
542.78	28.730
543.12	28.302
543.46	27.643
543.80	27.427
544.14	29.387
544.48	27.605
544.82	28.447
545.16	28.465
545.50	28.089
545.84	27.419
546.18	28.471
546.52	28.017
546.86	27.774
547.20	27.520
547.54	28.091
547.88	27.935
548.22	28.599
548.56	27.285
548.90	27.740
549.24	27.986
549.58	27.331
549.92	28.026
550.26	29.446
550.60	27.477
550.94	27.463
551.28	27.555
551.62	28.571
551.96	27.745
552.30	26.710
552.64	27.260
552.98	28.125
553.32	28.118
553.66	28.320
554.00	26.710
554.34	27.912
554.68	28.039
555.02	27.320
555.36	27.534
555.69	27.021
556.03	27.520
556.37	27.098
556.71	27.050
557.05	27.306
557.39	27.581
557.73	29.274
558.07	28.033
558.41	28.160
558.75	27.252
559.08	26.624
559.42	28.954
559.76	27.217
560.10	28.209
560.44	27.782
560.78	27.194
561.12	27.470
561.45	26.531
561.79	27.579
562.13	27.637
562.47	27.643
562.81	26.551
563.15	27.195
563.48	26.910
563.82	27.839
564.16	26.540
564.50	28.087
564.84	26.284
565.17	26.291
565.51	27.340
565.85	25.583
566.19	26.358
566.52	26.671
566.86	25.790
567.20	27.062
567.54	25.676
567.88	26.092
568.21	25.856
568.55	25.300
568.89	25.424
569.23	25.298
569.56	25.198
569.90	24.732
570.24	24.368
570.57	25.179
570.91	24.667
571.25	23.917
571.59	23.782
571.92	24.142
572.26	24.948
572.60	24.423
572.93	24.649
573.27	24.901
573.61	24.878
573.95	24.220
574.28	24.620
574.62	23.772
574.96	23.622
575.29	23.821
575.63	23.788
575.97	24.484
576.30	24.146
576.64	23.998
576.98	23.865
577.31	24.086
577.65	23.128
577.98	24.022
578.32	23.130
578.66	23.540
578.99	24.225
579.33	23.688
579.67	23.091
580.00	23.503
580.34	23.655
580.67	23.591
581.01	23.438
581.35	23.461
581.68	22.979
582.02	23.550
582.35	24.017
582.69	23.246
583.02	23.096
583.36	23.439
583.70	23.377
584.03	23.537
584.37	23.798
584.70	23.569
585.04	23.437
585.37	23.451
585.71	23.251
586.04	23.258
586.38	23.441
586.72	23.405
587.05	23.999
587.39	23.676
587.72	23.537
588.06	23.912
588.39	23.146
588.73	23.857
589.06	23.343
589.40	24.183
589.73	23.320
590.07	23.660
590.40	24.233
590.73	23.703
591.07	23.360
591.40	23.565
591.74	23.388
592.07	25.331
592.41	23.938
592.74	23.650
593.08	23.282
593.41	23.796
593.75	23.224
594.08	23.454
594.41	23.656
594.75	23.388
595.08	23.450
595.42	23.085
595.75	23.825
596.09	23.172
596.42	23.856
596.75	24.090
597.09	23.885
597.42	24.450
597.75	23.733
598.09	23.133
598.42	24.027
598.76	23.258
599.09	23.209
599.42	22.961
599.76	23.395
600.09	22.892
600.42	22.976
600.76	22.764
601.09	23.540
601.42	23.638
601.76	22.741
602.09	23.267
602.42	23.483
602.76	22.273
603.09	23.778
603.42	23.111
603.76	23.266
604.09	23.043
604.42	22.938
604.76	22.828
605.09	23.063
605.42	23.662
605.75	22.484
606.09	22.268
606.42	22.818
606.75	22.597
607.09	22.695
607.42	22.767
607.75	21.707
608.08	22.768
608.42	22.821
608.75	23.746
609.08	22.734
609.41	23.547
609.75	22.743
610.08	22.929
610.41	22.595
610.74	22.137
611.07	23.597
611.41	23.183
611.74	22.878
612.07	22.981
612.40	23.946
612.73	23.161
613.07	23.004
613.40	23.348
613.73	23.131
614.06	22.720
614.39	22.790
614.72	23.876
615.06	22.833
615.39	22.461
615.72	22.246
616.05	22.635
616.38	22.738
616.71	22.735
617.05	23.526
617.38	22.797
617.71	22.365
618.04	22.364
618.37	22.650
618.70	23.027
619.03	22.405
619.36	23.488
619.69	22.222
620.03	22.686
620.36	22.477
620.69	22.627
621.02	22.308
621.35	23.712
621.68	23.635
622.01	23.058
622.34	22.998
622.67	23.179
623.00	23.556
623.33	22.812
623.66	21.561
623.99	23.406
624.32	23.478
624.65	23.368
624.99	21.602
625.32	23.376
625.65	22.636
625.98	22.354
626.31	24.653
626.64	23.302
626.97	22.751
627.30	22.241
627.63	22.837
627.96	21.472
628.29	22.791
628.62	23.114
628.95	23.948
629.28	23.744
629.61	23.923
629.94	23.694
630.26	23.744
630.59	24.775
630.92	21.888
631.25	23.687
631.58	24.625
631.91	21.103
632.24	22.613
632.57	22.556
632.90	23.921
633.23	24.460
633.56	23.621
633.89	23.684
634.22	24.382
634.55	24.604
634.88	21.936
635.20	24.125
635.53	23.902
635.86	23.974
636.19	23.821
636.52	22.317
636.85	21.713
637.18	21.924
637.51	22.597
637.83	24.021
638.16	22.667
638.49	21.095
638.82	23.791
639.15	22.872
639.48	23.663
639.81	22.778
640.13	23.944
640.46	24.435
640.79	22.446
641.12	22.633
641.45	22.999
641.77	21.355
642.10	24.962
642.43	23.585
642.76	20.978
643.09	23.163
643.41	24.242
643.74	22.617
644.07	23.625
644.40	24.544
644.73	20.678
645.05	22.513
645.38	24.086
645.71	23.639
646.04	21.212
646.36	24.479
646.69	23.601
647.02	22.587
647.35	23.766
647.67	24.584
648.00	21.196
648.33	22.542
648.66	22.037
648.98	22.050
649.31	21.626
649.64	21.440
649.96	22.433
650.29	18.627
650.62	22.735
650.94	20.862
651.27	21.731
651.60	22.902
651.92	23.297
652.25	23.116
652.58	21.617
652.90	21.212
653.23	21.392
653.56	21.157
653.88	19.795
654.21	19.625
654.54	20.598
654.86	21.138
655.19	20.028
655.52	21.083
655.84	18.189
656.17	21.717
656.49	28.725
656.82	28.460
657.15	21.251
657.47	15.691
657.80	11.892
658.13	12.597
658.45	18.566
658.78	18.470
659.10	18.434
659.43	18.561
659.75	18.680
660.08	18.966
660.41	18.154
660.73	19.559
661.06	19.728
661.38	21.512
661.71	20.902
662.03	23.044
662.36	20.133
662.68	20.215
663.01	23.305
663.33	20.086
663.66	18.404
663.98	21.124
664.31	19.780
664.63	18.243
664.96	22.757
665.28	21.674
665.61	20.086
665.93	18.844
666.26	20.675
666.58	22.270
666.91	22.197
667.23	22.120
667.56	22.989
667.88	19.860
668.21	20.089
668.53	20.460
668.86	21.343
669.18	22.222
669.50	22.581
669.83	23.150
670.15	21.429
670.48	21.839
670.80	22.319
671.13	19.680
671.45	22.146
671.77	20.259
672.10	19.688
672.42	19.847
672.75	18.393
673.07	20.000
673.39	21.642
673.72	21.956
674.04	20.697
674.37	20.935
674.69	19.753
675.01	16.667
675.34	19.475
675.66	20.697
675.98	19.690
676.31	19.457
676.63	23.583
676.95	17.412
677.28	19.037
677.60	19.118
677.92	21.508
678.25	20.390
678.57	20.774
678.89	20.043
679.22	19.462
679.54	19.796
679.86	20.117
680.18	17.692
680.51	18.077
680.83	16.959
681.15	17.878
681.48	18.437
681.80	18.200
682.12	16.250
682.44	17.304
682.77	17.684
683.09	18.527
683.41	20.698
683.73	18.080
684.06	18.142
684.38	18.162
684.70	18.534
685.02	17.149
685.34	17.613
685.67	17.824
685.99	17.438
686.31	19.310
686.63	17.831
686.96	17.811
687.28	15.569
687.60	19.282
687.92	17.121
688.24	19.000
688.56	21.272
688.89	18.040
689.21	16.368
689.53	18.243
689.85	18.876
690.17	17.363
690.49	16.908
690.82	16.945
691.14	19.324
691.46	16.473
691.78	17.143
692.10	16.348
692.42	15.824
692.74	16.522
693.06	16.629
693.39	15.925
693.71	16.667
694.03	19.318
694.35	19.144
694.67	15.000
694.99	17.010
695.31	16.537
695.63	15.366
695.95	15.776
696.27	13.973
696.59	17.204
696.91	15.922
697.23	17.005
697.56	18.225
697.88	17.672
698.20	19.222
698.52	17.056
698.84	19.856
699.16	16.312
699.48	16.543
699.80	21.705
700.12	18.499
700.44	17.183
700.76	15.169
701.08	17.825
701.40	15.269
701.72	19.077
702.04	15.094
702.36	16.768
702.68	13.415
703.00	14.327
703.32	15.042
703.64	15.060
703.96	19.062
704.28	16.566
704.60	15.244
704.91	14.107
705.23	15.506
705.55	18.276
705.87	16.549
706.19	12.088
706.51	13.028
706.83	15.287
707.15	16.768
707.47	18.457
707.79	13.706
708.11	16.967
708.43	17.766
708.74	15.426
709.06	13.904
709.38	20.173
709.70	11.712
710.02	15.576
710.34	12.667
710.66	13.355
710.98	13.932
711.29	16.558
711.61	12.581
711.93	16.129
712.25	15.385
712.57	12.632
712.89	13.919
713.20	15.603
713.52	15.693
713.84	15.161
714.16	13.592
714.48	12.975
714.80	11.821
715.11	18.895
715.43	15.528
715.75	17.391
716.07	15.964
716.39	19.192
716.70	16.187
717.02	10.196
717.34	17.045
717.66	10.776
717.97	12.302
718.29	14.961
718.61	12.446
718.93	17.054
719.24	16.974
719.56	10.487
719.88	14.552
720.20	14.625
720.51	10.938
720.83	11.673
721.15	5.691
721.46	15.267
721.78	11.155
722.10	9.562
722.42	10.081
722.73	14.672
723.05	20.816
723.37	16.387
723.68	15.200
724.00	13.191
724.32	14.226
724.63	15.638
724.95	12.821
725.27	19.409
725.58	15.226
725.90	16.318
726.22	17.029
726.53	6.667
726.85	18.978
727.16	13.704
727.48	17.241
727.80	16.016
728.11	10.656
728.43	13.672
728.74	10.714
729.06	13.200
729.38	15.020
729.69	12.811
730.01	12.268
730.32	13.284
730.64	11.364
730.96	15.035
731.27	14.047
731.59	11.746
731.90	13.269
732.22	15.385
732.53	8.446
732.85	9.732
733.16	12.211
733.48	11.824
733.80	11.486
734.11	14.189
734.43	11.765
734.74	9.910
735.06	13.256
735.37	13.070
735.69	12.945
736.00	15.182
736.32	13.475
736.63	11.724
736.95	11.301
737.26	8.966
737.58	15.625
737.89	13.058
738.21	13.879
738.52	13.308
738.83	10.204
739.15	8.861
739.46	8.949
739.78	8.803
740.09	12.329
740.41	8.929
740.72	10.638
741.04	10.000
741.35	9.649
741.66	19.556
741.98	12.019
742.29	16.832
742.61	13.171
742.92	15.351
743.23	8.962
743.55	15.766
743.86	8.520
744.18	12.745
744.49	6.599
744.80	11.735
745.12	11.215
745.43	10.427
745.74	14.414
746.06	11.215
746.37	9.633
746.68	8.654
747.00	14.833
747.31	12.500
747.62	11.927
747.94	13.100
748.25	11.468
748.56	15.111
748.88	12.676
749.19	18.095
749.50	9.223
749.82	9.390
750.13	8.333
750.44	9.615
750.75	8.118
751.07	9.609
751.38	9.574
751.69	9.266
752.01	11.328
752.32	9.615
752.63	13.060
752.94	12.400
753.26	11.297
753.57	9.583
753.88	14.575
754.19	12.351
754.51	9.774
754.82	8.791
755.13	12.174
755.44	10.976
755.75	8.800
756.07	5.904
756.38	8.993
756.69	9.215
757.00	13.707
757.31	10.032
757.63	8.951
757.94	13.277
758.25	12.169
758.56	8.967
758.87	11.905
759.18	13.565
759.50	8.754
759.81	9.699
760.12	11.385
760.43	8.333
760.74	11.017
761.05	6.354
761.36	7.736
761.67	9.063
761.99	11.340
762.30	6.934
762.61	9.877
762.92	11.538
763.23	11.066
763.54	12.554
763.85	7.755
764.16	9.756
764.47	6.000
764.78	8.571
765.10	11.475
765.41	10.942
765.72	7.453
766.03	7.591
766.34	12.308
766.65	5.021
766.96	7.042
767.27	8.416
767.58	9.551
767.89	10.494
768.20	2.762
768.51	12.563
768.82	20.192
769.13	10.177
769.44	6.695
769.75	7.265
770.06	5.830
770.37	7.353
770.68	8.738
770.99	7.767
771.30	7.143
771.61	4.490
771.92	10.373
772.23	6.757
772.54	4.972
772.85	5.233
773.16	13.757
773.47	4.142
773.78	11.494
774.09	13.750
774.39	14.286
774.70	11.565
775.01	6.207
775.32	7.143
775.63	7.519
775.94	0.752
776.25	-2.400
776.56	-0.826
776.87	0.000
777.18	5.405
777.48	4.505
777.79	3.150
778.10	4.587
778.41	5.263
778.72	5.042
779.03	2.113
779.34	12.838
779.65	2.817
779.95	4.636
780.26	2.878
780.57	13.669
780.88	6.338
781.19	-5.882
781.50	6.711
781.80	8.187
782.11	4.070
782.42	13.208
782.73	6.536
783.04	0.690
783.34	5.344
783.65	4.027
783.96	16.154
784.27	12.143
784.57	7.092
784.88	-0.962
785.19	11.818
785.50	-1.818
785.81	-8.571
786.11	5.042
786.42	8.850
786.73	-2.830
787.04	-1.835
787.34	-9.901
787.65	3.333
787.96	5.785
788.26	8.696
788.57	0.794
788.88	1.626
789.19	4.000
789.49	3.053
789.80	10.606
790.11	4.717
790.41	5.941
790.72	10.638
791.03	-4.348
791.33	-3.529
791.64	-3.704
791.95	-5.435
792.25	9.091
792.56	-2.564
792.87	-8.974
793.17	-11.538
793.48	2.381
793.79	-18.750
794.09	21.154
794.40	-3.125
794.70	4.505
795.01	0.781
795.32	0.000
795.62	-5.435
795.93	7.547
796.23	0.000
796.54	2.439
796.85	13.095
797.15	-7.576
797.46	4.348
797.76	1.316
798.07	1.136
798.37	3.659
798.68	-17.742
798.99	-2.703
799.29	3.614
799.60	-1.282
799.90	-1.538
800.21	4.545
800.51	-9.333
800.82	10.667
801.12	-25.000
801.43	-8.333
801.73	-17.568
802.04	4.286
802.34	-11.475
802.65	5.970
802.95	5.455
803.26	-6.897
803.56	6.154
803.87	-15.094
804.17	-4.839
804.48	13.235
804.78	-24.390
805.09	14.493
805.39	-7.353
805.70	-25.532
806.00	-3.509
806.30	-3.846
806.61	-2.632
806.91	-1.351
807.22	2.632
807.52	11.364
807.83	-30.508
808.13	-28.788
808.43	-18.333
808.74	-22.414
809.04	3.175
809.35	-30.612
809.65	-21.667
809.95	-6.122
810.26	14.085
810.56	0.000
810.86	-22.449
811.17	15.385
811.47	-23.404
811.77	-35.417
812.08	0.000
812.38	-56.250
812.69	-5.455
812.99	0.000
813.29	-13.514
813.59	-70.270
813.90	-20.000
814.20	-9.091
814.50	-13.333
814.81	7.273
815.11	-5.263
815.41	4.651
815.72	-7.500
816.02	-25.714
816.32	-29.730
816.62	4.167
816.93	-6.667
817.23	-28.889
817.53	-41.667
817.84	-8.108
818.14	-21.951
818.44	-8.000
818.74	-16.327
819.04	-19.512
819.35	-38.889
819.65	4.545
819.95	-105.556
820.25	-27.273
820.56	-42.857
820.86	-30.556
821.16	-36.364
821.46	-28.261
821.76	-3.448
822.07	-17.391
822.37	-3.030
822.67	24.390
822.97	-8.108
823.27	-57.143
823.57	24.138
823.88	-32.353
824.18	0.000
824.48	-8.571
824.78	-38.095
825.08	-46.429
825.38	-44.444
825.69	-29.032
825.99	-19.512
826.29	-44.444
826.59	-21.875
826.89	0.000
827.19	-30.435
827.49	-27.778
827.79	-65.217
828.09	-22.581
828.39	-10.417
828.70	-43.750
829.00	-24.138
829.30	0.000
829.60	-37.500
829.90	-22.222
830.20	6.250
830.50	-31.818
830.80	-147.059
831.10	-45.455
831.40	-17.647
831.70	-11.538
832.00	-12.121
832.30	-2.941
832.60	21.622
832.90	1500.000
833.20	-25.000
833.50	-90.000
833.80	-23.684
834.10	-54.167
834.40	-63.636
834.70	-86.667
835.00	-120.000
835.30	-54.167
835.60	-47.619
835.90	-42.857
836.20	-60.000
836.50	-45.833
836.80	-57.895
837.10	18.919
837.40	6.667
837.70	-26.087
838.00	33.333
838.30	5.263
838.60	-150.000
838.90	-150.000
839.19	-108.333
839.49	-53.846
839.79	-26.316
840.09	-233.333
840.39	-100.000
840.69	-72.727
840.99	-33.333
841.29	-54.167
841.59	-161.538
841.88	-46.667
842.18	-128.571
842.48	-10.000
842.78	-271.429
843.08	-71.429
843.38	-200.000
843.68	-81.250
843.97	-28.571
844.27	-177.778
844.57	-145.455
844.87	-46.667
845.17	22.727
845.47	966.667
845.76	-66.667
846.06	-133.333
846.36	-1300.000
846.66	-115.789
846.96	-50.000
847.25	-116.667
847.55	-222.222
847.85	-19.048
848.15	-123.077
848.44	-333.333
848.74	-116.667
849.04	-130.769
849.34	-650.000
849.63	-154.545
849.93	-100.000
850.23	25.000
850.53	-175.000
850.82	-16.667
851.12	-60.000
851.42	-35.294
851.71	-62.500
852.01	-58.824
852.31	-53.846
852.61	900.000
852.90	-88.235
853.20	-26.667
853.50	-37.500
853.79	-128.571
854.09	-575.000
854.39	-55.000
854.68	-5.000
854.98	-33.333
855.28	-32.000
855.57	4.167
855.87	-37.500
856.17	-44.000
856.46	-37.500
856.76	-25.000
857.05	-12.000
857.35	-50.000
857.65	-23.529
857.94	-116.667
858.24	-108.333
858.53	-35.000
858.83	-136.364
859.13	-36.000
859.42	-92.857
859.72	-250.000
860.01	-4.167
860.31	-262.500
860.60	-112.500
860.90	-283.333
861.20	-50.000
861.49	-46.667
861.79	-100.000
862.08	225.000
862.38	-91.667
862.67	285.714
862.97	525.000
863.26	-181.818
863.56	-45.455
863.85	5.263
864.15	-41.176
864.44	-200.000
864.74	-20.000
865.03	-111.111
865.33	-50.000
865.62	121.429
865.92	-15.789
866.21	-105.556
866.51	-72.727
866.80	-155.556
867.10	-237.500
867.39	-62.500
867.69	-140.000
867.98	-120.000
868.27	-35.294
868.57	0.000
868.86	850.000
869.16	-175.000
869.45	-442.857
869.75	300.000
870.04	0.000
870.33	-1000.000
870.63	-31.579
870.92	-141.667
871.22	100.000
871.51	-157.143
871.80	-211.111
872.10	-50.000
>>>>>End Processed Spectral Data<<<<<
