SpectraSuite Data File
++++++++++++++++++++++++++++++++++++
Date: Wed May 13 21:30:34 PDT 2015
User: schluterlab
Dark Spectrum Present: Yes
Reference Spectrum Present: Yes
Number of Sampled Component Spectra: 1
Spectrometers: USB2E3373
Integration Time (usec): 3000 (USB2E3373)
Spectra Averaged: 3 (USB2E3373)
Boxcar Smoothing: 0 (USB2E3373)
Correct for Electrical Dark: No (USB2E3373)
Strobe/Lamp Enabled: No (USB2E3373)
Correct for Detector Non-linearity: No (USB2E3373)
Correct for Stray Light: No (USB2E3373)
Number of Pixels in Processed Spectrum: 2048
>>>>>Begin Processed Spectral Data<<<<<
178.53	0.000
178.91	350.000
179.29	175.000
179.67	-650.000
180.04	-266.667
180.42	220.000
180.80	1700.000
181.18	333.333
181.56	-425.000
181.94	-225.000
182.31	-63.636
182.69	176.923
183.07	-240.000
183.45	300.000
183.83	255.556
184.20	214.286
184.58	-433.333
184.96	300.000
185.34	271.429
185.72	0.000
186.09	-1900.000
186.47	-340.000
186.85	80.000
187.23	50.000
187.61	750.000
187.98	1300.000
188.36	-175.000
188.74	0.000
189.12	27.273
189.49	-80.000
189.87	166.667
190.25	220.000
190.63	1200.000
191.00	-60.000
191.38	300.000
191.76	150.000
192.14	183.333
192.51	-21.053
192.89	566.667
193.27	325.000
193.65	-160.000
194.02	209.091
194.40	210.000
194.78	-300.000
195.15	320.000
195.53	-220.000
195.91	-175.000
196.29	-200.000
196.66	0.000
197.04	600.000
197.42	-40.000
197.79	-10.000
198.17	-25.000
198.55	-466.667
198.92	475.000
199.30	-466.667
199.68	-70.000
200.05	800.000
200.43	133.333
200.81	-400.000
201.18	-260.000
201.56	-83.333
201.94	550.000
202.31	-17.391
202.69	-128.571
203.07	-466.667
203.44	-140.000
203.82	-366.667
204.19	-140.000
204.57	0.000
204.95	-33.333
205.32	0.000
205.70	-200.000
206.08	-275.000
206.45	-166.667
206.83	500.000
207.20	-433.333
207.58	-80.000
207.96	-2700.000
208.33	-142.857
208.71	-1000.000
209.08	262.500
209.46	400.000
209.84	0.000
210.21	270.000
210.59	2200.000
210.96	360.000
211.34	1400.000
211.71	-850.000
212.09	-333.333
212.46	-240.000
212.84	-333.333
213.22	-175.000
213.59	-1000.000
213.97	-500.000
214.34	-600.000
214.72	-30.769
215.09	212.500
215.47	133.333
215.84	950.000
216.22	-100.000
216.59	-50.000
216.97	800.000
217.34	188.889
217.72	0.000
218.09	466.667
218.47	-1300.000
218.84	-157.143
219.22	-237.500
219.59	-400.000
219.97	-325.000
220.34	-150.000
220.72	-220.000
221.09	0.000
221.47	-100.000
221.84	-200.000
222.22	0.000
222.59	1400.000
222.97	-300.000
223.34	-116.667
223.72	-1800.000
224.09	-100.000
224.46	-127.273
224.84	-87.500
225.21	-28.571
225.59	-100.000
225.96	-83.333
226.34	-70.000
226.71	-214.286
227.08	650.000
227.46	-125.000
227.83	-800.000
228.21	-50.000
228.58	-475.000
228.95	-29.412
229.33	-25.000
229.70	-237.500
230.08	-61.538
230.45	-162.500
230.82	-41.667
231.20	300.000
231.57	-450.000
231.95	1900.000
232.32	41.667
232.69	-64.706
233.07	-1600.000
233.44	-39.130
233.81	-650.000
234.19	4.167
234.56	-80.000
234.93	-66.667
235.31	-36.842
235.68	-169.231
236.05	-76.923
236.43	-44.444
236.80	-18.182
237.17	-133.333
237.55	-88.235
237.92	-41.379
238.29	-62.963
238.67	-41.667
239.04	-22.581
239.41	-25.532
239.79	19.149
240.16	-6.977
240.53	-21.429
240.91	-3.571
241.28	1.786
241.65	-8.065
242.02	-10.526
242.40	-7.246
242.77	-21.739
243.14	-10.256
243.51	-6.383
243.89	-9.615
244.26	-1.887
244.63	-10.577
245.00	-12.500
245.38	-9.244
245.75	0.000
246.12	-3.008
246.49	-16.260
246.87	-21.008
247.24	-1.351
247.61	-3.974
247.98	-1.923
248.36	-4.734
248.73	-10.674
249.10	-3.030
249.47	-7.527
249.84	-2.105
250.22	-3.483
250.59	-5.607
250.96	-0.909
251.33	-5.742
251.70	0.418
252.08	-3.347
252.45	-4.115
252.82	-2.281
253.19	-3.113
253.56	-1.799
253.94	3.203
254.31	-2.817
254.68	0.000
255.05	0.330
255.42	-0.350
255.79	-0.613
256.16	-4.732
256.54	0.635
256.91	-5.063
257.28	-2.201
257.65	-5.096
258.02	-1.760
258.39	-1.462
258.76	-4.651
259.14	-3.125
259.51	-3.090
259.88	-1.355
260.25	-1.389
260.62	-4.775
260.99	-0.796
261.36	-1.036
261.73	-1.975
262.10	-2.799
262.47	-1.728
262.85	-3.980
263.22	-1.026
263.59	-2.078
263.96	-2.190
264.33	-1.442
264.70	-3.721
265.07	-0.231
265.44	-2.069
265.81	-0.686
266.18	-2.961
266.55	-2.838
266.92	-0.424
267.29	-0.617
267.66	-0.637
268.03	0.617
268.40	-4.237
268.77	-0.207
269.14	-1.837
269.51	1.027
269.88	-4.073
270.25	-2.966
270.62	-2.459
270.99	-0.394
271.36	-2.381
271.73	1.004
272.10	-1.143
272.47	-1.727
272.84	-0.394
273.21	-1.957
273.58	-4.508
273.95	-2.830
274.32	-0.373
274.69	0.364
275.06	1.413
275.43	-1.318
275.80	0.887
276.17	-0.737
276.54	-0.888
276.91	-2.265
277.28	-1.625
277.65	-0.874
278.02	-0.536
278.39	-3.020
278.76	-0.502
279.13	-1.029
279.50	-1.034
279.87	-1.993
280.23	-0.180
280.60	0.346
280.97	-0.325
281.34	-0.158
281.71	-1.301
282.08	-2.564
282.45	-0.984
282.82	-0.479
283.19	1.829
283.56	0.313
283.92	-1.682
284.29	-0.936
284.66	-2.142
285.03	-3.420
285.40	-0.755
285.77	-0.300
286.14	-1.064
286.51	0.150
286.87	-0.769
287.24	-0.442
287.61	-0.904
287.98	-0.882
288.35	-1.788
288.72	1.004
289.08	1.425
289.45	-1.175
289.82	-0.756
290.19	-0.281
290.56	-1.563
290.93	-2.624
291.29	-0.821
291.66	-0.956
292.03	0.272
292.40	0.538
292.77	-0.803
293.13	0.418
293.50	0.261
293.87	-0.800
294.24	-0.265
294.60	1.170
294.97	0.529
295.34	-1.055
295.71	-1.445
296.08	-1.832
296.44	-3.061
296.81	-1.949
297.18	0.375
297.55	0.118
297.91	-0.497
298.28	-0.726
298.65	-0.369
299.02	0.733
299.38	-1.104
299.75	-0.841
300.12	-2.093
300.48	-0.234
300.85	0.577
301.22	-1.161
301.59	-1.174
301.95	-1.394
302.32	-0.583
302.69	-1.582
303.05	0.111
303.42	-0.455
303.79	0.105
304.15	-0.876
304.52	-0.323
304.89	-1.550
305.25	-1.207
305.62	-1.085
305.99	0.326
306.35	-0.104
306.72	0.509
307.09	0.104
307.45	-0.745
307.82	-0.421
308.19	-1.358
308.55	0.000
308.92	0.491
309.29	-0.801
309.65	-1.499
310.02	-0.398
310.38	0.000
310.75	-1.085
311.12	0.097
311.48	-0.593
311.85	0.000
312.22	0.484
312.58	-0.580
312.95	-0.498
313.31	0.367
313.68	-0.477
314.05	-0.756
314.41	0.192
314.78	0.380
315.14	0.370
315.51	1.047
315.87	0.834
316.24	1.745
316.61	0.822
316.97	0.093
317.34	-0.089
317.70	2.052
318.07	1.420
318.43	0.903
318.80	1.222
319.16	1.680
319.53	1.075
319.89	0.903
320.26	1.756
320.62	0.741
320.99	0.678
321.35	0.842
321.72	2.117
322.08	1.661
322.45	2.498
322.81	1.756
323.18	2.862
323.54	2.437
323.91	2.891
324.27	3.780
324.64	2.178
325.00	1.750
325.37	4.010
325.73	2.609
326.10	3.532
326.46	4.933
326.83	4.450
327.19	4.553
327.56	4.593
327.92	5.149
328.29	5.676
328.65	7.011
329.01	3.958
329.38	5.826
329.74	5.751
330.11	4.869
330.47	4.948
330.84	5.957
331.20	5.636
331.56	6.703
331.93	6.374
332.29	7.211
332.66	5.847
333.02	6.950
333.38	6.404
333.75	7.423
334.11	6.076
334.48	7.236
334.84	6.537
335.20	7.633
335.57	6.527
335.93	6.014
336.29	7.005
336.66	7.607
337.02	7.304
337.38	7.746
337.75	6.718
338.11	6.234
338.47	6.421
338.84	9.192
339.20	7.496
339.56	7.850
339.93	6.050
340.29	7.600
340.65	7.528
341.02	7.903
341.38	7.770
341.74	5.546
342.11	8.010
342.47	7.950
342.83	7.761
343.20	8.460
343.56	7.768
343.92	8.448
344.28	7.955
344.65	7.184
345.01	7.345
345.37	9.046
345.73	8.333
346.10	8.427
346.46	7.073
346.82	6.661
347.19	8.544
347.55	8.158
347.91	7.716
348.27	7.808
348.63	8.734
349.00	8.019
349.36	8.085
349.72	8.739
350.08	8.190
350.45	7.753
350.81	9.077
351.17	9.238
351.53	8.013
351.89	8.261
352.26	7.645
352.62	8.140
352.98	8.546
353.34	9.018
353.70	8.100
354.07	8.392
354.43	7.776
354.79	8.974
355.15	8.075
355.51	8.200
355.87	8.835
356.24	8.587
356.60	8.757
356.96	9.593
357.32	8.978
357.68	9.167
358.04	8.999
358.40	9.070
358.77	8.792
359.13	9.728
359.49	9.160
359.85	9.401
360.21	9.021
360.57	8.517
360.93	8.725
361.29	9.104
361.66	9.567
362.02	8.821
362.38	9.306
362.74	8.702
363.10	9.906
363.46	10.231
363.82	10.273
364.18	10.225
364.54	10.066
364.90	9.199
365.26	9.483
365.62	9.943
365.98	9.039
366.35	10.780
366.71	10.770
367.07	10.276
367.43	10.174
367.79	10.980
368.15	10.689
368.51	10.408
368.87	11.096
369.23	10.676
369.59	10.500
369.95	10.015
370.31	10.321
370.67	10.644
371.03	10.616
371.39	10.575
371.75	12.071
372.11	11.752
372.47	10.959
372.83	11.720
373.19	11.727
373.55	11.850
373.91	11.810
374.27	11.411
374.63	11.309
374.99	11.421
375.35	11.781
375.71	11.617
376.07	12.337
376.42	11.297
376.78	11.427
377.14	13.153
377.50	12.777
377.86	12.483
378.22	12.389
378.58	12.043
378.94	13.313
379.30	12.367
379.66	12.762
380.02	13.297
380.38	12.349
380.74	13.688
381.09	13.872
381.45	14.027
381.81	12.877
382.17	13.106
382.53	12.677
382.89	13.390
383.25	13.580
383.61	13.499
383.97	13.625
384.32	13.106
384.68	14.312
385.04	13.439
385.40	14.384
385.76	13.990
386.12	13.622
386.48	13.918
386.83	13.392
387.19	14.250
387.55	14.102
387.91	14.022
388.27	13.255
388.62	14.419
388.98	14.393
389.34	13.910
389.70	14.652
390.06	15.313
390.42	15.464
390.77	14.414
391.13	14.899
391.49	14.864
391.85	14.633
392.20	15.100
392.56	15.302
392.92	15.097
393.28	15.514
393.64	15.596
393.99	15.667
394.35	16.173
394.71	15.128
395.07	15.409
395.42	16.332
395.78	14.672
396.14	15.346
396.50	16.107
396.85	17.718
397.21	15.231
397.57	15.901
397.92	16.347
398.28	16.469
398.64	17.001
399.00	16.964
399.35	16.402
399.71	16.657
400.07	16.687
400.42	17.179
400.78	16.737
401.14	16.248
401.49	16.597
401.85	18.059
402.21	17.399
402.57	17.290
402.92	18.461
403.28	18.074
403.63	17.049
403.99	17.466
404.35	17.082
404.70	17.039
405.06	16.911
405.42	17.211
405.77	17.396
406.13	17.200
406.49	17.615
406.84	18.071
407.20	18.413
407.55	17.597
407.91	19.060
408.27	17.654
408.62	19.398
408.98	18.249
409.34	17.698
409.69	19.103
410.05	17.600
410.40	17.651
410.76	18.833
411.11	19.154
411.47	19.708
411.83	18.653
412.18	18.892
412.54	19.799
412.89	18.119
413.25	17.758
413.60	18.871
413.96	19.538
414.31	19.359
414.67	18.413
415.03	19.621
415.38	18.692
415.74	19.038
416.09	19.233
416.45	19.891
416.80	19.732
417.16	20.513
417.51	19.625
417.87	19.907
418.22	19.069
418.58	19.908
418.93	19.900
419.29	20.132
419.64	19.529
420.00	20.508
420.35	20.084
420.71	19.196
421.06	19.680
421.42	21.229
421.77	20.405
422.12	20.860
422.48	19.847
422.83	20.437
423.19	20.299
423.54	20.141
423.90	19.477
424.25	20.046
424.61	20.887
424.96	20.639
425.31	20.639
425.67	21.282
426.02	21.319
426.38	21.642
426.73	20.831
427.09	21.764
427.44	22.196
427.79	21.675
428.15	20.979
428.50	21.329
428.85	21.587
429.21	20.822
429.56	21.573
429.92	21.655
430.27	21.779
430.62	20.986
430.98	21.576
431.33	21.225
431.68	21.725
432.04	21.634
432.39	21.247
432.74	20.785
433.10	22.545
433.45	21.006
433.80	22.356
434.16	21.955
434.51	22.500
434.86	22.556
435.22	21.449
435.57	21.560
435.92	21.653
436.28	21.922
436.63	22.633
436.98	23.090
437.34	23.199
437.69	22.314
438.04	22.128
438.39	23.350
438.75	22.169
439.10	22.730
439.45	22.579
439.81	24.569
440.16	24.174
440.51	23.187
440.86	22.999
441.22	22.777
441.57	23.265
441.92	23.017
442.27	23.052
442.63	24.058
442.98	23.322
443.33	23.081
443.68	22.140
444.03	23.795
444.39	23.599
444.74	22.916
445.09	23.293
445.44	24.563
445.79	22.612
446.15	23.350
446.50	23.954
446.85	23.838
447.20	24.360
447.55	23.951
447.91	23.258
448.26	23.213
448.61	22.785
448.96	23.690
449.31	23.015
449.66	23.135
450.02	23.877
450.37	23.149
450.72	24.168
451.07	24.138
451.42	23.581
451.77	23.981
452.12	23.411
452.47	24.080
452.83	24.351
453.18	23.234
453.53	24.086
453.88	23.072
454.23	24.227
454.58	23.223
454.93	23.861
455.28	24.149
455.63	23.706
455.98	23.920
456.34	23.713
456.69	24.281
457.04	24.025
457.39	23.572
457.74	24.117
458.09	23.815
458.44	23.972
458.79	24.822
459.14	22.921
459.49	24.390
459.84	24.408
460.19	22.749
460.54	23.297
460.89	24.437
461.24	23.983
461.59	23.853
461.94	24.526
462.29	23.284
462.64	24.077
462.99	24.346
463.34	24.448
463.69	24.098
464.04	23.349
464.39	22.941
464.74	24.140
465.09	23.249
465.44	23.793
465.79	23.749
466.14	24.401
466.49	25.572
466.84	24.985
467.19	24.204
467.54	24.174
467.89	24.010
468.24	24.524
468.59	23.901
468.94	24.777
469.29	24.785
469.64	24.268
469.99	24.828
470.34	24.208
470.68	25.279
471.03	24.683
471.38	24.618
471.73	25.034
472.08	26.048
472.43	25.989
472.78	25.085
473.13	23.615
473.48	24.397
473.83	24.670
474.17	24.935
474.52	25.178
474.87	25.271
475.22	25.423
475.57	24.428
475.92	24.591
476.27	24.301
476.61	24.915
476.96	24.615
477.31	24.272
477.66	25.311
478.01	24.780
478.36	25.286
478.70	25.242
479.05	25.028
479.40	24.649
479.75	25.292
480.10	25.140
480.45	24.914
480.79	25.236
481.14	25.633
481.49	24.864
481.84	24.647
482.19	25.012
482.53	25.143
482.88	24.640
483.23	24.302
483.58	25.189
483.92	25.146
484.27	24.337
484.62	25.522
484.97	24.015
485.31	24.688
485.66	22.770
486.01	23.008
486.36	23.067
486.70	23.261
487.05	23.909
487.40	23.962
487.75	24.203
488.09	24.523
488.44	24.360
488.79	24.981
489.13	24.533
489.48	24.882
489.83	24.207
490.17	24.694
490.52	25.292
490.87	23.598
491.22	25.153
491.56	25.156
491.91	25.732
492.26	25.629
492.60	24.242
492.95	25.170
493.30	24.612
493.64	23.885
493.99	24.541
494.34	25.289
494.68	24.344
495.03	25.099
495.37	24.769
495.72	25.263
496.07	25.475
496.41	24.240
496.76	25.183
497.11	25.070
497.45	25.146
497.80	26.199
498.14	25.491
498.49	25.315
498.84	25.202
499.18	25.585
499.53	24.963
499.87	24.745
500.22	25.734
500.56	25.677
500.91	25.956
501.26	26.256
501.60	25.735
501.95	25.204
502.29	25.097
502.64	25.362
502.98	25.915
503.33	26.034
503.67	25.657
504.02	25.196
504.36	26.053
504.71	25.610
505.06	25.573
505.40	26.392
505.75	26.755
506.09	26.265
506.44	26.260
506.78	26.460
507.13	25.884
507.47	26.034
507.82	26.112
508.16	26.807
508.51	25.826
508.85	27.061
509.19	26.720
509.54	27.239
509.88	26.344
510.23	27.421
510.57	26.695
510.92	27.640
511.26	27.888
511.61	27.058
511.95	27.563
512.30	27.707
512.64	27.923
512.98	28.310
513.33	27.718
513.67	27.655
514.02	28.392
514.36	27.809
514.70	28.464
515.05	29.432
515.39	27.594
515.74	27.413
516.08	27.729
516.42	28.629
516.77	27.651
517.11	28.277
517.46	29.652
517.80	28.753
518.14	28.720
518.49	30.259
518.83	29.773
519.17	28.313
519.52	29.855
519.86	29.387
520.20	28.563
520.55	29.167
520.89	29.349
521.23	31.090
521.58	29.836
521.92	29.541
522.26	29.668
522.61	30.058
522.95	29.987
523.29	30.413
523.64	31.214
523.98	30.623
524.32	29.931
524.66	30.519
525.01	31.127
525.35	31.600
525.69	30.152
526.04	30.879
526.38	31.230
526.72	30.835
527.06	30.496
527.41	31.238
527.75	30.908
528.09	32.267
528.43	30.801
528.78	30.879
529.12	31.501
529.46	31.862
529.80	31.456
530.15	29.601
530.49	32.075
530.83	30.873
531.17	30.890
531.51	30.816
531.86	29.743
532.20	31.358
532.54	31.034
532.88	30.429
533.22	30.370
533.57	31.523
533.91	32.194
534.25	32.682
534.59	30.952
534.93	31.441
535.27	31.338
535.62	31.447
535.96	30.579
536.30	31.316
536.64	30.485
536.98	32.306
537.32	31.032
537.66	30.465
538.01	31.761
538.35	30.801
538.69	30.702
539.03	30.000
539.37	31.120
539.71	30.832
540.05	30.702
540.39	29.800
540.73	30.726
541.07	30.476
541.42	30.303
541.76	30.108
542.10	30.399
542.44	31.462
542.78	30.673
543.12	30.458
543.46	30.062
543.80	29.871
544.14	30.213
544.48	29.662
544.82	30.464
545.16	30.358
545.50	30.858
545.84	30.365
546.18	30.575
546.52	29.993
546.86	29.329
547.20	29.807
547.54	30.236
547.88	30.702
548.22	30.098
548.56	28.819
548.90	30.311
549.24	30.694
549.58	29.680
549.92	30.007
550.26	31.513
550.60	30.255
550.94	30.448
551.28	30.356
551.62	30.000
551.96	30.161
552.30	28.603
552.64	29.873
552.98	29.759
553.32	28.839
553.66	29.714
554.00	29.806
554.34	29.304
554.68	29.456
555.02	29.641
555.36	30.030
555.69	29.060
556.03	29.021
556.37	28.236
556.71	30.273
557.05	29.225
557.39	29.164
557.73	28.669
558.07	29.540
558.41	30.129
558.75	30.331
559.08	29.350
559.42	29.740
559.76	29.052
560.10	28.978
560.44	29.993
560.78	28.058
561.12	29.783
561.45	28.503
561.79	29.230
562.13	28.973
562.47	28.071
562.81	27.922
563.15	27.479
563.48	27.598
563.82	28.181
564.16	27.759
564.50	28.697
564.84	27.905
565.17	28.212
565.51	28.209
565.85	26.915
566.19	27.550
566.52	27.785
566.86	27.750
567.20	26.390
567.54	26.425
567.88	25.308
568.21	26.399
568.55	26.656
568.89	26.271
569.23	25.665
569.56	26.033
569.90	25.652
570.24	25.018
570.57	25.247
570.91	24.667
571.25	24.682
571.59	25.135
571.92	24.494
572.26	25.275
572.60	25.470
572.93	24.742
573.27	24.172
573.61	25.137
573.95	24.537
574.28	24.414
574.62	24.192
574.96	24.705
575.29	24.022
575.63	24.473
575.97	24.049
576.30	24.174
576.64	23.710
576.98	24.344
577.31	24.062
577.65	23.702
577.98	23.277
578.32	23.437
578.66	23.712
578.99	23.732
579.33	24.138
579.67	24.287
580.00	23.578
580.34	23.534
580.67	23.689
581.01	23.251
581.35	23.502
581.68	22.960
582.02	23.027
582.35	23.411
582.69	23.324
583.02	23.455
583.36	24.075
583.70	23.890
584.03	23.969
584.37	23.251
584.70	23.702
585.04	23.463
585.37	23.038
585.71	23.396
586.04	23.559
586.38	23.336
586.72	23.153
587.05	23.745
587.39	23.622
587.72	22.979
588.06	23.529
588.39	22.810
588.73	22.684
589.06	23.569
589.40	22.945
589.73	22.781
590.07	22.421
590.40	23.855
590.73	23.460
591.07	23.987
591.40	23.565
591.74	22.810
592.07	23.414
592.41	23.595
592.74	23.727
593.08	22.974
593.41	22.543
593.75	22.319
594.08	22.694
594.41	22.559
594.75	23.088
595.08	22.965
595.42	22.691
595.75	23.283
596.09	23.210
596.42	23.162
596.75	22.949
597.09	23.203
597.42	22.925
597.75	22.711
598.09	23.953
598.42	24.027
598.76	22.418
599.09	22.729
599.42	22.394
599.76	21.705
600.09	22.703
600.42	21.846
600.76	22.210
601.09	21.356
601.42	22.501
601.76	22.046
602.09	22.700
602.42	22.369
602.76	22.315
603.09	22.259
603.42	21.911
603.76	21.980
604.09	21.818
604.42	21.766
604.76	22.174
605.09	22.293
605.42	23.077
605.75	21.884
606.09	21.358
606.42	22.070
606.75	21.342
607.09	21.676
607.42	21.848
607.75	21.094
608.08	22.362
608.42	21.603
608.75	21.644
609.08	21.803
609.41	22.752
609.75	21.583
610.08	21.795
610.41	22.789
610.74	22.522
611.07	21.593
611.41	22.774
611.74	21.946
612.07	20.948
612.40	21.730
612.73	21.625
613.07	21.064
613.40	21.971
613.73	22.319
614.06	21.780
614.39	21.568
614.72	22.432
615.06	20.722
615.39	21.523
615.72	20.842
616.05	21.284
616.38	21.306
616.71	20.456
617.05	22.174
617.38	21.134
617.71	21.446
618.04	21.146
618.37	21.262
618.70	21.669
619.03	21.168
619.36	21.566
619.69	21.491
620.03	21.555
620.36	19.485
620.69	19.557
621.02	21.692
621.35	21.423
621.68	21.108
622.01	21.926
622.34	21.887
622.67	21.300
623.00	21.505
623.33	21.690
623.66	21.413
623.99	22.206
624.32	20.690
624.65	21.365
624.99	20.940
625.32	20.388
625.65	21.008
625.98	21.880
626.31	22.204
626.64	21.238
626.97	21.972
627.30	20.701
627.63	19.810
627.96	20.433
628.29	21.953
628.62	21.760
628.95	21.743
629.28	21.281
629.61	21.053
629.94	21.083
630.26	20.493
630.59	22.278
630.92	21.586
631.25	20.494
631.58	21.627
631.91	21.739
632.24	20.637
632.57	21.667
632.90	21.820
633.23	21.223
633.56	20.983
633.89	22.727
634.22	23.322
634.55	23.021
634.88	20.466
635.20	21.625
635.53	21.189
635.86	21.410
636.19	21.960
636.52	20.122
636.85	21.834
637.18	19.245
637.51	21.723
637.83	22.585
638.16	20.400
638.49	18.959
638.82	21.307
639.15	21.277
639.48	22.460
639.81	20.833
640.13	21.127
640.46	21.751
640.79	20.432
641.12	18.787
641.45	19.505
641.77	20.324
642.10	21.483
642.43	21.069
642.76	20.505
643.09	21.725
643.41	22.010
643.74	20.517
644.07	20.388
644.40	19.237
644.73	21.017
645.05	21.291
645.38	20.432
645.71	22.619
646.04	19.024
646.36	18.924
646.69	20.280
647.02	20.765
647.35	22.669
647.67	19.963
648.00	20.109
648.33	20.169
648.66	19.366
648.98	19.255
649.31	20.552
649.64	18.623
649.96	20.221
650.29	20.261
650.62	19.275
650.94	19.138
651.27	19.965
651.60	22.727
651.92	19.892
652.25	21.441
652.58	21.122
652.90	19.360
653.23	16.978
653.56	18.678
653.88	16.041
654.21	18.259
654.54	18.605
654.86	19.512
655.19	17.227
655.52	19.020
655.84	15.785
656.17	18.989
656.49	25.500
656.82	25.166
657.15	19.192
657.47	14.543
657.80	10.803
658.13	11.610
658.45	16.932
658.78	17.118
659.10	16.846
659.43	17.011
659.75	17.604
660.08	17.724
660.41	16.734
660.73	16.804
661.06	18.878
661.38	19.380
661.71	20.902
662.03	19.239
662.36	17.257
662.68	21.935
663.01	20.975
663.33	19.222
663.66	18.847
663.98	18.876
664.31	19.121
664.63	16.441
664.96	18.381
665.28	17.811
665.61	16.415
665.93	17.131
666.26	20.886
666.58	17.345
666.91	21.076
667.23	17.281
667.56	18.851
667.88	16.589
668.21	18.527
668.53	17.241
668.86	20.144
669.18	22.459
669.50	19.124
669.83	18.377
670.15	18.810
670.48	16.782
670.80	18.600
671.13	18.307
671.45	18.721
671.77	16.810
672.10	17.544
672.42	15.076
672.75	16.071
673.07	16.727
673.39	18.097
673.72	18.962
674.04	18.852
674.37	19.512
674.69	18.107
675.01	16.453
675.34	17.068
675.66	18.083
675.98	19.027
676.31	18.326
676.63	17.234
676.95	18.118
677.28	16.743
677.60	18.627
677.92	16.630
678.25	19.089
678.57	17.312
678.89	15.778
679.22	15.321
679.54	16.327
679.86	20.312
680.18	17.115
680.51	15.577
680.83	14.230
681.15	16.699
681.48	14.830
681.80	16.564
682.12	16.667
682.44	17.304
682.77	13.895
683.09	16.518
683.41	16.977
683.73	14.955
684.06	16.150
684.38	16.453
684.70	17.108
685.02	16.736
685.34	15.656
685.67	15.385
685.99	16.014
686.31	18.448
686.63	16.176
686.96	16.883
687.28	12.575
687.60	18.526
687.92	15.564
688.24	14.000
688.56	18.421
688.89	12.918
689.21	13.677
689.53	13.288
689.85	13.258
690.17	16.923
690.49	14.493
690.82	15.274
691.14	17.150
691.46	15.081
691.78	13.846
692.10	14.225
692.42	12.967
692.74	14.783
693.06	15.056
693.39	14.052
693.71	16.000
694.03	18.182
694.35	13.964
694.67	14.750
694.99	17.784
695.31	16.021
695.63	14.878
695.95	12.723
696.27	9.863
696.59	13.441
696.91	13.128
697.23	15.482
697.56	13.909
697.88	15.800
698.20	15.335
698.52	14.019
698.84	13.397
699.16	12.057
699.48	15.062
699.80	16.796
700.12	14.209
700.44	12.958
700.76	14.045
701.08	11.782
701.40	12.575
701.72	12.923
702.04	13.836
702.36	11.890
702.68	12.195
703.00	17.544
703.32	11.978
703.64	12.651
703.96	13.196
704.28	15.060
704.60	14.329
704.91	9.718
705.23	16.139
705.55	12.759
705.87	12.324
706.19	14.286
706.51	13.380
706.83	11.783
707.15	16.159
707.47	14.601
707.79	14.721
708.11	10.283
708.43	13.452
708.74	12.500
709.06	14.171
709.38	11.816
709.70	13.514
710.02	13.707
710.34	8.667
710.66	12.704
710.98	11.765
711.29	10.390
711.61	12.903
711.93	11.613
712.25	9.441
712.57	10.175
712.89	12.821
713.20	14.539
713.52	12.774
713.84	14.194
714.16	10.032
714.48	12.975
714.80	6.709
715.11	16.279
715.43	9.938
715.75	12.733
716.07	14.157
716.39	13.805
716.70	14.388
717.02	11.373
717.34	14.015
717.66	6.034
717.97	8.333
718.29	11.811
718.61	8.155
718.93	13.566
719.24	14.022
719.56	11.236
719.88	10.821
720.20	14.625
720.51	11.719
720.83	9.728
721.15	11.382
721.46	12.977
721.78	15.139
722.10	9.960
722.42	4.435
722.73	10.425
723.05	11.020
723.37	11.765
723.68	9.600
724.00	4.681
724.32	8.368
724.63	15.226
724.95	8.547
725.27	12.236
725.58	10.288
725.90	12.552
726.22	13.406
726.53	2.745
726.85	13.139
727.16	13.333
727.48	12.261
727.80	13.672
728.11	13.525
728.43	8.984
728.74	11.905
729.06	11.600
729.38	16.206
729.69	9.609
730.01	6.691
730.32	11.070
730.64	8.333
730.96	12.238
731.27	5.351
731.59	12.063
731.90	11.650
732.22	7.051
732.53	8.108
732.85	8.725
733.16	10.891
733.48	13.514
733.80	9.459
734.11	16.216
734.43	10.217
734.74	12.913
735.06	9.798
735.37	12.158
735.69	13.916
736.00	9.241
736.32	11.348
736.63	11.379
736.95	10.959
737.26	11.034
737.58	11.458
737.89	10.997
738.21	8.185
738.52	8.365
738.83	14.286
739.15	13.502
739.46	7.782
739.78	6.338
740.09	12.329
740.41	5.357
740.72	10.284
741.04	7.600
741.35	8.333
741.66	11.556
741.98	12.019
742.29	15.347
742.61	8.780
742.92	16.667
743.23	8.962
743.55	9.009
743.86	13.004
744.18	10.784
744.49	9.137
744.80	9.694
745.12	8.879
745.43	7.109
745.74	14.414
746.06	12.150
746.37	9.633
746.68	6.731
747.00	14.354
747.31	8.654
747.62	7.339
747.94	16.594
748.25	12.385
748.56	15.556
748.88	10.329
749.19	15.714
749.50	2.913
749.82	6.573
750.13	2.500
750.44	5.769
750.75	7.749
751.07	10.320
751.38	10.638
751.69	3.089
752.01	4.688
752.32	9.231
752.63	12.313
752.94	10.800
753.26	9.623
753.57	12.083
753.88	9.312
754.19	4.781
754.51	10.526
754.82	11.355
755.13	2.609
755.44	9.756
755.75	5.600
756.07	6.642
756.38	8.993
756.69	10.922
757.00	9.346
757.31	7.443
757.63	5.864
757.94	11.582
758.25	11.376
758.56	8.424
758.87	11.607
759.18	7.256
759.50	6.061
759.81	9.030
760.12	9.231
760.43	4.464
760.74	5.650
761.05	8.011
761.36	7.736
761.67	5.740
761.99	6.186
762.30	6.934
762.61	7.407
762.92	12.821
763.23	10.656
763.54	8.225
763.85	5.714
764.16	6.911
764.47	4.400
764.78	6.429
765.10	9.180
765.41	12.766
765.72	9.317
766.03	9.901
766.34	9.615
766.65	3.766
766.96	6.103
767.27	7.921
767.58	-2.247
767.89	13.580
768.20	4.420
768.51	11.055
768.82	4.808
769.13	8.407
769.44	7.950
769.75	8.547
770.06	10.314
770.37	2.451
770.68	7.767
770.99	6.796
771.30	8.824
771.61	2.041
771.92	6.639
772.23	4.505
772.54	2.210
772.85	7.558
773.16	11.111
773.47	0.592
773.78	8.046
774.09	1.250
774.39	13.665
774.70	8.844
775.01	2.759
775.32	4.286
775.63	3.008
775.94	0.000
776.25	-6.400
776.56	3.306
776.87	11.111
777.18	2.703
777.48	-0.901
777.79	0.000
778.10	11.009
778.41	0.877
778.72	-3.361
779.03	0.704
779.34	8.784
779.65	-2.113
779.95	3.974
780.26	1.439
780.57	4.317
780.88	-1.408
781.19	-5.042
781.50	12.752
781.80	8.772
782.11	2.907
782.42	7.547
782.73	3.268
783.04	9.655
783.34	-1.527
783.65	-0.671
783.96	9.231
784.27	8.571
784.57	3.546
784.88	2.885
785.19	14.545
785.50	2.727
785.81	-0.952
786.11	6.723
786.42	0.885
786.73	4.717
787.04	-2.752
787.34	-8.911
787.65	3.333
787.96	-0.826
788.26	2.899
788.57	2.381
788.88	-5.691
789.19	8.000
789.49	-3.053
789.80	12.121
790.11	1.887
790.41	-3.960
790.72	-5.319
791.03	-10.870
791.33	2.353
791.64	-4.938
791.95	3.261
792.25	-3.409
792.56	6.410
792.87	-1.282
793.17	-5.128
793.48	-4.762
793.79	2.500
794.09	7.692
794.40	1.042
794.70	5.405
795.01	3.906
795.32	5.217
795.62	-11.957
795.93	-5.660
796.23	6.061
796.54	-7.317
796.85	3.571
797.15	-6.061
797.46	4.348
797.76	-1.316
798.07	3.409
798.37	-9.756
798.68	-12.903
798.99	-4.054
799.29	2.410
799.60	-5.128
799.90	-4.615
800.21	-9.091
800.51	-4.000
800.82	-6.667
801.12	-43.750
801.43	-23.333
801.73	12.162
802.04	2.857
802.34	-27.869
802.65	-11.940
802.95	-7.273
803.26	6.897
803.56	1.538
803.87	3.774
804.17	0.000
804.48	13.235
804.78	-26.829
805.09	4.348
805.39	-5.882
805.70	-46.809
806.00	-14.035
806.30	2.564
806.61	3.947
806.91	-6.757
807.22	-5.263
807.52	-6.818
807.83	-33.898
808.13	-21.212
808.43	1.667
808.74	-39.655
809.04	-9.524
809.35	-16.327
809.65	-16.667
809.95	-10.204
810.26	19.718
810.56	-8.333
810.86	-14.286
811.17	-3.846
811.47	-27.660
811.77	-6.250
812.08	-3.774
812.38	-53.125
812.69	-10.909
812.99	-12.195
813.29	-18.919
813.59	-40.541
813.90	-5.455
814.20	-9.091
814.50	-8.333
814.81	-16.364
815.11	-1.754
815.41	-4.651
815.72	12.500
816.02	-37.143
816.32	-24.324
816.62	10.417
816.93	-22.222
817.23	-35.556
817.53	-50.000
817.84	-27.027
818.14	-24.390
818.44	-6.000
818.74	12.245
819.04	-9.756
819.35	-33.333
819.65	11.364
819.95	-66.667
820.25	-42.424
820.56	-28.571
820.86	-36.111
821.16	-36.364
821.46	8.696
821.76	-31.034
822.07	-30.435
822.37	0.000
822.67	2.439
822.97	5.405
823.27	-37.143
823.57	-20.690
823.88	-23.529
824.18	-16.667
824.48	-5.714
824.78	-42.857
825.08	-17.857
825.38	-7.407
825.69	-29.032
825.99	12.195
826.29	-7.407
826.59	-28.125
826.89	-25.806
827.19	-69.565
827.49	-50.000
827.79	-47.826
828.09	-41.935
828.39	-22.917
828.70	-46.875
829.00	-31.034
829.30	-37.838
829.60	-66.667
829.90	-44.444
830.20	-15.625
830.50	-40.909
830.80	-170.588
831.10	-72.727
831.40	-38.235
831.70	-30.769
832.00	9.091
832.30	-8.824
832.60	-21.622
832.90	1600.000
833.20	-7.143
833.50	-120.000
833.80	-13.158
834.10	-66.667
834.40	-59.091
834.70	-140.000
835.00	-40.000
835.30	-41.667
835.60	-52.381
835.90	-38.095
836.20	-56.000
836.50	-29.167
836.80	-63.158
837.10	-24.324
837.40	16.667
837.70	-43.478
838.00	-16.667
838.30	-68.421
838.60	-240.000
838.90	-250.000
839.19	-125.000
839.49	-130.769
839.79	-36.842
840.09	-366.667
840.39	-130.000
840.69	-22.727
840.99	-28.571
841.29	-41.667
841.59	-115.385
841.88	-120.000
842.18	-35.714
842.48	6.667
842.78	-300.000
843.08	-135.714
843.38	-162.500
843.68	-87.500
843.97	-35.714
844.27	-55.556
844.57	-154.545
844.87	-40.000
845.17	-13.636
845.47	600.000
845.76	-80.000
846.06	-150.000
846.36	-1350.000
846.66	-21.053
846.96	-27.273
847.25	-94.444
847.55	-188.889
847.85	-90.476
848.15	-84.615
848.44	-333.333
848.74	-166.667
849.04	-38.462
849.34	-300.000
849.63	-145.455
849.93	-107.143
850.23	-40.000
850.53	-250.000
850.82	-55.556
851.12	-20.000
851.42	-70.588
851.71	-162.500
852.01	-11.765
852.31	-123.077
852.61	800.000
852.90	-29.412
853.20	-120.000
853.50	-81.250
853.79	-150.000
854.09	-475.000
854.39	-65.000
854.68	-27.500
854.98	-66.667
855.28	-84.000
855.57	-12.500
855.87	-33.333
856.17	-40.000
856.46	-37.500
856.76	-10.000
857.05	0.000
857.35	-133.333
857.65	-82.353
857.94	-91.667
858.24	-133.333
858.53	-50.000
858.83	-154.545
859.13	16.000
859.42	-14.286
859.72	-162.500
860.01	-8.333
860.31	-287.500
860.60	-93.750
860.90	-266.667
861.20	-216.667
861.49	-46.667
861.79	-87.500
862.08	400.000
862.38	-175.000
862.67	371.429
862.97	225.000
863.26	-81.818
863.56	-136.364
863.85	-36.842
864.15	-29.412
864.44	-280.000
864.74	-200.000
865.03	-66.667
865.33	35.714
865.62	185.714
865.92	-10.526
866.21	-38.889
866.51	27.273
866.80	-55.556
867.10	-125.000
867.39	-25.000
867.69	-100.000
867.98	-190.000
868.27	-17.647
868.57	0.000
868.86	700.000
869.16	-425.000
869.45	-314.286
869.75	1000.000
870.04	-160.000
870.33	-1900.000
870.63	-5.263
870.92	-133.333
871.22	-1700.000
871.51	-214.286
871.80	-133.333
872.10	-350.000
>>>>>End Processed Spectral Data<<<<<
