SpectraSuite Data File
++++++++++++++++++++++++++++++++++++
Date: Wed May 13 21:33:45 PDT 2015
User: schluterlab
Dark Spectrum Present: Yes
Reference Spectrum Present: Yes
Number of Sampled Component Spectra: 1
Spectrometers: USB2E3373
Integration Time (usec): 3000 (USB2E3373)
Spectra Averaged: 3 (USB2E3373)
Boxcar Smoothing: 0 (USB2E3373)
Correct for Electrical Dark: No (USB2E3373)
Strobe/Lamp Enabled: No (USB2E3373)
Correct for Detector Non-linearity: No (USB2E3373)
Correct for Stray Light: No (USB2E3373)
Number of Pixels in Processed Spectrum: 2048
>>>>>Begin Processed Spectral Data<<<<<
178.53	0.000
178.91	400.000
179.29	225.000
179.67	-800.000
180.04	-466.667
180.42	280.000
180.80	2400.000
181.18	350.000
181.56	-625.000
181.94	-350.000
182.31	0.000
182.69	123.077
183.07	-220.000
183.45	150.000
183.83	266.667
184.20	300.000
184.58	0.000
184.96	366.667
185.34	142.857
185.72	0.000
186.09	-900.000
186.47	-280.000
186.85	340.000
187.23	-200.000
187.61	650.000
187.98	500.000
188.36	-125.000
188.74	0.000
189.12	-9.091
189.49	70.000
189.87	50.000
190.25	380.000
190.63	1500.000
191.00	-180.000
191.38	240.000
191.76	400.000
192.14	141.667
192.51	-57.895
192.89	733.333
193.27	450.000
193.65	-440.000
194.02	218.182
194.40	190.000
194.78	-700.000
195.15	40.000
195.53	-200.000
195.91	50.000
196.29	-66.667
196.66	0.000
197.04	800.000
197.42	-240.000
197.79	-30.000
198.17	-175.000
198.55	-533.333
198.92	300.000
199.30	-500.000
199.68	-100.000
200.05	450.000
200.43	200.000
200.81	-1600.000
201.18	-240.000
201.56	-250.000
201.94	700.000
202.31	-21.739
202.69	-128.571
203.07	-400.000
203.44	-40.000
203.82	0.000
204.19	-160.000
204.57	0.000
204.95	-16.667
205.32	0.000
205.70	-350.000
206.08	-325.000
206.45	-166.667
206.83	425.000
207.20	-433.333
207.58	-130.000
207.96	-1400.000
208.33	28.571
208.71	-1500.000
209.08	200.000
209.46	500.000
209.84	0.000
210.21	130.000
210.59	2600.000
210.96	400.000
211.34	1400.000
211.71	-900.000
212.09	-200.000
212.46	-160.000
212.84	-300.000
213.22	-150.000
213.59	-1000.000
213.97	-600.000
214.34	-650.000
214.72	7.692
215.09	187.500
215.47	155.556
215.84	1250.000
216.22	-75.000
216.59	-500.000
216.97	833.333
217.34	177.778
217.72	0.000
218.09	466.667
218.47	-1500.000
218.84	-228.571
219.22	-225.000
219.59	-333.333
219.97	-100.000
220.34	-200.000
220.72	-220.000
221.09	0.000
221.47	-233.333
221.84	-700.000
222.22	0.000
222.59	1400.000
222.97	-533.333
223.34	-25.000
223.72	-1700.000
224.09	-550.000
224.46	-36.364
224.84	12.500
225.21	-100.000
225.59	-250.000
225.96	-183.333
226.34	-100.000
226.71	-228.571
227.08	650.000
227.46	-50.000
227.83	500.000
228.21	-50.000
228.58	-225.000
228.95	-76.471
229.33	-68.750
229.70	-200.000
230.08	-30.769
230.45	-150.000
230.82	-58.333
231.20	200.000
231.57	-350.000
231.95	1800.000
232.32	-8.333
232.69	-5.882
233.07	-2400.000
233.44	-43.478
233.81	-450.000
234.19	-8.333
234.56	-153.333
234.93	-33.333
235.31	-52.632
235.68	-61.538
236.05	-53.846
236.43	-5.556
236.80	-48.485
237.17	-66.667
237.55	-64.706
237.92	-65.517
238.29	-92.593
238.67	-16.667
239.04	-35.484
239.41	-21.277
239.79	21.277
240.16	13.953
240.53	-8.929
240.91	-5.357
241.28	-10.714
241.65	-9.677
242.02	-3.947
242.40	-1.449
242.77	-21.739
243.14	1.282
243.51	10.638
243.89	-2.885
244.26	13.208
244.63	-1.923
245.00	-3.125
245.38	-1.681
245.75	-1.639
246.12	-1.504
246.49	-12.195
246.87	-3.361
247.24	6.081
247.61	-4.636
247.98	5.128
248.36	0.000
248.73	-1.124
249.10	2.020
249.47	1.613
249.84	-2.632
250.22	4.975
250.59	1.869
250.96	4.545
251.33	-2.871
251.70	6.276
252.08	5.439
252.45	-1.235
252.82	7.224
253.19	1.946
253.56	3.237
253.94	9.253
254.31	3.169
254.68	4.698
255.05	3.300
255.42	4.196
255.79	2.761
256.16	4.101
256.54	2.540
256.91	4.114
257.28	8.805
257.65	1.911
258.02	4.692
258.39	6.140
258.76	3.779
259.14	1.989
259.51	3.652
259.88	6.504
260.25	6.111
260.62	1.404
260.99	7.427
261.36	6.477
261.73	4.691
262.10	5.344
262.47	3.704
262.85	3.234
263.22	3.333
263.59	5.455
263.96	4.136
264.33	5.048
264.70	4.419
265.07	6.481
265.44	4.598
265.81	3.661
266.18	3.645
266.55	4.803
266.92	6.356
267.29	4.938
267.66	3.822
268.03	5.967
268.40	2.966
268.77	5.372
269.14	4.694
269.51	8.830
269.88	2.851
270.25	4.449
270.62	3.484
270.99	5.709
271.36	5.952
271.73	4.618
272.10	4.952
272.47	4.798
272.84	7.874
273.21	4.892
273.58	5.328
273.95	4.151
274.32	5.784
274.69	7.468
275.06	6.184
275.43	4.143
275.80	5.851
276.17	3.499
276.54	5.684
276.91	5.401
277.28	4.152
277.65	6.469
278.02	4.821
278.39	4.263
278.76	6.856
279.13	6.346
279.50	3.966
279.87	3.442
280.23	3.604
280.60	4.152
280.97	4.221
281.34	5.205
281.71	2.764
282.08	5.299
282.45	3.443
282.82	5.112
283.19	7.927
283.56	4.531
283.92	5.199
284.29	5.304
284.66	4.283
285.03	4.072
285.40	5.287
285.77	6.306
286.14	4.407
286.51	7.946
286.87	5.385
287.24	3.687
287.61	4.819
287.98	4.118
288.35	4.471
288.72	5.739
289.08	6.553
289.45	4.258
289.82	4.992
290.19	4.628
290.56	3.977
290.93	4.006
291.29	5.472
291.66	4.645
292.03	5.995
292.40	6.057
292.77	6.560
293.13	4.045
293.50	4.967
293.87	4.933
294.24	5.423
294.60	5.072
294.97	5.423
295.34	3.034
295.71	3.942
296.08	3.403
296.44	4.082
296.81	2.801
297.18	4.250
297.55	4.009
297.91	4.969
298.28	4.843
298.65	3.079
299.02	5.128
299.38	4.417
299.75	5.048
300.12	3.953
300.48	3.860
300.85	5.081
301.22	4.297
301.59	3.638
301.95	3.020
302.32	3.734
302.69	3.503
303.05	4.319
303.42	4.432
303.79	4.732
304.15	3.505
304.52	4.839
304.89	3.987
305.25	3.074
305.62	3.579
305.99	4.570
306.35	5.852
306.72	5.086
307.09	5.214
307.45	3.940
307.82	4.316
308.19	3.657
308.55	4.197
308.92	6.876
309.29	4.805
309.65	5.395
310.02	6.064
310.38	5.996
310.75	5.523
311.12	5.539
311.48	2.967
311.85	5.709
312.22	6.190
312.58	5.604
312.95	5.771
313.31	6.428
313.68	5.439
314.05	7.183
314.41	6.244
314.78	7.780
315.14	7.130
315.51	7.517
315.87	8.063
316.24	7.805
316.61	9.863
316.97	8.241
317.34	10.071
317.70	9.813
318.07	10.204
318.43	10.659
318.80	10.471
319.16	10.522
319.53	12.007
319.89	12.285
320.26	11.460
320.62	12.975
320.99	13.566
321.35	14.219
321.72	13.956
322.08	15.406
322.45	16.004
322.81	17.560
323.18	17.174
323.54	19.495
323.91	19.332
324.27	20.342
324.64	20.209
325.00	21.785
325.37	22.184
325.73	22.054
326.10	23.717
326.46	24.164
326.83	25.081
327.19	26.341
327.56	27.075
327.92	27.836
328.29	29.132
328.65	29.623
329.01	28.496
329.38	31.130
329.74	31.073
330.11	30.748
330.47	32.378
330.84	32.852
331.20	34.415
331.56	35.145
331.93	36.262
332.29	35.882
332.66	35.847
333.02	36.577
333.38	35.965
333.75	36.519
334.11	36.111
334.48	38.448
334.84	37.279
335.20	38.508
335.57	37.337
335.93	38.230
336.29	38.616
336.66	38.547
337.02	39.391
337.38	40.209
337.75	39.966
338.11	39.197
338.47	39.469
338.84	40.292
339.20	41.270
339.56	40.273
339.93	40.795
340.29	41.418
340.65	41.831
341.02	39.684
341.38	42.652
341.74	41.345
342.11	42.114
342.47	39.414
342.83	41.503
343.20	42.555
343.56	42.028
343.92	39.805
344.28	42.938
344.65	42.612
345.01	42.131
345.37	42.516
345.73	43.219
346.10	42.376
346.46	42.520
346.82	42.937
347.19	42.484
347.55	43.861
347.91	42.245
348.27	42.114
348.63	42.388
349.00	41.667
349.36	42.700
349.72	41.841
350.08	42.122
350.45	44.009
350.81	43.975
351.17	43.418
351.53	43.833
351.89	42.891
352.26	42.394
352.62	45.039
352.98	44.249
353.34	43.237
353.70	43.536
354.07	44.000
354.43	43.935
354.79	44.952
355.15	44.022
355.51	42.521
355.87	44.801
356.24	44.783
356.60	45.113
356.96	43.668
357.32	44.892
357.68	45.378
358.04	44.608
358.40	45.116
358.77	43.349
359.13	44.358
359.49	43.376
359.85	44.958
360.21	44.564
360.57	44.335
360.93	44.917
361.29	45.152
361.66	45.254
362.02	43.662
362.38	46.529
362.74	45.033
363.10	45.336
363.46	46.254
363.82	46.415
364.18	43.582
364.54	46.244
364.90	43.275
365.26	45.011
365.62	45.028
365.98	45.907
366.35	45.248
366.71	46.006
367.07	45.004
367.43	45.296
367.79	45.379
368.15	45.077
368.51	44.233
368.87	46.267
369.23	46.548
369.59	45.525
369.95	45.791
370.31	45.258
370.67	45.909
371.03	45.805
371.39	45.138
371.75	45.071
372.11	45.869
372.47	46.143
372.83	46.325
373.19	46.187
373.55	46.749
373.91	46.393
374.27	45.367
374.63	46.159
374.99	44.916
375.35	46.233
375.71	45.448
376.07	46.333
376.42	47.193
376.78	46.631
377.14	46.508
377.50	45.893
377.86	46.946
378.22	47.029
378.58	47.163
378.94	47.375
379.30	46.346
379.66	46.486
380.02	47.855
380.38	46.807
380.74	46.085
381.09	46.261
381.45	47.037
381.81	46.087
382.17	46.818
382.53	47.692
382.89	47.105
383.25	47.901
383.61	47.397
383.97	47.500
384.32	46.566
384.68	47.070
385.04	46.304
385.40	46.700
385.76	47.810
386.12	48.031
386.48	46.520
386.83	46.621
387.19	47.933
387.55	47.578
387.91	47.909
388.27	46.486
388.62	46.879
388.98	48.811
389.34	47.055
389.70	47.009
390.06	45.438
390.42	47.423
390.77	45.996
391.13	46.528
391.49	47.059
391.85	47.220
392.20	46.491
392.56	46.476
392.92	46.928
393.28	46.717
393.64	47.584
393.99	45.777
394.35	46.605
394.71	48.526
395.07	45.283
395.42	46.923
395.78	46.139
396.14	46.607
396.50	47.749
396.85	47.610
397.21	45.943
397.57	46.460
397.92	45.808
398.28	45.742
398.64	46.205
399.00	46.652
399.35	47.389
399.71	46.418
400.07	47.470
400.42	46.520
400.78	46.647
401.14	46.291
401.49	46.675
401.85	45.577
402.21	47.616
402.57	46.842
402.92	46.683
403.28	47.092
403.63	44.947
403.99	47.089
404.35	46.509
404.70	44.592
405.06	46.095
405.42	45.854
405.77	45.853
406.13	46.000
406.49	46.255
406.84	46.642
407.20	46.477
407.55	47.403
407.91	45.599
408.27	45.477
408.62	46.286
408.98	45.746
409.34	45.978
409.69	46.459
410.05	45.211
410.40	45.770
410.76	45.608
411.11	46.517
411.47	46.782
411.83	46.850
412.18	46.222
412.54	45.802
412.89	46.395
413.25	43.540
413.60	45.956
413.96	46.442
414.31	45.808
414.67	44.762
415.03	45.602
415.38	45.112
415.74	44.639
416.09	46.464
416.45	46.001
416.80	46.242
417.16	47.166
417.51	45.747
417.87	44.643
418.22	46.283
418.58	45.401
418.93	45.700
419.29	46.205
419.64	45.674
420.00	45.587
420.35	45.368
420.71	45.216
421.06	46.187
421.42	45.560
421.77	45.896
422.12	45.960
422.48	45.202
422.83	46.663
423.19	45.428
423.54	45.347
423.90	45.131
424.25	45.985
424.61	46.765
424.96	45.003
425.31	44.644
425.67	45.620
426.02	45.995
426.38	46.020
426.73	46.854
427.09	46.842
427.44	46.330
427.79	47.268
428.15	45.627
428.50	44.894
428.85	46.679
429.21	45.695
429.56	45.802
429.92	46.538
430.27	45.859
430.62	45.803
430.98	45.849
431.33	45.352
431.68	45.740
432.04	46.873
432.39	45.785
432.74	45.126
433.10	46.659
433.45	45.621
433.80	46.437
434.16	46.095
434.51	46.250
434.86	46.761
435.22	45.954
435.57	44.226
435.92	45.778
436.28	45.045
436.63	45.497
436.98	45.241
437.34	46.459
437.69	45.750
438.04	44.878
438.39	46.700
438.75	45.709
439.10	46.848
439.45	45.400
439.81	46.490
440.16	46.551
440.51	44.946
440.86	46.532
441.22	44.750
441.57	46.095
441.92	45.775
442.27	45.833
442.63	45.479
442.98	44.907
443.33	46.219
443.68	44.491
444.03	44.709
444.39	45.117
444.74	45.665
445.09	44.493
445.44	46.535
445.79	44.605
446.15	46.201
446.50	46.035
446.85	46.392
447.20	46.262
447.55	45.775
447.91	45.562
448.26	45.969
448.61	45.685
448.96	45.330
449.31	46.145
449.66	44.766
450.02	45.708
450.37	45.711
450.72	45.522
451.07	45.893
451.42	43.918
451.77	44.553
452.12	44.563
452.47	45.965
452.83	44.693
453.18	44.685
453.53	45.712
453.88	44.940
454.23	44.623
454.58	43.199
454.93	44.708
455.28	45.151
455.63	44.292
455.98	44.796
456.34	46.345
456.69	45.112
457.04	45.263
457.39	45.520
457.74	44.764
458.09	45.142
458.44	45.358
458.79	43.438
459.14	44.775
459.49	44.085
459.84	43.405
460.19	43.457
460.54	44.647
460.89	44.989
461.24	44.081
461.59	44.686
461.94	45.259
462.29	44.730
462.64	43.008
462.99	44.802
463.34	44.682
463.69	44.974
464.04	43.277
464.39	44.478
464.74	43.735
465.09	44.761
465.44	43.771
465.79	44.681
466.14	45.325
466.49	44.340
466.84	44.351
467.19	44.522
467.54	44.718
467.89	43.683
468.24	44.007
468.59	44.296
468.94	42.337
469.29	43.754
469.64	43.096
469.99	44.828
470.34	44.032
470.68	43.420
471.03	43.300
471.38	43.950
471.73	43.759
472.08	44.742
472.43	44.393
472.78	44.692
473.13	41.557
473.48	43.249
473.83	43.754
474.17	43.945
474.52	43.495
474.87	42.823
475.22	43.659
475.57	42.499
475.92	43.130
476.27	42.366
476.61	42.469
476.96	43.632
477.31	42.071
477.66	42.881
478.01	42.912
478.36	41.744
478.70	43.233
479.05	43.174
479.40	42.434
479.75	43.996
480.10	42.529
480.45	42.128
480.79	43.305
481.14	42.553
481.49	42.526
481.84	41.093
482.19	42.149
482.53	43.095
482.88	42.138
483.23	42.012
483.58	41.777
483.92	42.364
484.27	41.537
484.62	41.012
484.97	41.891
485.31	40.956
485.66	39.583
486.01	40.977
486.36	41.000
486.70	41.764
487.05	41.548
487.40	41.224
487.75	41.774
488.09	40.788
488.44	41.781
488.79	42.089
489.13	41.352
489.48	40.958
489.83	41.447
490.17	40.354
490.52	43.478
490.87	39.870
491.22	41.592
491.56	41.495
491.91	40.518
492.26	41.634
492.60	41.077
492.95	41.108
493.30	40.891
493.64	40.192
493.99	40.580
494.34	41.040
494.68	41.671
495.03	41.304
495.37	40.827
495.72	39.950
496.07	40.526
496.41	39.682
496.76	40.539
497.11	40.704
497.45	39.981
497.80	41.040
498.14	40.605
498.49	39.486
498.84	40.587
499.18	40.567
499.53	40.423
499.87	39.447
500.22	39.223
500.56	41.123
500.91	41.097
501.26	39.655
501.60	39.314
501.95	39.243
502.29	39.806
502.64	39.682
502.98	39.403
503.33	39.270
503.67	39.922
504.02	38.922
504.36	38.583
504.71	38.008
505.06	39.684
505.40	39.639
505.75	40.081
506.09	39.142
506.44	38.659
506.78	38.649
507.13	39.397
507.47	38.494
507.82	39.194
508.16	39.314
508.51	38.326
508.85	37.792
509.19	38.413
509.54	38.820
509.88	38.280
510.23	38.632
510.57	38.030
510.92	38.739
511.26	39.329
511.61	39.297
511.95	37.982
512.30	38.145
512.64	38.763
512.98	38.116
513.33	39.437
513.67	37.990
514.02	38.940
514.36	38.596
514.70	38.337
515.05	38.970
515.39	38.679
515.74	38.188
516.08	38.053
516.42	36.924
516.77	37.141
517.11	38.330
517.46	37.935
517.80	39.225
518.14	38.028
518.49	36.769
518.83	37.828
519.17	37.952
519.52	38.661
519.86	37.644
520.20	36.810
520.55	38.682
520.89	38.077
521.23	39.231
521.58	36.599
521.92	36.518
522.26	37.476
522.61	37.750
522.95	36.593
523.29	36.825
523.64	37.762
523.98	37.166
524.32	36.736
524.66	37.078
525.01	37.680
525.35	35.550
525.69	37.243
526.04	36.938
526.38	36.839
526.72	36.423
527.06	36.106
527.41	37.392
527.75	35.581
528.09	37.032
528.43	36.974
528.78	35.336
529.12	37.128
529.46	36.276
529.80	36.117
530.15	35.393
530.49	36.658
530.83	36.899
531.17	36.918
531.51	35.941
531.86	36.653
532.20	35.631
532.54	35.241
532.88	37.304
533.22	37.239
533.57	37.483
533.91	36.258
534.25	35.612
534.59	35.779
534.93	35.587
535.27	35.414
535.62	35.066
535.96	36.435
536.30	36.370
536.64	35.612
536.98	35.039
537.32	35.587
537.66	35.896
538.01	36.200
538.35	34.807
538.69	35.385
539.03	34.765
539.37	33.535
539.71	34.789
540.05	34.818
540.39	34.343
540.73	35.126
541.07	34.422
541.42	34.209
541.76	35.521
542.10	34.597
542.44	34.234
542.78	34.351
543.12	33.895
543.46	33.656
543.80	35.642
544.14	35.306
544.48	34.107
544.82	34.835
545.16	34.212
545.50	35.111
545.84	34.783
546.18	33.941
546.52	34.792
546.86	32.580
547.20	34.525
547.54	33.524
547.88	34.278
548.22	33.094
548.56	33.556
548.90	33.627
549.24	33.681
549.58	33.381
549.92	34.703
550.26	34.982
550.60	34.835
550.94	32.985
551.28	33.308
551.62	34.436
551.96	33.602
552.30	33.261
552.64	32.839
552.98	34.730
553.32	33.453
553.66	33.162
554.00	33.621
554.34	33.626
554.68	33.259
555.02	32.635
555.36	33.585
555.69	32.629
556.03	33.381
556.37	32.859
556.71	32.446
557.05	32.768
557.39	32.931
557.73	33.510
558.07	32.479
558.41	32.702
558.75	33.641
559.08	32.237
559.42	33.832
559.76	32.187
560.10	33.820
560.44	33.309
560.78	32.950
561.12	31.395
561.45	31.769
561.79	32.600
562.13	31.435
562.47	32.714
562.81	32.684
563.15	31.161
563.48	31.452
563.82	32.353
564.16	31.754
564.50	32.090
564.84	31.959
565.17	31.523
565.51	31.551
565.85	30.846
566.19	32.119
566.52	30.931
566.86	31.100
567.20	32.621
567.54	31.376
567.88	31.299
568.21	30.038
568.55	31.195
568.89	31.206
569.23	31.027
569.56	29.871
569.90	30.867
570.24	29.964
570.57	29.990
570.91	29.760
571.25	29.873
571.59	29.585
571.92	29.921
572.26	29.849
572.60	29.997
572.93	29.741
573.27	29.851
573.61	29.888
573.95	29.350
574.28	29.853
574.62	29.178
574.96	29.405
575.29	29.263
575.63	29.768
575.97	29.185
576.30	28.634
576.64	29.316
576.98	29.440
577.31	29.181
577.65	28.960
577.98	29.526
578.32	28.749
578.66	28.907
578.99	28.897
579.33	28.836
579.67	28.921
580.00	29.665
580.34	28.745
580.67	28.638
581.01	29.104
581.35	29.013
581.68	28.525
582.02	28.775
582.35	28.427
582.69	28.599
583.02	28.623
583.36	28.763
583.70	28.663
584.03	28.471
584.37	27.814
584.70	28.415
585.04	28.865
585.37	28.214
585.71	28.268
586.04	27.970
586.38	28.150
586.72	28.266
587.05	28.511
587.39	28.699
587.72	28.378
588.06	28.782
588.39	27.820
588.73	28.430
589.06	27.837
589.40	28.001
589.73	27.848
590.07	28.035
590.40	28.550
590.73	28.566
591.07	27.957
591.40	27.826
591.74	27.612
592.07	28.754
592.41	27.971
592.74	28.125
593.08	27.385
593.41	27.553
593.75	27.552
594.08	28.256
594.41	27.642
594.75	28.598
595.08	28.006
595.42	26.879
595.75	27.766
596.09	27.521
596.42	27.655
596.75	28.565
597.09	27.843
597.42	28.757
597.75	27.467
598.09	27.004
598.42	28.412
598.76	27.246
599.09	27.891
599.42	28.285
599.76	27.938
600.09	27.673
600.42	27.533
600.76	26.866
601.09	27.269
601.42	26.852
601.76	26.911
602.09	27.726
602.42	27.445
602.76	27.181
603.09	27.105
603.42	27.389
603.76	26.929
604.09	26.798
604.42	27.292
604.76	26.757
605.09	26.280
605.42	26.856
605.75	26.852
606.09	25.911
606.42	26.559
606.75	26.364
607.09	26.640
607.42	27.014
607.75	25.689
608.08	26.871
608.42	26.710
608.75	26.565
609.08	26.703
609.41	26.627
609.75	26.626
610.08	27.564
610.41	26.968
610.74	25.890
611.07	26.804
611.41	27.175
611.74	26.863
612.07	26.107
612.40	26.541
612.73	26.070
613.07	26.441
613.40	26.156
613.73	26.381
614.06	26.313
614.39	25.459
614.72	26.874
615.06	25.333
615.39	26.656
615.72	26.512
616.05	25.845
616.38	25.716
616.71	25.255
617.05	26.904
617.38	25.015
617.71	25.490
618.04	26.630
618.37	26.435
618.70	26.003
619.03	26.254
619.36	25.694
619.69	25.658
620.03	25.936
620.36	25.400
620.69	24.768
621.02	26.308
621.35	24.612
621.68	24.857
622.01	25.890
622.34	26.646
622.67	26.155
623.00	26.140
623.33	25.654
623.66	24.833
623.99	26.182
624.32	25.679
624.65	25.964
624.99	26.084
625.32	25.317
625.65	24.651
625.98	25.671
626.31	26.286
626.64	25.279
626.97	25.346
627.30	25.492
627.63	24.740
627.96	23.896
628.29	25.953
628.62	26.015
628.95	25.150
629.28	25.517
629.61	26.699
629.94	25.435
630.26	26.502
630.59	24.476
630.92	25.703
631.25	25.850
631.58	27.195
631.91	25.769
632.24	24.918
632.57	23.667
632.90	25.321
633.23	25.180
633.56	26.739
633.89	24.641
634.22	26.502
634.55	25.213
634.88	24.387
635.20	25.125
635.53	25.065
635.86	23.718
636.19	23.573
636.52	24.634
636.85	25.452
637.18	24.117
637.51	24.719
637.83	25.326
638.16	23.600
638.49	23.498
638.82	25.229
639.15	24.202
639.48	24.332
639.81	24.167
640.13	25.070
640.46	24.718
640.79	25.180
641.12	23.817
641.45	23.435
641.77	24.890
642.10	27.080
642.43	24.214
642.76	25.710
643.09	23.962
643.41	24.083
643.74	25.687
644.07	23.463
644.40	25.871
644.73	23.390
645.05	22.513
645.38	21.429
645.71	23.810
646.04	20.875
646.36	25.868
646.69	22.552
647.02	23.679
647.35	26.691
647.67	22.366
648.00	22.645
648.33	23.729
648.66	22.871
648.98	25.621
649.31	23.926
649.64	23.161
649.96	25.118
650.29	22.876
650.62	22.735
650.94	22.586
651.27	20.848
651.60	24.476
651.92	22.581
652.25	23.953
652.58	22.277
652.90	22.559
653.23	20.204
653.56	22.479
653.88	23.379
654.21	21.160
654.54	22.425
654.86	20.325
655.19	21.289
655.52	23.533
655.84	22.636
656.17	27.310
656.49	35.387
656.82	34.987
657.15	26.533
657.47	19.414
657.80	14.486
658.13	15.244
658.45	22.610
658.78	21.805
659.10	21.157
659.43	21.550
659.75	21.614
660.08	21.241
660.41	20.081
660.73	22.176
661.06	23.810
661.38	21.124
661.71	20.902
662.03	24.736
662.36	21.460
662.68	22.366
663.01	23.729
663.33	22.462
663.66	21.064
663.98	21.348
664.31	20.220
664.63	19.595
664.96	26.258
665.28	26.180
665.61	19.870
665.93	22.698
666.26	24.473
666.58	23.126
666.91	24.888
667.23	22.811
667.56	22.759
667.88	23.364
668.21	24.107
668.53	23.908
668.86	21.103
669.18	22.459
669.50	24.654
669.83	19.809
670.15	20.000
670.48	22.069
670.80	24.945
671.13	24.256
671.45	23.059
671.77	22.198
672.10	17.349
672.42	19.656
672.75	20.536
673.07	20.545
673.39	22.201
673.72	23.752
674.04	21.926
674.37	23.577
674.69	22.222
675.01	21.368
675.34	22.101
675.66	22.222
675.98	20.796
676.31	20.814
676.63	22.222
676.95	19.765
677.28	21.101
677.60	19.363
677.92	21.951
678.25	22.343
678.57	21.589
678.89	21.109
679.22	18.634
679.54	23.469
679.86	21.289
680.18	22.308
680.51	18.846
680.83	17.349
681.15	21.218
681.48	21.643
681.80	22.699
682.12	21.042
682.44	18.913
682.77	17.053
683.09	18.750
683.41	19.070
683.73	17.634
684.06	18.805
684.38	20.726
684.70	19.348
685.02	21.074
685.34	21.918
685.67	20.075
685.99	22.242
686.31	20.862
686.63	20.956
686.96	21.150
687.28	19.760
687.60	22.684
687.92	19.650
688.24	18.800
688.56	22.588
688.89	17.817
689.21	18.161
689.53	18.694
689.85	21.124
690.17	20.879
690.49	22.947
690.82	18.377
691.14	21.498
691.46	18.794
691.78	20.000
692.10	21.656
692.42	20.220
692.74	23.478
693.06	21.348
693.39	19.906
693.71	19.778
694.03	22.500
694.35	19.595
694.67	19.750
694.99	21.907
695.31	21.705
695.63	19.268
695.95	21.374
696.27	14.795
696.59	19.624
696.91	20.391
697.23	20.558
697.56	18.945
697.88	21.622
698.20	21.598
698.52	19.393
698.84	20.335
699.16	19.385
699.48	21.481
699.80	23.514
700.12	23.056
700.44	17.746
700.76	17.697
701.08	19.637
701.40	18.862
701.72	15.385
702.04	21.384
702.36	20.732
702.68	19.207
703.00	21.053
703.32	15.599
703.64	19.578
703.96	18.768
704.28	19.277
704.60	19.207
704.91	17.555
705.23	15.190
705.55	17.931
705.87	16.549
706.19	19.048
706.51	16.197
706.83	15.287
707.15	19.512
707.47	20.386
707.79	21.320
708.11	16.710
708.43	20.051
708.74	19.415
709.06	19.519
709.38	19.020
709.70	19.520
710.02	17.134
710.34	15.000
710.66	14.007
710.98	15.480
711.29	19.805
711.61	17.097
711.93	20.645
712.25	12.937
712.57	15.439
712.89	19.780
713.20	17.021
713.52	14.964
713.84	17.097
714.16	19.094
714.48	18.987
714.80	15.016
715.11	22.674
715.43	19.565
715.75	19.876
716.07	16.566
716.39	16.498
716.70	17.266
717.02	16.078
717.34	21.212
717.66	18.534
717.97	14.286
718.29	20.472
718.61	18.026
718.93	14.341
719.24	17.712
719.56	16.105
719.88	20.522
720.20	18.577
720.51	19.531
720.83	17.510
721.15	11.382
721.46	15.649
721.78	15.538
722.10	17.928
722.42	11.694
722.73	21.622
723.05	16.327
723.37	14.286
723.68	20.800
724.00	14.894
724.32	15.481
724.63	17.284
724.95	14.530
725.27	16.456
725.58	17.284
725.90	18.828
726.22	15.942
726.53	16.078
726.85	19.708
727.16	15.926
727.48	18.391
727.80	16.797
728.11	18.033
728.43	14.062
728.74	14.683
729.06	14.800
729.38	17.391
729.69	18.149
730.01	16.729
730.32	19.557
730.64	12.879
730.96	19.580
731.27	17.391
731.59	20.317
731.90	15.534
732.22	15.385
732.53	12.162
732.85	16.443
733.16	19.472
733.48	13.176
733.80	18.581
734.11	23.311
734.43	21.053
734.74	16.517
735.06	14.121
735.37	14.894
735.69	15.858
736.00	17.492
736.32	15.603
736.63	17.241
736.95	13.356
737.26	17.931
737.58	17.361
737.89	14.777
738.21	16.370
738.52	16.730
738.83	18.776
739.15	15.612
739.46	17.121
739.78	12.676
740.09	19.178
740.41	10.357
740.72	15.957
741.04	12.000
741.35	12.719
741.66	16.444
741.98	14.423
742.29	16.337
742.61	14.146
742.92	23.246
743.23	8.019
743.55	15.315
743.86	12.108
744.18	17.647
744.49	10.660
744.80	10.204
745.12	16.822
745.43	10.900
745.74	16.667
746.06	14.486
746.37	13.761
746.68	18.269
747.00	20.574
747.31	15.865
747.62	15.596
747.94	16.594
748.25	17.431
748.56	19.556
748.88	15.962
749.19	16.667
749.50	14.563
749.82	10.798
750.13	12.500
750.44	13.846
750.75	14.022
751.07	19.217
751.38	15.957
751.69	13.900
752.01	15.234
752.32	13.077
752.63	14.925
752.94	14.000
753.26	10.879
753.57	12.083
753.88	19.028
754.19	13.147
754.51	11.654
754.82	12.454
755.13	10.000
755.44	14.228
755.75	9.600
756.07	14.022
756.38	12.590
756.69	16.041
757.00	11.215
757.31	10.680
757.63	14.198
757.94	18.644
758.25	13.757
758.56	15.217
758.87	19.643
759.18	17.666
759.50	11.785
759.81	16.054
760.12	15.077
760.43	10.119
760.74	14.972
761.05	14.365
761.36	12.607
761.67	13.595
761.99	14.777
762.30	12.409
762.61	11.934
762.92	17.094
763.23	18.033
763.54	18.182
763.85	14.694
764.16	10.163
764.47	14.800
764.78	15.000
765.10	14.426
765.41	18.237
765.72	15.217
766.03	12.871
766.34	18.077
766.65	13.808
766.96	6.103
767.27	18.317
767.58	7.865
767.89	16.667
768.20	11.050
768.51	18.090
768.82	19.231
769.13	14.159
769.44	16.318
769.75	8.547
770.06	14.350
770.37	11.275
770.68	13.592
770.99	16.019
771.30	14.706
771.61	11.429
771.92	12.863
772.23	9.009
772.54	6.630
772.85	13.953
773.16	18.519
773.47	7.692
773.78	12.069
774.09	14.375
774.39	16.149
774.70	19.048
775.01	11.724
775.32	12.143
775.63	9.774
775.94	8.271
776.25	11.200
776.56	8.264
776.87	11.905
777.18	0.000
777.48	7.207
777.79	3.150
778.10	10.092
778.41	14.035
778.72	7.563
779.03	3.521
779.34	17.568
779.65	9.859
779.95	15.232
780.26	7.914
780.57	15.827
780.88	11.268
781.19	5.882
781.50	14.094
781.80	15.205
782.11	5.814
782.42	14.465
782.73	10.458
783.04	12.414
783.34	4.580
783.65	12.752
783.96	6.154
784.27	10.714
784.57	7.092
784.88	-11.538
785.19	19.091
785.50	1.818
785.81	6.667
786.11	6.723
786.42	8.850
786.73	5.660
787.04	2.752
787.34	-10.891
787.65	11.667
787.96	4.132
788.26	11.594
788.57	6.349
788.88	3.252
789.19	10.400
789.49	2.290
789.80	17.424
790.11	1.887
790.41	8.911
790.72	19.149
791.03	2.174
791.33	7.059
791.64	-4.938
791.95	1.087
792.25	6.818
792.56	15.385
792.87	-1.282
793.17	-16.667
793.48	-9.524
793.79	15.000
794.09	19.231
794.40	7.292
794.70	10.811
795.01	8.594
795.32	6.957
795.62	-17.391
795.93	-0.943
796.23	14.141
796.54	3.659
796.85	0.000
797.15	0.000
797.46	4.348
797.76	10.526
798.07	13.636
798.37	2.439
798.68	1.613
798.99	-2.703
799.29	14.458
799.60	0.000
799.90	0.000
800.21	3.030
800.51	-5.333
800.82	0.000
801.12	-25.000
801.43	-36.667
801.73	4.054
802.04	12.857
802.34	-3.279
802.65	4.478
802.95	5.455
803.26	1.724
803.56	-1.538
803.87	18.868
804.17	-9.677
804.48	10.294
804.78	-12.195
805.09	13.043
805.39	4.412
805.70	-19.149
806.00	-12.281
806.30	17.949
806.61	9.211
806.91	1.351
807.22	2.632
807.52	11.364
807.83	-30.508
808.13	-10.606
808.43	-20.000
808.74	-27.586
809.04	0.000
809.35	-12.245
809.65	0.000
809.95	-24.490
810.26	2.817
810.56	-18.750
810.86	8.163
811.17	5.769
811.47	-8.511
811.77	-18.750
812.08	1.887
812.38	-6.250
812.69	3.636
812.99	-17.073
813.29	-32.432
813.59	-24.324
813.90	-7.273
814.20	0.000
814.50	-10.000
814.81	-16.364
815.11	5.263
815.41	9.302
815.72	-20.000
816.02	-28.571
816.32	-27.027
816.62	-6.250
816.93	-8.889
817.23	-22.222
817.53	-38.889
817.84	-2.703
818.14	-17.073
818.44	28.000
818.74	-4.082
819.04	-12.195
819.35	-13.889
819.65	-9.091
819.95	-116.667
820.25	-3.030
820.56	-9.524
820.86	-38.889
821.16	-38.636
821.46	-26.087
821.76	-24.138
822.07	6.522
822.37	-15.152
822.67	9.756
822.97	8.108
823.27	-34.286
823.57	13.793
823.88	-20.588
824.18	5.556
824.48	-22.857
824.78	-23.810
825.08	-25.000
825.38	-22.222
825.69	3.226
825.99	-9.756
826.29	3.704
826.59	-25.000
826.89	0.000
827.19	-39.130
827.49	-58.333
827.79	-34.783
828.09	-16.129
828.39	-14.583
828.70	-46.875
829.00	3.448
829.30	-32.432
829.60	-33.333
829.90	-25.926
830.20	3.125
830.50	-22.727
830.80	-141.176
831.10	-50.000
831.40	-44.118
831.70	-19.231
832.00	-12.121
832.30	5.882
832.60	10.811
832.90	1000.000
833.20	-28.571
833.50	-70.000
833.80	2.632
834.10	-33.333
834.40	-95.455
834.70	-60.000
835.00	-80.000
835.30	-8.333
835.60	-61.905
835.90	-14.286
836.20	-36.000
836.50	-79.167
836.80	-89.474
837.10	0.000
837.40	-10.000
837.70	-43.478
838.00	-20.833
838.30	-52.632
838.60	-110.000
838.90	-220.000
839.19	-116.667
839.49	-115.385
839.79	-47.368
840.09	-333.333
840.39	-80.000
840.69	-40.909
840.99	-14.286
841.29	-33.333
841.59	-84.615
841.88	-66.667
842.18	-92.857
842.48	-30.000
842.78	-271.429
843.08	-71.429
843.38	-150.000
843.68	-68.750
843.97	50.000
844.27	-311.111
844.57	-163.636
844.87	-60.000
845.17	-4.545
845.47	600.000
845.76	-80.000
846.06	-175.000
846.36	-700.000
846.66	-57.895
846.96	-59.091
847.25	-77.778
847.55	-200.000
847.85	-61.905
848.15	-23.077
848.44	-350.000
848.74	-133.333
849.04	-84.615
849.34	-275.000
849.63	-100.000
849.93	-157.143
850.23	-80.000
850.53	-275.000
850.82	-55.556
851.12	-26.667
851.42	-64.706
851.71	37.500
852.01	-52.941
852.31	-61.538
852.61	600.000
852.90	17.647
853.20	-60.000
853.50	-75.000
853.79	-142.857
854.09	-275.000
854.39	-95.000
854.68	-32.500
854.98	-85.714
855.28	-44.000
855.57	-4.167
855.87	-29.167
856.17	-12.000
856.46	-6.250
856.76	20.000
857.05	-16.000
857.35	-108.333
857.65	-35.294
857.94	-108.333
858.24	-133.333
858.53	-20.000
858.83	-227.273
859.13	-4.000
859.42	-64.286
859.72	-237.500
860.01	-37.500
860.31	-275.000
860.60	-37.500
860.90	-383.333
861.20	-116.667
861.49	-60.000
861.79	-75.000
862.08	350.000
862.38	-191.667
862.67	385.714
862.97	325.000
863.26	-118.182
863.56	-100.000
863.85	0.000
864.15	-70.588
864.44	-380.000
864.74	-60.000
865.03	-100.000
865.33	-128.571
865.62	157.143
865.92	-31.579
866.21	-72.222
866.51	-72.727
866.80	-88.889
867.10	-175.000
867.39	-50.000
867.69	-93.333
867.98	-110.000
868.27	-11.765
868.57	0.000
868.86	900.000
869.16	-300.000
869.45	-328.571
869.75	600.000
870.04	-120.000
870.33	-1800.000
870.63	-52.632
870.92	-108.333
871.22	-1200.000
871.51	-328.571
871.80	-233.333
872.10	-525.000
>>>>>End Processed Spectral Data<<<<<
