SpectraSuite Data File
++++++++++++++++++++++++++++++++++++
Date: Wed May 13 20:24:40 PDT 2015
User: schluterlab
Dark Spectrum Present: Yes
Reference Spectrum Present: Yes
Number of Sampled Component Spectra: 1
Spectrometers: USB2E3373
Integration Time (usec): 3000 (USB2E3373)
Spectra Averaged: 3 (USB2E3373)
Boxcar Smoothing: 0 (USB2E3373)
Correct for Electrical Dark: No (USB2E3373)
Strobe/Lamp Enabled: No (USB2E3373)
Correct for Detector Non-linearity: No (USB2E3373)
Correct for Stray Light: No (USB2E3373)
Number of Pixels in Processed Spectrum: 2048
>>>>>Begin Processed Spectral Data<<<<<
178.53	0.000
178.91	-1275.000
179.29	-1250.000
179.67	-244.444
180.04	-1350.000
180.42	2550.000
180.80	1000.000
181.18	-850.000
181.56	685.714
181.94	0.000
182.31	-585.714
182.69	1666.667
183.07	-537.500
183.45	-533.333
183.83	509.091
184.20	-370.000
184.58	1900.000
184.96	4100.000
185.34	-760.000
185.72	-575.000
186.09	-1850.000
186.47	2900.000
186.85	2450.000
187.23	4400.000
187.61	-1800.000
187.98	1225.000
188.36	563.636
188.74	536.364
189.12	-800.000
189.49	510.000
189.87	-5200.000
190.25	-1000.000
190.63	442.857
191.00	453.846
191.38	816.667
191.76	-1075.000
192.14	1300.000
192.51	550.000
192.89	866.667
193.27	600.000
193.65	-1200.000
194.02	510.000
194.40	760.000
194.78	620.000
195.15	491.667
195.53	650.000
195.91	-2100.000
196.29	281.250
196.66	289.474
197.04	-400.000
197.42	0.000
197.79	600.000
198.17	-4200.000
198.55	557.143
198.92	575.000
199.30	840.000
199.68	0.000
200.05	272.222
200.43	785.714
200.81	4300.000
201.18	1433.333
201.56	-1533.333
201.94	511.111
202.31	500.000
202.69	416.667
203.07	490.000
203.44	0.000
203.82	1200.000
204.19	585.714
204.57	428.571
204.95	650.000
205.32	1733.333
205.70	536.364
206.08	328.571
206.45	2400.000
206.83	350.000
207.20	883.333
207.58	740.000
207.96	344.444
208.33	675.000
208.71	-666.667
209.08	657.143
209.46	733.333
209.84	581.818
210.21	-1600.000
210.59	1250.000
210.96	-487.500
211.34	2800.000
211.71	570.000
212.09	800.000
212.46	0.000
212.84	1700.000
213.22	1425.000
213.59	-3800.000
213.97	816.667
214.34	685.714
214.72	581.818
215.09	1180.000
215.47	-2150.000
215.84	-1700.000
216.22	1633.333
216.59	371.429
216.97	1050.000
217.34	409.091
217.72	-466.667
218.09	0.000
218.47	-4600.000
218.84	677.778
219.22	600.000
219.59	1633.333
219.97	-628.571
220.34	760.000
220.72	-1300.000
221.09	421.429
221.47	1300.000
221.84	-883.333
222.22	0.000
222.59	1425.000
222.97	-2900.000
223.34	1020.000
223.72	369.231
224.09	1120.000
224.46	2450.000
224.84	-5100.000
225.21	-1040.000
225.59	-5300.000
225.96	630.000
226.34	300.000
226.71	2450.000
227.08	625.000
227.46	580.000
227.83	-1075.000
228.21	-2150.000
228.58	622.222
228.95	-2950.000
229.33	-2650.000
229.70	1766.667
230.08	885.714
230.45	-1020.000
230.82	433.333
231.20	833.333
231.57	600.000
231.95	441.667
232.32	290.909
232.69	372.727
233.07	728.571
233.44	484.615
233.81	-1933.333
234.19	252.632
234.56	375.000
234.93	441.667
235.31	472.727
235.68	246.154
236.05	400.000
236.43	163.636
236.80	294.737
237.17	4300.000
237.55	285.714
237.92	232.143
238.29	276.190
238.67	177.419
239.04	237.931
239.41	183.333
239.79	121.739
240.16	147.619
240.53	136.364
240.91	129.412
241.28	144.000
241.65	128.000
242.02	123.188
242.40	117.742
242.77	123.333
243.14	94.624
243.51	105.618
243.89	94.118
244.26	102.222
244.63	92.473
245.00	89.362
245.38	102.970
245.75	79.439
246.12	89.908
246.49	91.241
246.87	84.000
247.24	86.923
247.61	80.714
247.98	80.392
248.36	72.297
248.73	79.618
249.10	71.975
249.47	79.096
249.84	77.005
250.22	72.193
250.59	65.089
250.96	69.697
251.33	68.720
251.70	75.743
252.08	71.905
252.45	62.780
252.82	65.652
253.19	62.979
253.56	65.490
253.94	68.880
254.31	67.578
254.68	68.846
255.05	63.100
255.42	68.699
255.79	67.279
256.16	65.343
256.54	61.131
256.91	67.616
257.28	61.511
257.65	63.366
258.02	59.627
258.39	58.675
258.76	60.201
259.14	63.690
259.51	57.751
259.88	57.764
260.25	62.840
260.62	59.827
260.99	61.801
261.36	58.859
261.73	58.166
262.10	58.721
262.47	60.563
262.85	59.610
263.22	59.259
263.59	59.544
263.96	57.418
264.33	59.008
264.70	58.684
265.07	60.358
265.44	60.101
265.81	56.448
266.18	57.789
266.55	57.073
266.92	61.425
267.29	57.407
267.66	58.028
268.03	58.864
268.40	54.907
268.77	57.518
269.14	52.928
269.51	55.530
269.88	59.441
270.25	52.822
270.62	56.180
270.99	53.978
271.36	54.936
271.73	58.411
272.10	54.130
272.47	58.710
272.84	54.329
273.21	53.878
273.58	55.240
273.95	51.572
274.32	54.545
274.69	55.032
275.06	53.740
275.43	55.745
275.80	52.104
276.17	52.749
276.54	54.470
276.91	50.988
277.28	53.906
277.65	56.093
278.02	53.209
278.39	54.883
278.76	52.364
279.13	54.151
279.50	50.652
279.87	53.984
280.23	52.495
280.60	54.739
280.97	52.126
281.34	52.566
281.71	52.545
282.08	53.167
282.45	52.182
282.82	51.510
283.19	52.228
283.56	51.754
283.92	52.115
284.29	50.970
284.66	50.817
285.03	51.718
285.40	50.000
285.77	50.168
286.14	49.914
286.51	51.167
286.87	48.376
287.24	48.371
287.61	49.117
287.98	49.675
288.35	47.702
288.72	46.262
289.08	47.574
289.45	46.458
289.82	46.667
290.19	45.526
290.56	44.870
290.93	45.317
291.29	45.552
291.66	42.183
292.03	43.169
292.40	44.200
292.77	44.822
293.13	43.284
293.50	43.003
293.87	44.148
294.24	42.074
294.60	41.485
294.97	41.424
295.34	43.300
295.71	41.619
296.08	41.311
296.44	40.990
296.81	39.498
297.18	41.192
297.55	36.807
297.91	39.314
298.28	40.696
298.65	40.209
299.02	38.999
299.38	38.645
299.75	38.140
300.12	39.719
300.48	37.625
300.85	35.758
301.22	37.580
301.59	38.636
301.95	36.902
302.32	36.842
302.69	36.918
303.05	36.727
303.42	38.765
303.79	36.806
304.15	35.781
304.52	35.689
304.89	35.656
305.25	35.731
305.62	35.447
305.99	36.718
306.35	35.906
306.72	36.099
307.09	35.738
307.45	35.811
307.82	33.817
308.19	35.210
308.55	34.951
308.92	34.801
309.29	34.530
309.65	34.677
310.02	34.038
310.38	34.839
310.75	33.263
311.12	34.698
311.48	34.901
311.85	34.696
312.22	34.443
312.58	33.160
312.95	34.530
313.31	32.816
313.68	34.823
314.05	34.418
314.41	34.271
314.78	32.931
315.14	32.870
315.51	32.544
315.87	33.069
316.24	32.175
316.61	32.261
316.97	32.290
317.34	32.975
317.70	32.409
318.07	33.013
318.43	33.562
318.80	32.990
319.16	33.145
319.53	32.270
319.89	33.238
320.26	34.000
320.62	32.837
320.99	31.212
321.35	33.131
321.72	33.265
322.08	33.070
322.45	33.433
322.81	33.430
323.18	32.755
323.54	33.859
323.91	31.226
324.27	31.071
324.64	31.221
325.00	32.101
325.37	32.848
325.73	32.675
326.10	32.745
326.46	31.541
326.83	32.701
327.19	31.597
327.56	31.010
327.92	30.971
328.29	31.677
328.65	31.584
329.01	32.040
329.38	32.470
329.74	31.487
330.11	31.574
330.47	32.140
330.84	33.456
331.20	31.421
331.56	31.468
331.93	30.833
332.29	31.500
332.66	30.796
333.02	31.718
333.38	32.249
333.75	32.175
334.11	31.851
334.48	31.500
334.84	30.974
335.20	31.818
335.57	30.462
335.93	30.804
336.29	31.319
336.66	30.298
337.02	30.317
337.38	30.741
337.75	29.947
338.11	30.618
338.47	30.203
338.84	31.164
339.20	30.367
339.56	31.934
339.93	30.909
340.29	30.525
340.65	29.947
341.02	31.414
341.38	31.584
341.74	29.386
342.11	30.393
342.47	30.396
342.83	29.966
343.20	30.563
343.56	29.402
343.92	29.825
344.28	30.017
344.65	31.126
345.01	30.051
345.37	28.988
345.73	31.134
346.10	29.668
346.46	29.407
346.82	28.913
347.19	28.321
347.55	29.557
347.91	30.016
348.27	30.485
348.63	29.264
349.00	28.398
349.36	30.706
349.72	29.431
350.08	29.092
350.45	28.885
350.81	29.082
351.17	29.984
351.53	29.730
351.89	28.218
352.26	29.755
352.62	30.152
352.98	28.768
353.34	29.252
353.70	28.560
354.07	29.355
354.43	28.413
354.79	28.882
355.15	29.769
355.51	29.656
355.87	29.714
356.24	29.316
356.60	27.586
356.96	28.238
357.32	28.945
357.68	29.606
358.04	28.345
358.40	28.424
358.77	28.404
359.13	27.624
359.49	27.451
359.85	27.778
360.21	28.230
360.57	28.949
360.93	27.769
361.29	27.664
361.66	26.625
362.02	27.985
362.38	27.909
362.74	27.232
363.10	26.869
363.46	27.146
363.82	27.664
364.18	27.386
364.54	27.935
364.90	27.195
365.26	26.838
365.62	27.538
365.98	27.246
366.35	25.645
366.71	27.838
367.07	27.167
367.43	27.721
367.79	27.480
368.15	27.874
368.51	26.308
368.87	26.552
369.23	26.628
369.59	27.154
369.95	27.794
370.31	26.994
370.67	26.884
371.03	28.464
371.39	27.332
371.75	26.912
372.11	26.743
372.47	27.933
372.83	27.810
373.19	26.662
373.55	26.608
373.91	27.320
374.27	26.117
374.63	25.236
374.99	26.059
375.35	26.029
375.71	25.908
376.07	26.475
376.42	25.860
376.78	26.508
377.14	25.305
377.50	26.490
377.86	25.798
378.22	26.802
378.58	25.313
378.94	26.021
379.30	26.272
379.66	25.444
380.02	26.413
380.38	26.351
380.74	26.050
381.09	26.100
381.45	26.183
381.81	25.860
382.17	25.924
382.53	26.289
382.89	26.420
383.25	25.578
383.61	26.208
383.97	26.079
384.32	25.515
384.68	24.473
385.04	24.892
385.40	25.820
385.76	24.754
386.12	25.065
386.48	25.488
386.83	25.529
387.19	25.727
387.55	25.727
387.91	25.453
388.27	24.893
388.62	25.200
388.98	24.877
389.34	25.344
389.70	24.586
390.06	24.778
390.42	25.097
390.77	25.382
391.13	25.846
391.49	25.127
391.85	24.443
392.20	25.174
392.56	24.621
392.92	25.132
393.28	24.201
393.64	25.060
393.99	24.863
394.35	24.814
394.71	24.843
395.07	24.112
395.42	25.216
395.78	24.873
396.14	24.581
396.50	25.251
396.85	24.730
397.21	24.229
397.57	23.621
397.92	24.519
398.28	25.112
398.64	25.030
399.00	24.566
399.35	24.140
399.71	24.537
400.07	25.192
400.42	25.153
400.78	24.548
401.14	24.573
401.49	24.239
401.85	23.654
402.21	24.192
402.57	24.368
402.92	25.284
403.28	24.859
403.63	23.762
403.99	24.522
404.35	24.788
404.70	24.640
405.06	23.995
405.42	24.392
405.77	23.371
406.13	24.097
406.49	24.423
406.84	23.981
407.20	23.522
407.55	24.697
407.91	24.533
408.27	23.676
408.62	24.383
408.98	24.203
409.34	24.785
409.69	24.452
410.05	24.411
410.40	25.260
410.76	24.492
411.11	23.583
411.47	23.770
411.83	24.740
412.18	23.315
412.54	25.156
412.89	24.217
413.25	24.144
413.60	24.521
413.96	23.133
414.31	23.329
414.67	24.525
415.03	23.841
415.38	24.356
415.74	24.244
416.09	24.690
416.45	23.494
416.80	24.917
417.16	24.263
417.51	23.955
417.87	23.057
418.22	23.912
418.58	24.209
418.93	23.833
419.29	24.825
419.64	24.055
420.00	23.537
420.35	24.348
420.71	24.208
421.06	23.986
421.42	23.626
421.77	24.608
422.12	23.021
422.48	24.015
422.83	23.937
423.19	23.204
423.54	23.389
423.90	23.478
424.25	23.116
424.61	23.274
424.96	23.499
425.31	24.197
425.67	22.865
426.02	23.429
426.38	23.993
426.73	22.235
427.09	23.708
427.44	23.692
427.79	24.037
428.15	24.167
428.50	23.640
428.85	23.540
429.21	23.799
429.56	22.602
429.92	23.100
430.27	23.684
430.62	23.605
430.98	23.716
431.33	22.629
431.68	23.351
432.04	21.885
432.39	22.958
432.74	22.861
433.10	22.807
433.45	23.149
433.80	22.838
434.16	23.985
434.51	22.789
434.86	23.546
435.22	22.902
435.57	23.100
435.92	23.523
436.28	22.954
436.63	24.172
436.98	23.183
437.34	23.852
437.69	23.396
438.04	23.384
438.39	23.104
438.75	23.998
439.10	23.575
439.45	23.140
439.81	23.021
440.16	22.756
440.51	22.964
440.86	23.914
441.22	23.026
441.57	23.673
441.92	23.541
442.27	23.412
442.63	22.854
442.98	24.113
443.33	23.859
443.68	23.232
444.03	23.280
444.39	23.077
444.74	23.918
445.09	23.342
445.44	23.619
445.79	23.206
446.15	24.299
446.50	22.940
446.85	23.381
447.20	22.591
447.55	23.339
447.91	23.662
448.26	22.871
448.61	23.968
448.96	23.588
449.31	23.735
449.66	23.185
450.02	23.900
450.37	23.129
450.72	22.673
451.07	23.096
451.42	23.040
451.77	23.429
452.12	22.806
452.47	23.383
452.83	23.077
453.18	23.655
453.53	23.377
453.88	22.327
454.23	22.355
454.58	23.743
454.93	23.458
455.28	23.566
455.63	23.180
455.98	24.821
456.34	23.807
456.69	23.482
457.04	22.972
457.39	22.209
457.74	22.229
458.09	23.749
458.44	23.432
458.79	21.746
459.14	23.025
459.49	24.577
459.84	22.825
460.19	23.748
460.54	22.685
460.89	22.545
461.24	23.012
461.59	24.056
461.94	22.750
462.29	23.858
462.64	22.527
462.99	21.991
463.34	23.933
463.69	23.952
464.04	23.072
464.39	23.072
464.74	24.124
465.09	23.522
465.44	23.380
465.79	22.427
466.14	23.372
466.49	22.581
466.84	23.292
467.19	22.993
467.54	23.000
467.89	22.749
468.24	22.629
468.59	23.199
468.94	22.602
469.29	22.879
469.64	23.494
469.99	23.275
470.34	22.259
470.68	22.414
471.03	22.109
471.38	23.419
471.73	22.452
472.08	23.158
472.43	21.922
472.78	22.449
473.13	23.748
473.48	23.034
473.83	23.415
474.17	22.589
474.52	22.705
474.87	22.884
475.22	22.809
475.57	22.998
475.92	21.986
476.27	22.041
476.61	22.890
476.96	22.320
477.31	22.030
477.66	23.468
478.01	21.955
478.36	22.845
478.70	21.547
479.05	23.003
479.40	22.620
479.75	22.267
480.10	22.614
480.45	22.323
480.79	21.596
481.14	22.162
481.49	22.496
481.84	22.131
482.19	21.536
482.53	21.835
482.88	22.569
483.23	21.963
483.58	22.157
483.92	21.931
484.27	21.394
484.62	21.509
484.97	21.719
485.31	22.705
485.66	22.075
486.01	22.734
486.36	21.930
486.70	21.358
487.05	20.816
487.40	21.042
487.75	20.318
488.09	20.776
488.44	20.213
488.79	20.759
489.13	20.626
489.48	21.411
489.83	20.975
490.17	22.096
490.52	20.726
490.87	21.800
491.22	21.010
491.56	21.139
491.91	21.685
492.26	21.911
492.60	21.475
492.95	21.048
493.30	21.028
493.64	21.372
493.99	20.845
494.34	20.722
494.68	21.795
495.03	22.039
495.37	21.778
495.72	21.345
496.07	21.995
496.41	21.549
496.76	21.372
497.11	21.387
497.45	21.472
497.80	21.161
498.14	20.870
498.49	20.927
498.84	21.141
499.18	21.286
499.53	21.937
499.87	21.249
500.22	21.526
500.56	22.136
500.91	22.356
501.26	21.669
501.60	22.069
501.95	20.807
502.29	21.181
502.64	21.089
502.98	21.318
503.33	20.841
503.67	21.578
504.02	21.001
504.36	20.730
504.71	21.690
505.06	21.060
505.40	20.856
505.75	20.974
506.09	21.429
506.44	21.510
506.78	21.042
507.13	20.949
507.47	21.162
507.82	21.429
508.16	21.530
508.51	21.867
508.85	21.102
509.19	20.714
509.54	21.020
509.88	21.175
510.23	20.925
510.57	22.549
510.92	21.388
511.26	20.966
511.61	21.525
511.95	20.877
512.30	20.679
512.64	20.795
512.98	21.490
513.33	21.413
513.67	20.758
514.02	20.671
514.36	21.955
514.70	21.472
515.05	21.640
515.39	21.088
515.74	21.115
516.08	21.912
516.42	21.143
516.77	22.074
517.11	20.644
517.46	21.614
517.80	21.719
518.14	20.961
518.49	20.770
518.83	21.307
519.17	21.305
519.52	20.883
519.86	20.936
520.20	20.751
520.55	22.262
520.89	21.168
521.23	21.894
521.58	21.128
521.92	21.127
522.26	21.110
522.61	21.246
522.95	20.503
523.29	20.511
523.64	21.707
523.98	21.257
524.32	21.170
524.66	21.046
525.01	21.385
525.35	21.314
525.69	20.320
526.04	20.997
526.38	21.477
526.72	20.675
527.06	21.469
527.41	19.493
527.75	20.772
528.09	21.130
528.43	21.542
528.78	21.635
529.12	21.455
529.46	21.127
529.80	20.978
530.15	21.371
530.49	21.108
530.83	20.823
531.17	21.410
531.51	22.049
531.86	20.839
532.20	21.969
532.54	21.012
532.88	21.502
533.22	20.050
533.57	21.235
533.91	21.132
534.25	21.385
534.59	21.904
534.93	21.059
535.27	21.424
535.62	21.795
535.96	21.908
536.30	21.043
536.64	21.958
536.98	22.296
537.32	20.606
537.66	20.333
538.01	21.659
538.35	21.461
538.69	21.123
539.03	21.118
539.37	20.639
539.71	20.480
540.05	21.503
540.39	21.262
540.73	20.828
541.07	22.064
541.42	21.265
541.76	20.452
542.10	22.251
542.44	20.927
542.78	22.596
543.12	20.537
543.46	21.574
543.80	20.755
544.14	20.732
544.48	21.651
544.82	21.296
545.16	21.601
545.50	20.887
545.84	21.438
546.18	20.943
546.52	22.505
546.86	20.825
547.20	21.308
547.54	21.309
547.88	22.258
548.22	21.669
548.56	22.138
548.90	20.487
549.24	21.616
549.58	21.214
549.92	21.497
550.26	21.946
550.60	21.231
550.94	22.254
551.28	19.971
551.62	21.567
551.96	21.895
552.30	22.457
552.64	21.907
552.98	22.712
553.32	21.982
553.66	21.609
554.00	20.933
554.34	21.325
554.68	21.531
555.02	21.016
555.36	20.738
555.69	21.177
556.03	21.332
556.37	22.237
556.71	20.191
557.05	21.499
557.39	21.204
557.73	20.889
558.07	22.480
558.41	21.129
558.75	21.308
559.08	20.880
559.42	21.693
559.76	21.691
560.10	21.413
560.44	21.104
560.78	21.091
561.12	22.427
561.45	21.643
561.79	21.819
562.13	21.462
562.47	21.585
562.81	21.339
563.15	20.936
563.48	21.154
563.82	21.396
564.16	21.387
564.50	21.289
564.84	21.302
565.17	21.493
565.51	21.342
565.85	21.574
566.19	20.977
566.52	22.229
566.86	20.735
567.20	22.052
567.54	21.575
567.88	20.967
568.21	22.275
568.55	21.436
568.89	21.401
569.23	21.346
569.56	21.943
569.90	21.660
570.24	21.851
570.57	20.843
570.91	20.976
571.25	21.186
571.59	21.267
571.92	21.169
572.26	21.231
572.60	21.081
572.93	21.289
573.27	21.088
573.61	21.161
573.95	21.318
574.28	21.407
574.62	20.724
574.96	20.956
575.29	20.975
575.63	21.316
575.97	20.489
576.30	20.977
576.64	21.304
576.98	20.929
577.31	21.165
577.65	21.781
577.98	21.150
578.32	21.247
578.66	21.572
578.99	20.749
579.33	20.286
579.67	20.433
580.00	20.643
580.34	20.764
580.67	20.752
581.01	21.115
581.35	21.170
581.68	21.815
582.02	21.340
582.35	21.537
582.69	21.243
583.02	20.506
583.36	21.121
583.70	20.480
584.03	20.350
584.37	21.080
584.70	20.820
585.04	21.037
585.37	21.039
585.71	21.288
586.04	20.923
586.38	21.421
586.72	21.154
587.05	21.217
587.39	21.082
587.72	20.974
588.06	20.945
588.39	21.344
588.73	21.473
589.06	21.159
589.40	21.111
589.73	21.014
590.07	21.210
590.40	20.607
590.73	20.999
591.07	21.408
591.40	20.709
591.74	21.775
592.07	21.291
592.41	21.910
592.74	21.348
593.08	22.019
593.41	21.829
593.75	21.205
594.08	21.623
594.41	21.668
594.75	21.590
595.08	20.687
595.42	21.296
595.75	21.546
596.09	21.517
596.42	21.690
596.75	20.895
597.09	21.515
597.42	20.447
597.75	21.992
598.09	20.957
598.42	20.876
598.76	21.443
599.09	21.627
599.42	21.470
599.76	21.193
600.09	21.603
600.42	21.074
600.76	21.071
601.09	21.275
601.42	21.309
601.76	21.594
602.09	21.067
602.42	21.616
602.76	21.483
603.09	21.282
603.42	21.945
603.76	21.723
604.09	21.171
604.42	21.565
604.76	21.510
605.09	21.101
605.42	21.206
605.75	21.978
606.09	21.797
606.42	21.251
606.75	21.817
607.09	21.557
607.42	21.352
607.75	21.435
608.08	21.537
608.42	21.739
608.75	21.416
609.08	21.184
609.41	21.371
609.75	20.581
610.08	22.667
610.41	21.508
610.74	21.665
611.07	21.937
611.41	21.786
611.74	21.317
612.07	22.153
612.40	21.826
612.73	21.263
613.07	21.121
613.40	21.643
613.73	20.399
614.06	21.720
614.39	21.290
614.72	21.632
615.06	21.901
615.39	20.594
615.72	21.166
616.05	20.893
616.38	22.290
616.71	22.268
617.05	22.261
617.38	21.708
617.71	21.261
618.04	22.055
618.37	21.053
618.70	21.531
619.03	22.500
619.36	21.656
619.69	21.549
620.03	21.429
620.36	22.259
620.69	22.397
621.02	21.460
621.35	20.987
621.68	20.249
622.01	21.904
622.34	22.390
622.67	20.989
623.00	22.230
623.33	21.730
623.66	21.801
623.99	21.429
624.32	22.040
624.65	21.822
624.99	22.096
625.32	22.375
625.65	21.863
625.98	22.752
626.31	21.851
626.64	22.041
626.97	21.530
627.30	20.781
627.63	21.493
627.96	21.951
628.29	21.522
628.62	22.141
628.95	22.547
629.28	22.354
629.61	21.723
629.94	22.857
630.26	23.260
630.59	22.212
630.92	22.126
631.25	21.224
631.58	21.722
631.91	22.312
632.24	21.414
632.57	21.721
632.90	21.491
633.23	21.812
633.56	22.373
633.89	22.877
634.22	22.020
634.55	23.905
634.88	22.395
635.20	22.939
635.53	22.651
635.86	22.649
636.19	22.118
636.52	20.531
636.85	23.139
637.18	21.083
637.51	22.577
637.83	19.605
638.16	21.867
638.49	22.796
638.82	22.377
639.15	22.375
639.48	22.818
639.81	23.190
640.13	23.698
640.46	23.893
640.79	22.061
641.12	22.971
641.45	23.045
641.77	20.913
642.10	23.684
642.43	21.021
642.76	21.672
643.09	22.239
643.41	24.886
643.74	23.611
644.07	23.933
644.40	23.313
644.73	23.465
645.05	25.990
645.38	23.381
645.71	23.188
646.04	23.588
646.36	23.372
646.69	25.084
647.02	23.639
647.35	24.399
647.67	26.372
648.00	24.553
648.33	23.762
648.66	22.576
648.98	25.187
649.31	23.767
649.64	23.767
649.96	26.528
650.29	23.539
650.62	22.816
650.94	24.959
651.27	23.986
651.60	23.627
651.92	23.642
652.25	20.847
652.58	23.832
652.90	23.539
653.23	20.647
653.56	23.307
653.88	24.089
654.21	25.750
654.54	23.762
654.86	23.988
655.19	22.973
655.52	20.323
655.84	21.908
656.17	28.539
656.49	37.234
656.82	35.953
657.15	25.950
657.47	18.228
657.80	13.513
658.13	13.268
658.45	18.921
658.78	17.834
659.10	18.050
659.43	18.550
659.75	18.714
660.08	19.430
660.41	21.601
660.73	22.109
661.06	22.134
661.38	26.000
661.71	24.615
662.03	24.260
662.36	22.664
662.68	23.494
663.01	28.485
663.33	23.779
663.66	24.580
663.98	23.542
664.31	25.210
664.63	25.304
664.96	23.541
665.28	27.459
665.61	24.172
665.93	25.956
666.26	24.746
666.58	25.523
666.91	26.216
667.23	25.843
667.56	25.270
667.88	24.573
668.21	26.439
668.53	24.729
668.86	24.675
669.18	27.719
669.50	27.391
669.83	28.105
670.15	25.333
670.48	27.451
670.80	25.862
671.13	25.902
671.45	23.617
671.77	28.106
672.10	27.542
672.42	26.678
672.75	25.871
673.07	25.000
673.39	24.051
673.72	21.875
674.04	26.863
674.37	24.272
674.69	23.517
675.01	22.594
675.34	24.846
675.66	29.263
675.98	24.847
676.31	26.891
676.63	26.115
676.95	26.205
677.28	26.636
677.60	26.154
677.92	25.105
678.25	26.078
678.57	24.502
678.89	23.647
679.22	24.165
679.54	25.191
679.86	26.422
680.18	23.256
680.51	24.823
680.83	25.801
681.15	23.774
681.48	26.843
681.80	24.371
682.12	26.245
682.44	26.306
682.77	25.458
683.09	26.609
683.41	26.829
683.73	25.607
684.06	25.620
684.38	24.070
684.70	27.907
685.02	27.580
685.34	24.359
685.67	23.776
685.99	23.368
686.31	26.280
686.63	24.735
686.96	25.714
687.28	25.271
687.60	25.362
687.92	25.777
688.24	24.525
688.56	25.100
688.89	26.141
689.21	28.821
689.53	25.887
689.85	29.268
690.17	25.466
690.49	27.813
690.82	23.832
691.14	25.893
691.46	25.527
691.78	25.100
692.10	28.099
692.42	26.347
692.74	26.141
693.06	26.170
693.39	27.310
693.71	26.201
694.03	26.316
694.35	24.892
694.67	25.629
694.99	27.805
695.31	26.716
695.63	25.598
695.95	29.584
696.27	25.381
696.59	25.389
696.91	26.684
697.23	25.587
697.56	27.719
697.88	23.517
698.20	26.667
698.52	28.172
698.84	24.944
699.16	24.885
699.48	24.941
699.80	29.227
700.12	29.091
700.44	28.117
700.76	28.729
701.08	27.586
701.40	27.654
701.72	28.280
702.04	32.386
702.36	27.479
702.68	29.178
703.00	29.363
703.32	28.723
703.64	28.418
703.96	23.955
704.28	30.233
704.60	31.085
704.91	30.267
705.23	31.378
705.55	32.558
705.87	32.226
706.19	28.622
706.51	26.791
706.83	30.606
707.15	30.532
707.47	31.061
707.79	29.484
708.11	30.594
708.43	30.952
708.74	28.316
709.06	32.468
709.38	29.396
709.70	30.233
710.02	29.674
710.34	32.727
710.66	31.343
710.98	31.534
711.29	30.233
711.61	33.038
711.93	27.885
712.25	34.405
712.57	29.044
712.89	29.066
713.20	28.571
713.52	29.605
713.84	31.329
714.16	30.793
714.48	29.885
714.80	35.562
715.11	29.107
715.43	31.751
715.75	28.406
716.07	33.546
716.39	28.840
716.70	33.223
717.02	33.453
717.34	32.155
717.66	32.463
717.97	36.653
718.29	33.333
718.61	32.847
718.93	34.559
719.24	29.758
719.56	30.508
719.88	31.186
720.20	34.459
720.51	34.146
720.83	33.086
721.15	33.209
721.46	29.078
721.78	33.692
722.10	31.698
722.42	35.714
722.73	34.831
723.05	33.607
723.37	29.555
723.68	31.660
724.00	34.959
724.32	36.694
724.63	32.927
724.95	35.146
725.27	30.769
725.58	39.062
725.90	33.942
726.22	35.094
726.53	31.944
726.85	31.741
727.16	33.452
727.48	31.206
727.80	37.121
728.11	31.522
728.43	33.077
728.74	35.125
729.06	37.226
729.38	36.029
729.69	35.943
730.01	32.423
730.32	33.333
730.64	30.769
730.96	29.373
731.27	34.106
731.59	33.028
731.90	33.819
732.22	33.540
732.53	29.721
732.85	31.410
733.16	29.904
733.48	31.894
733.80	33.117
734.11	34.713
734.43	33.432
734.74	31.714
735.06	31.519
735.37	35.260
735.69	29.618
736.00	37.908
736.32	34.268
736.63	31.629
736.95	32.268
737.26	31.293
737.58	30.968
737.89	33.110
738.21	30.375
738.52	35.000
738.83	29.811
739.15	33.846
739.46	33.942
739.78	33.333
740.09	31.692
740.41	32.258
740.72	32.056
741.04	31.481
741.35	32.917
741.66	40.000
741.98	31.604
742.29	40.670
742.61	38.793
742.92	38.462
743.23	35.043
743.55	38.000
743.86	31.579
744.18	38.938
744.49	42.584
744.80	40.845
745.12	40.909
745.43	40.088
745.74	40.541
746.06	33.486
746.37	34.978
746.68	39.819
747.00	36.111
747.31	35.714
747.62	39.823
747.94	37.445
748.25	36.596
748.56	34.802
748.88	35.644
749.19	37.500
749.50	38.605
749.82	33.740
750.13	34.286
750.44	35.036
750.75	35.439
751.07	34.727
751.38	35.540
751.69	35.018
752.01	36.090
752.32	33.935
752.63	36.170
752.94	34.426
753.26	36.000
753.57	28.455
753.88	39.063
754.19	35.000
754.51	38.194
754.82	33.213
755.13	35.094
755.44	37.594
755.75	34.672
756.07	31.560
756.38	29.197
756.69	34.228
757.00	33.832
757.31	34.421
757.63	31.871
757.94	33.512
758.25	29.412
758.56	30.864
758.87	32.258
759.18	32.424
759.50	30.094
759.81	32.087
760.12	31.250
760.43	32.951
760.74	32.337
761.05	32.486
761.36	32.620
761.67	34.375
761.99	32.609
762.30	34.722
762.61	33.969
762.92	34.766
763.23	38.235
763.54	38.400
763.85	37.500
764.16	41.923
764.47	40.304
764.78	32.509
765.10	31.646
765.41	37.168
765.72	33.533
766.03	36.677
766.34	31.000
766.65	40.851
766.96	35.897
767.27	41.624
767.58	43.750
767.89	44.737
768.20	44.828
768.51	47.208
768.82	38.532
769.13	33.333
769.44	34.818
769.75	36.481
770.06	32.569
770.37	39.367
770.68	45.370
770.99	34.222
771.30	36.066
771.61	41.704
771.92	39.754
772.23	43.277
772.54	35.385
772.85	41.885
773.16	39.894
773.47	46.739
773.78	43.147
774.09	48.214
774.39	51.462
774.70	40.741
775.01	48.551
775.32	52.288
775.63	52.632
775.94	49.640
776.25	61.417
776.56	52.239
776.87	62.295
777.18	57.812
777.48	57.252
777.79	50.000
778.10	48.889
778.41	58.929
778.72	48.905
779.03	48.993
779.34	54.362
779.65	46.622
779.95	42.945
780.26	54.902
780.57	48.276
780.88	55.469
781.19	55.639
781.50	54.054
781.80	47.799
782.11	47.458
782.42	46.835
782.73	38.037
783.04	50.000
783.34	57.042
783.65	54.795
783.96	53.731
784.27	49.650
784.57	43.165
784.88	48.148
785.19	57.143
785.50	64.151
785.81	60.448
786.11	59.016
786.42	54.264
786.73	53.982
787.04	63.208
787.34	58.929
787.65	64.000
787.96	62.162
788.26	52.893
788.57	64.407
788.88	61.983
789.19	62.500
789.49	58.333
789.80	57.252
790.11	58.095
790.41	68.317
790.72	71.084
791.03	75.000
791.33	59.302
791.64	68.041
791.95	68.317
792.25	81.111
792.56	80.519
792.87	78.205
793.17	75.949
793.48	80.460
793.79	78.161
794.09	65.909
794.40	59.664
794.70	58.088
795.01	59.259
795.32	51.079
795.62	57.480
795.93	55.172
796.23	57.522
796.54	75.294
796.85	64.865
797.15	87.324
797.46	78.788
797.76	80.723
798.07	69.620
798.37	72.308
798.68	81.818
798.99	77.465
799.29	88.312
799.60	72.727
799.90	91.781
800.21	83.582
800.51	86.207
800.82	108.772
801.12	93.443
801.43	93.939
801.73	74.324
802.04	88.889
802.34	74.074
802.65	89.062
802.95	108.475
803.26	106.250
803.56	81.429
803.87	89.231
804.17	80.882
804.48	114.815
804.78	110.345
805.09	89.706
805.39	88.462
805.70	82.143
806.00	109.836
806.30	77.273
806.61	85.366
806.91	78.481
807.22	59.211
807.52	77.612
807.83	88.732
808.13	84.375
808.43	98.333
808.74	73.684
809.04	102.899
809.35	77.612
809.65	72.368
809.95	96.774
810.26	81.356
810.56	104.762
810.86	131.818
811.17	133.333
811.47	113.333
811.77	107.407
812.08	101.818
812.38	124.000
812.69	127.778
812.99	129.545
813.29	106.122
813.59	92.857
813.90	116.327
814.20	101.818
814.50	69.231
814.81	110.294
815.11	102.041
815.41	80.328
815.72	147.619
816.02	105.455
816.32	128.571
816.62	115.000
816.93	117.073
817.23	116.667
817.53	134.091
817.84	139.394
818.14	130.435
818.44	126.667
818.74	141.176
819.04	142.500
819.35	134.286
819.65	138.235
819.95	164.286
820.25	195.000
820.56	171.795
820.86	129.545
821.16	137.209
821.46	135.897
821.76	146.000
822.07	142.857
822.37	155.000
822.67	160.606
822.97	111.765
823.27	200.000
823.57	140.541
823.88	152.500
824.18	173.333
824.48	147.619
824.78	220.000
825.08	150.000
825.38	159.459
825.69	124.390
825.99	187.500
826.29	172.414
826.59	136.842
826.89	131.579
827.19	138.235
827.49	187.097
827.79	134.091
828.09	134.091
828.39	123.404
828.70	128.571
829.00	181.481
829.30	174.194
829.60	147.500
829.90	286.667
830.20	185.714
830.50	139.130
830.80	156.522
831.10	193.333
831.40	180.000
831.70	173.913
832.00	211.538
832.30	162.963
832.60	256.250
832.90	200.000
833.20	314.286
833.50	203.226
833.80	213.793
834.10	143.750
834.40	219.231
834.70	261.111
835.00	271.429
835.30	180.000
835.60	307.692
835.90	186.207
836.20	307.143
836.50	206.897
836.80	152.000
837.10	177.778
837.40	261.905
837.70	300.000
838.00	192.593
838.30	209.524
838.60	314.286
838.90	200.000
839.19	300.000
839.49	321.429
839.79	300.000
840.09	250.000
840.39	304.762
840.69	247.826
840.99	311.111
841.29	400.000
841.59	308.333
841.88	312.500
842.18	162.069
842.48	257.143
842.78	183.333
843.08	239.130
843.38	150.000
843.68	800.000
843.97	219.231
844.27	175.862
844.57	290.476
844.87	312.500
845.17	225.926
845.47	1400.000
845.76	422.222
846.06	341.176
846.36	450.000
846.66	392.857
846.96	306.250
847.25	454.545
847.55	445.455
847.85	234.783
848.15	450.000
848.44	321.429
848.74	211.111
849.04	252.941
849.34	560.000
849.63	231.579
849.93	436.364
850.23	840.000
850.53	407.143
850.82	2200.000
851.12	-4100.000
851.42	4100.000
851.71	315.000
852.01	-1133.333
852.31	258.333
852.61	1533.333
852.90	261.905
853.20	204.000
853.50	276.471
853.79	271.429
854.09	187.500
854.39	318.750
854.68	183.784
854.98	174.194
855.28	163.333
855.57	213.793
855.87	181.481
856.17	194.737
856.46	260.000
856.76	241.176
857.05	193.103
857.35	229.167
857.65	353.333
857.94	204.348
858.24	215.385
858.53	235.000
858.83	240.909
859.13	320.000
859.42	0.000
859.72	500.000
860.01	409.091
860.31	240.909
860.60	321.053
860.90	252.174
861.20	533.333
861.49	466.667
861.79	-5000.000
862.08	562.500
862.38	304.762
862.67	276.923
862.97	282.353
863.26	466.667
863.56	250.000
863.85	400.000
864.15	550.000
864.44	373.333
864.74	783.333
865.03	587.500
865.33	294.737
865.62	418.182
865.92	430.769
866.21	366.667
866.51	0.000
866.80	472.727
867.10	980.000
867.39	423.077
867.69	400.000
867.98	268.421
868.27	418.182
868.57	305.263
868.86	-3300.000
869.16	331.250
869.45	1800.000
869.75	-3700.000
870.04	425.000
870.33	757.143
870.63	1050.000
870.92	2900.000
871.22	700.000
871.51	258.824
871.80	204.762
872.10	328.571
>>>>>End Processed Spectral Data<<<<<
