SpectraSuite Data File
++++++++++++++++++++++++++++++++++++
Date: Wed May 13 21:35:30 PDT 2015
User: schluterlab
Dark Spectrum Present: Yes
Reference Spectrum Present: Yes
Number of Sampled Component Spectra: 1
Spectrometers: USB2E3373
Integration Time (usec): 3000 (USB2E3373)
Spectra Averaged: 3 (USB2E3373)
Boxcar Smoothing: 0 (USB2E3373)
Correct for Electrical Dark: No (USB2E3373)
Strobe/Lamp Enabled: No (USB2E3373)
Correct for Detector Non-linearity: No (USB2E3373)
Correct for Stray Light: No (USB2E3373)
Number of Pixels in Processed Spectrum: 2048
>>>>>Begin Processed Spectral Data<<<<<
178.53	0.000
178.91	350.000
179.29	200.000
179.67	-1250.000
180.04	-300.000
180.42	300.000
180.80	1500.000
181.18	366.667
181.56	-425.000
181.94	-300.000
182.31	-90.909
182.69	192.308
183.07	-140.000
183.45	350.000
183.83	200.000
184.20	71.429
184.58	-133.333
184.96	500.000
185.34	71.429
185.72	0.000
186.09	-1400.000
186.47	-460.000
186.85	80.000
187.23	-650.000
187.61	500.000
187.98	1700.000
188.36	-137.500
188.74	0.000
189.12	-145.455
189.49	30.000
189.87	116.667
190.25	380.000
190.63	1100.000
191.00	-340.000
191.38	280.000
191.76	425.000
192.14	208.333
192.51	-63.158
192.89	666.667
193.27	450.000
193.65	-280.000
194.02	236.364
194.40	190.000
194.78	-600.000
195.15	500.000
195.53	-320.000
195.91	-50.000
196.29	-533.333
196.66	0.000
197.04	800.000
197.42	20.000
197.79	-40.000
198.17	-237.500
198.55	-366.667
198.92	200.000
199.30	-266.667
199.68	-100.000
200.05	500.000
200.43	266.667
200.81	-1300.000
201.18	-220.000
201.56	-133.333
201.94	625.000
202.31	-21.739
202.69	-57.143
203.07	-633.333
203.44	-140.000
203.82	-466.667
204.19	-100.000
204.57	0.000
204.95	-66.667
205.32	0.000
205.70	-350.000
206.08	-125.000
206.45	-216.667
206.83	600.000
207.20	-400.000
207.58	-130.000
207.96	-2100.000
208.33	-114.286
208.71	-1900.000
209.08	175.000
209.46	425.000
209.84	0.000
210.21	220.000
210.59	1100.000
210.96	280.000
211.34	1700.000
211.71	-1000.000
212.09	-116.667
212.46	-150.000
212.84	-566.667
213.22	-175.000
213.59	-1100.000
213.97	-750.000
214.34	-1250.000
214.72	-53.846
215.09	300.000
215.47	200.000
215.84	800.000
216.22	-212.500
216.59	-750.000
216.97	800.000
217.34	144.444
217.72	0.000
218.09	566.667
218.47	-500.000
218.84	-114.286
219.22	-62.500
219.59	-300.000
219.97	-475.000
220.34	-162.500
220.72	-260.000
221.09	0.000
221.47	-233.333
221.84	-1000.000
222.22	0.000
222.59	900.000
222.97	-233.333
223.34	-41.667
223.72	-1100.000
224.09	-750.000
224.46	-36.364
224.84	-112.500
225.21	-185.714
225.59	-425.000
225.96	-133.333
226.34	-140.000
226.71	-171.429
227.08	1150.000
227.46	-225.000
227.83	-500.000
228.21	-87.500
228.58	-600.000
228.95	-58.824
229.33	-50.000
229.70	-200.000
230.08	15.385
230.45	-125.000
230.82	-116.667
231.20	300.000
231.57	-325.000
231.95	2300.000
232.32	33.333
232.69	-47.059
233.07	-700.000
233.44	-73.913
233.81	-1000.000
234.19	-37.500
234.56	-20.000
234.93	-113.333
235.31	-31.579
235.68	-100.000
236.05	-100.000
236.43	-72.222
236.80	-27.273
237.17	-153.333
237.55	-94.118
237.92	-62.069
238.29	-44.444
238.67	-30.556
239.04	-19.355
239.41	-44.681
239.79	0.000
240.16	-11.628
240.53	-1.786
240.91	16.071
241.28	-32.143
241.65	8.065
242.02	5.263
242.40	-4.348
242.77	-17.391
243.14	-15.385
243.51	-2.128
243.89	2.885
244.26	7.547
244.63	-9.615
245.00	0.000
245.38	-3.361
245.75	-4.098
246.12	0.000
246.49	1.626
246.87	-7.563
247.24	11.486
247.61	3.974
247.98	7.051
248.36	3.550
248.73	-2.247
249.10	8.586
249.47	6.989
249.84	6.316
250.22	2.985
250.59	7.944
250.96	9.091
251.33	2.392
251.70	10.042
252.08	8.368
252.45	7.407
252.82	11.787
253.19	6.226
253.56	5.396
253.94	9.964
254.31	8.803
254.68	8.389
255.05	9.901
255.42	5.245
255.79	5.521
256.16	7.256
256.54	6.032
256.91	7.595
257.28	9.434
257.65	6.688
258.02	8.798
258.39	11.696
258.76	6.686
259.14	8.807
259.51	8.989
259.88	9.485
260.25	10.833
260.62	5.618
260.99	9.814
261.36	10.363
261.73	6.914
262.10	8.906
262.47	4.691
262.85	8.706
263.22	13.333
263.59	9.610
263.96	6.326
264.33	8.654
264.70	9.302
265.07	9.259
265.44	9.885
265.81	8.009
266.18	7.745
266.55	10.917
266.92	9.322
267.29	8.848
267.66	9.766
268.03	9.671
268.40	4.873
268.77	11.983
269.14	12.449
269.51	11.499
269.88	7.332
270.25	8.898
270.62	7.582
270.99	9.055
271.36	11.508
271.73	11.044
272.10	8.952
272.47	8.445
272.84	9.843
273.21	8.611
273.58	7.787
273.95	8.868
274.32	11.194
274.69	9.472
275.06	10.777
275.43	9.793
275.80	10.638
276.17	10.129
276.54	9.414
276.91	10.279
277.28	7.762
277.65	8.566
278.02	11.429
278.39	8.348
278.76	10.368
279.13	9.262
279.50	11.552
279.87	9.783
280.23	8.108
280.60	7.785
280.97	9.903
281.34	9.464
281.71	8.618
282.08	10.940
282.45	9.180
282.82	10.703
283.19	10.823
283.56	10.000
283.92	10.550
284.29	10.608
284.66	7.743
285.03	7.818
285.40	8.912
285.77	12.312
286.14	10.182
286.51	12.594
286.87	8.923
287.24	9.440
287.61	9.940
287.98	10.882
288.35	8.644
288.72	8.465
289.08	11.254
289.45	8.223
289.82	9.228
290.19	9.257
290.56	7.812
290.93	8.840
291.29	7.114
291.66	10.109
292.03	9.946
292.40	7.402
292.77	9.103
293.13	8.926
293.50	9.542
293.87	8.933
294.24	8.862
294.60	9.363
294.97	9.524
295.34	7.256
295.71	7.884
296.08	7.853
296.44	8.929
296.81	8.648
297.18	9.375
297.55	7.193
297.91	8.447
298.28	7.264
298.65	7.882
299.02	9.035
299.38	6.871
299.75	7.692
300.12	6.395
300.48	6.667
300.85	7.275
301.22	8.362
301.59	7.981
301.95	8.362
302.32	7.235
302.69	7.571
303.05	7.530
303.42	6.705
303.79	8.412
304.15	7.996
304.52	8.817
304.89	7.087
305.25	5.928
305.62	8.243
305.99	8.270
306.35	8.255
306.72	8.647
307.09	8.342
307.45	7.561
307.82	7.158
308.19	6.792
308.55	6.551
308.92	8.939
309.29	6.507
309.65	7.093
310.02	8.052
310.38	8.333
310.75	6.805
311.12	8.066
311.48	6.627
311.85	8.268
312.22	9.478
312.58	7.923
312.95	8.756
313.31	9.642
313.68	7.347
314.05	8.979
314.41	8.549
314.78	6.926
315.14	8.889
315.51	8.944
315.87	9.546
316.24	8.540
316.61	10.228
316.97	9.259
317.34	9.626
317.70	10.526
318.07	10.470
318.43	9.666
318.80	10.122
319.16	9.814
319.53	10.305
319.89	11.201
320.26	10.628
320.62	10.287
320.99	10.465
321.35	10.196
321.72	10.587
322.08	12.362
322.45	11.933
322.81	12.384
323.18	12.254
323.54	12.184
323.91	12.737
324.27	12.151
324.64	12.892
325.00	12.861
325.37	13.311
325.73	12.458
326.10	13.036
326.46	13.294
326.83	13.430
327.19	13.252
327.56	13.779
327.92	14.240
328.29	15.693
328.65	15.074
329.01	12.665
329.38	14.522
329.74	14.077
330.11	14.247
330.47	14.149
330.84	13.718
331.20	13.749
331.56	13.587
331.93	13.695
332.29	14.509
332.66	13.814
333.02	15.378
333.38	13.421
333.75	15.529
334.11	15.538
334.48	15.955
334.84	14.046
335.20	15.180
335.57	14.970
335.93	13.660
336.29	14.799
336.66	15.043
337.02	14.522
337.38	16.014
337.75	14.298
338.11	14.518
338.47	14.812
338.84	13.832
339.20	14.903
339.56	15.017
339.93	14.607
340.29	14.774
340.65	15.483
341.02	14.476
341.38	14.274
341.74	12.773
342.11	13.460
342.47	13.975
342.83	14.052
343.20	14.467
343.56	14.800
343.92	14.947
344.28	14.042
344.65	13.633
345.01	13.317
345.37	15.543
345.73	14.706
346.10	13.884
346.46	14.390
346.82	14.205
347.19	14.082
347.55	14.620
347.91	14.108
348.27	13.565
348.63	14.343
349.00	13.365
349.36	13.815
349.72	14.695
350.08	14.431
350.45	13.547
350.81	15.415
351.17	14.473
351.53	14.454
351.89	14.059
352.26	13.205
352.62	13.798
352.98	12.859
353.34	13.849
353.70	13.551
354.07	14.431
354.43	13.608
354.79	13.622
355.15	14.130
355.51	13.364
355.87	14.464
356.24	13.162
356.60	13.292
356.96	13.891
357.32	13.545
357.68	14.057
358.04	12.723
358.40	13.643
358.77	13.685
359.13	13.774
359.49	13.550
359.85	13.950
360.21	14.032
360.57	13.308
360.93	13.126
361.29	14.434
361.66	14.123
362.02	13.343
362.38	12.851
362.74	13.416
363.10	13.738
363.46	13.401
363.82	13.821
364.18	13.633
364.54	13.348
364.90	12.753
365.26	13.093
365.62	13.494
365.98	13.310
366.35	13.901
366.71	13.124
367.07	13.040
367.43	14.146
367.79	14.315
368.15	14.276
368.51	13.713
368.87	14.306
369.23	13.737
369.59	13.672
369.95	13.933
370.31	14.714
370.67	13.251
371.03	14.922
371.39	12.988
371.75	13.786
372.11	13.889
372.47	13.482
372.83	13.870
373.19	12.806
373.55	14.234
373.91	13.861
374.27	12.932
374.63	13.585
374.99	13.649
375.35	13.973
375.71	13.995
376.07	13.639
376.42	13.235
376.78	14.135
377.14	14.237
377.50	14.342
377.86	14.409
378.22	14.033
378.58	13.871
378.94	14.687
379.30	13.367
379.66	14.673
380.02	13.174
380.38	14.277
380.74	15.063
381.09	13.752
381.45	14.571
381.81	14.479
382.17	14.430
382.53	14.215
382.89	14.234
383.25	14.691
383.61	14.952
383.97	14.500
384.32	13.926
384.68	14.374
385.04	13.561
385.40	14.321
385.76	14.173
386.12	14.719
386.48	13.668
386.83	14.268
387.19	14.929
387.55	14.408
387.91	15.375
388.27	15.105
388.62	15.044
388.98	14.768
389.34	14.411
389.70	14.835
390.06	15.000
390.42	15.271
390.77	14.734
391.13	14.520
391.49	13.852
391.85	15.144
392.20	14.160
392.56	14.730
392.92	14.277
393.28	14.468
393.64	13.456
393.99	14.382
394.35	15.988
394.71	13.974
395.07	14.591
395.42	15.356
395.78	15.251
396.14	14.775
396.50	14.077
396.85	14.723
397.21	15.106
397.57	14.348
397.92	14.311
398.28	14.946
398.64	15.786
399.00	15.625
399.35	15.607
399.71	14.735
400.07	14.940
400.42	15.047
400.78	15.166
401.14	15.267
401.49	14.440
401.85	15.602
402.21	15.728
402.57	15.696
402.92	16.521
403.28	16.135
403.63	15.375
403.99	14.715
404.35	15.150
404.70	14.743
405.06	16.265
405.42	15.138
405.77	14.862
406.13	14.914
406.49	15.578
406.84	15.629
407.20	16.045
407.55	15.390
407.91	15.685
408.27	15.097
408.62	16.452
408.98	15.413
409.34	15.285
409.69	16.244
410.05	15.547
410.40	14.547
410.76	15.704
411.11	15.485
411.47	16.125
411.83	15.159
412.18	15.743
412.54	16.291
412.89	15.298
413.25	15.280
413.60	15.987
413.96	14.856
414.31	16.276
414.67	15.746
415.03	15.629
415.38	15.852
415.74	15.660
416.09	16.523
416.45	14.901
416.80	16.443
417.16	16.262
417.51	15.874
417.87	15.476
418.22	15.449
418.58	15.900
418.93	15.756
419.29	15.974
419.64	16.158
420.00	15.683
420.35	15.660
420.71	15.600
421.06	15.867
421.42	16.484
421.77	15.780
422.12	16.218
422.48	14.885
422.83	16.302
423.19	15.871
423.54	16.961
423.90	15.974
424.25	16.984
424.61	15.650
424.96	15.789
425.31	16.096
425.67	16.696
426.02	17.079
426.38	16.853
426.73	16.005
427.09	16.510
427.44	16.618
427.79	15.321
428.15	16.575
428.50	16.133
428.85	16.790
429.21	16.263
429.56	16.472
429.92	16.450
430.27	16.769
430.62	16.684
430.98	16.605
431.33	15.583
431.68	16.720
432.04	16.225
432.39	15.878
432.74	16.432
433.10	16.560
433.45	16.746
433.80	16.207
434.16	16.002
434.51	16.522
434.86	17.020
435.22	16.808
435.57	17.260
435.92	16.948
436.28	15.916
436.63	17.148
436.98	16.392
437.34	16.972
437.69	16.234
438.04	16.412
438.39	16.563
438.75	16.508
439.10	17.756
439.45	16.586
439.81	17.426
440.16	17.739
440.51	16.587
440.86	17.427
441.22	17.384
441.57	17.191
441.92	16.900
442.27	17.262
442.63	17.169
442.98	17.998
443.33	17.607
443.68	17.185
444.03	18.033
444.39	17.600
444.74	17.118
445.09	17.346
445.44	18.141
445.79	17.656
446.15	17.915
446.50	17.952
446.85	18.439
447.20	18.557
447.55	18.243
447.91	17.865
448.26	17.839
448.61	17.837
448.96	18.280
449.31	18.389
449.66	18.276
450.02	17.794
450.37	18.273
450.72	17.049
451.07	17.994
451.42	17.654
451.77	18.381
452.12	18.360
452.47	18.980
452.83	18.160
453.18	18.905
453.53	18.159
453.88	18.614
454.23	18.665
454.58	18.382
454.93	18.794
455.28	18.754
455.63	18.590
455.98	18.077
456.34	17.483
456.69	18.914
457.04	17.957
457.39	18.701
457.74	18.073
458.09	19.194
458.44	18.273
458.79	18.726
459.14	18.371
459.49	18.537
459.84	17.926
460.19	19.148
460.54	18.978
460.89	19.257
461.24	18.804
461.59	18.780
461.94	19.279
462.29	18.689
462.64	19.129
462.99	18.913
463.34	19.061
463.69	19.137
464.04	18.187
464.39	19.280
464.74	18.796
465.09	19.777
465.44	19.192
465.79	19.206
466.14	19.042
466.49	19.765
466.84	19.366
467.19	19.236
467.54	19.961
467.89	19.736
468.24	19.852
468.59	18.802
468.94	19.540
469.29	19.828
469.64	19.456
469.99	19.517
470.34	20.499
470.68	19.108
471.03	20.733
471.38	19.124
471.73	19.547
472.08	20.619
472.43	19.855
472.78	20.216
473.13	18.470
473.48	19.243
473.83	19.397
474.17	19.271
474.52	20.388
474.87	19.481
475.22	19.928
475.57	19.855
475.92	18.920
476.27	20.338
476.61	20.102
476.96	20.274
477.31	19.741
477.66	19.435
478.01	19.396
478.36	19.619
478.70	19.119
479.05	19.867
479.40	20.073
479.75	20.138
480.10	20.143
480.45	19.421
480.79	19.711
481.14	20.263
481.49	19.290
481.84	19.840
482.19	19.917
482.53	19.619
482.88	19.799
483.23	20.019
483.58	19.754
483.92	19.504
484.27	19.305
484.62	19.396
484.97	19.494
485.31	19.087
485.66	18.045
486.01	18.609
486.36	18.476
486.70	18.447
487.05	19.063
487.40	19.390
487.75	19.724
488.09	19.675
488.44	20.119
488.79	20.098
489.13	19.682
489.48	19.667
489.83	19.652
490.17	19.927
490.52	20.851
490.87	20.074
491.22	20.160
491.56	21.179
491.91	20.115
492.26	20.455
492.60	19.913
492.95	21.331
493.30	19.864
493.64	19.041
493.99	20.097
494.34	20.087
494.68	20.764
495.03	20.702
495.37	20.730
495.72	20.351
496.07	20.945
496.41	19.701
496.76	20.064
497.11	19.390
497.45	20.185
497.80	20.293
498.14	21.411
498.49	20.424
498.84	20.800
499.18	20.010
499.53	20.532
499.87	19.942
500.22	20.508
500.56	20.863
500.91	20.724
501.26	21.034
501.60	20.490
501.95	21.179
502.29	20.825
502.64	21.119
502.98	20.568
503.33	20.389
503.67	20.448
504.02	20.490
504.36	20.208
504.71	20.427
505.06	21.345
505.40	21.804
505.75	21.465
506.09	20.950
506.44	22.177
506.78	22.194
507.13	22.089
507.47	21.050
507.82	21.559
508.16	22.427
508.51	21.591
508.85	21.617
509.19	20.899
509.54	21.877
509.88	21.774
510.23	21.421
510.57	21.981
510.92	22.144
511.26	22.497
511.61	21.734
511.95	21.555
512.30	21.988
512.64	22.928
512.98	21.773
513.33	21.183
513.67	21.976
514.02	22.463
514.36	22.528
514.70	23.499
515.05	22.294
515.39	22.465
515.74	22.617
516.08	21.770
516.42	21.774
516.77	22.320
517.11	22.928
517.46	23.109
517.80	23.608
518.14	22.780
518.49	22.363
518.83	22.852
519.17	22.590
519.52	23.281
519.86	23.497
520.20	22.498
520.55	23.507
520.89	22.644
521.23	24.615
521.58	24.020
521.92	23.130
522.26	23.813
522.61	23.271
522.95	23.510
523.29	23.556
523.64	22.759
523.98	22.618
524.32	24.008
524.66	23.636
525.01	24.050
525.35	25.280
525.69	24.254
526.04	23.518
526.38	24.028
526.72	23.997
527.06	24.500
527.41	22.965
527.75	23.298
528.09	24.983
528.43	23.541
528.78	23.320
529.12	23.351
529.46	23.544
529.80	24.207
530.15	23.810
530.49	24.663
530.83	24.171
531.17	24.726
531.51	22.994
531.86	24.051
532.20	22.881
532.54	22.690
532.88	24.030
533.22	23.502
533.57	23.046
533.91	24.452
534.25	24.023
534.59	23.423
534.93	23.214
535.27	23.567
535.62	23.947
535.96	24.398
536.30	23.338
536.64	23.582
536.98	23.826
537.32	24.342
537.66	23.977
538.01	23.370
538.35	23.066
538.69	23.411
539.03	24.161
539.37	22.803
539.71	24.216
540.05	23.482
540.39	23.125
540.73	22.696
541.07	23.605
541.42	23.434
541.76	23.816
542.10	23.087
542.44	22.453
542.78	23.803
543.12	23.181
543.46	23.290
543.80	22.539
544.14	23.882
544.48	21.699
544.82	22.394
545.16	22.177
545.50	24.105
545.84	22.791
546.18	24.544
546.52	23.147
546.86	23.039
547.20	23.159
547.54	23.016
547.88	23.212
548.22	23.518
548.56	21.748
548.90	23.139
549.24	23.542
549.58	22.206
549.92	22.597
550.26	23.764
550.60	23.724
550.94	22.985
551.28	23.846
551.62	23.534
551.96	23.280
552.30	22.271
552.64	22.599
552.98	23.580
553.32	22.783
553.66	22.964
554.00	23.686
554.34	22.857
554.68	22.595
555.02	21.781
555.36	22.920
555.69	23.379
556.03	22.230
556.37	22.831
556.71	22.985
557.05	23.173
557.39	23.060
557.73	22.542
558.07	22.381
558.41	23.921
558.75	24.249
559.08	21.652
559.42	24.312
559.76	22.554
560.10	23.367
560.44	22.845
560.78	22.374
561.12	23.055
561.45	22.177
561.79	22.696
562.13	23.136
562.47	23.214
562.81	21.645
563.15	21.601
563.48	21.748
563.82	22.503
564.16	22.613
564.50	22.185
564.84	21.284
565.17	22.980
565.51	22.126
565.85	21.386
566.19	21.987
566.52	22.084
566.86	20.923
567.20	21.564
567.54	20.956
567.88	20.605
568.21	21.076
568.55	21.388
568.89	20.738
569.23	20.623
569.56	20.192
569.90	20.782
570.24	19.711
570.57	19.618
570.91	19.973
571.25	19.745
571.59	19.393
571.92	19.595
572.26	20.107
572.60	19.741
572.93	20.056
573.27	19.830
573.61	20.357
573.95	19.434
574.28	19.335
574.62	19.057
574.96	18.799
575.29	19.408
575.63	19.468
575.97	19.402
576.30	19.218
576.64	19.466
576.98	19.122
577.31	19.391
577.65	18.533
577.98	18.912
578.32	18.574
578.66	19.271
578.99	19.671
579.33	18.941
579.67	19.272
580.00	19.130
580.34	19.341
580.67	19.402
581.01	19.380
581.35	19.057
581.68	18.531
582.02	18.703
582.35	18.688
582.69	18.976
583.02	18.730
583.36	19.152
583.70	19.707
584.03	19.682
584.37	19.235
584.70	19.121
585.04	19.064
585.37	18.931
585.71	19.030
586.04	18.897
586.38	19.048
586.72	19.106
587.05	19.402
587.39	19.386
587.72	18.936
588.06	19.097
588.39	18.920
588.73	19.013
589.06	19.496
589.40	19.126
589.73	18.577
590.07	18.957
590.40	19.500
590.73	20.057
591.07	19.724
591.40	19.652
591.74	19.876
592.07	19.671
592.41	20.077
592.74	18.904
593.08	18.564
593.41	19.139
593.75	18.766
594.08	18.860
594.41	19.086
594.75	19.715
595.08	19.007
595.42	18.933
595.75	19.197
596.09	19.323
596.42	19.812
596.75	20.009
597.09	19.563
597.42	19.426
597.75	19.911
598.09	19.080
598.42	19.911
598.76	19.228
599.09	18.888
599.42	19.298
599.76	19.977
600.09	19.014
600.42	18.267
600.76	19.327
601.09	19.397
601.42	18.463
601.76	19.073
602.09	19.700
602.42	19.356
602.76	19.295
603.09	19.466
603.42	18.872
603.76	18.706
604.09	19.170
604.42	18.753
604.76	18.987
605.09	19.257
605.42	20.198
605.75	18.801
606.09	18.543
606.42	18.288
606.75	18.615
607.09	18.573
607.42	19.089
607.75	18.556
608.08	19.071
608.42	18.229
608.75	19.446
609.08	18.912
609.41	19.275
609.75	19.213
610.08	19.970
610.41	19.242
610.74	18.720
611.07	19.088
611.41	19.652
611.74	18.944
612.07	19.072
612.40	19.351
612.73	19.374
613.07	19.678
613.40	19.548
613.73	19.881
614.06	19.679
614.39	19.511
614.72	19.045
615.06	18.944
615.39	18.985
615.72	18.898
616.05	18.694
616.38	19.301
616.71	18.776
617.05	19.717
617.38	19.901
617.71	18.627
618.04	19.439
618.37	19.306
618.70	20.310
619.03	19.794
619.36	19.929
619.69	19.810
620.03	20.495
620.36	19.276
620.69	18.201
621.02	20.385
621.35	20.442
621.68	19.560
622.01	20.307
622.34	18.557
622.67	20.439
623.00	20.213
623.33	18.998
623.66	19.257
623.99	19.580
624.32	20.763
624.65	19.510
624.99	18.883
625.32	19.866
625.65	20.388
625.98	20.063
626.31	20.408
626.64	20.464
626.97	20.502
627.30	20.359
627.63	19.810
627.96	18.961
628.29	20.186
628.62	20.890
628.95	21.443
629.28	21.182
629.61	19.809
629.94	20.503
630.26	21.675
630.59	20.280
630.92	20.884
631.25	21.318
631.58	21.627
631.91	19.512
632.24	20.637
632.57	20.444
632.90	22.170
633.23	18.345
633.56	21.703
633.89	21.890
634.22	22.261
634.55	21.315
634.88	20.098
635.20	22.375
635.53	20.284
635.86	20.641
636.19	21.216
636.52	21.707
636.85	20.748
637.18	19.610
637.51	19.850
637.83	22.063
638.16	19.600
638.49	20.961
638.82	20.523
639.15	20.213
639.48	21.791
639.81	22.222
640.13	21.549
640.46	24.153
640.79	21.151
641.12	20.266
641.45	19.360
641.77	22.386
642.10	23.147
642.43	23.428
642.76	20.505
643.09	20.607
643.41	22.648
643.74	21.325
644.07	21.845
644.40	21.061
644.73	21.017
645.05	20.768
645.38	21.262
645.71	22.619
646.04	18.350
646.36	21.354
646.69	21.154
647.02	20.947
647.35	23.218
647.67	20.887
648.00	20.652
648.33	21.356
648.66	20.367
648.98	19.410
649.31	19.939
649.64	20.657
649.96	22.275
650.29	19.608
650.62	19.275
650.94	22.069
651.27	19.611
651.60	20.804
651.92	22.222
652.25	23.283
652.58	20.297
652.90	20.202
653.23	17.317
653.56	20.992
653.88	18.942
654.21	20.819
654.54	19.103
654.86	20.650
655.19	20.448
655.52	18.891
655.84	15.238
656.17	18.020
656.49	23.849
656.82	24.051
657.15	18.571
657.47	14.118
657.80	10.395
658.13	11.385
658.45	16.554
658.78	17.187
659.10	17.442
659.43	17.454
659.75	18.142
660.08	17.931
660.41	18.256
660.73	16.804
661.06	18.878
661.38	16.279
661.71	20.492
662.03	23.467
662.36	19.690
662.68	19.785
663.01	23.093
663.33	18.575
663.66	19.512
663.98	21.573
664.31	21.319
664.63	15.991
664.96	21.007
665.28	21.245
665.61	17.495
665.93	18.844
666.26	20.886
666.58	21.413
666.91	21.525
667.23	22.350
667.56	22.989
667.88	22.664
668.21	17.857
668.53	21.609
668.86	19.904
669.18	19.622
669.50	19.355
669.83	23.389
670.15	19.762
670.48	17.471
670.80	20.569
671.13	19.222
671.45	21.233
671.77	19.181
672.10	19.298
672.42	20.038
672.75	15.714
673.07	17.273
673.39	19.776
673.72	19.561
674.04	17.828
674.37	20.528
674.69	17.284
675.01	19.017
675.34	19.912
675.66	23.094
675.98	20.133
676.31	19.683
676.63	21.088
676.95	17.647
677.28	16.972
677.60	18.137
677.92	21.064
678.25	19.523
678.57	20.163
678.89	16.418
679.22	17.805
679.54	19.388
679.86	19.141
680.18	20.577
680.51	16.923
680.83	18.519
681.15	18.861
681.48	17.435
681.80	15.746
682.12	17.708
682.44	17.907
682.77	16.842
683.09	19.420
683.41	17.907
683.73	17.857
684.06	18.363
684.38	19.017
684.70	16.904
685.02	18.802
685.34	17.417
685.67	17.073
685.99	16.904
686.31	18.793
686.63	19.301
686.96	20.594
687.28	16.168
687.60	18.904
687.92	17.899
688.24	17.800
688.56	20.833
688.89	14.477
689.21	19.283
689.53	16.441
689.85	21.124
690.17	19.780
690.49	18.841
690.82	16.706
691.14	18.357
691.46	17.865
691.78	17.363
692.10	17.834
692.42	14.505
692.74	18.043
693.06	16.854
693.39	15.691
693.71	20.000
694.03	19.318
694.35	20.270
694.67	19.500
694.99	19.588
695.31	17.571
695.63	17.073
695.95	16.794
696.27	17.534
696.59	18.548
696.91	15.922
697.23	18.020
697.56	17.506
697.88	17.879
698.20	16.847
698.52	18.458
698.84	18.421
699.16	16.548
699.48	18.272
699.80	17.571
700.12	18.231
700.44	14.648
700.76	16.292
701.08	16.918
701.40	16.467
701.72	17.231
702.04	16.038
702.36	14.939
702.68	16.159
703.00	17.836
703.32	16.713
703.64	19.880
703.96	17.302
704.28	21.084
704.60	17.683
704.91	19.122
705.23	18.038
705.55	16.207
705.87	15.493
706.19	19.414
706.51	13.380
706.83	12.739
707.15	15.244
707.47	16.253
707.79	14.721
708.11	16.452
708.43	19.036
708.74	17.287
709.06	15.508
709.38	14.409
709.70	21.021
710.02	20.249
710.34	16.667
710.66	17.915
710.98	14.551
711.29	15.909
711.61	14.839
711.93	16.129
712.25	15.385
712.57	14.035
712.89	13.187
713.20	13.830
713.52	12.044
713.84	18.387
714.16	13.916
714.48	14.241
714.80	15.335
715.11	18.895
715.43	16.770
715.75	19.565
716.07	17.771
716.39	15.488
716.70	19.424
717.02	13.725
717.34	16.667
717.66	16.379
717.97	12.698
718.29	19.291
718.61	16.309
718.93	14.341
719.24	16.605
719.56	13.109
719.88	14.179
720.20	15.415
720.51	22.656
720.83	17.899
721.15	13.821
721.46	16.031
721.78	14.741
722.10	10.757
722.42	11.290
722.73	19.691
723.05	13.878
723.37	15.966
723.68	11.600
724.00	11.489
724.32	13.808
724.63	19.342
724.95	15.385
725.27	16.456
725.58	18.930
725.90	16.736
726.22	15.580
726.53	10.196
726.85	13.869
727.16	11.852
727.48	15.709
727.80	15.234
728.11	16.803
728.43	13.281
728.74	14.683
729.06	14.000
729.38	15.810
729.69	15.302
730.01	14.870
730.32	15.498
730.64	9.848
730.96	13.636
731.27	11.371
731.59	18.413
731.90	14.563
732.22	11.859
732.53	12.838
732.85	15.101
733.16	15.512
733.48	12.500
733.80	16.216
734.11	18.581
734.43	14.861
734.74	14.715
735.06	13.545
735.37	13.374
735.69	15.534
736.00	16.172
736.32	14.894
736.63	14.138
736.95	17.808
737.26	12.414
737.58	14.583
737.89	15.120
738.21	10.320
738.52	15.589
738.83	11.429
739.15	7.173
739.46	11.673
739.78	9.859
740.09	12.671
740.41	11.429
740.72	11.348
741.04	16.000
741.35	7.895
741.66	13.333
741.98	16.346
742.29	20.792
742.61	14.146
742.92	17.105
743.23	13.208
743.55	13.063
743.86	13.004
744.18	16.667
744.49	9.137
744.80	17.347
745.12	19.626
745.43	13.270
745.74	21.622
746.06	11.215
746.37	9.174
746.68	14.423
747.00	15.311
747.31	12.981
747.62	17.431
747.94	15.284
748.25	16.055
748.56	22.222
748.88	20.188
749.19	17.143
749.50	14.078
749.82	8.920
750.13	14.583
750.44	10.769
750.75	12.915
751.07	14.947
751.38	17.021
751.69	9.266
752.01	14.453
752.32	13.846
752.63	16.791
752.94	16.400
753.26	13.389
753.57	14.583
753.88	12.955
754.19	13.147
754.51	18.421
754.82	13.187
755.13	12.174
755.44	13.821
755.75	14.400
756.07	13.653
756.38	13.669
756.69	13.311
757.00	15.888
757.31	13.269
757.63	9.877
757.94	9.040
758.25	15.608
758.56	10.326
758.87	13.690
759.18	15.773
759.50	11.111
759.81	16.388
760.12	14.462
760.43	11.607
760.74	12.147
761.05	12.431
761.36	14.327
761.67	12.085
761.99	11.684
762.30	18.613
762.61	13.580
762.92	14.957
763.23	17.213
763.54	11.255
763.85	11.837
764.16	6.098
764.47	12.800
764.78	10.000
765.10	14.754
765.41	14.286
765.72	13.975
766.03	16.502
766.34	12.308
766.65	13.389
766.96	11.737
767.27	14.851
767.58	6.742
767.89	18.519
768.20	10.497
768.51	15.075
768.82	11.058
769.13	12.832
769.44	14.644
769.75	7.265
770.06	13.004
770.37	14.706
770.68	12.621
770.99	9.709
771.30	13.866
771.61	8.980
771.92	11.203
772.23	6.757
772.54	8.840
772.85	11.628
773.16	18.519
773.47	11.243
773.78	12.069
774.09	4.375
774.39	14.286
774.70	15.646
775.01	6.897
775.32	10.714
775.63	12.030
775.94	0.752
776.25	12.000
776.56	16.529
776.87	19.048
777.18	9.910
777.48	6.306
777.79	12.598
778.10	22.018
778.41	0.877
778.72	10.924
779.03	5.634
779.34	16.216
779.65	4.225
779.95	10.596
780.26	4.317
780.57	4.317
780.88	9.859
781.19	9.244
781.50	14.765
781.80	14.035
782.11	11.628
782.42	14.465
782.73	13.725
783.04	6.207
783.34	3.053
783.65	8.054
783.96	7.692
784.27	7.857
784.57	13.475
784.88	1.923
785.19	22.727
785.50	11.818
785.81	8.571
786.11	2.521
786.42	3.540
786.73	-3.774
787.04	1.835
787.34	-5.941
787.65	10.833
787.96	5.785
788.26	14.493
788.57	5.556
788.88	6.504
789.19	5.600
789.49	3.817
789.80	14.394
790.11	-1.887
790.41	7.921
790.72	13.830
791.03	5.435
791.33	5.882
791.64	3.704
791.95	10.870
792.25	-9.091
792.56	6.410
792.87	-1.282
793.17	-5.128
793.48	7.143
793.79	-1.250
794.09	10.577
794.40	2.083
794.70	8.108
795.01	-2.344
795.32	5.217
795.62	-6.522
795.93	7.547
796.23	8.081
796.54	7.317
796.85	5.952
797.15	7.576
797.46	13.043
797.76	5.263
798.07	13.636
798.37	-3.659
798.68	-22.581
798.99	-13.514
799.29	6.024
799.60	7.692
799.90	10.769
800.21	6.061
800.51	8.000
800.82	0.000
801.12	-33.333
801.43	-30.000
801.73	-4.054
802.04	15.714
802.34	-13.115
802.65	11.940
802.95	7.273
803.26	-8.621
803.56	16.923
803.87	-16.981
804.17	3.226
804.48	1.471
804.78	-41.463
805.09	14.493
805.39	10.294
805.70	-25.532
806.00	-24.561
806.30	8.974
806.61	7.895
806.91	-1.351
807.22	-6.579
807.52	15.909
807.83	-16.949
808.13	-25.758
808.43	-5.000
808.74	-37.931
809.04	-6.349
809.35	-22.449
809.65	-10.000
809.95	-24.490
810.26	0.000
810.56	-4.167
810.86	-22.449
811.17	-5.769
811.47	-4.255
811.77	-14.583
812.08	-7.547
812.38	-40.625
812.69	-7.273
812.99	-9.756
813.29	-8.108
813.59	-35.135
813.90	-5.455
814.20	-10.909
814.50	-6.667
814.81	-3.636
815.11	0.000
815.41	-2.326
815.72	0.000
816.02	-22.857
816.32	-24.324
816.62	-16.667
816.93	-6.667
817.23	-17.778
817.53	-50.000
817.84	-40.541
818.14	-26.829
818.44	0.000
818.74	8.163
819.04	2.439
819.35	-27.778
819.65	0.000
819.95	-116.667
820.25	-9.091
820.56	-30.952
820.86	-27.778
821.16	-11.364
821.46	-21.739
821.76	1.724
822.07	2.174
822.37	-3.030
822.67	-4.878
822.97	-21.622
823.27	-22.857
823.57	10.345
823.88	-47.059
824.18	0.000
824.48	8.571
824.78	-23.810
825.08	-10.714
825.38	-22.222
825.69	-32.258
825.99	2.439
826.29	-62.963
826.59	-59.375
826.89	-3.226
827.19	-13.043
827.49	-16.667
827.79	-47.826
828.09	-12.903
828.39	6.250
828.70	-78.125
829.00	-62.069
829.30	-13.514
829.60	-87.500
829.90	-37.037
830.20	-25.000
830.50	-86.364
830.80	-129.412
831.10	-40.909
831.40	-35.294
831.70	-42.308
832.00	-18.182
832.30	17.647
832.60	-5.405
832.90	2700.000
833.20	-17.857
833.50	-90.000
833.80	-23.684
834.10	-87.500
834.40	-95.455
834.70	-113.333
835.00	-50.000
835.30	-4.167
835.60	-23.810
835.90	0.000
836.20	-44.000
836.50	-75.000
836.80	-36.842
837.10	5.405
837.40	-40.000
837.70	-43.478
838.00	0.000
838.30	-15.789
838.60	-110.000
838.90	-220.000
839.19	-133.333
839.49	-46.154
839.79	-57.895
840.09	-183.333
840.39	-130.000
840.69	-40.909
840.99	-28.571
841.29	-33.333
841.59	-100.000
841.88	-120.000
842.18	-57.143
842.48	6.667
842.78	-242.857
843.08	-64.286
843.38	-187.500
843.68	-87.500
843.97	21.429
844.27	-200.000
844.57	-127.273
844.87	-120.000
845.17	0.000
845.47	866.667
845.76	-40.000
846.06	-116.667
846.36	-1200.000
846.66	-89.474
846.96	-59.091
847.25	-61.111
847.55	-266.667
847.85	-66.667
848.15	-30.769
848.44	-166.667
848.74	-100.000
849.04	-53.846
849.34	-575.000
849.63	-136.364
849.93	-135.714
850.23	20.000
850.53	-200.000
850.82	-22.222
851.12	-20.000
851.42	-29.412
851.71	-212.500
852.01	-23.529
852.31	-69.231
852.61	500.000
852.90	-11.765
853.20	0.000
853.50	-68.750
853.79	-242.857
854.09	-375.000
854.39	-60.000
854.68	-17.500
854.98	0.000
855.28	-24.000
855.57	-37.500
855.87	-16.667
856.17	-64.000
856.46	-50.000
856.76	-45.000
857.05	-8.000
857.35	-41.667
857.65	-52.941
857.94	-100.000
858.24	-25.000
858.53	-10.000
858.83	-263.636
859.13	-20.000
859.42	-142.857
859.72	-125.000
860.01	-29.167
860.31	-275.000
860.60	-6.250
860.90	-283.333
861.20	-16.667
861.49	-66.667
861.79	-68.750
862.08	475.000
862.38	-191.667
862.67	357.143
862.97	500.000
863.26	-109.091
863.56	-27.273
863.85	-31.579
864.15	-52.941
864.44	-420.000
864.74	-110.000
865.03	-144.444
865.33	-107.143
865.62	207.143
865.92	-26.316
866.21	-100.000
866.51	-100.000
866.80	-22.222
867.10	-225.000
867.39	-56.250
867.69	-73.333
867.98	-120.000
868.27	-23.529
868.57	0.000
868.86	850.000
869.16	-350.000
869.45	-242.857
869.75	600.000
870.04	-180.000
870.33	-2100.000
870.63	-84.211
870.92	-158.333
871.22	-2200.000
871.51	-185.714
871.80	-244.444
872.10	-575.000
>>>>>End Processed Spectral Data<<<<<
