SpectraSuite Data File
++++++++++++++++++++++++++++++++++++
Date: Wed May 13 21:13:39 PDT 2015
User: schluterlab
Dark Spectrum Present: Yes
Reference Spectrum Present: Yes
Number of Sampled Component Spectra: 1
Spectrometers: USB2E3373
Integration Time (usec): 3000 (USB2E3373)
Spectra Averaged: 3 (USB2E3373)
Boxcar Smoothing: 0 (USB2E3373)
Correct for Electrical Dark: No (USB2E3373)
Strobe/Lamp Enabled: No (USB2E3373)
Correct for Detector Non-linearity: No (USB2E3373)
Correct for Stray Light: No (USB2E3373)
Number of Pixels in Processed Spectrum: 2048
>>>>>Begin Processed Spectral Data<<<<<
178.53	0.000
178.91	500.000
179.29	166.667
179.67	-850.000
180.04	-233.333
180.42	400.000
180.80	300.000
181.18	266.667
181.56	-250.000
181.94	-200.000
182.31	-18.182
182.69	161.538
183.07	-260.000
183.45	400.000
183.83	200.000
184.20	128.571
184.58	-33.333
184.96	333.333
185.34	171.429
185.72	0.000
186.09	-1300.000
186.47	-340.000
186.85	180.000
187.23	-150.000
187.61	450.000
187.98	900.000
188.36	-75.000
188.74	0.000
189.12	-109.091
189.49	-50.000
189.87	150.000
190.25	600.000
190.63	1400.000
191.00	-120.000
191.38	340.000
191.76	425.000
192.14	158.333
192.51	-10.526
192.89	500.000
193.27	375.000
193.65	-200.000
194.02	200.000
194.40	200.000
194.78	-700.000
195.15	360.000
195.53	-120.000
195.91	-25.000
196.29	-400.000
196.66	0.000
197.04	800.000
197.42	-60.000
197.79	-100.000
198.17	-125.000
198.55	-666.667
198.92	475.000
199.30	-633.333
199.68	-50.000
200.05	400.000
200.43	216.667
200.81	-900.000
201.18	-260.000
201.56	-166.667
201.94	600.000
202.31	4.348
202.69	-300.000
203.07	-500.000
203.44	-260.000
203.82	-500.000
204.19	-90.000
204.57	0.000
204.95	-233.333
205.32	0.000
205.70	-350.000
206.08	-250.000
206.45	-283.333
206.83	600.000
207.20	-566.667
207.58	-130.000
207.96	-2100.000
208.33	-171.429
208.71	-800.000
209.08	237.500
209.46	525.000
209.84	0.000
210.21	190.000
210.59	1700.000
210.96	480.000
211.34	1100.000
211.71	-800.000
212.09	-266.667
212.46	-180.000
212.84	-266.667
213.22	-75.000
213.59	-600.000
213.97	-400.000
214.34	-850.000
214.72	-30.769
215.09	150.000
215.47	200.000
215.84	400.000
216.22	-100.000
216.59	-100.000
216.97	800.000
217.34	200.000
217.72	0.000
218.09	266.667
218.47	200.000
218.84	-257.143
219.22	-150.000
219.59	-200.000
219.97	-250.000
220.34	-137.500
220.72	-280.000
221.09	0.000
221.47	-183.333
221.84	-600.000
222.22	0.000
222.59	1900.000
222.97	-500.000
223.34	-133.333
223.72	-1100.000
224.09	-750.000
224.46	0.000
224.84	-100.000
225.21	-185.714
225.59	-450.000
225.96	-266.667
226.34	-40.000
226.71	-285.714
227.08	750.000
227.46	-87.500
227.83	-1000.000
228.21	-12.500
228.58	-225.000
228.95	-17.647
229.33	-6.250
229.70	-100.000
230.08	-107.692
230.45	-237.500
230.82	-83.333
231.20	271.429
231.57	-225.000
231.95	1600.000
232.32	-66.667
232.69	-29.412
233.07	-2100.000
233.44	-4.348
233.81	-600.000
234.19	-12.500
234.56	-46.667
234.93	-86.667
235.31	10.526
235.68	-84.615
236.05	-61.538
236.43	-38.889
236.80	-27.273
237.17	-66.667
237.55	-70.588
237.92	-48.276
238.29	-48.148
238.67	-5.556
239.04	-61.290
239.41	-36.170
239.79	25.532
240.16	-30.233
240.53	-10.714
240.91	-8.929
241.28	-19.643
241.65	-3.226
242.02	-10.526
242.40	-5.797
242.77	-23.188
243.14	-6.410
243.51	0.000
243.89	5.769
244.26	4.717
244.63	-5.769
245.00	-3.125
245.38	-5.882
245.75	-8.197
246.12	-3.008
246.49	-8.130
246.87	-10.084
247.24	-0.676
247.61	-2.649
247.98	-7.051
248.36	-0.592
248.73	-3.933
249.10	-3.030
249.47	-2.688
249.84	4.737
250.22	-1.493
250.59	-2.336
250.96	-2.273
251.33	-10.048
251.70	3.766
252.08	0.000
252.45	2.881
252.82	4.183
253.19	1.556
253.56	1.079
253.94	3.203
254.31	3.169
254.68	3.691
255.05	1.320
255.42	0.000
255.79	-0.307
256.16	4.101
256.54	0.000
256.91	-1.899
257.28	1.887
257.65	-0.637
258.02	1.760
258.39	0.292
258.76	-1.453
259.14	0.284
259.51	0.281
259.88	1.897
260.25	1.389
260.62	-1.404
260.99	1.857
261.36	3.627
261.73	-0.247
262.10	-0.763
262.47	0.741
262.85	0.746
263.22	-0.256
263.59	1.299
263.96	0.730
264.33	-2.163
264.70	2.791
265.07	3.472
265.44	2.759
265.81	3.204
266.18	-0.683
266.55	0.437
266.92	-0.636
267.29	1.646
267.66	3.185
268.03	2.675
268.40	-0.212
268.77	0.413
269.14	4.694
269.51	5.339
269.88	-0.407
270.25	2.754
270.62	2.049
270.99	3.346
271.36	1.389
271.73	0.602
272.10	3.429
272.47	0.960
272.84	2.559
273.21	0.783
273.58	-0.205
273.95	1.321
274.32	2.985
274.69	3.461
275.06	4.240
275.43	1.507
275.80	2.305
276.17	2.578
276.54	3.020
276.91	2.962
277.28	1.083
277.65	5.420
278.02	3.393
278.39	1.776
278.76	4.849
279.13	1.715
279.50	1.897
279.87	-0.181
280.23	1.441
280.60	0.692
280.97	1.786
281.34	3.470
281.71	1.626
282.08	0.684
282.45	1.967
282.82	0.639
283.19	4.116
283.56	2.031
283.92	2.446
284.29	2.028
284.66	2.142
285.03	-0.163
285.40	2.417
285.77	3.453
286.14	2.584
286.51	3.148
286.87	1.692
287.24	1.327
287.61	3.464
287.98	2.794
288.35	1.192
288.72	4.878
289.08	4.131
289.45	1.909
289.82	2.723
290.19	3.226
290.56	2.273
290.93	1.796
291.29	0.684
291.66	2.049
292.03	3.270
292.40	2.423
292.77	2.410
293.13	3.487
293.50	1.569
293.87	3.867
294.24	3.704
294.60	3.901
294.97	3.307
295.34	0.660
295.71	1.708
296.08	0.654
296.44	-0.128
296.81	1.827
297.18	2.625
297.55	2.594
297.91	2.112
298.28	1.453
298.65	2.709
299.02	2.808
299.38	0.982
299.75	2.163
300.12	1.047
300.48	1.170
300.85	1.732
301.22	1.974
301.59	2.582
301.95	0.697
302.32	2.800
302.69	1.469
303.05	0.554
303.42	2.500
303.79	3.365
304.15	2.191
304.52	2.473
304.89	1.107
305.25	0.768
305.62	1.518
305.99	2.394
306.35	3.135
306.72	3.154
307.09	3.128
307.45	3.195
307.82	2.421
308.19	1.672
308.55	2.354
308.92	2.259
309.29	2.803
309.65	3.497
310.02	3.280
310.38	2.846
310.75	3.057
311.12	3.013
311.48	3.066
311.85	2.461
312.22	4.062
312.58	3.092
312.95	3.682
313.31	5.418
313.68	4.294
314.05	4.820
314.41	4.707
314.78	5.882
315.14	5.833
315.51	5.899
315.87	5.561
316.24	6.061
316.61	7.306
316.97	7.870
317.34	6.595
317.70	7.672
318.07	8.784
318.43	8.672
318.80	8.813
319.16	9.814
319.53	9.050
319.89	9.575
320.26	10.998
320.62	10.843
320.99	11.434
321.35	11.880
321.72	12.320
322.08	14.483
322.45	15.449
322.81	16.359
323.18	16.816
323.54	16.787
323.91	17.615
324.27	18.542
324.64	17.944
325.00	19.773
325.37	20.990
325.73	21.044
326.10	21.615
326.46	23.746
326.83	25.243
327.19	24.146
327.56	26.108
327.92	26.710
328.29	28.965
328.65	28.747
329.01	27.792
329.38	30.261
329.74	29.785
330.11	31.380
330.47	31.076
330.84	32.581
331.20	32.365
331.56	32.518
331.93	34.798
332.29	35.013
332.66	34.322
333.02	34.752
333.38	35.702
333.75	36.177
334.11	35.937
334.48	36.530
334.84	34.982
335.20	36.964
335.57	38.381
335.93	36.426
336.29	37.128
336.66	36.325
337.02	37.913
337.38	36.989
337.75	37.898
338.11	36.550
338.47	38.099
338.84	38.574
339.20	40.035
339.56	39.334
339.93	40.017
340.29	40.137
340.65	40.291
341.02	39.767
341.38	39.696
341.74	37.899
342.11	39.472
342.47	39.163
342.83	40.033
343.20	41.540
343.56	40.801
343.92	40.130
344.28	40.909
344.65	40.490
345.01	40.517
345.37	42.352
345.73	41.667
346.10	41.894
346.46	41.789
346.82	41.573
347.19	41.377
347.55	42.973
347.91	42.011
348.27	42.350
348.63	42.949
349.00	41.745
349.36	42.151
349.72	42.150
350.08	42.668
350.45	42.756
350.81	43.349
351.17	43.957
351.53	42.891
351.89	42.017
352.26	42.471
352.62	43.256
352.98	44.489
353.34	44.605
353.70	43.614
354.07	44.863
354.43	43.468
354.79	45.513
355.15	44.255
355.51	43.356
355.87	44.488
356.24	45.185
356.60	45.113
356.96	45.510
357.32	44.195
357.68	44.309
358.04	44.608
358.40	45.891
358.77	46.865
359.13	45.681
359.49	44.587
359.85	45.489
360.21	47.032
360.57	46.160
360.93	47.193
361.29	48.113
361.66	46.925
362.02	45.441
362.38	46.677
362.74	47.281
363.10	47.144
363.46	46.974
363.82	47.672
364.18	46.048
364.54	48.651
364.90	47.178
365.26	47.275
365.62	48.224
365.98	47.616
366.35	48.723
366.71	48.573
367.07	46.704
367.43	47.387
367.79	49.409
368.15	49.015
368.51	48.805
368.87	49.756
369.23	48.327
369.59	48.767
369.95	49.927
370.31	47.908
370.67	49.819
371.03	49.592
371.39	49.042
371.75	49.571
372.11	50.000
372.47	49.531
372.83	49.307
373.19	50.144
373.55	50.217
373.91	50.071
374.27	49.101
374.63	50.427
374.99	49.443
375.35	49.452
375.71	49.728
376.07	51.953
376.42	50.267
376.78	51.255
377.14	51.593
377.50	51.173
377.86	51.726
378.22	52.086
378.58	50.631
378.94	51.375
379.30	51.655
379.66	51.541
380.02	50.735
380.38	52.048
380.74	50.926
381.09	52.413
381.45	52.056
381.81	52.680
382.17	51.355
382.53	51.015
382.89	51.930
383.25	52.222
383.61	52.058
383.97	51.500
384.32	53.623
384.68	52.992
385.04	52.046
385.40	53.051
385.76	52.616
386.12	53.002
386.48	53.229
386.83	53.630
387.19	52.930
387.55	53.035
387.91	52.952
388.27	53.329
388.62	53.433
388.98	53.379
389.34	52.945
389.70	51.709
390.06	52.313
390.42	53.995
390.77	53.555
391.13	53.093
391.49	53.131
391.85	52.204
392.20	54.073
392.56	52.444
392.92	52.779
393.28	52.353
393.64	53.761
393.99	51.040
394.35	52.963
394.71	53.462
395.07	49.937
395.42	53.321
395.78	53.797
396.14	54.280
396.50	53.139
396.85	52.645
397.21	52.747
397.57	52.422
397.92	52.216
398.28	52.623
398.64	52.641
399.00	53.069
399.35	54.030
399.71	52.825
400.07	52.530
400.42	52.915
400.78	51.480
401.14	52.054
401.49	53.925
401.85	52.150
402.21	53.746
402.57	52.606
402.92	52.503
403.28	52.158
403.63	52.883
403.99	54.255
404.35	53.491
404.70	52.205
405.06	53.259
405.42	52.764
405.77	51.728
406.13	52.229
406.49	52.067
406.84	51.709
407.20	51.451
407.55	52.987
407.91	52.085
408.27	50.717
408.62	52.670
408.98	52.466
409.34	52.104
409.69	53.216
410.05	51.741
410.40	51.613
410.76	51.143
411.11	52.363
411.47	52.356
411.83	51.466
412.18	52.330
412.54	52.193
412.89	52.476
413.25	50.619
413.60	51.536
413.96	51.436
414.31	51.726
414.67	52.127
415.03	52.165
415.38	50.198
415.74	51.397
416.09	50.826
416.45	51.948
416.80	51.946
417.16	52.429
417.51	51.172
417.87	50.595
418.22	52.165
418.58	50.460
418.93	51.161
419.29	52.475
419.64	51.145
420.00	51.937
420.35	50.687
420.71	50.701
421.06	51.661
421.42	52.311
421.77	52.081
422.12	50.659
422.48	50.709
422.83	52.924
423.19	51.696
423.54	52.238
423.90	51.188
424.25	51.993
424.61	51.818
424.96	51.804
425.31	48.402
425.67	51.558
426.02	52.238
426.38	52.488
426.73	51.680
427.09	51.845
427.44	51.204
427.79	51.306
428.15	50.826
428.50	51.782
428.85	50.800
429.21	51.154
429.56	50.903
429.92	51.796
430.27	51.943
430.62	50.577
430.98	51.031
431.33	51.478
431.68	49.947
432.04	50.761
432.39	50.635
432.74	50.828
433.10	51.830
433.45	49.349
433.80	51.207
434.16	49.918
434.51	50.924
434.86	51.237
435.22	51.047
435.57	50.061
435.92	50.905
436.28	49.009
436.63	50.520
436.98	51.234
437.34	50.244
437.69	50.236
438.04	50.538
438.39	51.183
438.75	49.702
439.10	51.243
439.45	50.242
439.81	52.155
440.16	50.667
440.51	50.000
440.86	51.097
441.22	49.914
441.57	50.217
441.92	50.596
442.27	49.946
442.63	49.031
442.98	50.463
443.33	49.210
443.68	49.394
444.03	50.373
444.39	49.628
444.74	48.868
445.09	50.330
445.44	49.070
445.79	50.749
446.15	50.028
446.50	49.890
446.85	50.722
447.20	51.019
447.55	49.524
447.91	49.382
448.26	50.314
448.61	50.978
448.96	50.740
449.31	49.857
449.66	48.525
450.02	49.574
450.37	50.470
450.72	48.967
451.07	49.781
451.42	48.721
451.77	50.091
452.12	48.901
452.47	49.709
452.83	49.705
453.18	50.732
453.53	50.189
453.88	49.458
454.23	51.731
454.58	49.571
454.93	49.198
455.28	49.004
455.63	49.782
455.98	49.665
456.34	48.887
456.69	49.649
457.04	48.607
457.39	49.308
457.74	47.876
458.09	49.704
458.44	48.766
458.79	47.227
459.14	47.640
459.49	48.963
459.84	47.802
460.19	48.980
460.54	48.783
460.89	49.155
461.24	49.507
461.59	49.879
461.94	49.368
462.29	49.326
462.64	48.219
462.99	49.363
463.34	49.102
463.69	48.840
464.04	47.779
464.39	49.176
464.74	47.052
465.09	48.419
465.44	47.587
465.79	48.476
466.14	47.320
466.49	48.035
466.84	47.460
467.19	48.089
467.54	48.866
467.89	47.832
468.24	48.002
468.59	47.674
468.94	47.637
469.29	48.116
469.64	48.954
469.99	49.034
470.34	48.281
470.68	47.881
471.03	46.474
471.38	45.897
471.73	47.668
472.08	46.942
472.43	47.361
472.78	47.059
473.13	46.768
473.48	46.902
473.83	47.709
474.17	46.875
474.52	48.220
474.87	46.502
475.22	46.981
475.57	46.124
475.92	47.001
476.27	46.445
476.61	46.433
476.96	46.659
477.31	46.818
477.66	47.345
478.01	46.923
478.36	46.158
478.70	46.455
479.05	47.003
479.40	45.450
479.75	47.768
480.10	46.150
480.45	45.316
480.79	47.088
481.14	46.707
481.49	46.522
481.84	46.466
482.19	45.669
482.53	45.381
482.88	46.405
483.23	45.861
483.58	45.794
483.92	46.498
484.27	45.517
484.62	45.628
484.97	45.500
485.31	44.488
485.66	42.347
486.01	42.895
486.36	42.975
486.70	43.295
487.05	44.327
487.40	44.561
487.75	44.531
488.09	44.198
488.44	45.286
488.79	46.442
489.13	44.453
489.48	45.062
489.83	44.261
490.17	45.710
490.52	46.704
490.87	44.738
491.22	45.313
491.56	46.047
491.91	44.983
492.26	46.132
492.60	44.829
492.95	45.141
493.30	45.107
493.64	44.844
493.99	44.976
494.34	44.653
494.68	44.582
495.03	44.664
495.37	44.039
495.72	45.313
496.07	45.397
496.41	44.736
496.76	43.601
497.11	44.601
497.45	46.206
497.80	45.482
498.14	45.139
498.49	44.629
498.84	45.395
499.18	43.604
499.53	43.919
499.87	44.153
500.22	44.450
500.56	44.634
500.91	44.618
501.26	44.581
501.60	44.069
501.95	43.555
502.29	44.078
502.64	43.635
502.98	44.412
503.33	43.844
503.67	44.304
504.02	43.873
504.36	42.100
504.71	43.852
505.06	44.371
505.40	43.918
505.75	43.642
506.09	43.894
506.44	44.052
506.78	43.829
507.13	43.919
507.47	43.955
507.82	43.380
508.16	43.694
508.51	42.820
508.85	43.339
509.19	43.228
509.54	44.129
509.88	42.688
510.23	43.105
510.57	44.121
510.92	43.157
511.26	44.994
511.61	43.194
511.95	42.834
512.30	43.254
512.64	43.814
512.98	44.211
513.33	43.099
513.67	43.441
514.02	43.330
514.36	42.978
514.70	44.342
515.05	44.646
515.39	42.807
515.74	44.642
516.08	42.714
516.42	43.433
516.77	43.234
517.11	42.622
517.46	44.778
517.80	44.431
518.14	43.417
518.49	42.917
518.83	43.795
519.17	41.627
519.52	42.642
519.86	43.291
520.20	43.360
520.55	42.973
520.89	43.643
521.23	44.615
521.58	43.173
521.92	43.180
522.26	43.136
522.61	43.116
522.95	43.329
523.29	42.476
523.64	42.912
523.98	42.948
524.32	42.722
524.66	42.078
525.01	43.447
525.35	42.989
525.69	43.539
526.04	42.280
526.38	43.403
526.72	42.998
527.06	42.424
527.41	41.959
527.75	42.123
528.09	42.886
528.43	42.673
528.78	42.313
529.12	42.173
529.46	41.139
529.80	40.712
530.15	41.506
530.49	41.846
530.83	43.060
531.17	42.603
531.51	41.133
531.86	41.734
532.20	41.489
532.54	41.310
532.88	41.321
533.22	41.077
533.57	40.795
533.91	42.194
534.25	41.862
534.59	41.506
534.93	40.689
535.27	40.892
535.62	41.053
535.96	41.379
536.30	41.556
536.64	40.055
536.98	40.925
537.32	40.712
537.66	40.691
538.01	40.985
538.35	40.677
538.69	40.134
539.03	40.268
539.37	39.302
539.71	39.836
540.05	39.001
540.39	40.262
540.73	40.154
541.07	39.660
541.42	40.337
541.76	39.581
542.10	38.524
542.44	40.333
542.78	39.278
543.12	39.757
543.46	40.014
543.80	37.950
544.14	39.780
544.48	38.155
544.82	38.265
545.16	39.148
545.50	40.041
545.84	38.569
546.18	38.710
546.52	39.450
546.86	37.597
547.20	39.099
547.54	39.028
547.88	40.013
548.22	39.023
548.56	38.426
548.90	38.769
549.24	39.236
549.58	39.075
549.92	40.132
550.26	39.926
550.60	39.114
550.94	38.582
551.28	39.743
551.62	39.699
551.96	38.433
552.30	37.991
552.64	37.853
552.98	38.991
553.32	38.068
553.66	38.371
554.00	37.293
554.34	37.216
554.68	38.255
555.02	38.847
555.36	38.729
555.69	38.529
556.03	37.884
556.37	36.913
556.71	37.071
557.05	38.376
557.39	37.151
557.73	37.821
558.07	36.925
558.41	37.547
558.75	37.490
559.08	38.332
559.42	38.788
559.76	36.697
560.10	36.587
560.44	36.920
560.78	37.122
561.12	38.052
561.45	36.190
561.79	37.414
562.13	37.623
562.47	38.857
562.81	39.177
563.15	37.110
563.48	35.582
563.82	36.115
564.16	37.035
564.50	38.060
564.84	35.473
565.17	36.424
565.51	35.896
565.85	35.710
566.19	36.358
566.52	36.501
566.86	36.283
567.20	35.980
567.54	35.176
567.88	34.882
568.21	34.764
568.55	33.751
568.89	34.347
569.23	34.005
569.56	33.834
569.90	32.285
570.24	32.419
570.57	32.685
570.91	32.823
571.25	31.911
571.59	30.698
571.92	31.769
572.26	32.462
572.60	32.307
572.93	32.365
573.27	31.764
573.61	32.018
573.95	31.835
574.28	31.683
574.62	30.708
574.96	31.373
575.29	31.469
575.63	31.481
575.97	31.685
576.30	31.608
576.64	31.412
576.98	31.660
577.31	30.927
577.65	30.175
577.98	30.478
578.32	30.425
578.66	30.308
578.99	30.610
579.33	30.535
579.67	31.186
580.00	31.006
580.34	30.902
580.67	30.671
581.01	30.457
581.35	29.973
581.68	29.926
582.02	30.180
582.35	30.026
582.69	30.261
583.02	30.078
583.36	30.200
583.70	30.382
584.03	30.925
584.37	30.301
584.70	30.652
585.04	29.792
585.37	29.648
585.71	29.764
586.04	30.451
586.38	29.887
586.72	30.205
587.05	30.682
587.39	30.057
587.72	30.426
588.06	29.904
588.39	29.779
588.73	29.844
589.06	30.812
589.40	29.962
589.73	30.722
590.07	30.368
590.40	30.292
590.73	31.321
591.07	31.509
591.40	30.870
591.74	31.169
592.07	31.538
592.41	30.459
592.74	30.864
593.08	29.265
593.41	29.865
593.75	29.264
594.08	29.499
594.41	30.311
594.75	29.985
595.08	30.060
595.42	29.707
595.75	29.356
596.09	30.485
596.42	30.065
596.75	30.847
597.09	30.573
597.42	30.642
597.75	30.444
598.09	29.508
598.42	29.709
598.76	30.395
599.09	30.172
599.42	29.041
599.76	28.990
600.09	29.255
600.42	28.776
600.76	29.564
601.09	29.266
601.42	30.067
601.76	29.421
602.09	29.793
602.42	29.798
602.76	29.446
603.09	29.651
603.42	28.509
603.76	28.839
604.09	28.656
604.42	29.217
604.76	29.507
605.09	29.089
605.42	30.409
605.75	29.036
606.09	27.856
606.42	29.593
606.75	28.571
607.09	28.812
607.42	30.342
607.75	27.921
608.08	29.396
608.42	29.288
608.75	29.193
609.08	28.956
609.41	29.160
609.75	29.299
610.08	29.931
610.41	29.786
610.74	29.259
611.07	28.808
611.41	29.632
611.74	28.727
612.07	28.713
612.40	29.243
612.73	28.979
613.07	28.991
613.40	30.341
613.73	29.090
614.06	28.635
614.39	29.628
614.72	29.872
615.06	28.500
615.39	29.801
615.72	28.834
616.05	29.223
616.38	29.954
616.71	29.514
617.05	29.730
617.38	27.665
617.71	28.370
618.04	29.190
618.37	29.274
618.70	29.819
619.03	29.828
619.36	30.391
619.69	30.556
620.03	29.399
620.36	28.532
620.69	29.336
621.02	29.615
621.35	30.172
621.68	30.725
622.01	30.987
622.34	29.738
622.67	29.366
623.00	30.015
623.33	29.843
623.66	28.550
623.99	29.707
624.32	28.613
624.65	30.415
624.99	29.758
625.32	29.350
625.65	28.450
625.98	29.700
626.31	29.061
626.64	29.149
626.97	29.585
627.30	30.453
627.63	29.931
627.96	29.351
628.29	31.442
628.62	30.464
628.95	30.461
629.28	30.049
629.61	30.622
629.94	29.884
630.26	30.640
630.59	29.870
630.92	29.518
631.25	29.454
631.58	30.621
631.91	29.586
632.24	31.284
632.57	30.556
632.90	31.622
633.23	31.535
633.56	31.535
633.89	31.100
634.22	31.449
634.55	32.278
634.88	29.044
635.20	31.125
635.53	30.491
635.86	29.231
636.19	31.762
636.52	30.854
636.85	29.674
637.18	29.598
637.51	29.463
637.83	30.548
638.16	29.067
638.49	30.307
638.82	30.980
639.15	32.314
639.48	30.749
639.81	31.111
640.13	31.690
640.46	31.921
640.79	29.784
641.12	30.621
641.45	29.694
641.77	28.424
642.10	30.560
642.43	32.233
642.76	31.073
643.09	30.671
643.41	30.941
643.74	30.372
644.07	30.097
644.40	31.841
644.73	30.339
645.05	31.763
645.38	30.066
645.71	30.782
646.04	28.283
646.36	30.556
646.69	30.070
647.02	32.240
647.35	32.358
647.67	30.869
648.00	29.710
648.33	29.831
648.66	31.052
648.98	29.193
649.31	28.834
649.64	26.761
649.96	29.384
650.29	29.412
650.62	29.325
650.94	29.483
651.27	29.859
651.60	30.245
651.92	30.824
652.25	30.821
652.58	28.878
652.90	28.956
653.23	30.051
653.56	27.603
653.88	26.792
654.21	28.840
654.54	27.741
654.86	26.829
655.19	25.350
655.52	26.177
655.84	22.062
656.17	26.460
656.49	34.570
656.82	34.502
657.15	26.278
657.47	19.745
657.80	14.946
658.13	16.063
658.45	24.143
658.78	24.160
659.10	24.560
659.43	25.092
659.75	25.575
660.08	26.345
660.41	26.369
660.73	26.860
661.06	26.361
661.38	28.101
661.71	31.352
662.03	30.233
662.36	29.867
662.68	30.538
663.01	29.237
663.33	28.510
663.66	28.381
663.98	32.135
664.31	30.989
664.63	21.847
664.96	31.291
665.28	32.189
665.61	28.078
665.93	30.193
666.26	31.435
666.58	28.266
666.91	32.287
667.23	27.880
667.56	27.126
667.88	31.542
668.21	28.571
668.53	28.966
668.86	31.175
669.18	28.369
669.50	27.650
669.83	30.072
670.15	28.333
670.48	25.747
670.80	28.884
671.13	26.545
671.45	29.224
671.77	25.862
672.10	28.265
672.42	25.382
672.75	24.464
673.07	24.727
673.39	29.104
673.72	28.942
674.04	27.664
674.37	25.610
674.69	23.663
675.01	27.564
675.34	29.978
675.66	29.194
675.98	27.212
676.31	29.864
676.63	29.252
676.95	27.765
677.28	26.606
677.60	26.471
677.92	30.377
678.25	26.030
678.57	28.513
678.89	26.439
679.22	25.466
679.54	27.143
679.86	26.758
680.18	27.885
680.51	25.962
680.83	23.977
681.15	25.147
681.48	25.651
681.80	26.585
682.12	26.042
682.44	24.748
682.77	25.263
683.09	26.562
683.41	26.512
683.73	23.661
684.06	27.655
684.38	23.291
684.70	24.440
685.02	26.033
685.34	24.070
685.67	24.390
685.99	25.089
686.31	24.138
686.63	23.897
686.96	24.119
687.28	23.553
687.60	23.629
687.92	25.292
688.24	23.400
688.56	28.070
688.89	21.826
689.21	25.561
689.53	21.847
689.85	25.618
690.17	26.593
690.49	23.430
690.82	24.105
691.14	23.671
691.46	26.450
691.78	24.615
692.10	26.539
692.42	21.978
692.74	26.087
693.06	21.573
693.39	22.951
693.71	24.667
694.03	24.773
694.35	28.604
694.67	25.000
694.99	25.773
695.31	22.739
695.63	25.610
695.95	23.410
696.27	23.836
696.59	23.925
696.91	24.022
697.23	23.096
697.56	25.180
697.88	24.116
698.20	25.918
698.52	18.925
698.84	24.880
699.16	24.586
699.48	21.728
699.80	24.031
700.12	25.201
700.44	23.380
700.76	24.438
701.08	23.263
701.40	24.251
701.72	21.231
702.04	21.384
702.36	22.256
702.68	20.122
703.00	26.316
703.32	25.348
703.64	22.892
703.96	26.393
704.28	23.795
704.60	24.695
704.91	21.944
705.23	21.835
705.55	21.724
705.87	25.704
706.19	21.978
706.51	23.592
706.83	24.522
707.15	23.780
707.47	22.314
707.79	20.558
708.11	20.051
708.43	24.873
708.74	20.479
709.06	22.460
709.38	19.597
709.70	25.526
710.02	23.988
710.34	19.667
710.66	19.218
710.98	21.672
711.29	23.052
711.61	21.613
711.93	24.839
712.25	18.881
712.57	20.351
712.89	21.978
713.20	28.723
713.52	20.438
713.84	22.581
714.16	20.388
714.48	23.734
714.80	19.169
715.11	25.581
715.43	21.118
715.75	27.019
716.07	25.301
716.39	25.589
716.70	25.540
717.02	20.000
717.34	21.591
717.66	20.259
717.97	19.841
718.29	26.772
718.61	18.455
718.93	22.481
719.24	21.402
719.56	19.101
719.88	18.284
720.20	22.925
720.51	23.828
720.83	21.401
721.15	18.699
721.46	17.939
721.78	19.920
722.10	19.522
722.42	18.145
722.73	19.305
723.05	20.408
723.37	27.311
723.68	18.000
724.00	12.766
724.32	25.105
724.63	22.222
724.95	15.812
725.27	21.519
725.58	24.691
725.90	20.921
726.22	21.739
726.53	12.941
726.85	21.898
727.16	22.222
727.48	18.391
727.80	25.000
728.11	17.213
728.43	16.406
728.74	16.270
729.06	15.200
729.38	21.739
729.69	23.132
730.01	19.703
730.32	17.712
730.64	18.182
730.96	22.727
731.27	14.716
731.59	20.000
731.90	19.741
732.22	18.910
732.53	19.932
732.85	14.765
733.16	20.462
733.48	20.608
733.80	14.865
734.11	20.946
734.43	17.028
734.74	21.021
735.06	19.885
735.37	19.149
735.69	21.036
736.00	16.172
736.32	16.667
736.63	17.586
736.95	16.096
737.26	16.207
737.58	17.361
737.89	18.557
738.21	20.996
738.52	18.251
738.83	17.551
739.15	18.143
739.46	17.510
739.78	18.310
740.09	17.466
740.41	15.714
740.72	15.248
741.04	10.400
741.35	14.912
741.66	17.778
741.98	17.308
742.29	21.782
742.61	16.098
742.92	20.614
743.23	16.509
743.55	17.117
743.86	17.040
744.18	22.549
744.49	18.274
744.80	18.878
745.12	18.224
745.43	18.009
745.74	15.766
746.06	18.224
746.37	12.844
746.68	19.231
747.00	19.139
747.31	20.192
747.62	18.349
747.94	21.397
748.25	19.725
748.56	19.111
748.88	20.657
749.19	21.429
749.50	15.049
749.82	15.023
750.13	10.000
750.44	16.154
750.75	15.498
751.07	17.794
751.38	19.504
751.69	15.444
752.01	17.578
752.32	17.308
752.63	17.537
752.94	15.200
753.26	17.992
753.57	17.083
753.88	16.599
754.19	13.546
754.51	17.669
754.82	13.553
755.13	11.739
755.44	18.699
755.75	16.800
756.07	13.284
756.38	19.065
756.69	12.969
757.00	15.576
757.31	14.887
757.63	14.198
757.94	19.774
758.25	17.460
758.56	14.402
758.87	16.369
759.18	20.189
759.50	16.162
759.81	14.716
760.12	15.077
760.43	11.012
760.74	14.407
761.05	16.298
761.36	14.327
761.67	15.710
761.99	14.089
762.30	16.423
762.61	11.523
762.92	14.103
763.23	21.311
763.54	18.182
763.85	15.510
764.16	16.667
764.47	13.600
764.78	15.714
765.10	15.410
765.41	17.629
765.72	17.081
766.03	14.851
766.34	19.231
766.65	12.552
766.96	16.432
767.27	15.347
767.58	6.180
767.89	16.667
768.20	12.707
768.51	18.593
768.82	20.673
769.13	13.717
769.44	10.879
769.75	10.684
770.06	13.453
770.37	13.725
770.68	16.990
770.99	15.049
771.30	15.126
771.61	13.061
771.92	17.012
772.23	16.667
772.54	12.155
772.85	7.558
773.16	16.931
773.47	5.325
773.78	13.218
774.09	17.500
774.39	9.938
774.70	12.925
775.01	12.414
775.32	22.857
775.63	14.286
775.94	9.774
776.25	11.200
776.56	7.438
776.87	11.111
777.18	5.405
777.48	10.811
777.79	8.661
778.10	15.596
778.41	-2.632
778.72	8.403
779.03	10.563
779.34	10.811
779.65	14.085
779.95	9.934
780.26	7.914
780.57	19.424
780.88	9.155
781.19	11.765
781.50	13.423
781.80	9.942
782.11	11.047
782.42	15.094
782.73	13.072
783.04	5.517
783.34	11.450
783.65	10.067
783.96	6.923
784.27	15.714
784.57	7.092
784.88	0.962
785.19	27.273
785.50	14.545
785.81	3.810
786.11	11.765
786.42	6.195
786.73	0.943
787.04	-0.917
787.34	3.960
787.65	18.333
787.96	9.917
788.26	10.870
788.57	9.524
788.88	10.569
789.19	10.400
789.49	6.107
789.80	15.909
790.11	18.868
790.41	7.921
790.72	9.574
791.03	6.522
791.33	4.706
791.64	9.877
791.95	10.870
792.25	15.909
792.56	16.667
792.87	2.564
793.17	-2.564
793.48	3.571
793.79	16.250
794.09	14.423
794.40	5.208
794.70	9.910
795.01	9.375
795.32	6.957
795.62	-1.087
795.93	12.264
796.23	15.152
796.54	4.878
796.85	17.857
797.15	-4.545
797.46	-10.145
797.76	1.316
798.07	0.000
798.37	8.537
798.68	-6.452
798.99	1.351
799.29	28.916
799.60	14.103
799.90	13.846
800.21	12.121
800.51	0.000
800.82	4.000
801.12	-10.417
801.43	-6.667
801.73	0.000
802.04	10.000
802.34	-1.639
802.65	14.925
802.95	-7.273
803.26	-1.724
803.56	0.000
803.87	-1.887
804.17	-1.613
804.48	-5.882
804.78	-9.756
805.09	17.391
805.39	5.882
805.70	-8.511
806.00	-10.526
806.30	0.000
806.61	2.632
806.91	4.054
807.22	2.632
807.52	0.000
807.83	-22.034
808.13	-16.667
808.43	3.333
808.74	-18.966
809.04	7.937
809.35	4.082
809.65	-11.667
809.95	-24.490
810.26	12.676
810.56	-18.750
810.86	-24.490
811.17	17.308
811.47	-4.255
811.77	8.333
812.08	1.887
812.38	-25.000
812.69	-9.091
812.99	4.878
813.29	-24.324
813.59	5.405
813.90	-3.636
814.20	-14.545
814.50	-20.000
814.81	-3.636
815.11	3.509
815.41	23.256
815.72	-2.500
816.02	-5.714
816.32	-10.811
816.62	12.500
816.93	8.889
817.23	-26.667
817.53	-33.333
817.84	-27.027
818.14	-21.951
818.44	10.000
818.74	10.204
819.04	2.439
819.35	-22.222
819.65	-2.273
819.95	-94.444
820.25	-15.152
820.56	-14.286
820.86	-22.222
821.16	-2.273
821.46	-13.043
821.76	3.448
822.07	2.174
822.37	9.091
822.67	31.707
822.97	-16.216
823.27	-34.286
823.57	6.897
823.88	-8.824
824.18	2.778
824.48	-14.286
824.78	-14.286
825.08	-21.429
825.38	7.407
825.69	-25.806
825.99	17.073
826.29	-7.407
826.59	-12.500
826.89	-3.226
827.19	-56.522
827.49	-22.222
827.79	-78.261
828.09	-22.581
828.39	-2.083
828.70	-31.250
829.00	-3.448
829.30	5.405
829.60	-41.667
829.90	37.037
830.20	-6.250
830.50	-72.727
830.80	-58.824
831.10	-40.909
831.40	-14.706
831.70	11.538
832.00	-15.152
832.30	8.824
832.60	10.811
832.90	1800.000
833.20	-39.286
833.50	-100.000
833.80	-7.895
834.10	-25.000
834.40	-54.545
834.70	-93.333
835.00	-120.000
835.30	-58.333
835.60	-61.905
835.90	-33.333
836.20	-28.000
836.50	-50.000
836.80	-73.684
837.10	-27.027
837.40	-26.667
837.70	-34.783
838.00	0.000
838.30	-68.421
838.60	-110.000
838.90	-140.000
839.19	-191.667
839.49	-76.923
839.79	-5.263
840.09	-150.000
840.39	-140.000
840.69	-72.727
840.99	-47.619
841.29	-20.833
841.59	-100.000
841.88	-146.667
842.18	-135.714
842.48	30.000
842.78	-257.143
843.08	-64.286
843.38	-137.500
843.68	-68.750
843.97	7.143
844.27	-77.778
844.57	-181.818
844.87	-126.667
845.17	-36.364
845.47	633.333
845.76	-46.667
846.06	-175.000
846.36	-1150.000
846.66	-47.368
846.96	-4.545
847.25	-77.778
847.55	-255.556
847.85	-71.429
848.15	-23.077
848.44	-166.667
848.74	-150.000
849.04	-107.692
849.34	-150.000
849.63	-127.273
849.93	-150.000
850.23	-35.000
850.53	-250.000
850.82	-27.778
851.12	-20.000
851.42	-82.353
851.71	-200.000
852.01	0.000
852.31	-100.000
852.61	850.000
852.90	-41.176
853.20	33.333
853.50	-93.750
853.79	-92.857
854.09	-200.000
854.39	-80.000
854.68	-15.000
854.98	-52.381
855.28	-48.000
855.57	-50.000
855.87	-87.500
856.17	-24.000
856.46	-6.250
856.76	-15.000
857.05	28.000
857.35	-66.667
857.65	-70.588
857.94	-141.667
858.24	-158.333
858.53	-20.000
858.83	-127.273
859.13	12.000
859.42	-28.571
859.72	-175.000
860.01	-50.000
860.31	-187.500
860.60	-56.250
860.90	-200.000
861.20	-183.333
861.49	0.000
861.79	-37.500
862.08	450.000
862.38	-133.333
862.67	328.571
862.97	475.000
863.26	-81.818
863.56	-100.000
863.85	10.526
864.15	-35.294
864.44	-260.000
864.74	-200.000
865.03	-166.667
865.33	-42.857
865.62	207.143
865.92	-52.632
866.21	-111.111
866.51	-54.545
866.80	-122.222
867.10	-212.500
867.39	-6.250
867.69	-66.667
867.98	-100.000
868.27	-64.706
868.57	0.000
868.86	1200.000
869.16	-275.000
869.45	-271.429
869.75	700.000
870.04	-110.000
870.33	-1600.000
870.63	-15.789
870.92	-91.667
871.22	-1700.000
871.51	-142.857
871.80	-255.556
872.10	-200.000
>>>>>End Processed Spectral Data<<<<<
