SpectraSuite Data File
++++++++++++++++++++++++++++++++++++
Date: Wed May 13 21:28:42 PDT 2015
User: schluterlab
Dark Spectrum Present: Yes
Reference Spectrum Present: Yes
Number of Sampled Component Spectra: 1
Spectrometers: USB2E3373
Integration Time (usec): 3000 (USB2E3373)
Spectra Averaged: 3 (USB2E3373)
Boxcar Smoothing: 0 (USB2E3373)
Correct for Electrical Dark: No (USB2E3373)
Strobe/Lamp Enabled: No (USB2E3373)
Correct for Detector Non-linearity: No (USB2E3373)
Correct for Stray Light: No (USB2E3373)
Number of Pixels in Processed Spectrum: 2048
>>>>>Begin Processed Spectral Data<<<<<
178.53	0.000
178.91	650.000
179.29	200.000
179.67	-650.000
180.04	-466.667
180.42	60.000
180.80	1800.000
181.18	200.000
181.56	-375.000
181.94	-100.000
182.31	-27.273
182.69	123.077
183.07	-140.000
183.45	366.667
183.83	111.111
184.20	85.714
184.58	-33.333
184.96	333.333
185.34	228.571
185.72	0.000
186.09	-800.000
186.47	-380.000
186.85	20.000
187.23	-350.000
187.61	1050.000
187.98	2200.000
188.36	-87.500
188.74	0.000
189.12	-81.818
189.49	50.000
189.87	125.000
190.25	420.000
190.63	900.000
191.00	-200.000
191.38	240.000
191.76	225.000
192.14	116.667
192.51	-10.526
192.89	500.000
193.27	375.000
193.65	-180.000
194.02	163.636
194.40	270.000
194.78	-1000.000
195.15	340.000
195.53	-20.000
195.91	0.000
196.29	-333.333
196.66	0.000
197.04	500.000
197.42	-200.000
197.79	-50.000
198.17	-262.500
198.55	-133.333
198.92	125.000
199.30	-366.667
199.68	-10.000
200.05	-0.000
200.43	33.333
200.81	-1500.000
201.18	-80.000
201.56	-300.000
201.94	775.000
202.31	-8.696
202.69	-28.571
203.07	-333.333
203.44	-240.000
203.82	-233.333
204.19	20.000
204.57	0.000
204.95	-216.667
205.32	0.000
205.70	-200.000
206.08	-250.000
206.45	-66.667
206.83	550.000
207.20	-266.667
207.58	-160.000
207.96	-900.000
208.33	-100.000
208.71	-1600.000
209.08	250.000
209.46	200.000
209.84	0.000
210.21	100.000
210.59	2000.000
210.96	320.000
211.34	800.000
211.71	-850.000
212.09	-150.000
212.46	-200.000
212.84	-66.667
213.22	-50.000
213.59	-600.000
213.97	-450.000
214.34	-850.000
214.72	-53.846
215.09	225.000
215.47	188.889
215.84	750.000
216.22	-25.000
216.59	-400.000
216.97	500.000
217.34	288.889
217.72	0.000
218.09	200.000
218.47	-400.000
218.84	-185.714
219.22	-100.000
219.59	-33.333
219.97	-150.000
220.34	-37.500
220.72	-280.000
221.09	0.000
221.47	-50.000
221.84	-300.000
222.22	0.000
222.59	1000.000
222.97	-466.667
223.34	-16.667
223.72	-1400.000
224.09	-400.000
224.46	-18.182
224.84	100.000
225.21	-171.429
225.59	-375.000
225.96	50.000
226.34	-100.000
226.71	-157.143
227.08	750.000
227.46	-137.500
227.83	100.000
228.21	-6.250
228.58	-125.000
228.95	-58.824
229.33	-50.000
229.70	-75.000
230.08	-84.615
230.45	-87.500
230.82	-150.000
231.20	214.286
231.57	-275.000
231.95	1200.000
232.32	-16.667
232.69	-5.882
233.07	-1100.000
233.44	-4.348
233.81	-300.000
234.19	16.667
234.56	-46.667
234.93	-26.667
235.31	-26.316
235.68	-100.000
236.05	-107.692
236.43	-5.556
236.80	3.030
237.17	-53.333
237.55	-58.824
237.92	10.345
238.29	-37.037
238.67	5.556
239.04	16.129
239.41	14.894
239.79	23.404
240.16	27.907
240.53	30.357
240.91	23.214
241.28	3.571
241.65	24.194
242.02	18.421
242.40	26.087
242.77	7.246
243.14	20.513
243.51	27.660
243.89	18.269
244.26	31.132
244.63	20.192
245.00	20.833
245.38	17.647
245.75	19.672
246.12	20.301
246.49	20.325
246.87	16.807
247.24	23.649
247.61	20.530
247.98	24.359
248.36	29.586
248.73	19.101
249.10	22.222
249.47	19.892
249.84	32.105
250.22	29.851
250.59	22.897
250.96	28.182
251.33	18.660
251.70	25.105
252.08	28.870
252.45	30.453
252.82	26.616
253.19	26.848
253.56	23.741
253.94	31.673
254.31	27.465
254.68	28.188
255.05	29.703
255.42	25.874
255.79	26.380
256.16	32.808
256.54	26.349
256.91	26.899
257.28	27.673
257.65	28.344
258.02	27.566
258.39	28.363
258.76	27.326
259.14	25.568
259.51	26.685
259.88	27.642
260.25	27.778
260.62	25.562
260.99	27.586
261.36	26.684
261.73	27.901
262.10	26.718
262.47	25.432
262.85	23.134
263.22	30.513
263.59	30.909
263.96	30.414
264.33	26.683
264.70	27.209
265.07	28.704
265.44	25.747
265.81	28.833
266.18	27.107
266.55	25.983
266.92	27.754
267.29	29.424
267.66	30.573
268.03	28.189
268.40	26.695
268.77	26.653
269.14	26.735
269.51	31.006
269.88	28.513
270.25	28.814
270.62	25.410
270.99	28.937
271.36	26.190
271.73	29.719
272.10	28.952
272.47	28.599
272.84	30.315
273.21	24.266
273.58	29.918
273.95	26.792
274.32	27.612
274.69	28.780
275.06	27.385
275.43	29.190
275.80	28.546
276.17	26.151
276.54	27.353
276.91	28.571
277.28	27.437
277.65	25.524
278.02	28.929
278.39	27.709
278.76	27.592
279.13	28.645
279.50	27.414
279.87	27.717
280.23	27.027
280.60	28.028
280.97	27.273
281.34	30.126
281.71	25.528
282.08	27.179
282.45	28.197
282.82	26.837
283.19	27.896
283.56	28.594
283.92	26.453
284.29	26.209
284.66	26.030
285.03	24.267
285.40	28.852
285.77	26.276
286.14	27.052
286.51	26.537
286.87	27.385
287.24	26.549
287.61	26.657
287.98	25.882
288.35	26.230
288.72	25.681
289.08	26.781
289.45	25.404
289.82	25.416
290.19	26.087
290.56	24.432
290.93	25.138
291.29	23.393
291.66	24.863
292.03	26.158
292.40	22.611
292.77	25.569
293.13	24.826
293.50	22.092
293.87	26.133
294.24	23.942
294.60	22.497
294.97	24.868
295.34	21.636
295.71	21.288
296.08	21.335
296.44	22.066
296.81	21.924
297.18	23.000
297.55	22.759
297.91	22.609
298.28	22.276
298.65	23.645
299.02	22.955
299.38	21.104
299.75	22.476
300.12	20.116
300.48	19.064
300.85	21.478
301.22	20.906
301.59	22.535
301.95	20.093
302.32	19.487
302.69	20.226
303.05	20.266
303.42	20.114
303.79	19.348
304.15	21.030
304.52	21.290
304.89	21.484
305.25	19.868
305.62	20.499
305.99	21.328
306.35	20.272
306.72	20.346
307.09	20.229
307.45	21.086
307.82	17.895
308.19	18.391
308.55	19.038
308.92	20.138
309.29	20.821
309.65	20.579
310.02	19.881
310.38	20.732
310.75	19.231
311.12	19.145
311.48	18.595
311.85	20.079
312.22	19.729
312.58	19.517
312.95	19.502
313.31	19.651
313.68	20.134
314.05	19.565
314.41	19.789
314.78	20.873
315.14	19.167
315.51	19.696
315.87	20.760
316.24	19.100
316.61	19.635
316.97	18.704
317.34	18.895
317.70	20.339
318.07	18.988
318.43	20.687
318.80	19.721
319.16	19.363
319.53	18.190
319.89	18.338
320.26	19.963
320.62	18.999
320.99	18.798
321.35	18.148
321.72	18.768
322.08	18.819
322.45	20.537
322.81	20.425
323.18	18.605
323.54	19.856
323.91	20.416
324.27	18.722
324.64	17.509
325.00	18.898
325.37	19.198
325.73	18.182
326.10	18.167
326.46	19.398
326.83	19.337
327.19	18.537
327.56	20.145
327.92	19.389
328.29	20.033
328.65	19.106
329.01	18.558
329.38	21.043
329.74	18.884
330.11	19.116
330.47	19.010
330.84	19.946
331.20	19.727
331.56	19.475
331.93	19.724
332.29	20.156
332.66	19.576
333.02	19.809
333.38	19.035
333.75	20.051
334.11	19.878
334.48	19.006
334.84	18.021
335.20	20.240
335.57	19.930
335.93	18.127
336.29	18.039
336.66	18.376
337.02	19.652
337.38	18.712
337.75	19.466
338.11	17.933
338.47	19.092
338.84	17.955
339.20	19.136
339.56	18.771
339.93	20.052
340.29	17.848
340.65	20.103
341.02	18.968
341.38	19.257
341.74	17.731
342.11	18.084
342.47	18.326
342.83	19.036
343.20	19.712
343.56	18.724
343.92	19.415
344.28	19.643
344.65	18.449
345.01	17.353
345.37	19.655
345.73	19.608
346.10	20.385
346.46	19.512
346.82	18.379
347.19	18.750
347.55	19.225
347.91	18.394
348.27	17.192
348.63	19.311
349.00	18.789
349.36	18.917
349.72	19.335
350.08	18.721
350.45	19.577
350.81	18.310
351.17	18.938
351.53	17.832
351.89	17.236
352.26	17.220
352.62	19.147
352.98	18.131
353.34	16.747
353.70	18.146
354.07	18.980
354.43	18.585
354.79	18.510
355.15	18.711
355.51	18.679
355.87	17.748
356.24	18.620
356.60	18.217
356.96	17.575
357.32	18.034
357.68	16.960
358.04	18.929
358.40	17.752
358.77	18.119
359.13	18.288
359.49	18.244
359.85	17.741
360.21	18.196
360.57	17.947
360.93	19.120
361.29	17.691
361.66	18.831
362.02	17.939
362.38	18.685
362.74	16.969
363.10	18.510
363.46	17.579
363.82	16.999
364.18	17.549
364.54	17.870
364.90	17.143
365.26	17.834
365.62	18.324
365.98	17.936
366.35	18.014
366.71	16.976
367.07	17.222
367.43	17.770
367.79	18.416
368.15	17.018
368.51	17.159
368.87	18.772
369.23	16.370
369.59	18.041
369.95	17.199
370.31	17.434
370.67	16.582
371.03	17.966
371.39	18.524
371.75	17.929
372.11	17.094
372.47	18.097
372.83	17.961
373.19	16.978
373.55	17.991
373.91	17.468
374.27	17.220
374.63	17.923
374.99	17.201
375.35	17.877
375.71	17.459
376.07	18.095
376.42	16.444
376.78	17.768
377.14	17.695
377.50	18.840
377.86	17.795
378.22	18.078
378.58	16.961
378.94	18.438
379.30	18.301
379.66	18.372
380.02	17.341
380.38	18.133
380.74	17.812
381.09	17.491
381.45	18.017
381.81	16.574
382.17	16.635
382.53	17.846
382.89	17.612
383.25	16.790
383.61	18.341
383.97	17.500
384.32	17.958
384.68	17.582
385.04	17.532
385.40	17.621
385.76	17.762
386.12	18.076
386.48	17.743
386.83	18.148
387.19	15.916
387.55	18.516
387.91	17.712
388.27	17.694
388.62	16.979
388.98	18.023
389.34	17.982
389.70	17.827
390.06	18.125
390.42	17.977
390.77	18.322
391.13	18.119
391.49	16.635
391.85	16.805
392.20	16.917
392.56	17.270
392.92	17.554
393.28	17.083
393.64	17.309
393.99	17.013
394.35	17.840
394.71	17.692
395.07	16.855
395.42	17.794
395.78	16.088
396.14	18.199
396.50	17.438
396.85	17.655
397.21	16.979
397.57	17.205
397.92	17.485
398.28	17.823
398.64	18.276
399.00	17.355
399.35	17.764
399.71	16.832
400.07	18.193
400.42	16.614
400.78	17.402
401.14	16.554
401.49	17.555
401.85	17.998
402.21	17.833
402.57	17.167
402.92	17.459
403.28	17.073
403.63	17.297
403.99	18.490
404.35	17.643
404.70	16.858
405.06	18.086
405.42	16.834
405.77	16.993
406.13	17.771
406.49	17.675
406.84	17.582
407.20	16.815
407.55	17.208
407.91	17.737
408.27	17.592
408.62	17.864
408.98	16.769
409.34	17.203
409.69	18.129
410.05	17.351
410.40	16.859
410.76	17.208
411.11	18.284
411.47	18.514
411.83	17.031
412.18	17.254
412.54	17.857
412.89	18.182
413.25	17.404
413.60	17.492
413.96	17.728
414.31	17.386
414.67	17.143
415.03	17.727
415.38	17.173
415.74	17.479
416.09	18.572
416.45	17.772
416.80	17.718
417.16	18.219
417.51	18.084
417.87	17.593
418.22	17.518
418.58	17.740
418.93	16.698
419.29	18.482
419.64	17.748
420.00	17.460
420.35	17.812
420.71	17.246
421.06	18.266
421.42	17.822
421.77	18.555
422.12	18.510
422.48	18.375
422.83	17.779
423.19	18.516
423.54	18.139
423.90	18.171
424.25	17.100
424.61	18.115
424.96	18.273
425.31	17.611
425.67	18.283
426.02	18.905
426.38	17.413
426.73	17.471
427.09	17.511
427.44	17.557
427.79	17.755
428.15	17.982
428.50	17.764
428.85	18.327
429.21	17.783
429.56	18.438
429.92	18.168
430.27	18.405
430.62	18.363
430.98	18.297
431.33	18.646
431.68	18.584
432.04	18.085
432.39	18.014
432.74	17.167
433.10	18.942
433.45	18.047
433.80	19.080
434.16	18.405
434.51	18.587
434.86	18.021
435.22	17.374
435.57	18.366
435.92	18.275
436.28	17.898
436.63	17.667
436.98	18.978
437.34	18.437
437.69	18.359
438.04	17.827
438.39	17.808
438.75	18.594
439.10	19.202
439.45	17.373
439.81	19.212
440.16	19.594
440.51	18.371
440.86	18.969
441.22	18.187
441.57	18.818
441.92	18.663
442.27	18.777
442.63	18.138
442.98	18.287
443.33	18.397
443.68	18.397
444.03	17.685
444.39	18.691
444.74	18.388
445.09	18.447
445.44	18.310
445.79	19.308
446.15	18.136
446.50	18.888
446.85	18.920
447.20	18.819
447.55	18.970
447.91	18.708
448.26	18.296
448.61	18.354
448.96	18.736
449.31	18.218
449.66	19.144
450.02	18.761
450.37	18.684
450.72	19.001
451.07	18.558
451.42	18.777
451.77	18.929
452.12	19.311
452.47	19.432
452.83	18.632
453.18	18.778
453.53	19.672
453.88	18.976
454.23	18.912
454.58	19.056
454.93	18.538
455.28	19.589
455.63	18.840
455.98	18.564
456.34	18.881
456.69	19.233
457.04	19.505
457.39	19.242
457.74	18.372
458.09	19.550
458.44	19.741
458.79	19.550
459.14	18.539
459.49	19.024
459.84	18.940
460.19	18.487
460.54	19.404
460.89	19.651
461.24	18.989
461.59	19.505
461.94	19.532
462.29	19.914
462.64	18.338
462.99	19.920
463.34	19.751
463.69	19.459
464.04	18.667
464.39	19.524
464.74	19.840
465.09	19.095
465.44	19.416
465.79	20.414
466.14	18.985
466.49	18.651
466.84	20.143
467.19	18.981
467.54	19.961
467.89	19.987
468.24	20.098
468.59	19.248
468.94	19.987
469.29	19.498
469.64	19.177
469.99	21.172
470.34	19.960
470.68	19.851
471.03	21.086
471.38	19.958
471.73	20.439
472.08	19.381
472.43	20.251
472.78	20.014
473.13	19.261
473.48	20.483
473.83	20.527
474.17	19.727
474.52	19.935
474.87	19.481
475.22	19.384
475.57	19.799
475.92	20.065
476.27	20.396
476.61	19.649
476.96	19.475
477.31	20.065
477.66	20.056
478.01	19.451
478.36	20.218
478.70	20.247
479.05	20.477
479.40	19.761
479.75	20.298
480.10	19.990
480.45	19.863
480.79	20.707
481.14	21.125
481.49	20.030
481.84	20.170
482.19	19.917
482.53	20.238
482.88	20.470
483.23	19.586
483.58	20.841
483.92	20.233
484.27	20.494
484.62	19.396
484.97	19.909
485.31	20.300
485.66	19.276
486.01	18.421
486.36	18.641
486.70	18.816
487.05	18.925
487.40	18.681
487.75	20.040
488.09	19.581
488.44	19.839
488.79	20.477
489.13	20.596
489.48	19.624
489.83	20.768
490.17	20.926
490.52	21.412
490.87	20.491
491.22	21.479
491.56	21.035
491.91	19.923
492.26	20.261
492.60	20.443
492.95	20.311
493.30	20.107
493.64	19.712
493.99	21.691
494.34	20.135
494.68	21.241
495.03	20.208
495.37	20.535
495.72	21.353
496.07	21.432
496.41	19.841
496.76	20.932
497.11	20.939
497.45	20.768
497.80	20.596
498.14	21.662
498.49	20.676
498.84	20.850
499.18	20.906
499.53	20.876
499.87	20.330
500.22	21.354
500.56	21.163
500.91	21.328
501.26	20.788
501.60	20.931
501.95	20.652
502.29	20.874
502.64	20.685
502.98	20.713
503.33	20.730
503.67	20.935
504.02	20.490
504.36	21.298
504.71	20.732
505.06	20.377
505.40	21.134
505.75	21.668
506.09	20.082
506.44	21.472
506.78	20.874
507.13	22.245
507.47	20.891
507.82	21.507
508.16	21.741
508.51	20.868
508.85	21.514
509.19	21.429
509.54	22.788
509.88	21.505
510.23	21.842
510.57	21.822
510.92	22.522
511.26	22.112
511.61	22.064
511.95	21.720
512.30	22.321
512.64	23.553
512.98	21.828
513.33	21.972
513.67	22.374
514.02	22.178
514.36	23.202
514.70	23.152
515.05	22.294
515.39	23.054
515.74	22.735
516.08	22.950
516.42	22.062
516.77	22.906
517.11	23.104
517.46	22.749
517.80	23.789
518.14	22.780
518.49	21.700
518.83	22.792
519.17	22.530
519.52	23.764
519.86	23.558
520.20	22.984
520.55	23.010
520.89	23.213
521.23	23.910
521.58	23.894
521.92	22.879
522.26	23.292
522.61	23.400
522.95	24.352
523.29	23.238
523.64	23.077
523.98	22.681
524.32	22.999
524.66	22.662
525.01	23.460
525.35	23.568
525.69	23.857
526.04	23.453
526.38	23.709
526.72	23.669
527.06	23.275
527.41	22.766
527.75	24.232
528.09	23.962
528.43	24.423
528.78	22.868
529.12	23.674
529.46	24.632
529.80	23.819
530.15	23.166
530.49	23.922
530.83	24.509
531.17	23.630
531.51	22.522
531.86	23.035
532.20	23.501
532.54	23.103
532.88	23.690
533.22	24.242
533.57	23.709
533.91	24.258
534.25	25.195
534.59	23.423
534.93	23.087
535.27	23.822
535.62	23.355
535.96	23.943
536.30	24.402
536.64	22.556
536.98	23.125
537.32	24.128
537.66	24.894
538.01	24.272
538.35	23.204
538.69	23.813
539.03	22.483
539.37	23.944
539.71	22.783
540.05	22.740
540.39	22.505
540.73	23.603
541.07	23.673
541.42	23.569
541.76	23.410
542.10	22.613
542.44	23.146
542.78	23.248
543.12	24.057
543.46	23.151
543.80	23.422
544.14	23.193
544.48	22.628
544.82	23.336
545.16	23.259
545.50	24.308
545.84	22.020
546.18	22.651
546.52	24.206
546.86	23.039
547.20	22.445
547.54	22.445
547.88	23.347
548.22	23.779
548.56	23.282
548.90	23.207
549.24	23.264
549.58	23.274
549.92	24.431
550.26	24.945
550.60	23.348
550.94	23.358
551.28	23.467
551.62	24.361
551.96	23.280
552.30	22.707
552.64	22.599
552.98	24.006
553.32	23.792
553.66	24.431
554.00	23.326
554.34	23.590
554.68	23.937
555.02	23.503
555.36	24.054
555.69	23.234
556.03	23.731
556.37	23.542
556.71	23.336
557.05	23.469
557.39	23.738
557.73	24.054
558.07	23.587
558.41	24.754
558.75	23.941
559.08	23.737
559.42	23.839
559.76	23.547
560.10	23.444
560.44	24.024
560.78	22.878
561.12	23.406
561.45	22.789
561.79	23.315
562.13	24.262
562.47	23.643
562.81	23.377
563.15	22.521
563.48	23.744
563.82	23.051
564.16	24.238
564.50	23.609
564.84	22.568
565.17	23.576
565.51	22.794
565.85	23.318
566.19	23.444
566.52	22.477
566.86	21.871
567.20	23.824
567.54	22.683
567.88	21.501
568.21	22.216
568.55	22.118
568.89	21.535
569.23	22.044
569.56	21.277
569.90	20.974
570.24	20.542
570.57	19.891
570.91	20.273
571.25	20.223
571.59	20.114
571.92	20.446
572.26	20.820
572.60	20.727
572.93	19.588
573.27	19.739
573.61	20.040
573.95	19.699
574.28	19.876
574.62	19.551
574.96	19.611
575.29	19.784
575.63	19.863
575.97	19.185
576.30	19.411
576.64	19.728
576.98	19.677
577.31	19.981
577.65	18.997
577.98	19.181
578.32	19.085
578.66	19.379
578.99	19.695
579.33	19.715
579.67	20.036
580.00	19.528
580.34	19.438
580.67	19.623
581.01	19.450
581.35	19.224
581.68	19.231
582.02	19.171
582.35	19.239
582.69	18.976
583.02	19.342
583.36	19.293
583.70	19.810
584.03	19.817
584.37	19.317
584.70	19.787
585.04	20.015
585.37	19.490
585.71	19.682
586.04	19.499
586.38	19.179
586.72	19.697
587.05	19.712
587.39	19.522
587.72	20.080
588.06	19.672
588.39	19.479
588.73	20.066
589.06	19.528
589.40	19.608
589.73	19.583
590.07	20.270
590.40	20.220
590.73	20.583
591.07	20.936
591.40	20.609
591.74	20.498
592.07	21.086
592.41	20.721
592.74	20.139
593.08	19.966
593.41	20.135
593.75	19.380
594.08	19.482
594.41	20.256
594.75	20.540
595.08	20.015
595.42	19.971
595.75	20.137
596.09	19.938
596.42	20.588
596.75	20.579
597.09	20.428
597.42	20.458
597.75	20.578
598.09	21.038
598.42	20.850
598.76	19.983
599.09	20.248
599.42	20.128
599.76	20.053
600.09	20.595
600.42	20.452
600.76	19.882
601.09	19.623
601.42	20.149
601.76	20.386
602.09	20.876
602.42	20.883
602.76	20.428
603.09	20.698
603.42	20.392
603.76	20.148
604.09	20.435
604.42	19.422
604.76	20.428
605.09	20.933
605.42	20.513
605.75	19.914
606.09	19.578
606.42	20.989
606.75	19.827
607.09	19.814
607.42	20.447
607.75	19.168
608.08	20.965
608.42	21.087
608.75	21.022
609.08	20.970
609.41	20.765
609.75	20.071
610.08	20.365
610.41	20.991
610.74	20.693
611.07	20.190
611.41	21.034
611.74	20.963
612.07	21.001
612.40	21.081
612.73	21.460
613.07	20.898
613.40	20.760
613.73	20.639
614.06	20.951
614.39	20.956
614.72	21.433
615.06	20.889
615.39	21.468
615.72	20.626
616.05	21.340
616.38	20.447
616.71	20.096
617.05	21.683
617.38	21.380
617.71	20.833
618.04	21.389
618.37	21.451
618.70	21.798
619.03	21.100
619.36	21.993
619.69	22.295
620.03	21.908
620.36	20.738
620.69	20.771
621.02	21.615
621.35	22.404
621.68	23.146
622.01	22.573
622.34	21.887
622.67	22.631
623.00	22.188
623.33	22.064
623.66	22.007
623.99	22.956
624.32	22.157
624.65	21.365
624.99	22.263
625.32	22.554
625.65	21.783
625.98	22.117
626.31	23.184
626.64	21.754
626.97	22.664
627.30	23.610
627.63	22.318
627.96	22.078
628.29	24.744
628.62	23.501
628.95	24.649
629.28	24.828
629.61	23.541
629.94	23.888
630.26	22.660
630.59	23.077
630.92	24.398
631.25	22.966
631.58	23.983
631.91	23.118
632.24	23.820
632.57	23.111
632.90	24.737
633.23	23.381
633.56	26.139
633.89	24.641
634.22	25.324
634.55	24.970
634.88	23.529
635.20	25.750
635.53	25.840
635.86	24.744
636.19	24.814
636.52	23.780
636.85	24.729
637.18	21.803
637.51	24.594
637.83	25.457
638.16	24.267
638.49	24.299
638.82	24.183
639.15	26.064
639.48	24.332
639.81	24.167
640.13	25.634
640.46	25.847
640.79	25.899
641.12	23.373
641.45	26.929
641.77	25.626
642.10	25.870
642.43	24.843
642.76	24.290
643.09	26.198
643.41	25.359
643.74	27.302
644.07	23.948
644.40	26.866
644.73	26.949
645.05	24.084
645.38	26.246
645.71	25.340
646.04	23.569
646.36	24.653
646.69	29.720
647.02	26.047
647.35	26.325
647.67	26.248
648.00	26.630
648.33	26.441
648.66	23.873
648.98	23.602
649.31	23.773
649.64	25.039
649.96	24.803
650.29	23.529
650.62	24.382
650.94	25.000
651.27	24.735
651.60	25.699
651.92	25.806
652.25	25.963
652.58	25.083
652.90	24.579
653.23	23.599
653.56	24.793
653.88	22.696
654.21	22.355
654.54	23.754
654.86	24.715
655.19	23.389
655.52	22.373
655.84	18.162
656.17	21.598
656.49	28.554
656.82	27.804
657.15	20.630
657.47	15.351
657.80	11.424
658.13	12.238
658.45	18.347
658.78	18.307
659.10	18.548
659.43	19.262
659.75	19.364
660.08	19.931
660.41	20.081
660.73	22.176
661.06	24.490
661.38	24.031
661.71	28.484
662.03	26.004
662.36	25.442
662.68	27.742
663.01	26.483
663.33	24.190
663.66	23.947
663.98	25.169
664.31	27.692
664.63	24.099
664.96	26.915
665.28	27.897
665.61	27.430
665.93	27.195
666.26	30.169
666.58	24.625
666.91	28.251
667.23	25.806
667.56	25.747
667.88	25.234
668.21	25.670
668.53	30.115
668.86	26.379
669.18	30.260
669.50	28.341
669.83	28.878
670.15	24.048
670.48	25.517
670.80	28.884
671.13	27.231
671.45	28.539
671.77	26.940
672.10	23.392
672.42	24.427
672.75	20.000
673.07	23.273
673.39	23.321
673.72	26.747
674.04	26.434
674.37	26.016
674.69	23.663
675.01	24.359
675.34	24.289
675.66	25.708
675.98	23.673
676.31	25.339
676.63	28.798
676.95	24.941
677.28	26.147
677.60	24.020
677.92	27.494
678.25	26.247
678.57	27.291
678.89	24.094
679.22	25.673
679.54	25.510
679.86	25.391
680.18	24.423
680.51	22.885
680.83	22.807
681.15	25.344
681.48	24.048
681.80	24.335
682.12	21.667
682.44	21.328
682.77	22.737
683.09	23.661
683.41	26.279
683.73	25.000
684.06	22.345
684.38	25.000
684.70	22.200
685.02	23.967
685.34	25.049
685.67	22.326
685.99	22.954
686.31	22.414
686.63	21.324
686.96	23.562
687.28	23.553
687.60	24.386
687.92	24.319
688.24	22.200
688.56	26.535
688.89	23.831
689.21	22.646
689.53	20.495
689.85	23.596
690.17	23.736
690.49	21.981
690.82	26.014
691.14	26.812
691.46	21.578
691.78	22.857
692.10	23.779
692.42	21.099
692.74	23.696
693.06	22.472
693.39	22.951
693.71	23.333
694.03	26.364
694.35	22.072
694.67	24.750
694.99	25.773
695.31	24.806
695.63	22.439
695.95	23.155
696.27	22.740
696.59	22.581
696.91	23.743
697.23	22.589
697.56	24.940
697.88	23.909
698.20	23.974
698.52	23.832
698.84	23.445
699.16	20.567
699.48	22.963
699.80	28.682
700.12	24.665
700.44	23.662
700.76	21.067
701.08	26.284
701.40	24.551
701.72	23.077
702.04	26.415
702.36	24.695
702.68	22.561
703.00	26.316
703.32	23.677
703.64	23.494
703.96	24.340
704.28	23.795
704.60	23.476
704.91	23.824
705.23	25.633
705.55	23.103
705.87	22.183
706.19	26.007
706.51	23.944
706.83	21.019
707.15	22.256
707.47	22.865
707.79	23.350
708.11	20.823
708.43	23.858
708.74	23.404
709.06	22.995
709.38	23.343
709.70	21.922
710.02	22.741
710.34	22.000
710.66	26.059
710.98	21.981
711.29	23.052
711.61	23.226
711.93	21.290
712.25	20.280
712.57	22.105
712.89	21.612
713.20	26.596
713.52	25.912
713.84	25.161
714.16	22.977
714.48	25.316
714.80	20.447
715.11	27.326
715.43	21.118
715.75	26.708
716.07	21.687
716.39	20.875
716.70	25.899
717.02	18.824
717.34	25.758
717.66	19.828
717.97	23.810
718.29	26.378
718.61	22.747
718.93	20.930
719.24	25.461
719.56	20.974
719.88	24.254
720.20	23.320
720.51	27.344
720.83	25.292
721.15	16.260
721.46	21.756
721.78	22.311
722.10	21.912
722.42	22.177
722.73	24.710
723.05	25.714
723.37	25.210
723.68	20.400
724.00	20.851
724.32	22.176
724.63	23.868
724.95	20.513
725.27	27.004
725.58	27.160
725.90	23.431
726.22	21.014
726.53	18.824
726.85	27.007
727.16	21.111
727.48	20.307
727.80	25.000
728.11	21.721
728.43	23.047
728.74	23.413
729.06	17.200
729.38	19.368
729.69	23.488
730.01	20.074
730.32	24.723
730.64	19.697
730.96	25.524
731.27	20.067
731.59	25.714
731.90	22.006
732.22	20.833
732.53	19.257
732.85	21.141
733.16	22.442
733.48	20.270
733.80	22.297
734.11	23.649
734.43	23.529
734.74	26.426
735.06	21.326
735.37	22.796
735.69	21.036
736.00	20.792
736.32	24.468
736.63	18.276
736.95	21.575
737.26	18.276
737.58	20.486
737.89	20.619
738.21	23.488
738.52	22.433
738.83	20.816
739.15	16.456
739.46	22.179
739.78	21.831
740.09	17.466
740.41	17.143
740.72	19.858
741.04	22.000
741.35	15.789
741.66	22.222
741.98	23.558
742.29	31.683
742.61	21.463
742.92	22.807
743.23	21.226
743.55	27.477
743.86	22.870
744.18	22.059
744.49	26.396
744.80	22.959
745.12	25.234
745.43	22.275
745.74	23.423
746.06	24.299
746.37	27.064
746.68	24.519
747.00	22.967
747.31	27.404
747.62	21.101
747.94	25.328
748.25	21.560
748.56	23.556
748.88	28.169
749.19	24.762
749.50	18.932
749.82	23.474
750.13	17.917
750.44	17.308
750.75	23.247
751.07	24.555
751.38	21.277
751.69	18.919
752.01	23.828
752.32	18.462
752.63	20.896
752.94	24.400
753.26	20.502
753.57	20.000
753.88	21.457
754.19	27.092
754.51	24.436
754.82	20.147
755.13	20.435
755.44	17.073
755.75	16.800
756.07	18.450
756.38	21.223
756.69	20.137
757.00	22.430
757.31	21.683
757.63	19.444
757.94	18.644
758.25	20.370
758.56	20.109
758.87	19.048
759.18	22.713
759.50	17.845
759.81	26.421
760.12	21.231
760.43	18.452
760.74	18.079
761.05	20.442
761.36	16.905
761.67	18.731
761.99	19.244
762.30	18.978
762.61	17.695
762.92	23.932
763.23	25.820
763.54	20.779
763.85	22.449
764.16	13.415
764.47	19.200
764.78	17.143
765.10	20.328
765.41	21.884
765.72	19.876
766.03	19.472
766.34	21.923
766.65	21.339
766.96	21.596
767.27	23.762
767.58	11.798
767.89	29.012
768.20	19.337
768.51	21.608
768.82	22.115
769.13	22.566
769.44	21.339
769.75	17.094
770.06	23.767
770.37	16.667
770.68	21.359
770.99	17.476
771.30	22.689
771.61	15.510
771.92	23.651
772.23	22.072
772.54	13.812
772.85	22.093
773.16	20.106
773.47	14.201
773.78	20.115
774.09	16.250
774.39	17.391
774.70	25.850
775.01	13.103
775.32	23.571
775.63	24.060
775.94	8.271
776.25	24.800
776.56	13.223
776.87	23.810
777.18	13.514
777.48	18.018
777.79	22.047
778.10	22.936
778.41	19.298
778.72	15.966
779.03	11.268
779.34	18.919
779.65	14.789
779.95	21.854
780.26	17.986
780.57	24.460
780.88	14.789
781.19	20.168
781.50	19.463
781.80	19.298
782.11	12.791
782.42	23.270
782.73	16.993
783.04	13.793
783.34	20.611
783.65	12.752
783.96	18.462
784.27	21.429
784.57	21.277
784.88	13.462
785.19	33.636
785.50	23.636
785.81	17.143
786.11	16.807
786.42	26.549
786.73	10.377
787.04	17.431
787.34	15.842
787.65	27.500
787.96	14.050
788.26	15.217
788.57	12.698
788.88	10.569
789.19	12.000
789.49	16.031
789.80	25.758
790.11	17.925
790.41	16.832
790.72	24.468
791.03	15.217
791.33	10.588
791.64	14.815
791.95	21.739
792.25	17.045
792.56	30.769
792.87	6.410
793.17	3.846
793.48	19.048
793.79	3.750
794.09	24.038
794.40	19.792
794.70	23.423
795.01	21.094
795.32	18.261
795.62	-1.087
795.93	20.755
796.23	14.141
796.54	7.317
796.85	10.714
797.15	7.576
797.46	8.696
797.76	10.526
798.07	17.045
798.37	4.878
798.68	14.516
798.99	12.162
799.29	4.819
799.60	16.667
799.90	20.000
800.21	25.758
800.51	21.333
800.82	9.333
801.12	4.167
801.43	-11.667
801.73	5.405
802.04	15.714
802.34	-3.279
802.65	-7.463
802.95	9.091
803.26	29.310
803.56	12.308
803.87	18.868
804.17	4.839
804.48	13.235
804.78	7.317
805.09	26.087
805.39	25.000
805.70	-14.894
806.00	0.000
806.30	12.821
806.61	3.947
806.91	13.514
807.22	13.158
807.52	13.636
807.83	8.475
808.13	-9.091
808.43	13.333
808.74	-24.138
809.04	6.349
809.35	10.204
809.65	6.667
809.95	2.041
810.26	21.127
810.56	8.333
810.86	4.082
811.17	19.231
811.47	-6.383
811.77	2.083
812.08	22.642
812.38	0.000
812.69	10.909
812.99	-2.439
813.29	-21.622
813.59	-2.703
813.90	-12.727
814.20	14.545
814.50	18.333
814.81	10.909
815.11	10.526
815.41	9.302
815.72	-2.500
816.02	-2.857
816.32	-13.514
816.62	22.917
816.93	17.778
817.23	0.000
817.53	-13.889
817.84	-13.514
818.14	19.512
818.44	28.000
818.74	6.122
819.04	26.829
819.35	-2.778
819.65	4.545
819.95	-55.556
820.25	6.061
820.56	-11.905
820.86	16.667
821.16	-20.455
821.46	8.696
821.76	22.414
822.07	23.913
822.37	12.121
822.67	4.878
822.97	-2.703
823.27	-31.429
823.57	44.828
823.88	23.529
824.18	33.333
824.48	11.429
824.78	-19.048
825.08	-7.143
825.38	-11.111
825.69	-6.452
825.99	19.512
826.29	-29.630
826.59	-12.500
826.89	-22.581
827.19	-17.391
827.49	-19.444
827.79	-8.696
828.09	-19.355
828.39	0.000
828.70	-28.125
829.00	-3.448
829.30	18.919
829.60	-70.833
829.90	-37.037
830.20	-9.375
830.50	-22.727
830.80	-58.824
831.10	-18.182
831.40	-11.765
831.70	11.538
832.00	-3.030
832.30	5.882
832.60	29.730
832.90	300.000
833.20	-60.714
833.50	-125.000
833.80	0.000
834.10	-54.167
834.40	-50.000
834.70	-60.000
835.00	-10.000
835.30	-37.500
835.60	-42.857
835.90	-14.286
836.20	28.000
836.50	-8.333
836.80	-47.368
837.10	18.919
837.40	26.667
837.70	-8.696
838.00	25.000
838.30	-36.842
838.60	-210.000
838.90	-170.000
839.19	33.333
839.49	-38.462
839.79	-10.526
840.09	-183.333
840.39	-30.000
840.69	-45.455
840.99	-33.333
841.29	-50.000
841.59	-92.308
841.88	-66.667
842.18	-35.714
842.48	16.667
842.78	-85.714
843.08	-57.143
843.38	-75.000
843.68	-50.000
843.97	0.000
844.27	-244.444
844.57	-63.636
844.87	20.000
845.17	31.818
845.47	366.667
845.76	13.333
846.06	-16.667
846.36	-750.000
846.66	26.316
846.96	-54.545
847.25	11.111
847.55	-133.333
847.85	-57.143
848.15	-15.385
848.44	-100.000
848.74	-108.333
849.04	-92.308
849.34	-525.000
849.63	-127.273
849.93	-92.857
850.23	30.000
850.53	-187.500
850.82	-33.333
851.12	-73.333
851.42	-17.647
851.71	-162.500
852.01	-11.765
852.31	-46.154
852.61	800.000
852.90	-29.412
853.20	6.667
853.50	-31.250
853.79	-92.857
854.09	-325.000
854.39	-85.000
854.68	15.000
854.98	-9.524
855.28	-20.000
855.57	-16.667
855.87	-45.833
856.17	-40.000
856.46	12.500
856.76	-30.000
857.05	-16.000
857.35	-91.667
857.65	-47.059
857.94	-133.333
858.24	-33.333
858.53	5.000
858.83	-100.000
859.13	-32.000
859.42	-100.000
859.72	-175.000
860.01	-16.667
860.31	-212.500
860.60	-68.750
860.90	-150.000
861.20	-133.333
861.49	-33.333
861.79	-37.500
862.08	450.000
862.38	-108.333
862.67	171.429
862.97	275.000
863.26	-27.273
863.56	-9.091
863.85	63.158
864.15	-52.941
864.44	-240.000
864.74	-190.000
865.03	-100.000
865.33	35.714
865.62	135.714
865.92	10.526
866.21	-27.778
866.51	-72.727
866.80	-100.000
867.10	-262.500
867.39	0.000
867.69	6.667
867.98	-60.000
868.27	-76.471
868.57	0.000
868.86	600.000
869.16	-275.000
869.45	-257.143
869.75	550.000
870.04	-30.000
870.33	-300.000
870.63	-5.263
870.92	-33.333
871.22	-200.000
871.51	-200.000
871.80	-211.111
872.10	-425.000
>>>>>End Processed Spectral Data<<<<<
