SpectraSuite Data File
++++++++++++++++++++++++++++++++++++
Date: Wed May 13 21:33:18 PDT 2015
User: schluterlab
Dark Spectrum Present: Yes
Reference Spectrum Present: Yes
Number of Sampled Component Spectra: 1
Spectrometers: USB2E3373
Integration Time (usec): 3000 (USB2E3373)
Spectra Averaged: 3 (USB2E3373)
Boxcar Smoothing: 0 (USB2E3373)
Correct for Electrical Dark: No (USB2E3373)
Strobe/Lamp Enabled: No (USB2E3373)
Correct for Detector Non-linearity: No (USB2E3373)
Correct for Stray Light: No (USB2E3373)
Number of Pixels in Processed Spectrum: 2048
>>>>>Begin Processed Spectral Data<<<<<
178.53	0.000
178.91	800.000
179.29	175.000
179.67	-850.000
180.04	-433.333
180.42	260.000
180.80	2600.000
181.18	300.000
181.56	-250.000
181.94	-325.000
182.31	-18.182
182.69	100.000
183.07	-140.000
183.45	266.667
183.83	177.778
184.20	242.857
184.58	66.667
184.96	800.000
185.34	271.429
185.72	0.000
186.09	300.000
186.47	-140.000
186.85	340.000
187.23	-1150.000
187.61	750.000
187.98	2600.000
188.36	-100.000
188.74	0.000
189.12	-63.636
189.49	-20.000
189.87	150.000
190.25	480.000
190.63	1200.000
191.00	-200.000
191.38	420.000
191.76	425.000
192.14	183.333
192.51	0.000
192.89	466.667
193.27	200.000
193.65	-400.000
194.02	254.545
194.40	120.000
194.78	-700.000
195.15	140.000
195.53	-200.000
195.91	-62.500
196.29	-366.667
196.66	0.000
197.04	650.000
197.42	-320.000
197.79	-160.000
198.17	-75.000
198.55	-366.667
198.92	175.000
199.30	-866.667
199.68	-30.000
200.05	550.000
200.43	116.667
200.81	-1500.000
201.18	-300.000
201.56	-300.000
201.94	975.000
202.31	-17.391
202.69	-85.714
203.07	-666.667
203.44	-280.000
203.82	-300.000
204.19	-80.000
204.57	0.000
204.95	-283.333
205.32	0.000
205.70	-300.000
206.08	-725.000
206.45	-466.667
206.83	425.000
207.20	-500.000
207.58	-200.000
207.96	-1700.000
208.33	-200.000
208.71	-1800.000
209.08	337.500
209.46	350.000
209.84	0.000
210.21	210.000
210.59	1200.000
210.96	420.000
211.34	1400.000
211.71	-750.000
212.09	-266.667
212.46	-140.000
212.84	-100.000
213.22	-100.000
213.59	-1400.000
213.97	-750.000
214.34	-850.000
214.72	-84.615
215.09	262.500
215.47	211.111
215.84	300.000
216.22	-100.000
216.59	-600.000
216.97	300.000
217.34	200.000
217.72	0.000
218.09	266.667
218.47	-500.000
218.84	-128.571
219.22	-87.500
219.59	-366.667
219.97	-100.000
220.34	-212.500
220.72	-260.000
221.09	0.000
221.47	-183.333
221.84	-1700.000
222.22	0.000
222.59	1900.000
222.97	-200.000
223.34	-91.667
223.72	-900.000
224.09	-500.000
224.46	-145.455
224.84	-75.000
225.21	-114.286
225.59	-375.000
225.96	-50.000
226.34	-110.000
226.71	-214.286
227.08	1300.000
227.46	-162.500
227.83	-1400.000
228.21	-56.250
228.58	-275.000
228.95	-100.000
229.33	-18.750
229.70	-75.000
230.08	-100.000
230.45	-300.000
230.82	-41.667
231.20	342.857
231.57	-300.000
231.95	1000.000
232.32	-50.000
232.69	-52.941
233.07	-2300.000
233.44	-52.174
233.81	-1100.000
234.19	-20.833
234.56	-66.667
234.93	-26.667
235.31	-57.895
235.68	-69.231
236.05	-30.769
236.43	-72.222
236.80	-33.333
237.17	-126.667
237.55	-47.059
237.92	-34.483
238.29	-51.852
238.67	-11.111
239.04	-35.484
239.41	-10.638
239.79	-4.255
240.16	0.000
240.53	-8.929
240.91	3.571
241.28	-3.571
241.65	-3.226
242.02	10.526
242.40	15.942
242.77	-1.449
243.14	-1.282
243.51	12.766
243.89	15.385
244.26	17.925
244.63	4.808
245.00	8.333
245.38	8.403
245.75	8.197
246.12	13.534
246.49	8.130
246.87	5.042
247.24	19.595
247.61	12.583
247.98	6.410
248.36	12.426
248.73	10.112
249.10	11.111
249.47	15.591
249.84	15.789
250.22	13.433
250.59	14.953
250.96	15.909
251.33	6.220
251.70	20.502
252.08	14.226
252.45	16.872
252.82	19.392
253.19	15.953
253.56	15.468
253.94	16.370
254.31	16.197
254.68	18.121
255.05	15.512
255.42	17.832
255.79	18.405
256.16	20.505
256.54	17.778
256.91	18.038
257.28	18.239
257.65	13.376
258.02	17.889
258.39	16.959
258.76	15.698
259.14	16.477
259.51	14.326
259.88	17.886
260.25	18.889
260.62	15.169
260.99	18.833
261.36	15.544
261.73	16.543
262.10	13.995
262.47	12.593
262.85	15.174
263.22	16.667
263.59	15.584
263.96	15.572
264.33	16.587
264.70	16.047
265.07	19.444
265.44	19.080
265.81	16.476
266.18	18.679
266.55	18.341
266.92	15.466
267.29	17.901
267.66	18.684
268.03	18.519
268.40	18.220
268.77	16.736
269.14	17.551
269.51	22.793
269.88	15.682
270.25	15.042
270.62	15.984
270.99	17.126
271.36	18.254
271.73	16.064
272.10	17.905
272.47	15.739
272.84	19.685
273.21	18.200
273.58	17.828
273.95	15.472
274.32	16.791
274.69	16.576
275.06	18.375
275.43	16.573
275.80	17.908
276.17	17.127
276.54	14.387
276.91	17.073
277.28	14.982
277.65	18.531
278.02	19.464
278.39	15.808
278.76	18.060
279.13	18.010
279.50	17.414
279.87	16.304
280.23	16.396
280.60	15.225
280.97	16.883
281.34	19.401
281.71	17.236
282.08	15.726
282.45	16.393
282.82	18.530
283.19	17.988
283.56	16.719
283.92	19.572
284.29	17.317
284.66	17.463
285.03	16.775
285.40	16.918
285.77	16.517
286.14	18.541
286.51	20.090
286.87	16.769
287.24	16.224
287.61	16.416
287.98	15.294
288.35	14.903
288.72	16.499
289.08	16.667
289.45	15.272
289.82	16.490
290.19	14.586
290.56	14.773
290.93	13.260
291.29	15.458
291.66	16.393
292.03	15.940
292.40	14.939
292.77	15.663
293.13	15.342
293.50	14.118
293.87	14.667
294.24	16.138
294.60	15.735
294.97	14.683
295.34	13.061
295.71	11.958
296.08	14.005
296.44	13.265
296.81	13.276
297.18	13.875
297.55	13.208
297.91	15.652
298.28	13.923
298.65	13.916
299.02	14.530
299.38	12.761
299.75	13.942
300.12	13.372
300.48	12.865
300.85	12.356
301.22	13.240
301.59	13.498
301.95	13.473
302.32	12.019
302.69	13.446
303.05	14.396
303.42	13.750
303.79	13.354
304.15	12.705
304.52	13.978
304.89	12.071
305.25	13.063
305.62	12.798
305.99	12.296
306.35	13.166
306.72	14.039
307.09	12.200
307.45	13.525
307.82	12.842
308.19	11.912
308.55	12.078
308.92	13.163
309.29	13.113
309.65	12.088
310.02	13.121
310.38	12.297
310.75	12.229
311.12	12.828
311.48	12.265
311.85	12.795
312.22	12.959
312.58	11.787
312.95	12.836
313.31	13.407
313.68	12.309
314.05	13.894
314.41	13.064
314.78	13.472
315.14	12.778
315.51	12.845
315.87	13.438
316.24	13.039
316.61	13.151
316.97	12.778
317.34	12.299
317.70	12.221
318.07	12.334
318.43	12.466
318.80	12.129
319.16	11.494
319.53	11.918
319.89	12.556
320.26	13.309
320.62	13.346
320.99	12.209
321.35	12.816
321.72	11.838
322.08	13.192
322.45	12.951
322.81	13.216
323.18	11.986
323.54	13.357
323.91	13.369
324.27	12.871
324.64	12.805
325.00	12.598
325.37	13.225
325.73	12.205
326.10	13.036
326.46	11.957
326.83	13.350
327.19	12.764
327.56	13.779
327.92	13.435
328.29	14.107
328.65	13.059
329.01	12.841
329.38	13.391
329.74	12.275
330.11	12.353
330.47	12.674
330.84	13.538
331.20	13.237
331.56	13.315
331.93	13.437
332.29	13.988
332.66	12.203
333.02	12.598
333.38	12.456
333.75	13.140
334.11	13.542
334.48	11.857
334.84	12.721
335.20	13.036
335.57	12.620
335.93	12.715
336.29	13.310
336.66	12.991
337.02	13.826
337.38	12.272
337.75	13.781
338.11	12.041
338.47	12.158
338.84	13.832
339.20	11.640
339.56	12.969
339.93	11.582
340.29	13.151
340.65	12.062
341.02	13.062
341.38	12.922
341.74	12.017
342.11	13.377
342.47	11.883
342.83	11.846
343.20	12.521
343.56	13.655
343.92	13.404
344.28	12.581
344.65	12.816
345.01	12.349
345.37	12.911
345.73	13.317
346.10	11.798
346.46	12.602
346.82	12.039
347.19	11.709
347.55	13.166
347.91	12.237
348.27	12.539
348.63	12.981
349.00	11.950
349.36	12.323
349.72	12.374
350.08	13.417
350.45	12.060
350.81	12.363
351.17	12.702
351.53	12.490
351.89	11.041
352.26	11.120
352.62	12.016
352.98	11.661
353.34	12.641
353.70	12.461
354.07	12.000
354.43	11.353
354.79	11.378
355.15	11.102
355.51	11.010
355.87	12.119
356.24	11.557
356.60	11.806
356.96	11.819
357.32	12.229
357.68	12.299
358.04	12.490
358.40	12.248
358.77	13.226
359.13	12.296
359.49	11.734
359.85	12.585
360.21	11.874
360.57	11.331
360.93	11.988
361.29	12.139
361.66	12.453
362.02	12.083
362.38	11.817
362.74	11.168
363.10	12.798
363.46	11.311
363.82	12.712
364.18	10.805
364.54	11.962
364.90	12.404
365.26	11.323
365.62	11.719
365.98	11.957
366.35	11.489
366.71	11.484
367.07	11.410
367.43	11.568
367.79	11.744
368.15	12.096
368.51	11.392
368.87	11.863
369.23	12.598
369.59	11.064
369.95	10.813
370.31	11.855
370.67	12.093
371.03	11.878
371.39	12.562
371.75	11.643
372.11	11.254
372.47	11.896
372.83	11.096
373.19	11.295
373.55	12.066
373.91	11.881
374.27	10.581
374.63	11.166
374.99	11.560
375.35	11.507
375.71	11.753
376.07	11.241
376.42	11.029
376.78	11.493
377.14	11.458
377.50	11.930
377.86	11.952
378.22	11.441
378.58	11.412
378.94	13.000
379.30	11.993
379.66	11.652
380.02	11.275
380.38	12.410
380.74	12.433
381.09	11.399
381.45	11.608
381.81	11.707
382.17	11.468
382.53	11.015
382.89	11.399
383.25	10.741
383.61	12.228
383.97	11.187
384.32	11.090
384.68	11.721
385.04	11.240
385.40	11.706
385.76	11.800
386.12	11.879
386.48	11.473
386.83	11.327
387.19	11.289
387.55	12.201
387.91	11.624
388.27	11.344
388.62	12.172
388.98	11.514
389.34	11.529
389.70	11.111
390.06	11.750
390.42	11.018
390.77	11.851
391.13	11.932
391.49	11.828
391.85	11.502
392.20	11.842
392.56	11.238
392.92	11.469
393.28	11.214
393.64	11.621
393.99	10.343
394.35	11.420
394.71	10.641
395.07	10.440
395.42	11.761
395.78	10.940
396.14	12.112
396.50	11.731
396.85	11.791
397.21	11.236
397.57	11.366
397.92	11.317
398.28	12.070
398.64	10.686
399.00	11.830
399.35	11.918
399.71	11.182
400.07	11.928
400.42	11.097
400.78	11.299
401.14	11.036
401.49	10.845
401.85	11.486
402.21	11.579
402.57	11.159
402.92	12.265
403.28	12.258
403.63	10.601
403.99	12.476
404.35	11.035
404.70	10.997
405.06	11.744
405.42	11.118
405.77	10.599
406.13	11.200
406.49	10.665
406.84	11.600
407.20	11.723
407.55	11.753
407.91	10.126
408.27	11.104
408.62	11.971
408.98	11.529
409.34	11.077
409.69	12.411
410.05	11.132
410.40	10.712
410.76	11.552
411.11	11.692
411.47	12.475
411.83	11.478
412.18	11.083
412.54	12.469
412.89	11.223
413.25	11.209
413.60	11.285
413.96	11.486
414.31	11.591
414.67	12.508
415.03	11.164
415.38	11.889
415.74	11.371
416.09	12.227
416.45	11.005
416.80	11.275
417.16	12.483
417.51	12.056
417.87	11.772
418.22	11.118
418.58	10.972
418.93	11.676
419.29	11.419
419.64	11.323
420.00	10.984
420.35	11.357
420.71	12.005
421.06	11.562
421.42	12.105
421.77	11.965
422.12	12.092
422.48	11.396
422.83	11.577
423.19	11.213
423.54	12.485
423.90	11.817
424.25	11.381
424.61	11.583
424.96	11.591
425.31	11.722
425.67	10.994
426.02	13.133
426.38	11.940
426.73	11.362
427.09	12.258
427.44	11.920
427.79	11.164
428.15	11.804
428.50	11.420
428.85	12.608
429.21	11.255
429.56	12.168
429.92	11.504
430.27	11.452
430.62	11.595
430.98	11.951
431.33	11.553
431.68	12.407
432.04	11.887
432.39	11.432
432.74	11.281
433.10	12.841
433.45	12.012
433.80	11.494
434.16	11.961
434.51	12.337
434.86	12.426
435.22	11.432
435.57	11.548
435.92	12.304
436.28	11.231
436.63	11.836
436.98	12.221
437.34	12.271
437.69	10.921
438.04	11.319
438.39	12.391
438.75	12.455
439.10	11.972
439.45	11.017
439.81	12.315
440.16	12.812
440.51	11.712
440.86	12.152
441.22	12.048
441.57	12.636
441.92	12.079
442.27	12.338
442.63	11.679
442.98	10.938
443.33	12.585
443.68	11.755
444.03	11.923
444.39	11.899
444.74	11.761
445.09	11.619
445.44	12.451
445.79	12.081
446.15	11.925
446.50	11.729
446.85	12.827
447.20	12.128
447.55	11.919
447.91	11.573
448.26	11.835
448.61	11.853
448.96	12.813
449.31	11.593
449.66	12.493
450.02	12.564
450.37	11.633
450.72	12.170
451.07	12.100
451.42	11.541
451.77	12.234
452.12	12.299
452.47	13.299
452.83	12.205
453.18	11.840
453.53	12.484
453.88	11.988
454.23	11.557
454.58	12.194
454.93	11.418
455.28	12.845
455.63	11.104
455.98	12.051
456.34	10.935
456.69	12.588
457.04	12.693
457.39	11.966
457.74	11.789
458.09	11.908
458.44	12.280
458.79	12.411
459.14	12.247
459.49	12.012
459.84	11.499
460.19	12.425
460.54	12.774
460.89	12.387
461.24	11.899
461.59	12.258
461.94	13.464
462.29	12.255
462.64	12.401
462.99	11.938
463.34	12.983
463.69	12.049
464.04	11.645
464.39	12.630
464.74	11.916
465.09	12.275
465.44	11.504
465.79	12.133
466.14	11.688
466.49	12.551
466.84	11.895
467.19	11.975
467.54	12.703
467.89	12.256
468.24	12.846
468.59	13.002
468.94	12.580
469.29	11.831
469.64	12.273
469.99	13.241
470.34	12.812
470.68	12.937
471.03	11.989
471.38	12.726
471.73	13.169
472.08	12.234
472.43	12.071
472.78	12.644
473.13	12.929
473.48	12.133
473.83	12.304
474.17	11.719
474.52	12.492
474.87	12.304
475.22	12.198
475.57	12.437
475.92	12.159
476.27	12.646
476.61	12.627
476.96	12.107
477.31	12.837
477.66	12.373
478.01	12.253
478.36	11.826
478.70	12.567
479.05	12.486
479.40	12.637
479.75	12.221
480.10	12.953
480.45	12.751
480.79	12.344
481.14	13.323
481.49	13.024
481.84	12.253
482.19	13.015
482.53	12.667
482.88	12.991
483.23	12.320
483.58	12.760
483.92	12.062
484.27	11.940
484.62	12.428
484.97	12.526
485.31	12.736
485.66	12.491
486.01	12.801
486.36	12.603
486.70	12.322
487.05	12.494
487.40	12.139
487.75	12.403
488.09	12.324
488.44	11.987
488.79	12.604
489.13	12.644
489.48	12.142
489.83	13.086
490.17	11.621
490.52	13.324
490.87	12.146
491.22	12.765
491.56	12.985
491.91	12.770
492.26	13.250
492.60	11.640
492.95	12.634
493.30	12.548
493.64	12.230
493.99	13.333
494.34	13.006
494.68	12.792
495.03	12.599
495.37	12.701
495.72	12.531
496.07	12.908
496.41	12.401
496.76	12.888
497.11	12.441
497.45	12.646
497.80	13.428
498.14	13.451
498.49	12.254
498.84	13.158
499.18	12.096
499.53	13.097
499.87	12.179
500.22	12.743
500.56	12.538
500.91	12.877
501.26	13.054
501.60	12.402
501.95	12.985
502.29	12.961
502.64	12.633
502.98	12.765
503.33	13.431
503.67	12.950
504.02	12.794
504.36	12.828
504.71	12.144
505.06	13.551
505.40	12.784
505.75	13.733
506.09	13.132
506.44	12.500
506.78	13.255
507.13	12.318
507.47	12.937
507.82	12.925
508.16	13.562
508.51	12.758
508.85	13.167
509.19	13.280
509.54	13.137
509.88	13.226
510.23	13.158
510.57	14.089
510.92	13.847
511.26	12.156
511.61	12.898
511.95	12.624
512.30	12.993
512.64	13.905
512.98	13.186
513.33	13.352
513.67	12.493
514.02	13.455
514.36	13.539
514.70	12.644
515.05	12.580
515.39	13.443
515.74	13.677
516.08	12.153
516.42	12.327
516.77	13.240
517.11	13.286
517.46	13.085
517.80	14.346
518.14	11.574
518.49	13.442
518.83	13.783
519.17	13.012
519.52	13.148
519.86	12.386
520.20	13.281
520.55	13.557
520.89	12.713
521.23	13.333
521.58	13.464
521.92	13.702
522.26	13.012
522.61	13.639
522.95	14.119
523.29	12.825
523.64	13.732
523.98	13.088
524.32	13.611
524.66	13.442
525.01	14.024
525.35	13.430
525.69	13.718
526.04	12.769
526.38	13.958
526.72	13.083
527.06	13.926
527.41	13.170
527.75	12.750
528.09	14.636
528.43	14.247
528.78	12.984
529.12	13.842
529.46	13.436
529.80	13.786
530.15	12.420
530.49	13.679
530.83	13.879
531.17	13.973
531.51	12.610
531.86	13.957
532.20	13.439
532.54	12.276
532.88	13.410
533.22	13.199
533.57	13.775
533.91	14.387
534.25	14.648
534.59	13.578
534.93	13.329
535.27	14.076
535.62	13.026
535.96	13.923
536.30	13.630
536.64	12.987
536.98	13.525
537.32	14.021
537.66	13.752
538.01	13.384
538.35	13.743
538.69	13.512
539.03	13.893
539.37	13.481
539.71	13.574
540.05	12.686
540.39	13.558
540.73	13.059
541.07	13.197
541.42	13.199
541.76	14.141
542.10	12.999
542.44	12.197
542.78	13.046
543.12	14.286
543.46	13.476
543.80	13.035
544.14	13.008
544.48	12.409
544.82	14.190
545.16	14.064
545.50	14.045
545.84	13.534
546.18	13.604
546.52	13.338
546.86	12.933
547.20	12.294
547.54	13.438
547.88	13.698
548.22	13.225
548.56	13.676
548.90	13.126
549.24	13.611
549.58	12.740
549.92	14.013
550.26	13.875
550.60	13.438
550.94	13.060
551.28	13.777
551.62	14.511
551.96	14.422
552.30	12.518
552.64	12.500
552.98	13.849
553.32	12.761
553.66	12.766
554.00	12.959
554.34	12.454
554.68	12.379
555.02	13.698
555.36	13.843
555.69	13.547
556.03	13.009
556.37	13.229
556.71	11.983
557.05	13.210
557.39	13.037
557.73	13.313
558.07	13.263
558.41	13.475
558.75	13.318
559.08	12.510
559.42	13.218
559.76	13.761
560.10	13.221
560.44	14.444
560.78	12.950
561.12	14.015
561.45	12.789
561.79	13.686
562.13	13.291
562.47	14.286
562.81	13.420
563.15	12.181
563.48	13.352
563.82	12.927
564.16	14.083
564.50	13.772
564.84	12.432
565.17	13.311
565.51	13.503
565.85	11.992
566.19	13.775
566.52	12.779
566.86	13.527
567.20	13.439
567.54	13.644
567.88	13.102
568.21	13.525
568.55	13.354
568.89	12.064
569.23	12.649
569.56	13.016
569.90	12.768
570.24	12.852
570.57	13.170
570.91	13.282
571.25	12.739
571.59	12.477
571.92	13.024
572.26	12.741
572.60	12.658
572.93	12.777
573.27	12.602
573.61	13.245
573.95	12.903
574.28	12.890
574.62	12.515
574.96	13.017
575.29	12.638
575.63	12.671
575.97	12.690
576.30	12.693
576.64	12.968
576.98	12.841
577.31	12.810
577.65	12.525
577.98	12.849
578.32	12.873
578.66	12.783
578.99	12.770
579.33	13.068
579.67	12.424
580.00	12.398
580.34	12.336
580.67	12.469
581.01	12.547
581.35	12.628
581.68	13.023
582.02	13.099
582.35	13.175
582.69	12.696
583.02	12.466
583.36	12.367
583.70	12.805
584.03	12.699
584.37	12.787
584.70	12.463
585.04	13.121
585.37	12.977
585.71	12.735
586.04	12.607
586.38	12.918
586.72	12.475
587.05	12.803
587.39	12.734
587.72	12.819
588.06	13.078
588.39	12.734
588.73	12.515
589.06	12.480
589.40	12.556
589.73	12.325
590.07	12.723
590.40	12.685
590.73	12.763
591.07	12.871
591.40	12.826
591.74	12.494
592.07	12.780
592.41	13.085
592.74	13.117
593.08	12.684
593.41	13.166
593.75	12.661
594.08	12.470
594.41	12.761
594.75	13.043
595.08	12.808
595.42	13.171
595.75	13.413
596.09	12.933
596.42	12.623
596.75	12.593
597.09	12.875
597.42	13.100
597.75	12.756
598.09	12.386
598.42	13.154
598.76	12.720
599.09	12.685
599.42	12.878
599.76	12.880
600.09	12.538
600.42	12.881
600.76	12.602
601.09	13.032
601.42	12.858
601.76	12.780
602.09	13.012
602.42	13.331
602.76	12.961
603.09	13.347
603.42	12.835
603.76	13.016
604.09	12.727
604.42	12.558
604.76	12.527
605.09	12.506
605.42	13.180
605.75	12.591
606.09	12.169
606.42	13.134
606.75	12.338
607.09	11.835
607.42	12.916
607.75	12.691
608.08	13.616
608.42	12.231
608.75	12.757
609.08	12.200
609.41	12.966
609.75	12.103
610.08	12.771
610.41	13.071
610.74	12.897
611.07	12.776
611.41	12.794
611.74	12.474
612.07	12.767
612.40	11.784
612.73	12.459
613.07	12.361
613.40	12.445
613.73	13.434
614.06	12.769
614.39	12.840
614.72	13.493
615.06	12.389
615.39	12.528
615.72	12.689
616.05	11.993
616.38	11.913
616.71	12.058
617.05	13.268
617.38	12.569
617.71	12.439
618.04	11.578
618.37	13.438
618.70	12.613
619.03	12.784
619.36	12.954
619.69	12.208
620.03	13.640
620.36	12.665
620.69	12.420
621.02	11.385
621.35	11.529
621.68	12.551
622.01	13.592
622.34	12.530
622.67	13.078
623.00	13.298
623.33	12.790
623.66	11.673
623.99	13.503
624.32	11.665
624.65	12.166
624.99	12.638
625.32	12.173
625.65	11.938
625.98	12.638
626.31	12.653
626.64	11.350
626.97	12.284
627.30	12.660
627.63	12.370
627.96	12.121
628.29	13.860
628.62	13.830
628.95	13.026
629.28	12.512
629.61	13.110
629.94	12.089
630.26	12.906
630.59	13.387
630.92	11.747
631.25	11.535
631.58	13.490
631.91	11.983
632.24	12.514
632.57	11.667
632.90	12.252
633.23	10.552
633.56	13.669
633.89	11.962
634.22	15.901
634.55	12.911
634.88	13.235
635.20	13.625
635.53	12.403
635.86	13.590
636.19	11.414
636.52	12.195
636.85	11.218
637.18	11.328
637.51	12.609
637.83	11.358
638.16	11.600
638.49	13.618
638.82	12.680
639.15	11.303
639.48	11.898
639.81	12.222
640.13	12.535
640.46	13.842
640.79	11.223
641.12	12.278
641.45	10.917
641.77	11.782
642.10	13.767
642.43	13.208
642.76	9.779
643.09	13.099
643.41	11.962
643.74	11.470
644.07	12.621
644.40	11.443
644.73	10.678
645.05	9.773
645.38	12.126
645.71	13.605
646.04	11.279
646.36	12.153
646.69	11.538
647.02	10.747
647.35	12.066
647.67	10.906
648.00	11.957
648.33	11.695
648.66	10.017
648.98	12.267
649.31	12.730
649.64	11.894
649.96	12.954
650.29	10.621
650.62	11.532
650.94	13.276
651.27	11.484
651.60	12.587
651.92	12.366
652.25	13.735
652.58	12.046
652.90	12.795
653.23	10.696
653.56	10.579
653.88	10.580
654.21	11.604
654.54	10.465
654.86	11.220
655.19	10.644
655.52	14.507
655.84	13.956
656.17	16.515
656.49	21.297
656.82	20.102
657.15	14.658
657.47	10.616
657.80	7.724
658.13	7.762
658.45	11.414
658.78	11.404
659.10	11.146
659.43	10.959
659.75	10.856
660.08	10.345
660.41	10.446
660.73	9.780
661.06	9.864
661.38	8.140
661.71	10.656
662.03	11.628
662.36	12.832
662.68	13.118
663.01	14.407
663.33	9.287
663.66	7.539
663.98	12.809
664.31	10.549
664.63	7.207
664.96	12.473
665.28	13.090
665.61	11.015
665.93	10.493
666.26	11.392
666.58	9.850
666.91	10.762
667.23	11.290
667.56	11.494
667.88	13.551
668.21	11.384
668.53	11.264
668.86	12.710
669.18	12.766
669.50	11.751
669.83	10.501
670.15	11.429
670.48	12.644
670.80	15.317
671.13	11.442
671.45	13.699
671.77	11.207
672.10	9.162
672.42	10.305
672.75	13.214
673.07	9.818
673.39	14.366
673.72	10.978
674.04	10.656
674.37	13.618
674.69	9.465
675.01	9.615
675.34	12.035
675.66	9.804
675.98	12.389
676.31	9.502
676.63	10.658
676.95	8.471
677.28	11.009
677.60	10.049
677.92	12.417
678.25	12.581
678.57	12.220
678.89	11.301
679.22	13.872
679.54	11.020
679.86	12.109
680.18	12.115
680.51	10.769
680.83	8.772
681.15	11.395
681.48	11.423
681.80	10.838
682.12	8.958
682.44	9.256
682.77	6.316
683.09	10.714
683.41	8.837
683.73	9.375
684.06	10.619
684.38	7.906
684.70	9.980
685.02	14.050
685.34	11.742
685.67	9.756
685.99	10.498
686.31	13.103
686.63	10.846
686.96	12.616
687.28	9.980
687.60	13.043
687.92	12.646
688.24	11.400
688.56	14.035
688.89	8.686
689.21	11.211
689.53	10.135
689.85	13.034
690.17	11.868
690.49	11.594
690.82	9.069
691.14	7.005
691.46	9.513
691.78	12.747
692.10	10.828
692.42	7.692
692.74	14.130
693.06	9.888
693.39	9.368
693.71	9.333
694.03	11.818
694.35	11.712
694.67	10.500
694.99	10.567
695.31	13.178
695.63	12.195
695.95	10.941
696.27	7.671
696.59	10.215
696.91	8.101
697.23	9.391
697.56	11.511
697.88	12.890
698.20	8.639
698.52	11.215
698.84	11.962
699.16	9.220
699.48	10.123
699.80	12.403
700.12	12.064
700.44	10.986
700.76	7.865
701.08	11.178
701.40	9.880
701.72	10.462
702.04	8.176
702.36	9.451
702.68	10.671
703.00	8.480
703.32	10.028
703.64	12.349
703.96	13.196
704.28	9.940
704.60	9.451
704.91	7.524
705.23	10.127
705.55	8.966
705.87	9.155
706.19	5.861
706.51	9.507
706.83	8.599
707.15	9.451
707.47	10.468
707.79	11.675
708.11	9.254
708.43	12.437
708.74	9.840
709.06	9.358
709.38	11.239
709.70	11.411
710.02	7.165
710.34	7.333
710.66	7.818
710.98	7.121
711.29	11.364
711.61	10.323
711.93	6.774
712.25	4.196
712.57	8.772
712.89	8.791
713.20	9.929
713.52	7.664
713.84	11.613
714.16	10.032
714.48	8.544
714.80	8.626
715.11	13.663
715.43	8.385
715.75	11.491
716.07	12.048
716.39	13.468
716.70	9.712
717.02	9.412
717.34	13.258
717.66	7.759
717.97	7.540
718.29	10.630
718.61	8.155
718.93	8.915
719.24	15.867
719.56	8.240
719.88	6.716
720.20	5.138
720.51	10.938
720.83	13.230
721.15	2.846
721.46	8.015
721.78	10.757
722.10	10.757
722.42	4.435
722.73	10.425
723.05	11.429
723.37	14.706
723.68	9.600
724.00	6.809
724.32	8.787
724.63	5.761
724.95	9.829
725.27	8.861
725.58	9.465
725.90	10.042
726.22	10.870
726.53	3.529
726.85	9.854
727.16	10.000
727.48	11.877
727.80	14.062
728.11	10.656
728.43	8.984
728.74	7.540
729.06	2.800
729.38	7.905
729.69	7.117
730.01	5.576
730.32	8.856
730.64	9.848
730.96	12.587
731.27	7.358
731.59	8.889
731.90	9.709
732.22	6.410
732.53	7.770
732.85	5.369
733.16	11.221
733.48	8.446
733.80	11.149
734.11	13.176
734.43	6.502
734.74	12.613
735.06	9.798
735.37	10.334
735.69	10.680
736.00	9.901
736.32	8.156
736.63	8.276
736.95	9.932
737.26	6.207
737.58	7.639
737.89	9.966
738.21	9.253
738.52	10.266
738.83	13.061
739.15	8.017
739.46	6.226
739.78	5.282
740.09	11.644
740.41	3.929
740.72	9.929
741.04	4.800
741.35	1.754
741.66	8.444
741.98	8.654
742.29	16.337
742.61	5.854
742.92	14.474
743.23	7.075
743.55	10.360
743.86	4.484
744.18	5.392
744.49	1.015
744.80	5.102
745.12	10.748
745.43	9.479
745.74	14.865
746.06	6.542
746.37	8.257
746.68	5.769
747.00	9.091
747.31	8.654
747.62	6.881
747.94	10.917
748.25	9.633
748.56	13.778
748.88	11.268
749.19	12.857
749.50	3.398
749.82	5.164
750.13	5.000
750.44	6.923
750.75	4.059
751.07	9.609
751.38	7.801
751.69	6.950
752.01	9.766
752.32	5.000
752.63	7.463
752.94	10.000
753.26	5.439
753.57	5.417
753.88	8.502
754.19	8.765
754.51	6.767
754.82	6.227
755.13	2.609
755.44	9.350
755.75	7.200
756.07	4.059
756.38	8.993
756.69	11.263
757.00	11.526
757.31	9.385
757.63	8.642
757.94	10.452
758.25	12.963
758.56	8.696
758.87	8.631
759.18	12.303
759.50	10.101
759.81	11.371
760.12	11.077
760.43	8.036
760.74	10.734
761.05	10.773
761.36	8.883
761.67	8.459
761.99	2.749
762.30	7.664
762.61	8.230
762.92	11.966
763.23	9.836
763.54	11.688
763.85	8.571
764.16	3.252
764.47	6.800
764.78	8.929
765.10	11.803
765.41	10.638
765.72	9.938
766.03	12.871
766.34	11.154
766.65	3.766
766.96	4.695
767.27	10.891
767.58	1.685
767.89	3.086
768.20	6.630
768.51	6.533
768.82	5.288
769.13	11.947
769.44	10.042
769.75	7.265
770.06	7.175
770.37	2.451
770.68	6.311
770.99	1.942
771.30	10.504
771.61	7.755
771.92	12.863
772.23	11.261
772.54	4.972
772.85	5.814
773.16	11.640
773.47	5.325
773.78	9.770
774.09	8.125
774.39	4.969
774.70	8.163
775.01	2.069
775.32	11.429
775.63	5.263
775.94	-2.256
776.25	0.800
776.56	2.479
776.87	10.317
777.18	-5.405
777.48	-2.703
777.79	7.087
778.10	1.835
778.41	-0.877
778.72	3.361
779.03	4.930
779.34	6.081
779.65	2.113
779.95	3.974
780.26	-3.597
780.57	6.475
780.88	6.338
781.19	-3.361
781.50	4.027
781.80	5.263
782.11	1.744
782.42	9.434
782.73	6.536
783.04	4.138
783.34	5.344
783.65	3.356
783.96	-0.769
784.27	8.571
784.57	3.546
784.88	-13.462
785.19	10.909
785.50	2.727
785.81	-1.905
786.11	-2.521
786.42	3.540
786.73	-3.774
787.04	-11.009
787.34	-4.950
787.65	7.500
787.96	9.091
788.26	4.348
788.57	0.794
788.88	4.878
789.19	0.800
789.49	-3.817
789.80	15.152
790.11	-2.830
790.41	2.970
790.72	4.255
791.03	-6.522
791.33	-8.235
791.64	3.704
791.95	-1.087
792.25	3.409
792.56	1.282
792.87	-8.974
793.17	-10.256
793.48	-2.381
793.79	-2.500
794.09	8.654
794.40	8.333
794.70	3.604
795.01	3.125
795.32	8.696
795.62	-7.609
795.93	-3.774
796.23	5.051
796.54	-3.659
796.85	-5.952
797.15	-15.152
797.46	-1.449
797.76	1.316
798.07	13.636
798.37	-1.220
798.68	-16.129
798.99	-8.108
799.29	2.410
799.60	-11.538
799.90	-1.538
800.21	-24.242
800.51	-10.667
800.82	9.333
801.12	-33.333
801.43	-11.667
801.73	-10.811
802.04	7.143
802.34	-6.557
802.65	-5.970
802.95	-9.091
803.26	-1.724
803.56	12.308
803.87	-9.434
804.17	-3.226
804.48	-8.824
804.78	-31.707
805.09	7.246
805.39	-4.412
805.70	-36.170
806.00	-15.789
806.30	-11.538
806.61	-6.579
806.91	-6.757
807.22	-15.789
807.52	5.682
807.83	-32.203
808.13	-21.212
808.43	6.667
808.74	-27.586
809.04	-3.175
809.35	-26.531
809.65	-11.667
809.95	-8.163
810.26	1.408
810.56	-8.333
810.86	-18.367
811.17	9.615
811.47	-17.021
811.77	-31.250
812.08	0.000
812.38	-25.000
812.69	-23.636
812.99	-26.829
813.29	-21.622
813.59	-45.946
813.90	-9.091
814.20	-7.273
814.50	-20.000
814.81	-1.818
815.11	5.263
815.41	-16.279
815.72	-10.000
816.02	-28.571
816.32	-32.432
816.62	-20.833
816.93	-4.444
817.23	-20.000
817.53	-27.778
817.84	-32.432
818.14	-19.512
818.44	-18.000
818.74	-8.163
819.04	-9.756
819.35	-41.667
819.65	18.182
819.95	-111.111
820.25	-42.424
820.56	-38.095
820.86	-25.000
821.16	-27.273
821.46	0.000
821.76	-17.241
822.07	4.348
822.37	-6.061
822.67	4.878
822.97	-35.135
823.27	-57.143
823.57	-31.034
823.88	-35.294
824.18	-2.778
824.48	2.857
824.78	-19.048
825.08	-21.429
825.38	-70.370
825.69	-22.581
825.99	-2.439
826.29	-14.815
826.59	-18.750
826.89	-48.387
827.19	-91.304
827.49	-33.333
827.79	-52.174
828.09	-19.355
828.39	-6.250
828.70	-28.125
829.00	-24.138
829.30	-21.622
829.60	-66.667
829.90	7.407
830.20	-18.750
830.50	-13.636
830.80	-94.118
831.10	-77.273
831.40	-35.294
831.70	-46.154
832.00	-27.273
832.30	2.941
832.60	-5.405
832.90	1400.000
833.20	0.000
833.50	-80.000
833.80	-26.316
834.10	-62.500
834.40	-50.000
834.70	-73.333
835.00	-70.000
835.30	-58.333
835.60	-57.143
835.90	-38.095
836.20	-32.000
836.50	-75.000
836.80	-89.474
837.10	-13.514
837.40	10.000
837.70	-95.652
838.00	-29.167
838.30	-10.526
838.60	-190.000
838.90	-280.000
839.19	-100.000
839.49	-92.308
839.79	-100.000
840.09	-350.000
840.39	-160.000
840.69	-27.273
840.99	-61.905
841.29	-45.833
841.59	-92.308
841.88	-133.333
842.18	-78.571
842.48	-20.000
842.78	-285.714
843.08	-142.857
843.38	-250.000
843.68	-112.500
843.97	-35.714
844.27	-177.778
844.57	-18.182
844.87	-100.000
845.17	-27.273
845.47	600.000
845.76	-133.333
846.06	-125.000
846.36	-700.000
846.66	-52.632
846.96	-72.727
847.25	-127.778
847.55	-44.444
847.85	-80.952
848.15	-53.846
848.44	-350.000
848.74	-83.333
849.04	-92.308
849.34	-375.000
849.63	-163.636
849.93	-114.286
850.23	-35.000
850.53	-150.000
850.82	-50.000
851.12	-26.667
851.42	-64.706
851.71	-75.000
852.01	0.000
852.31	7.692
852.61	750.000
852.90	-52.941
853.20	0.000
853.50	-112.500
853.79	-142.857
854.09	-550.000
854.39	-95.000
854.68	-22.500
854.98	-23.810
855.28	-40.000
855.57	-25.000
855.87	-33.333
856.17	-44.000
856.46	-3.125
856.76	-25.000
857.05	-32.000
857.35	-141.667
857.65	-129.412
857.94	-108.333
858.24	-116.667
858.53	-20.000
858.83	-145.455
859.13	-8.000
859.42	-78.571
859.72	-250.000
860.01	-33.333
860.31	-287.500
860.60	-68.750
860.90	-300.000
861.20	-66.667
861.49	-6.667
861.79	-87.500
862.08	525.000
862.38	-200.000
862.67	385.714
862.97	500.000
863.26	-127.273
863.56	-72.727
863.85	21.053
864.15	5.882
864.44	-280.000
864.74	-200.000
865.03	-177.778
865.33	-78.571
865.62	128.571
865.92	-31.579
866.21	-94.444
866.51	-100.000
866.80	-100.000
867.10	-175.000
867.39	0.000
867.69	-66.667
867.98	-210.000
868.27	-52.941
868.57	0.000
868.86	550.000
869.16	-200.000
869.45	-200.000
869.75	500.000
870.04	-70.000
870.33	-1500.000
870.63	-5.263
870.92	-83.333
871.22	-1700.000
871.51	-185.714
871.80	-200.000
872.10	-800.000
>>>>>End Processed Spectral Data<<<<<
