SpectraSuite Data File
++++++++++++++++++++++++++++++++++++
Date: Wed May 13 21:10:12 PDT 2015
User: schluterlab
Dark Spectrum Present: Yes
Reference Spectrum Present: Yes
Number of Sampled Component Spectra: 1
Spectrometers: USB2E3373
Integration Time (usec): 3000 (USB2E3373)
Spectra Averaged: 3 (USB2E3373)
Boxcar Smoothing: 0 (USB2E3373)
Correct for Electrical Dark: No (USB2E3373)
Strobe/Lamp Enabled: No (USB2E3373)
Correct for Detector Non-linearity: No (USB2E3373)
Correct for Stray Light: No (USB2E3373)
Number of Pixels in Processed Spectrum: 2048
>>>>>Begin Processed Spectral Data<<<<<
178.53	0.000
178.91	800.000
179.29	158.333
179.67	-200.000
180.04	-300.000
180.42	240.000
180.80	1600.000
181.18	166.667
181.56	-275.000
181.94	-200.000
182.31	72.727
182.69	130.769
183.07	-360.000
183.45	266.667
183.83	111.111
184.20	57.143
184.58	133.333
184.96	233.333
185.34	214.286
185.72	0.000
186.09	-500.000
186.47	-240.000
186.85	100.000
187.23	-350.000
187.61	800.000
187.98	1700.000
188.36	-25.000
188.74	0.000
189.12	-109.091
189.49	100.000
189.87	158.333
190.25	360.000
190.63	1100.000
191.00	-40.000
191.38	200.000
191.76	350.000
192.14	116.667
192.51	52.632
192.89	466.667
193.27	275.000
193.65	-320.000
194.02	236.364
194.40	250.000
194.78	-200.000
195.15	340.000
195.53	-120.000
195.91	25.000
196.29	-200.000
196.66	0.000
197.04	-50.000
197.42	160.000
197.79	30.000
198.17	-50.000
198.55	0.000
198.92	250.000
199.30	-200.000
199.68	-10.000
200.05	250.000
200.43	400.000
200.81	-1300.000
201.18	-40.000
201.56	-50.000
201.94	600.000
202.31	13.043
202.69	-100.000
203.07	-300.000
203.44	0.000
203.82	-333.333
204.19	-60.000
204.57	0.000
204.95	-166.667
205.32	0.000
205.70	-50.000
206.08	0.000
206.45	-233.333
206.83	225.000
207.20	-100.000
207.58	-30.000
207.96	-1200.000
208.33	-171.429
208.71	-1800.000
209.08	287.500
209.46	425.000
209.84	0.000
210.21	260.000
210.59	1200.000
210.96	220.000
211.34	1800.000
211.71	-900.000
212.09	-183.333
212.46	-180.000
212.84	-233.333
213.22	25.000
213.59	-1100.000
213.97	-400.000
214.34	-900.000
214.72	-15.385
215.09	162.500
215.47	111.111
215.84	900.000
216.22	-100.000
216.59	-550.000
216.97	433.333
217.34	200.000
217.72	0.000
218.09	-0.000
218.47	600.000
218.84	-114.286
219.22	-37.500
219.59	-366.667
219.97	-200.000
220.34	-237.500
220.72	-260.000
221.09	0.000
221.47	-50.000
221.84	-1200.000
222.22	0.000
222.59	1400.000
222.97	-233.333
223.34	-100.000
223.72	-800.000
224.09	-400.000
224.46	-54.545
224.84	12.500
225.21	-128.571
225.59	-375.000
225.96	-66.667
226.34	40.000
226.71	-142.857
227.08	750.000
227.46	-162.500
227.83	-800.000
228.21	-62.500
228.58	-300.000
228.95	-23.529
229.33	31.250
229.70	-112.500
230.08	-23.077
230.45	-87.500
230.82	-91.667
231.20	85.714
231.57	-275.000
231.95	1200.000
232.32	41.667
232.69	5.882
233.07	-1800.000
233.44	-4.348
233.81	-200.000
234.19	20.833
234.56	-113.333
234.93	-20.000
235.31	10.526
235.68	-53.846
236.05	-15.385
236.43	-33.333
236.80	0.000
237.17	-13.333
237.55	5.882
237.92	-13.793
238.29	-29.630
238.67	-16.667
239.04	-3.226
239.41	4.255
239.79	34.043
240.16	2.326
240.53	7.143
240.91	0.000
241.28	21.429
241.65	11.290
242.02	14.474
242.40	15.942
242.77	8.696
243.14	16.667
243.51	15.957
243.89	16.346
244.26	32.075
244.63	11.538
245.00	17.708
245.38	13.445
245.75	18.033
246.12	24.812
246.49	15.447
246.87	15.126
247.24	16.892
247.61	23.841
247.98	18.590
248.36	15.976
248.73	18.539
249.10	17.677
249.47	17.204
249.84	21.053
250.22	20.896
250.59	21.963
250.96	20.909
251.33	17.703
251.70	20.084
252.08	19.247
252.45	24.280
252.82	25.856
253.19	22.957
253.56	21.223
253.94	26.335
254.31	21.479
254.68	25.168
255.05	22.112
255.42	21.329
255.79	20.552
256.16	22.397
256.54	24.444
256.91	19.620
257.28	23.585
257.65	21.656
258.02	25.513
258.39	21.637
258.76	20.349
259.14	24.148
259.51	22.753
259.88	24.932
260.25	22.222
260.62	19.944
260.99	22.281
261.36	22.798
261.73	22.716
262.10	21.374
262.47	21.235
262.85	21.891
263.22	23.333
263.59	23.896
263.96	23.601
264.33	22.596
264.70	21.860
265.07	24.537
265.44	24.828
265.81	22.654
266.18	23.007
266.55	21.616
266.92	19.492
267.29	23.663
267.66	24.841
268.03	24.897
268.40	21.186
268.77	22.521
269.14	24.082
269.51	24.435
269.88	20.978
270.25	23.729
270.62	21.926
270.99	23.819
271.36	21.627
271.73	25.100
272.10	23.238
272.47	23.800
272.84	23.425
273.21	23.092
273.58	22.541
273.95	23.396
274.32	22.761
274.69	23.497
275.06	22.438
275.43	24.859
275.80	20.922
276.17	23.204
276.54	22.558
276.91	21.254
277.28	21.841
277.65	23.776
278.02	24.821
278.39	21.314
278.76	23.746
279.13	22.642
279.50	22.414
279.87	19.203
280.23	21.261
280.60	22.837
280.97	22.565
281.34	23.975
281.71	20.976
282.08	21.368
282.45	23.770
282.82	21.086
283.19	24.238
283.56	21.562
283.92	22.936
284.29	21.061
284.66	22.570
285.03	22.638
285.40	22.205
285.77	22.372
286.14	20.821
286.51	25.037
286.87	18.615
287.24	20.649
287.61	21.235
287.98	22.353
288.35	22.802
288.72	20.947
289.08	21.083
289.45	18.502
289.82	20.726
290.19	20.477
290.56	20.312
290.93	20.442
291.29	20.109
291.66	20.492
292.03	20.708
292.40	19.785
292.77	20.080
293.13	20.084
293.50	18.954
293.87	18.933
294.24	18.783
294.60	21.717
294.97	20.503
295.34	15.699
295.71	18.660
296.08	18.194
296.44	18.878
296.81	17.418
297.18	19.250
297.55	18.986
297.91	18.385
298.28	18.402
298.65	16.626
299.02	20.513
299.38	16.564
299.75	16.827
300.12	16.744
300.48	16.140
300.85	17.898
301.22	17.073
301.59	15.845
301.95	14.983
302.32	16.569
302.69	15.819
303.05	15.172
303.42	17.841
303.79	17.035
304.15	17.963
304.52	18.817
304.89	17.054
305.25	15.917
305.62	16.269
305.99	16.540
306.35	17.450
306.72	16.785
307.09	17.101
307.45	16.400
307.82	16.316
308.19	15.883
308.55	16.888
308.92	18.075
309.29	17.217
309.65	16.484
310.02	15.507
310.38	16.768
310.75	14.793
311.12	17.104
311.48	16.716
311.85	16.437
312.22	16.925
312.58	17.198
312.95	16.716
313.31	17.355
313.68	16.985
314.05	18.998
314.41	19.500
314.78	16.888
315.14	16.944
315.51	18.268
315.87	17.331
316.24	17.906
316.61	18.174
316.97	17.500
317.34	19.251
317.70	19.358
318.07	19.521
318.43	19.151
318.80	18.412
319.16	18.568
319.53	19.086
319.89	19.151
320.26	21.442
320.62	19.648
320.99	20.833
321.35	20.486
321.72	19.057
322.08	21.494
322.45	22.572
322.81	21.996
323.18	22.540
323.54	23.466
323.91	23.848
324.27	23.132
324.64	23.258
325.00	24.234
325.37	25.341
325.73	25.337
326.10	24.474
326.46	26.171
326.83	25.324
327.19	26.667
327.56	26.994
327.92	26.790
328.29	27.546
328.65	29.273
329.01	28.584
329.38	30.522
329.74	29.785
330.11	29.937
330.47	28.733
330.84	29.693
331.20	30.316
331.56	30.797
331.93	31.697
332.29	31.103
332.66	30.339
333.02	32.407
333.38	32.719
333.75	31.826
334.11	32.378
334.48	32.868
334.84	31.272
335.20	32.933
335.57	31.593
335.93	30.842
336.29	32.399
336.66	32.222
337.02	32.783
337.38	32.202
337.75	32.644
338.11	32.792
338.47	32.534
338.84	32.818
339.20	33.686
339.56	32.679
339.93	33.103
340.29	33.134
340.65	33.875
341.02	34.859
341.38	33.108
341.74	32.353
342.11	34.930
342.47	33.054
342.83	33.987
343.20	34.349
343.56	33.933
343.92	34.768
344.28	35.714
344.65	33.224
345.01	33.737
345.37	35.033
345.73	35.376
346.10	34.189
346.46	34.797
346.82	34.109
347.19	34.494
347.55	34.895
347.91	34.762
348.27	35.962
348.63	36.779
349.00	35.220
349.36	34.772
349.72	35.344
350.08	35.569
350.45	35.552
350.81	35.603
351.17	35.797
351.53	35.114
351.89	34.790
352.26	35.058
352.62	35.969
352.98	36.102
353.34	36.715
353.70	36.293
354.07	34.667
354.43	36.625
354.79	37.580
355.15	35.870
355.51	37.282
355.87	36.669
356.24	36.918
356.60	36.982
356.96	37.375
357.32	37.307
357.68	37.433
358.04	35.842
358.40	38.295
358.77	36.468
359.13	37.043
359.49	36.260
359.85	37.908
360.21	38.705
360.57	37.034
360.93	37.633
361.29	37.380
361.66	37.434
362.02	37.658
362.38	36.706
362.74	37.201
363.10	39.190
363.46	38.112
363.82	39.172
364.18	37.346
364.54	37.783
364.90	37.282
365.26	38.146
365.62	37.358
365.98	38.648
366.35	38.582
366.71	38.231
367.07	38.767
367.43	38.118
367.79	39.402
368.15	38.115
368.51	38.537
368.87	39.009
369.23	39.075
369.59	39.394
369.95	38.534
370.31	38.075
370.67	39.102
371.03	40.015
371.39	40.028
371.75	39.786
372.11	40.171
372.47	39.077
372.83	38.835
373.19	39.209
373.55	39.812
373.91	39.675
374.27	38.935
374.63	39.972
374.99	39.763
375.35	40.274
375.71	39.198
376.07	41.947
376.42	39.906
376.78	41.347
377.14	41.356
377.50	40.808
377.86	41.368
378.22	40.771
378.58	40.416
378.94	42.063
379.30	41.162
379.66	42.109
380.02	41.605
380.38	41.265
380.74	41.721
381.09	42.521
381.45	42.201
381.81	42.267
382.17	42.092
382.53	42.277
382.89	42.642
383.25	41.852
383.61	42.373
383.97	42.375
384.32	42.155
384.68	43.122
385.04	41.662
385.40	42.403
385.76	42.397
386.12	43.447
386.48	43.386
386.83	42.365
387.19	42.566
387.55	42.551
387.91	42.681
388.27	42.972
388.62	43.383
388.98	43.179
389.34	43.045
389.70	43.773
390.06	42.813
390.42	43.557
390.77	42.985
391.13	44.192
391.49	43.264
391.85	43.962
392.20	41.980
392.56	45.079
392.92	43.417
393.28	43.579
393.64	43.180
393.99	42.717
394.35	43.333
394.71	43.846
395.07	43.270
395.42	44.485
395.78	42.857
396.14	43.627
396.50	42.930
396.85	44.232
397.21	43.945
397.57	43.416
397.92	42.635
398.28	43.598
398.64	43.594
399.00	43.862
399.35	44.438
399.71	43.681
400.07	43.373
400.42	45.016
400.78	44.048
401.14	43.225
401.49	42.181
401.85	44.042
402.21	44.396
402.57	43.654
402.92	43.930
403.28	44.153
403.63	43.087
403.99	44.850
404.35	43.641
404.70	42.961
405.06	43.511
405.42	43.342
405.77	43.606
406.13	42.857
406.49	43.739
406.84	44.383
407.20	43.043
407.55	43.896
407.91	42.687
408.27	43.481
408.62	43.155
408.98	42.848
409.34	42.884
409.69	44.314
410.05	42.786
410.40	42.240
410.76	43.502
411.11	43.905
411.47	43.066
411.83	43.481
412.18	41.688
412.54	43.233
412.89	42.947
413.25	42.183
413.60	44.013
413.96	43.009
414.31	41.800
414.67	42.413
415.03	43.099
415.38	41.942
415.74	42.560
416.09	43.688
416.45	43.609
416.80	43.221
417.16	42.982
417.51	43.001
417.87	42.526
418.22	43.245
418.58	41.919
418.93	41.933
419.29	43.036
419.64	42.621
420.00	41.968
420.35	42.319
420.71	42.840
421.06	41.636
421.42	42.336
421.77	40.867
422.12	41.891
422.48	41.549
422.83	42.705
423.19	42.898
423.54	42.344
423.90	41.865
424.25	42.923
424.61	41.651
424.96	41.928
425.31	40.437
425.67	42.504
426.02	42.521
426.38	42.102
426.73	42.578
427.09	41.276
427.44	41.632
427.79	41.865
428.15	41.101
428.50	39.940
428.85	41.082
429.21	40.011
429.56	40.914
429.92	41.541
430.27	40.900
430.62	41.291
430.98	40.296
431.33	41.322
431.68	40.841
432.04	40.901
432.39	39.954
432.74	40.466
433.10	42.010
433.45	40.178
433.80	40.632
434.16	39.268
434.51	39.728
434.86	41.461
435.22	40.125
435.57	38.882
435.92	39.747
436.28	40.300
436.63	39.434
436.98	40.012
437.34	40.415
437.69	38.902
438.04	39.672
438.39	40.162
438.75	39.392
439.10	40.139
439.45	39.588
439.81	39.470
440.16	40.174
440.51	38.407
440.86	39.360
441.22	39.644
441.57	38.991
441.92	38.621
442.27	39.502
442.63	38.751
442.98	39.468
443.33	38.318
443.68	37.849
444.03	38.400
444.39	38.721
444.74	38.653
445.09	37.775
445.44	39.493
445.79	39.081
446.15	39.212
446.50	38.436
446.85	38.536
447.20	37.533
447.55	38.332
447.91	37.697
448.26	37.907
448.61	37.342
448.96	37.301
449.31	36.722
449.66	38.172
450.02	37.180
450.37	38.132
450.72	37.600
451.07	37.868
451.42	37.118
451.77	36.884
452.12	36.958
452.47	37.250
452.83	36.792
453.18	36.537
453.53	36.696
453.88	37.410
454.23	37.701
454.58	36.887
454.93	35.664
455.28	37.058
455.63	37.056
455.98	38.223
456.34	36.300
456.69	36.102
457.04	35.356
457.39	35.839
457.74	36.445
458.09	35.960
458.44	36.428
458.79	35.530
459.14	35.562
459.49	35.244
459.84	35.626
460.19	35.654
460.54	35.219
460.89	35.360
461.24	35.203
461.59	35.145
461.94	35.651
462.29	35.172
462.64	34.499
462.99	34.541
463.34	36.257
463.69	34.472
464.04	34.634
464.39	35.937
464.74	34.152
465.09	34.966
465.44	34.063
465.79	35.538
466.14	34.721
466.49	34.604
466.84	33.891
467.19	34.713
467.54	34.673
467.89	34.004
468.24	33.866
468.59	34.098
468.94	33.397
469.29	33.443
469.64	34.449
469.99	33.724
470.34	33.041
470.68	33.680
471.03	33.427
471.38	33.310
471.73	32.853
472.08	32.990
472.43	33.311
472.78	32.725
473.13	32.124
473.48	32.942
473.83	33.396
474.17	31.510
474.52	33.722
474.87	32.147
475.22	32.548
475.57	33.073
475.92	33.370
476.27	31.935
476.61	32.050
476.96	31.982
477.31	31.931
477.66	32.599
478.01	31.703
478.36	31.717
478.70	31.847
479.05	31.687
479.40	31.513
479.75	31.987
480.10	32.585
480.45	31.437
480.79	32.504
481.14	31.864
481.49	31.771
481.84	31.103
482.19	31.496
482.53	31.476
482.88	31.687
483.23	30.799
483.58	31.002
483.92	30.691
484.27	30.329
484.62	30.448
484.97	31.066
485.31	30.360
485.66	29.304
486.01	30.658
486.36	30.586
486.70	30.788
487.05	30.868
487.40	30.399
487.75	30.462
488.09	30.247
488.44	30.740
488.79	30.848
489.13	29.066
489.48	30.953
489.83	29.477
490.17	29.823
490.52	30.575
490.87	29.671
491.22	30.005
491.56	30.426
491.91	29.861
492.26	29.787
492.60	29.197
492.95	29.592
493.30	29.457
493.64	28.010
493.99	30.242
494.34	29.239
494.68	29.785
495.03	29.990
495.37	28.759
495.72	29.123
496.07	29.859
496.41	29.481
496.76	29.936
497.11	29.577
497.45	29.572
497.80	29.278
498.14	29.320
498.49	29.148
498.84	29.049
499.18	28.273
499.53	28.065
499.87	28.627
500.22	29.716
500.56	28.435
500.91	29.225
501.26	28.325
501.60	28.529
501.95	29.181
502.29	28.738
502.64	28.785
502.98	28.565
503.33	28.759
503.67	28.335
504.02	28.235
504.36	28.182
504.71	27.642
505.06	28.273
505.40	28.247
505.75	28.535
506.09	28.002
506.44	27.923
506.78	27.679
507.13	28.274
507.47	28.155
507.82	27.316
508.16	28.549
508.51	27.944
508.85	27.994
509.19	27.196
509.54	28.365
509.88	27.312
510.23	28.158
510.57	27.966
510.92	27.963
511.26	27.723
511.61	27.552
511.95	26.847
512.30	27.152
512.64	28.036
512.98	27.756
513.33	26.761
513.67	27.939
514.02	27.822
514.36	28.652
514.70	26.963
515.05	28.262
515.39	27.476
515.74	27.709
516.08	27.493
516.42	27.304
516.77	27.241
517.11	27.748
517.46	28.151
517.80	27.966
518.14	27.373
518.49	26.522
518.83	26.253
519.17	27.470
519.52	26.598
519.86	27.747
520.20	26.743
520.55	26.493
520.89	26.249
521.23	28.013
521.58	27.054
521.92	26.964
522.26	27.066
522.61	27.602
522.95	27.655
523.29	27.365
523.64	26.955
523.98	26.557
524.32	26.276
524.66	26.494
525.01	27.392
525.35	27.847
525.69	26.839
526.04	26.580
526.38	27.661
526.72	25.838
527.06	26.950
527.41	26.406
527.75	25.901
528.09	27.978
528.43	27.680
528.78	27.003
529.12	28.266
529.46	26.935
529.80	26.731
530.15	26.126
530.49	27.156
530.83	26.811
531.17	26.712
531.51	26.568
531.86	26.287
532.20	26.465
532.54	26.690
532.88	25.800
533.22	25.522
533.57	26.424
533.91	26.323
534.25	27.148
534.59	25.869
534.93	26.531
535.27	26.306
535.62	27.039
535.96	26.610
536.30	26.463
536.64	25.769
536.98	26.209
537.32	26.121
537.66	25.599
538.01	26.352
538.35	25.898
538.69	25.686
539.03	25.168
539.37	24.547
539.71	25.375
540.05	25.101
540.39	25.396
540.73	25.140
541.07	25.170
541.42	26.330
541.76	25.846
542.10	24.374
542.44	25.641
542.78	26.232
543.12	25.067
543.46	24.050
543.80	25.119
544.14	25.740
544.48	24.088
544.82	23.874
545.16	25.152
545.50	25.928
545.84	25.877
546.18	24.264
546.52	25.829
546.86	25.724
547.20	24.660
547.54	24.732
547.88	25.843
548.22	24.691
548.56	25.350
548.90	25.101
549.24	25.417
549.58	24.199
549.92	26.266
550.26	25.978
550.60	25.000
550.94	24.478
551.28	23.997
551.62	24.812
551.96	24.378
552.30	23.872
552.64	25.282
552.98	24.503
553.32	25.523
553.66	24.798
554.00	25.558
554.34	24.396
554.68	24.385
555.02	24.326
555.36	24.508
555.69	24.982
556.03	24.660
556.37	24.111
556.71	24.107
557.05	23.838
557.39	23.512
557.73	25.265
558.07	24.039
558.41	25.132
558.75	23.788
559.08	24.379
559.42	24.390
559.76	24.006
560.10	24.212
560.44	26.013
560.78	24.532
561.12	23.336
561.45	24.694
561.79	25.103
562.13	24.191
562.47	23.929
562.81	23.737
563.15	23.300
563.48	24.019
563.82	23.735
564.16	24.103
564.50	23.948
564.84	24.189
565.17	24.371
565.51	23.596
565.85	22.985
566.19	24.172
566.52	23.526
566.86	23.767
567.20	23.580
567.54	23.604
567.88	23.068
568.21	23.411
568.55	24.361
568.89	22.981
569.23	22.548
569.56	23.446
569.90	23.581
570.24	22.671
570.57	23.405
570.91	22.870
571.25	22.643
571.59	23.031
571.92	22.734
572.26	23.018
572.60	23.191
572.93	23.305
573.27	23.049
573.61	23.236
573.95	23.321
574.28	22.918
574.62	22.859
574.96	23.204
575.29	22.894
575.63	22.972
575.97	23.016
576.30	22.770
576.64	23.474
576.98	22.957
577.31	23.543
577.65	23.062
577.98	23.071
578.32	23.539
578.66	23.238
578.99	22.817
579.33	23.163
579.67	22.607
580.00	23.155
580.34	22.564
580.67	22.636
581.01	22.691
581.35	22.855
581.68	22.487
582.02	22.829
582.35	23.098
582.69	23.150
583.02	22.611
583.36	22.615
583.70	22.325
584.03	22.890
584.37	22.514
584.70	22.450
585.04	22.948
585.37	22.746
585.71	22.528
586.04	22.682
586.38	22.310
586.72	22.197
587.05	22.532
587.39	22.726
587.72	21.809
588.06	22.216
588.39	22.194
588.73	22.262
589.06	22.050
589.40	22.085
589.73	21.991
590.07	22.712
590.40	21.924
590.73	22.245
591.07	22.984
591.40	22.783
591.74	22.143
592.07	22.319
592.41	23.037
592.74	22.222
593.08	21.915
593.41	22.351
593.75	22.125
594.08	22.453
594.41	22.084
594.75	22.339
595.08	22.517
595.42	21.868
595.75	22.270
596.09	21.901
596.42	21.609
596.75	21.194
597.09	22.338
597.42	22.252
597.75	22.489
598.09	21.767
598.42	23.043
598.76	22.292
599.09	22.129
599.42	22.659
599.76	22.306
600.09	21.837
600.42	21.582
600.76	22.136
601.09	23.051
601.42	22.305
601.76	21.544
602.09	22.456
602.42	22.658
602.76	21.728
603.09	21.766
603.42	22.071
603.76	22.058
604.09	21.818
604.42	21.432
604.76	21.475
605.09	21.794
605.42	22.897
605.75	21.113
606.09	22.061
606.42	22.361
606.75	21.082
607.09	21.410
607.42	22.417
607.75	20.919
608.08	22.002
608.42	21.603
608.75	21.978
609.08	21.117
609.41	21.510
609.75	21.130
610.08	21.450
610.41	22.692
610.74	21.848
611.07	21.192
611.41	21.801
611.74	22.257
612.07	21.991
612.40	22.486
612.73	21.789
613.07	21.120
613.40	22.247
613.73	21.723
614.06	21.504
614.39	21.456
614.72	22.265
615.06	21.167
615.39	22.075
615.72	21.220
616.05	21.453
616.38	21.821
616.71	21.056
617.05	20.700
617.38	20.579
617.71	21.752
618.04	21.268
618.37	22.524
618.70	21.669
619.03	21.168
619.36	21.566
619.69	20.614
620.03	21.696
620.36	20.668
620.69	20.628
621.02	20.769
621.35	19.215
621.68	22.168
622.01	21.197
622.34	21.253
622.67	21.457
623.00	22.644
623.33	22.364
623.66	19.851
623.99	21.080
624.32	20.836
624.65	21.068
624.99	21.161
625.32	20.986
625.65	20.853
625.98	20.142
626.31	21.143
626.64	20.722
626.97	20.675
627.30	21.899
627.63	22.059
627.96	19.827
628.29	22.977
628.62	20.696
628.95	21.242
629.28	19.803
629.61	21.435
629.94	20.600
630.26	22.562
630.59	20.679
630.92	20.382
631.25	21.627
631.58	21.734
631.91	20.148
632.24	19.759
632.57	21.333
632.90	20.420
633.23	19.784
633.56	22.662
633.89	20.813
634.22	21.790
634.55	21.437
634.88	20.588
635.20	20.125
635.53	20.801
635.86	20.385
636.19	21.836
636.52	21.220
636.85	20.386
637.18	21.194
637.51	21.848
637.83	20.235
638.16	20.000
638.49	19.226
638.82	20.131
639.15	20.612
639.48	20.856
639.81	20.278
640.13	19.577
640.46	21.469
640.79	19.712
641.12	19.970
641.45	19.796
641.77	19.735
642.10	20.726
642.43	21.541
642.76	18.612
643.09	20.128
643.41	22.010
643.74	20.679
644.07	18.447
644.40	20.730
644.73	20.508
645.05	21.990
645.38	21.429
645.71	20.578
646.04	19.529
646.36	22.396
646.69	19.580
647.02	19.308
647.35	21.024
647.67	19.778
648.00	20.652
648.33	20.508
648.66	16.027
648.98	20.652
649.31	23.006
649.64	20.188
649.96	21.643
650.29	20.588
650.62	21.087
650.94	19.310
651.27	19.435
651.60	21.154
651.92	18.817
652.25	23.283
652.58	19.637
652.90	19.192
653.23	19.015
653.56	20.000
653.88	17.235
654.21	19.283
654.54	20.598
654.86	18.211
655.19	20.868
655.52	22.115
655.84	21.287
656.17	25.984
656.49	33.974
656.82	32.877
657.15	24.347
657.47	17.884
657.80	13.244
658.13	13.584
658.45	19.303
658.78	18.610
659.10	18.945
659.43	18.118
659.75	18.875
660.08	17.724
660.41	17.546
660.73	21.074
661.06	17.347
661.38	17.829
661.71	20.697
662.03	19.450
662.36	19.027
662.68	20.215
663.01	19.915
663.33	19.438
663.66	17.517
663.98	19.326
664.31	20.879
664.63	15.991
664.96	21.663
665.28	21.245
665.61	17.927
665.93	18.201
666.26	22.785
666.58	16.488
666.91	20.179
667.23	18.203
667.56	17.701
667.88	17.757
668.21	18.750
668.53	19.310
668.86	20.863
669.18	18.676
669.50	17.051
669.83	17.422
670.15	21.190
670.48	18.161
670.80	20.131
671.13	19.908
671.45	19.635
671.77	18.966
672.10	18.519
672.42	18.893
672.75	18.214
673.07	16.909
673.39	18.657
673.72	20.160
674.04	19.672
674.37	21.748
674.69	17.078
675.01	19.444
675.34	19.475
675.66	17.211
675.98	18.363
676.31	18.552
676.63	21.542
676.95	18.118
677.28	20.872
677.60	19.363
677.92	20.177
678.25	19.306
678.57	20.367
678.89	18.763
679.22	20.497
679.54	21.429
679.86	20.117
680.18	20.962
680.51	18.846
680.83	17.739
681.15	18.271
681.48	20.441
681.80	16.973
682.12	18.750
682.44	17.907
682.77	17.684
683.09	17.411
683.41	17.907
683.73	19.643
684.06	19.690
684.38	15.171
684.70	17.923
685.02	19.835
685.34	19.765
685.67	21.576
685.99	20.285
686.31	19.828
686.63	18.015
686.96	19.852
687.28	16.966
687.60	21.172
687.92	16.537
688.24	20.600
688.56	19.737
688.89	16.036
689.21	17.937
689.53	15.766
689.85	19.551
690.17	20.440
690.49	18.599
690.82	18.377
691.14	17.633
691.46	18.097
691.78	20.000
692.10	21.231
692.42	15.385
692.74	19.130
693.06	17.079
693.39	17.799
693.71	19.556
694.03	20.682
694.35	20.721
694.67	17.000
694.99	23.196
695.31	19.380
695.63	18.537
695.95	18.066
696.27	16.164
696.59	17.742
696.91	16.760
697.23	19.797
697.56	19.664
697.88	20.374
698.20	19.222
698.52	17.523
698.84	18.660
699.16	17.967
699.48	17.778
699.80	19.897
700.12	19.571
700.44	19.155
700.76	16.854
701.08	17.523
701.40	16.168
701.72	18.462
702.04	15.723
702.36	13.720
702.68	14.939
703.00	17.836
703.32	15.877
703.64	16.566
703.96	19.355
704.28	18.976
704.60	17.988
704.91	15.361
705.23	17.722
705.55	16.552
705.87	15.493
706.19	19.414
706.51	17.254
706.83	16.879
707.15	19.207
707.47	20.386
707.79	16.244
708.11	19.023
708.43	20.812
708.74	17.021
709.06	15.508
709.38	19.597
709.70	15.916
710.02	16.511
710.34	16.333
710.66	13.355
710.98	15.170
711.29	16.558
711.61	16.774
711.93	18.065
712.25	16.084
712.57	14.737
712.89	17.582
713.20	19.858
713.52	12.774
713.84	19.032
714.16	16.505
714.48	16.772
714.80	13.419
715.11	21.512
715.43	16.460
715.75	19.255
716.07	18.976
716.39	16.162
716.70	17.986
717.02	10.980
717.34	17.045
717.66	14.655
717.97	13.095
718.29	22.835
718.61	13.305
718.93	14.729
719.24	20.664
719.56	11.985
719.88	18.284
720.20	18.182
720.51	19.922
720.83	19.455
721.15	13.415
721.46	17.176
721.78	15.538
722.10	16.335
722.42	12.097
722.73	16.988
723.05	18.776
723.37	18.487
723.68	16.000
724.00	11.489
724.32	16.736
724.63	18.107
724.95	12.393
725.27	14.768
725.58	23.045
725.90	16.318
726.22	17.029
726.53	12.941
726.85	19.708
727.16	13.333
727.48	21.456
727.80	14.844
728.11	18.033
728.43	22.656
728.74	17.857
729.06	14.800
729.38	17.787
729.69	20.641
730.01	16.357
730.32	18.819
730.64	13.258
730.96	22.378
731.27	12.709
731.59	16.825
731.90	20.065
732.22	14.744
732.53	13.514
732.85	15.101
733.16	20.462
733.48	15.203
733.80	15.878
734.11	14.189
734.43	20.124
734.74	18.619
735.06	17.579
735.37	19.757
735.69	17.799
736.00	17.162
736.32	16.667
736.63	20.690
736.95	16.438
737.26	18.276
737.58	17.708
737.89	18.213
738.21	14.947
738.52	16.730
738.83	20.000
739.15	16.034
739.46	14.008
739.78	14.437
740.09	18.836
740.41	16.786
740.72	15.248
741.04	18.000
741.35	15.351
741.66	18.222
741.98	15.385
742.29	20.297
742.61	17.561
742.92	18.860
743.23	15.094
743.55	15.766
743.86	18.834
744.18	20.098
744.49	13.198
744.80	16.837
745.12	14.019
745.43	14.218
745.74	16.216
746.06	16.822
746.37	17.890
746.68	13.462
747.00	19.617
747.31	19.231
747.62	20.183
747.94	20.524
748.25	17.431
748.56	20.444
748.88	18.779
749.19	17.143
749.50	14.563
749.82	13.615
750.13	10.000
750.44	12.308
750.75	15.129
751.07	21.708
751.38	17.021
751.69	17.761
752.01	16.016
752.32	17.308
752.63	19.030
752.94	16.000
753.26	18.828
753.57	16.250
753.88	16.599
754.19	19.920
754.51	13.534
754.82	17.582
755.13	10.870
755.44	14.634
755.75	12.800
756.07	9.963
756.38	19.784
756.69	17.065
757.00	17.445
757.31	15.858
757.63	13.580
757.94	19.492
758.25	19.841
758.56	17.935
758.87	19.048
759.18	15.142
759.50	18.182
759.81	16.054
760.12	18.769
760.43	15.774
760.74	14.407
761.05	14.917
761.36	16.905
761.67	17.523
761.99	13.402
762.30	18.613
762.61	12.757
762.92	22.222
763.23	18.443
763.54	16.017
763.85	16.327
764.16	16.667
764.47	11.200
764.78	16.071
765.10	19.672
765.41	21.277
765.72	16.770
766.03	17.492
766.34	12.308
766.65	15.900
766.96	12.207
767.27	18.812
767.58	5.618
767.89	15.432
768.20	10.497
768.51	18.090
768.82	16.827
769.13	18.584
769.44	15.900
769.75	11.111
770.06	13.004
770.37	9.314
770.68	20.874
770.99	15.049
771.30	16.387
771.61	13.061
771.92	17.012
772.23	15.315
772.54	10.497
772.85	18.023
773.16	13.757
773.47	8.284
773.78	10.345
774.09	12.500
774.39	17.391
774.70	19.048
775.01	13.793
775.32	13.571
775.63	14.286
775.94	5.263
776.25	17.600
776.56	15.702
776.87	18.254
777.18	5.405
777.48	3.604
777.79	6.299
778.10	10.092
778.41	17.544
778.72	1.681
779.03	11.268
779.34	14.865
779.65	16.901
779.95	14.570
780.26	12.230
780.57	19.424
780.88	10.563
781.19	8.403
781.50	17.450
781.80	16.959
782.11	9.884
782.42	18.868
782.73	16.340
783.04	15.862
783.34	9.924
783.65	10.067
783.96	18.462
784.27	10.000
784.57	9.220
784.88	7.692
785.19	15.455
785.50	18.182
785.81	3.810
786.11	9.244
786.42	19.469
786.73	17.925
787.04	5.505
787.34	-3.960
787.65	18.333
787.96	16.529
788.26	13.043
788.57	12.698
788.88	14.634
789.19	1.600
789.49	0.000
789.80	28.030
790.11	7.547
790.41	16.832
790.72	11.702
791.03	6.522
791.33	-1.176
791.64	8.642
791.95	5.435
792.25	4.545
792.56	17.949
792.87	-3.846
793.17	-12.821
793.48	10.714
793.79	1.250
794.09	7.692
794.40	21.875
794.70	14.414
795.01	14.844
795.32	4.348
795.62	2.174
795.93	12.264
796.23	24.242
796.54	4.878
796.85	14.286
797.15	-13.636
797.46	5.797
797.76	1.316
798.07	21.591
798.37	8.537
798.68	-3.226
798.99	6.757
799.29	20.482
799.60	3.846
799.90	6.154
800.21	13.636
800.51	5.333
800.82	5.333
801.12	-27.083
801.43	-23.333
801.73	8.108
802.04	25.714
802.34	18.033
802.65	17.910
802.95	0.000
803.26	10.345
803.56	16.923
803.87	5.660
804.17	9.677
804.48	17.647
804.78	-9.756
805.09	17.391
805.39	10.294
805.70	0.000
806.00	8.772
806.30	24.359
806.61	13.158
806.91	1.351
807.22	1.316
807.52	5.682
807.83	-16.949
808.13	-15.152
808.43	-3.333
808.74	-13.793
809.04	0.000
809.35	-20.408
809.65	-1.667
809.95	-28.571
810.26	9.859
810.56	2.083
810.86	-12.245
811.17	25.000
811.47	0.000
811.77	-16.667
812.08	5.660
812.38	3.125
812.69	20.000
812.99	-4.878
813.29	-24.324
813.59	-35.135
813.90	0.000
814.20	-1.818
814.50	-1.667
814.81	7.273
815.11	1.754
815.41	-4.651
815.72	-2.500
816.02	-17.143
816.32	-8.108
816.62	0.000
816.93	20.000
817.23	-13.333
817.53	-27.778
817.84	2.703
818.14	-9.756
818.44	10.000
818.74	2.041
819.04	2.439
819.35	-16.667
819.65	-18.182
819.95	-105.556
820.25	-24.242
820.56	-4.762
820.86	-19.444
821.16	0.000
821.46	8.696
821.76	-6.897
822.07	4.348
822.37	-30.303
822.67	31.707
822.97	2.703
823.27	-17.143
823.57	17.241
823.88	-26.471
824.18	-16.667
824.48	-8.571
824.78	-9.524
825.08	3.571
825.38	-11.111
825.69	0.000
825.99	21.951
826.29	-11.111
826.59	-21.875
826.89	-16.129
827.19	-13.043
827.49	-36.111
827.79	-39.130
828.09	-3.226
828.39	2.083
828.70	-25.000
829.00	-24.138
829.30	-10.811
829.60	-50.000
829.90	14.815
830.20	-6.250
830.50	-4.545
830.80	-105.882
831.10	-100.000
831.40	2.941
831.70	-30.769
832.00	-12.121
832.30	29.412
832.60	-2.703
832.90	600.000
833.20	0.000
833.50	-70.000
833.80	-5.263
834.10	8.333
834.40	-50.000
834.70	-86.667
835.00	-70.000
835.30	-8.333
835.60	-42.857
835.90	0.000
836.20	-68.000
836.50	-4.167
836.80	-52.632
837.10	-10.811
837.40	20.000
837.70	4.348
838.00	12.500
838.30	36.842
838.60	-100.000
838.90	-210.000
839.19	-58.333
839.49	-53.846
839.79	15.789
840.09	-200.000
840.39	-50.000
840.69	-36.364
840.99	0.000
841.29	-45.833
841.59	-69.231
841.88	-86.667
842.18	-21.429
842.48	26.667
842.78	-242.857
843.08	-7.143
843.38	-175.000
843.68	-87.500
843.97	14.286
844.27	-122.222
844.57	-118.182
844.87	-26.667
845.17	-18.182
845.47	666.667
845.76	-73.333
846.06	-133.333
846.36	-1150.000
846.66	-21.053
846.96	4.545
847.25	-94.444
847.55	-166.667
847.85	-14.286
848.15	53.846
848.44	-200.000
848.74	-125.000
849.04	-61.538
849.34	-25.000
849.63	-27.273
849.93	-178.571
850.23	40.000
850.53	-187.500
850.82	0.000
851.12	-20.000
851.42	5.882
851.71	-175.000
852.01	-52.941
852.31	-61.538
852.61	850.000
852.90	11.765
853.20	-46.667
853.50	-25.000
853.79	-107.143
854.09	-300.000
854.39	-65.000
854.68	17.500
854.98	-33.333
855.28	-40.000
855.57	-45.833
855.87	-33.333
856.17	-52.000
856.46	-3.125
856.76	-5.000
857.05	-32.000
857.35	-108.333
857.65	-82.353
857.94	-158.333
858.24	-33.333
858.53	-55.000
858.83	-100.000
859.13	0.000
859.42	-107.143
859.72	-225.000
860.01	-16.667
860.31	-212.500
860.60	-37.500
860.90	-266.667
861.20	-116.667
861.49	0.000
861.79	-50.000
862.08	275.000
862.38	-141.667
862.67	314.286
862.97	-25.000
863.26	-18.182
863.56	-100.000
863.85	21.053
864.15	-23.529
864.44	-280.000
864.74	-40.000
865.03	-133.333
865.33	-42.857
865.62	100.000
865.92	26.316
866.21	-77.778
866.51	-109.091
866.80	-77.778
867.10	-125.000
867.39	12.500
867.69	-33.333
867.98	-130.000
868.27	-23.529
868.57	0.000
868.86	1150.000
869.16	-150.000
869.45	-128.571
869.75	550.000
870.04	-30.000
870.33	-1300.000
870.63	10.526
870.92	-75.000
871.22	-1400.000
871.51	-185.714
871.80	-155.556
872.10	-275.000
>>>>>End Processed Spectral Data<<<<<
