SpectraSuite Data File
++++++++++++++++++++++++++++++++++++
Date: Wed May 13 21:26:17 PDT 2015
User: schluterlab
Dark Spectrum Present: Yes
Reference Spectrum Present: Yes
Number of Sampled Component Spectra: 1
Spectrometers: USB2E3373
Integration Time (usec): 3000 (USB2E3373)
Spectra Averaged: 3 (USB2E3373)
Boxcar Smoothing: 0 (USB2E3373)
Correct for Electrical Dark: No (USB2E3373)
Strobe/Lamp Enabled: No (USB2E3373)
Correct for Detector Non-linearity: No (USB2E3373)
Correct for Stray Light: No (USB2E3373)
Number of Pixels in Processed Spectrum: 2048
>>>>>Begin Processed Spectral Data<<<<<
178.53	0.000
178.91	500.000
179.29	183.333
179.67	-200.000
180.04	-533.333
180.42	100.000
180.80	1800.000
181.18	416.667
181.56	-450.000
181.94	-425.000
182.31	45.455
182.69	92.308
183.07	-260.000
183.45	233.333
183.83	100.000
184.20	200.000
184.58	-200.000
184.96	333.333
185.34	114.286
185.72	0.000
186.09	-1400.000
186.47	-200.000
186.85	-0.000
187.23	-250.000
187.61	850.000
187.98	1500.000
188.36	12.500
188.74	0.000
189.12	-63.636
189.49	30.000
189.87	150.000
190.25	360.000
190.63	800.000
191.00	-80.000
191.38	260.000
191.76	325.000
192.14	108.333
192.51	5.263
192.89	533.333
193.27	350.000
193.65	-220.000
194.02	36.364
194.40	190.000
194.78	-600.000
195.15	180.000
195.53	-160.000
195.91	62.500
196.29	-266.667
196.66	0.000
197.04	550.000
197.42	-160.000
197.79	10.000
198.17	37.500
198.55	133.333
198.92	300.000
199.30	-433.333
199.68	10.000
200.05	350.000
200.43	100.000
200.81	-1100.000
201.18	-380.000
201.56	-116.667
201.94	525.000
202.31	-13.043
202.69	-185.714
203.07	-533.333
203.44	-160.000
203.82	-400.000
204.19	-30.000
204.57	0.000
204.95	-16.667
205.32	0.000
205.70	-50.000
206.08	-300.000
206.45	-233.333
206.83	375.000
207.20	-300.000
207.58	-80.000
207.96	-1100.000
208.33	-85.714
208.71	-700.000
209.08	212.500
209.46	350.000
209.84	0.000
210.21	160.000
210.59	1600.000
210.96	240.000
211.34	300.000
211.71	-600.000
212.09	-216.667
212.46	-100.000
212.84	-33.333
213.22	25.000
213.59	-1400.000
213.97	-200.000
214.34	-450.000
214.72	-69.231
215.09	250.000
215.47	33.333
215.84	950.000
216.22	-50.000
216.59	-400.000
216.97	566.667
217.34	188.889
217.72	0.000
218.09	600.000
218.47	-200.000
218.84	-128.571
219.22	-125.000
219.59	-200.000
219.97	-150.000
220.34	-37.500
220.72	-320.000
221.09	0.000
221.47	-283.333
221.84	100.000
222.22	0.000
222.59	1500.000
222.97	-300.000
223.34	-58.333
223.72	-600.000
224.09	-150.000
224.46	-136.364
224.84	50.000
225.21	14.286
225.59	-375.000
225.96	-150.000
226.34	-70.000
226.71	-100.000
227.08	650.000
227.46	-100.000
227.83	600.000
228.21	-25.000
228.58	-25.000
228.95	-17.647
229.33	31.250
229.70	-37.500
230.08	-23.077
230.45	-125.000
230.82	-16.667
231.20	57.143
231.57	-325.000
231.95	2100.000
232.32	58.333
232.69	5.882
233.07	-300.000
233.44	17.391
233.81	-250.000
234.19	29.167
234.56	-93.333
234.93	-53.333
235.31	21.053
235.68	-100.000
236.05	-15.385
236.43	11.111
236.80	-33.333
237.17	13.333
237.55	-29.412
237.92	-24.138
238.29	-29.630
238.67	30.556
239.04	-6.452
239.41	-2.128
239.79	14.894
240.16	18.605
240.53	8.929
240.91	41.071
241.28	19.643
241.65	33.871
242.02	26.316
242.40	24.638
242.77	11.594
243.14	33.333
243.51	30.851
243.89	23.077
244.26	41.509
244.63	25.962
245.00	34.375
245.38	27.731
245.75	35.246
246.12	37.594
246.49	30.894
246.87	29.412
247.24	37.838
247.61	25.828
247.98	30.769
248.36	33.728
248.73	32.022
249.10	32.828
249.47	32.258
249.84	42.105
250.22	38.308
250.59	33.178
250.96	31.364
251.33	30.144
251.70	37.657
252.08	35.983
252.45	35.802
252.82	34.981
253.19	35.798
253.56	35.252
253.94	40.569
254.31	35.563
254.68	37.248
255.05	36.964
255.42	36.014
255.79	38.037
256.16	36.593
256.54	36.825
256.91	32.911
257.28	38.994
257.65	30.892
258.02	36.950
258.39	36.550
258.76	35.174
259.14	35.795
259.51	34.270
259.88	34.959
260.25	33.889
260.62	38.483
260.99	36.340
261.36	37.047
261.73	35.802
262.10	35.623
262.47	39.012
262.85	33.085
263.22	38.718
263.59	34.286
263.96	36.010
264.33	32.933
264.70	36.744
265.07	37.500
265.44	39.080
265.81	36.842
266.18	37.813
266.55	34.279
266.92	36.864
267.29	34.568
267.66	36.306
268.03	35.185
268.40	35.381
268.77	33.471
269.14	35.306
269.51	38.604
269.88	31.772
270.25	40.678
270.62	34.426
270.99	35.236
271.36	36.310
271.73	35.743
272.10	33.905
272.47	39.731
272.84	34.843
273.21	36.595
273.58	36.680
273.95	35.849
274.32	37.313
274.69	36.976
275.06	36.219
275.43	35.970
275.80	38.121
276.17	35.359
276.54	35.524
276.91	35.017
277.28	33.213
277.65	35.315
278.02	36.786
278.39	34.991
278.76	34.114
279.13	32.247
279.50	36.724
279.87	34.239
280.23	37.477
280.60	34.256
280.97	33.604
281.34	36.120
281.71	31.220
282.08	35.726
282.45	33.934
282.82	35.144
283.19	35.518
283.56	35.156
283.92	34.404
284.29	32.293
284.66	35.750
285.03	34.365
285.40	31.420
285.77	35.135
286.14	34.195
286.51	35.382
286.87	33.538
287.24	34.071
287.61	34.488
287.98	33.088
288.35	33.532
288.72	33.429
289.08	32.764
289.45	31.278
289.82	33.737
290.19	33.520
290.56	31.108
290.93	31.768
291.29	31.327
291.66	31.694
292.03	32.016
292.40	30.417
292.77	28.514
293.13	32.218
293.50	31.765
293.87	31.067
294.24	30.291
294.60	29.259
294.97	30.820
295.34	27.968
295.71	28.647
296.08	27.880
296.44	29.464
296.81	27.406
297.18	28.625
297.55	28.892
297.91	31.429
298.28	29.177
298.65	27.340
299.02	30.037
299.38	28.344
299.75	28.486
300.12	26.628
300.48	26.550
300.85	27.021
301.22	26.713
301.59	27.347
301.95	27.062
302.32	28.355
302.69	26.554
303.05	26.910
303.42	27.273
303.79	26.604
304.15	26.835
304.52	28.495
304.89	26.135
305.25	24.259
305.62	25.922
305.99	26.442
306.35	26.541
306.72	25.229
307.09	27.216
307.45	26.731
307.82	26.421
308.19	26.437
308.55	26.100
308.92	27.014
309.29	26.827
309.65	26.174
310.02	26.044
310.38	26.321
310.75	25.740
311.12	26.725
311.48	24.036
311.85	26.378
312.22	26.402
312.58	26.184
312.95	26.468
313.31	26.722
313.68	25.000
314.05	26.181
314.41	28.818
314.78	27.230
315.14	26.204
315.51	28.449
315.87	26.599
316.24	27.365
316.61	27.945
316.97	27.778
317.34	26.827
317.70	29.527
318.07	29.547
318.43	29.449
318.80	29.407
319.16	29.089
319.53	30.556
319.89	32.159
320.26	30.222
320.62	31.140
320.99	31.008
321.35	30.776
321.72	31.376
322.08	32.472
322.45	34.690
322.81	34.196
323.18	33.095
323.54	35.560
323.91	35.230
324.27	36.724
324.64	36.237
325.00	38.670
325.37	38.055
325.73	37.374
326.10	38.436
326.46	39.548
326.83	38.673
327.19	41.057
327.56	40.612
327.92	40.708
328.29	43.573
328.65	44.522
329.01	43.536
329.38	45.652
329.74	44.378
330.11	43.102
330.47	43.056
330.84	46.480
331.20	46.029
331.56	48.007
331.93	46.425
332.29	47.871
332.66	47.627
333.02	47.350
333.38	48.246
333.75	47.184
334.11	49.306
334.48	48.910
334.84	48.410
335.20	48.799
335.57	48.999
335.93	49.742
336.29	48.511
336.66	48.803
337.02	49.304
337.38	48.825
337.75	49.182
338.11	49.189
338.47	48.031
338.84	48.196
339.20	50.441
339.56	48.379
339.93	49.697
340.29	50.299
340.65	51.583
341.02	49.251
341.38	49.916
341.74	49.412
342.11	49.628
342.47	49.121
342.83	48.366
343.20	50.254
343.56	50.286
343.92	49.066
344.28	48.782
344.65	49.469
345.01	49.556
345.37	49.836
345.73	51.307
346.10	50.080
346.46	49.512
346.82	49.358
347.19	49.209
347.55	50.162
347.91	50.195
348.27	50.000
348.63	49.519
349.00	49.843
349.36	49.922
349.72	48.724
350.08	50.234
350.45	50.744
350.81	50.548
351.17	50.654
351.53	49.097
351.89	49.563
352.26	48.649
352.62	49.535
352.98	50.160
353.34	50.322
353.70	48.988
354.07	50.196
354.43	49.067
354.79	51.282
355.15	50.932
355.51	49.279
355.87	51.290
356.24	50.722
356.60	51.681
356.96	50.422
357.32	51.316
357.68	50.726
358.04	49.961
358.40	51.085
358.77	50.841
359.13	50.895
359.49	50.568
359.85	50.265
360.21	52.197
360.57	51.103
360.93	51.366
361.29	51.813
361.66	49.886
362.02	49.963
362.38	50.665
362.74	50.689
363.10	51.338
363.46	51.009
363.82	51.663
364.18	50.036
364.54	50.766
364.90	50.801
365.26	50.885
365.62	50.639
365.98	50.819
366.35	50.071
366.71	49.501
367.07	49.823
367.43	50.871
367.79	50.452
368.15	50.774
368.51	49.789
368.87	51.291
369.23	48.897
369.59	49.894
369.95	50.653
370.31	50.139
370.67	50.688
371.03	51.819
371.39	50.461
371.75	50.286
372.11	51.140
372.47	50.901
372.83	51.595
373.19	50.791
373.55	50.361
373.91	49.505
374.27	50.484
374.63	50.640
374.99	50.279
375.35	50.411
375.71	51.223
376.07	51.611
376.42	49.064
376.78	52.510
377.14	50.915
377.50	51.760
377.86	51.461
378.22	50.695
378.58	51.828
378.94	51.313
379.30	50.406
379.66	51.850
380.02	51.471
380.38	51.265
380.74	51.464
381.09	50.241
381.45	50.786
381.81	50.216
382.17	50.599
382.53	50.954
382.89	50.241
383.25	50.617
383.61	51.211
383.97	50.312
384.32	50.284
384.68	50.463
385.04	51.802
385.40	52.740
385.76	50.487
386.12	52.034
386.48	50.533
386.83	50.876
387.19	51.388
387.55	50.276
387.91	51.476
388.27	51.665
388.62	50.312
388.98	50.313
389.34	51.378
389.70	51.526
390.06	50.875
390.42	52.706
390.77	50.545
391.13	50.189
391.49	50.980
391.85	51.502
392.20	50.877
392.56	50.667
392.92	51.083
393.28	50.610
393.64	51.131
393.99	50.490
394.35	50.679
394.71	50.385
395.07	50.189
395.42	50.396
395.78	49.807
396.14	50.729
396.50	49.905
396.85	51.115
397.21	50.125
397.57	50.745
397.92	50.180
398.28	50.028
398.64	50.091
399.00	50.725
399.35	51.305
399.71	49.680
400.07	50.060
400.42	49.592
400.78	49.184
401.14	50.153
401.49	50.749
401.85	50.307
402.21	51.269
402.57	49.969
402.92	49.937
403.28	50.219
403.63	49.349
403.99	49.776
404.35	49.564
404.70	50.574
405.06	50.206
405.42	50.503
405.77	49.885
406.13	48.343
406.49	50.389
406.84	49.023
407.20	49.674
407.55	48.896
407.91	48.842
408.27	48.534
408.62	49.847
408.98	48.767
409.34	48.948
409.69	48.993
410.05	49.813
410.40	47.596
410.76	48.676
411.11	48.756
411.47	49.967
411.83	48.721
412.18	49.685
412.54	48.684
412.89	48.715
413.25	47.965
413.60	48.652
413.96	49.313
414.31	49.260
414.67	47.492
415.03	49.526
415.38	48.349
415.74	48.603
416.09	48.645
416.45	49.624
416.80	49.463
417.16	49.325
417.51	47.153
417.87	49.669
418.22	48.352
418.58	47.635
418.93	49.090
419.29	48.581
419.64	48.346
420.00	49.016
420.35	47.759
420.71	47.715
421.06	48.401
421.42	49.088
421.77	47.803
422.12	48.481
422.48	48.310
422.83	48.848
423.19	48.131
423.54	48.940
423.90	48.931
424.25	48.758
424.61	48.983
424.96	48.669
425.31	47.729
425.67	49.265
426.02	49.588
426.38	49.440
426.73	49.236
427.09	49.531
427.44	48.855
427.79	48.634
428.15	48.502
428.50	47.190
428.85	49.200
429.21	48.115
429.56	49.681
429.92	49.141
430.27	48.773
430.62	48.478
430.98	48.757
431.33	50.403
431.68	48.562
432.04	49.859
432.39	49.192
432.74	49.601
433.10	49.274
433.45	48.521
433.80	49.023
434.16	48.116
434.51	48.315
434.86	48.881
435.22	48.444
435.57	49.447
435.92	50.302
436.28	48.769
436.63	48.441
436.98	49.589
437.34	49.756
437.69	48.524
438.04	48.048
438.39	49.191
438.75	49.881
439.10	50.087
439.45	48.245
439.81	49.446
440.16	48.986
440.51	48.751
440.86	49.615
441.22	49.742
441.57	49.403
441.92	48.937
442.27	48.972
442.63	49.408
442.98	49.190
443.33	48.589
443.68	47.654
444.03	49.478
444.39	49.281
444.74	48.592
445.09	48.844
445.44	50.648
445.79	49.819
446.15	49.140
446.50	48.403
446.85	50.935
447.20	48.719
447.55	48.965
447.91	49.326
448.26	48.542
448.61	48.044
448.96	49.601
449.31	49.229
449.66	48.467
450.02	50.426
450.37	49.706
450.72	48.680
451.07	48.589
451.42	47.910
451.77	49.970
452.12	47.712
452.47	49.128
452.83	50.059
453.18	50.032
453.53	49.117
453.88	49.759
454.23	50.000
454.58	49.203
454.93	48.557
455.28	49.004
455.63	48.659
455.98	48.996
456.34	48.061
456.69	48.498
457.04	47.616
457.39	49.188
457.74	49.192
458.09	48.104
458.44	48.825
458.79	47.611
459.14	47.640
459.49	48.963
459.84	48.083
460.19	47.899
460.54	47.932
460.89	49.381
461.24	49.445
461.59	49.698
461.94	48.546
462.29	48.407
462.64	47.757
462.99	47.552
463.34	47.790
463.69	48.840
464.04	47.419
464.39	48.078
464.74	47.052
465.09	47.551
465.44	46.577
465.79	49.166
466.14	47.891
466.49	49.032
466.84	47.519
467.19	48.217
467.54	48.347
467.89	47.203
468.24	47.695
468.59	47.546
468.94	47.318
469.29	48.182
469.64	48.257
469.99	48.414
470.34	47.404
470.68	46.691
471.03	46.544
471.38	46.106
471.73	46.571
472.08	47.560
472.43	47.361
472.78	46.856
473.13	47.361
473.48	46.771
473.83	46.830
474.17	48.698
474.52	46.990
474.87	46.502
475.22	46.739
475.57	46.960
475.92	47.655
476.27	47.086
476.61	46.772
476.96	47.801
477.31	46.818
477.66	46.723
478.01	46.538
478.36	47.030
478.70	46.509
479.05	46.393
479.40	45.034
479.75	46.387
480.10	46.558
480.45	46.395
480.79	46.989
481.14	45.947
481.49	47.163
481.84	45.335
482.19	46.179
482.53	47.476
482.88	45.925
483.23	45.717
483.58	46.456
483.92	46.158
484.27	46.249
484.62	45.229
484.97	46.371
485.31	45.451
485.66	44.861
486.01	46.128
486.36	46.545
486.70	46.892
487.05	47.152
487.40	46.926
487.75	46.713
488.09	46.356
488.44	46.267
488.79	45.874
489.13	45.726
489.48	46.003
489.83	45.154
490.17	45.256
490.52	46.657
490.87	44.274
491.22	45.266
491.56	46.095
491.91	45.271
492.26	45.164
492.60	43.675
492.95	45.238
493.30	44.525
493.64	43.213
493.99	44.058
494.34	44.509
494.68	44.630
495.03	44.368
495.37	44.331
495.72	44.361
496.07	45.446
496.41	44.127
496.76	44.287
497.11	44.413
497.45	44.747
497.80	44.523
498.14	44.081
498.49	44.024
498.84	45.040
499.18	43.703
499.53	43.525
499.87	43.523
500.22	43.604
500.56	44.835
500.91	45.221
501.26	44.877
501.60	43.775
501.95	43.507
502.29	44.757
502.64	43.394
502.98	43.449
503.33	44.282
503.67	43.525
504.02	43.873
504.36	43.041
504.71	43.750
505.06	43.301
505.40	44.381
505.75	43.133
506.09	43.127
506.44	43.498
506.78	43.068
507.13	43.607
507.47	42.842
507.82	42.805
508.16	43.588
508.51	42.510
508.85	42.250
509.19	43.228
509.54	43.700
509.88	42.473
510.23	41.684
510.57	43.061
510.92	42.403
511.26	44.059
511.61	42.042
511.95	42.337
512.30	42.032
512.64	43.644
512.98	41.385
513.33	41.803
513.67	41.738
514.02	42.474
514.36	42.584
514.70	41.859
515.05	43.183
515.39	41.450
515.74	40.793
516.08	40.531
516.42	41.647
516.77	40.715
517.11	41.564
517.46	42.377
517.80	42.797
518.14	41.151
518.49	41.652
518.83	41.110
519.17	40.964
519.52	41.616
519.86	41.773
520.20	40.024
520.55	41.418
520.89	41.050
521.23	41.923
521.58	39.317
521.92	40.163
522.26	40.338
522.61	42.534
522.95	41.645
523.29	39.810
523.64	40.877
523.98	40.343
524.32	39.950
524.66	40.065
525.01	41.547
525.35	40.158
525.69	41.153
526.04	41.107
526.38	39.643
526.72	39.119
527.06	39.136
527.41	39.378
527.75	40.254
528.09	41.116
528.43	39.281
528.78	39.729
529.12	39.521
529.46	40.435
529.80	38.835
530.15	39.060
530.49	39.892
530.83	39.336
531.17	39.932
531.51	39.784
531.86	38.618
532.20	39.352
532.54	39.172
532.88	38.393
533.22	39.865
533.57	38.411
533.91	41.097
534.25	41.016
534.59	40.219
534.93	38.584
535.27	39.490
535.62	38.750
535.96	40.013
536.30	38.364
536.64	38.893
536.98	38.753
537.32	38.577
537.66	38.717
538.01	39.667
538.35	39.019
538.69	37.324
539.03	38.322
539.37	37.760
539.71	38.813
540.05	37.989
540.39	37.990
540.73	38.268
541.07	38.639
541.42	38.923
541.76	38.430
542.10	38.118
542.44	38.739
542.78	37.821
543.12	39.825
543.46	38.770
543.80	37.882
544.14	38.747
544.48	37.890
544.82	37.727
545.16	37.323
545.50	38.690
545.84	38.710
546.18	37.097
546.52	38.320
546.86	36.254
547.20	38.242
547.54	37.813
547.88	38.327
548.22	37.003
548.56	38.159
548.90	37.821
549.24	38.194
549.58	37.224
549.92	37.931
550.26	38.303
550.60	37.162
550.94	36.567
551.28	36.866
551.62	37.293
551.96	37.408
552.30	36.317
552.64	35.946
552.98	37.429
553.32	36.121
553.66	37.344
554.00	35.925
554.34	36.044
554.68	36.987
555.02	37.051
555.36	36.762
555.69	37.145
556.03	38.027
556.37	36.131
556.71	36.160
557.05	36.458
557.39	36.398
557.73	37.292
558.07	36.549
558.41	36.639
558.75	35.720
559.08	35.204
559.42	36.192
559.76	37.003
560.10	36.972
560.44	37.509
560.78	37.266
561.12	37.141
561.45	35.850
561.79	36.589
562.13	36.990
562.47	36.571
562.81	35.498
563.15	35.269
563.48	35.237
563.82	36.457
564.16	36.967
564.50	36.431
564.84	35.405
565.17	36.225
565.51	36.430
565.85	35.177
566.19	36.093
566.52	34.797
566.86	35.904
567.20	35.492
567.54	35.463
567.88	35.666
568.21	35.687
568.55	36.098
568.89	36.191
569.23	36.434
569.56	35.962
569.90	36.618
570.24	36.209
570.57	35.619
570.91	36.019
571.25	36.561
571.59	36.230
571.92	36.198
572.26	36.798
572.60	36.526
572.93	36.239
573.27	35.530
573.61	36.741
573.95	36.277
574.28	36.453
574.62	36.361
574.96	36.097
575.29	35.958
575.63	36.802
575.97	37.065
576.30	35.793
576.64	36.180
576.98	36.579
577.31	36.754
577.65	35.940
577.98	36.520
578.32	36.514
578.66	36.366
578.99	36.667
579.33	36.607
579.67	36.303
580.00	35.950
580.34	36.161
580.67	36.404
581.01	36.497
581.35	36.047
581.68	35.832
582.02	36.486
582.35	36.604
582.69	35.942
583.02	35.414
583.36	35.854
583.70	36.028
584.03	35.616
584.37	35.574
584.70	35.553
585.04	36.352
585.37	36.087
585.71	35.986
586.04	35.614
586.38	35.517
586.72	35.740
587.05	35.956
587.39	35.569
587.72	35.904
588.06	35.841
588.39	35.656
588.73	34.807
589.06	36.017
589.40	35.019
589.73	35.178
590.07	34.852
590.40	35.441
590.73	36.548
591.07	35.144
591.40	34.913
591.74	34.815
592.07	35.007
592.41	35.521
592.74	35.455
593.08	34.564
593.41	35.228
593.75	35.045
594.08	34.888
594.41	35.576
594.75	35.007
595.08	35.362
595.42	34.610
595.75	34.093
596.09	34.758
596.42	34.763
596.75	33.918
597.09	34.941
597.42	35.352
597.75	34.711
598.09	34.973
598.42	34.720
598.76	34.635
599.09	34.854
599.42	34.630
599.76	35.223
600.09	34.940
600.42	34.652
600.76	34.405
601.09	34.313
601.42	34.300
601.76	34.093
602.09	35.428
602.42	34.668
602.76	34.438
603.09	34.784
603.42	33.826
603.76	33.983
604.09	33.953
604.42	34.743
604.76	34.657
605.09	34.572
605.42	34.863
605.75	33.919
606.09	32.988
606.42	34.746
606.75	33.896
607.09	34.176
607.42	33.625
607.75	32.385
608.08	34.851
608.42	33.130
608.75	34.066
609.08	33.709
609.41	33.780
609.75	33.686
610.08	33.925
610.41	33.722
610.74	33.831
611.07	33.567
611.41	34.237
611.74	34.058
612.07	32.882
612.40	34.378
612.73	33.425
613.07	32.871
613.40	33.095
613.73	34.182
614.06	32.891
614.39	33.352
614.72	33.315
615.06	33.333
615.39	34.216
615.72	32.775
616.05	33.502
616.38	32.990
616.71	32.573
617.05	34.152
617.38	33.395
617.71	31.801
618.04	32.236
618.37	33.060
618.70	33.182
619.03	31.753
619.36	31.815
619.69	32.456
620.03	32.014
620.36	32.846
620.69	31.549
621.02	31.231
621.35	31.562
621.68	31.703
622.01	30.906
622.34	31.879
622.67	32.028
623.00	32.219
623.33	31.788
623.66	30.855
623.99	32.408
624.32	30.814
624.65	30.786
624.99	31.741
625.32	31.889
625.65	30.310
625.98	31.754
626.31	30.694
626.64	31.212
626.97	31.574
627.30	31.394
627.63	31.315
627.96	29.524
628.29	32.372
628.62	29.884
628.95	30.160
629.28	31.034
629.61	31.579
629.94	30.271
630.26	31.429
630.59	29.071
630.92	30.221
631.25	31.102
631.58	29.657
631.91	29.056
632.24	29.638
632.57	30.444
632.90	30.572
633.23	28.777
633.56	29.976
633.89	30.263
634.22	31.802
634.55	29.111
634.88	29.902
635.20	29.250
635.53	27.649
635.86	28.077
636.19	31.266
636.52	29.390
636.85	29.554
637.18	29.233
637.51	30.462
637.83	28.721
638.16	28.133
638.49	25.501
638.82	28.627
639.15	28.856
639.48	28.743
639.81	30.139
640.13	30.000
640.46	30.085
640.79	29.784
641.12	27.663
641.45	28.530
641.77	27.246
642.10	28.744
642.43	27.044
642.76	27.760
643.09	26.997
643.41	28.389
643.74	28.433
644.07	26.861
644.40	27.695
644.73	28.814
645.05	28.272
645.38	27.907
645.71	28.741
646.04	26.263
646.36	25.694
646.69	26.049
647.02	27.322
647.35	28.519
647.67	26.433
648.00	26.993
648.33	28.814
648.66	26.878
648.98	29.814
649.31	28.834
649.64	27.230
649.96	29.384
650.29	26.797
650.62	25.700
650.94	26.207
651.27	26.148
651.60	27.448
651.92	29.928
652.25	28.978
652.58	28.713
652.90	27.273
653.23	28.183
653.56	26.446
653.88	24.915
654.21	25.597
654.54	26.080
654.86	27.317
655.19	27.031
655.52	31.979
655.84	32.639
656.17	39.439
656.49	52.055
656.82	52.230
657.15	39.311
657.47	28.899
657.80	21.470
658.13	22.557
658.45	33.147
658.78	32.253
659.10	32.898
659.43	31.808
659.75	31.491
660.08	30.069
660.41	28.499
660.73	28.099
661.06	26.020
661.38	25.000
661.71	26.025
662.03	26.216
662.36	27.212
662.68	27.097
663.01	26.907
663.33	25.702
663.66	23.725
663.98	24.944
664.31	25.275
664.63	24.775
664.96	28.228
665.28	26.180
665.61	23.758
665.93	25.696
666.26	26.793
666.58	26.338
666.91	24.664
667.23	26.498
667.56	25.287
667.88	25.701
668.21	24.777
668.53	23.678
668.86	26.619
669.18	27.896
669.50	21.429
669.83	27.208
670.15	27.143
670.48	24.598
670.80	26.258
671.13	23.341
671.45	26.712
671.77	25.431
672.10	25.926
672.42	26.336
672.75	26.429
673.07	24.000
673.39	24.440
673.72	27.944
674.04	27.869
674.37	28.049
674.69	26.543
675.01	23.291
675.34	24.726
675.66	25.490
675.98	25.664
676.31	25.566
676.63	27.664
676.95	24.235
677.28	24.771
677.60	29.167
677.92	26.164
678.25	26.030
678.57	27.699
678.89	26.226
679.22	25.052
679.54	25.918
679.86	27.148
680.18	27.692
680.51	25.962
680.83	26.511
681.15	26.326
681.48	25.251
681.80	24.744
682.12	25.417
682.44	24.145
682.77	24.000
683.09	25.446
683.41	24.186
683.73	23.884
684.06	25.885
684.38	25.641
684.70	23.829
685.02	26.860
685.34	28.180
685.67	26.642
685.99	25.623
686.31	26.724
686.63	26.838
686.96	27.087
687.28	24.351
687.60	28.166
687.92	27.432
688.24	24.400
688.56	26.096
688.89	23.608
689.21	23.543
689.53	22.748
689.85	26.966
690.17	22.637
690.49	22.464
690.82	25.060
691.14	24.638
691.46	22.970
691.78	27.253
692.10	25.478
692.42	26.593
692.74	28.043
693.06	27.416
693.39	23.888
693.71	26.222
694.03	28.409
694.35	27.928
694.67	24.250
694.99	25.000
695.31	24.289
695.63	29.512
695.95	24.682
696.27	23.014
696.59	22.849
696.91	24.860
697.23	24.619
697.56	24.700
697.88	29.522
698.20	26.998
698.52	24.299
698.84	25.359
699.16	22.695
699.48	25.185
699.80	26.615
700.12	27.346
700.44	27.324
700.76	22.753
701.08	25.378
701.40	21.856
701.72	26.769
702.04	23.585
702.36	24.695
702.68	22.866
703.00	22.515
703.32	19.777
703.64	25.904
703.96	26.100
704.28	21.988
704.60	24.085
704.91	18.182
705.23	23.418
705.55	20.000
705.87	22.535
706.19	19.780
706.51	22.183
706.83	19.108
707.15	20.427
707.47	25.069
707.79	24.112
708.11	21.594
708.43	23.096
708.74	22.606
709.06	25.936
709.38	23.631
709.70	25.826
710.02	28.660
710.34	21.000
710.66	21.173
710.98	22.291
711.29	23.701
711.61	18.710
711.93	21.613
712.25	20.629
712.57	18.947
712.89	23.443
713.20	21.986
713.52	23.358
713.84	21.613
714.16	22.330
714.48	25.949
714.80	19.489
715.11	27.326
715.43	26.087
715.75	23.602
716.07	22.590
716.39	22.896
716.70	24.101
717.02	20.392
717.34	19.697
717.66	14.224
717.97	18.254
718.29	26.772
718.61	20.601
718.93	19.380
719.24	24.723
719.56	21.723
719.88	18.657
720.20	25.296
720.51	18.750
720.83	23.346
721.15	17.480
721.46	24.809
721.78	20.319
722.10	19.920
722.42	20.968
722.73	21.622
723.05	25.306
723.37	18.067
723.68	28.000
724.00	17.872
724.32	20.921
724.63	22.222
724.95	20.085
725.27	24.895
725.58	21.811
725.90	22.594
726.22	23.913
726.53	20.392
726.85	24.453
727.16	21.111
727.48	19.540
727.80	21.875
728.11	18.852
728.43	23.828
728.74	23.413
729.06	16.800
729.38	23.715
729.69	23.488
730.01	18.216
730.32	26.937
730.64	23.106
730.96	26.573
731.27	19.064
731.59	25.397
731.90	21.683
732.22	20.833
732.53	18.919
732.85	20.134
733.16	28.713
733.48	25.676
733.80	25.676
734.11	22.297
734.43	27.554
734.74	25.826
735.06	23.919
735.37	25.228
735.69	23.625
736.00	24.422
736.32	24.468
736.63	21.724
736.95	23.288
737.26	24.828
737.58	25.347
737.89	22.337
738.21	23.488
738.52	24.715
738.83	29.388
739.15	24.895
739.46	19.844
739.78	23.592
740.09	25.000
740.41	21.071
740.72	21.631
741.04	19.200
741.35	17.544
741.66	21.333
741.98	25.000
742.29	22.277
742.61	20.488
742.92	25.877
743.23	19.811
743.55	21.171
743.86	19.283
744.18	22.059
744.49	15.228
744.80	20.408
745.12	20.093
745.43	19.431
745.74	27.477
746.06	19.626
746.37	15.596
746.68	21.635
747.00	18.182
747.31	23.077
747.62	22.477
747.94	26.638
748.25	20.183
748.56	20.444
748.88	27.230
749.19	28.095
749.50	16.019
749.82	20.657
750.13	18.333
750.44	16.538
750.75	23.616
751.07	24.911
751.38	26.950
751.69	23.938
752.01	20.313
752.32	23.462
752.63	26.493
752.94	20.800
753.26	21.757
753.57	20.417
753.88	20.648
754.19	23.904
754.51	16.165
754.82	19.048
755.13	20.435
755.44	23.577
755.75	22.400
756.07	17.343
756.38	24.101
756.69	25.597
757.00	20.872
757.31	22.006
757.63	19.444
757.94	22.599
758.25	26.455
758.56	24.185
758.87	23.512
759.18	26.183
759.50	24.579
759.81	24.080
760.12	27.077
760.43	22.024
760.74	22.034
761.05	20.718
761.36	23.496
761.67	22.659
761.99	21.993
762.30	20.073
762.61	18.107
762.92	22.222
763.23	24.180
763.54	24.242
763.85	17.959
764.16	26.016
764.47	22.400
764.78	25.714
765.10	20.000
765.41	20.669
765.72	21.739
766.03	23.102
766.34	24.615
766.65	17.155
766.96	16.432
767.27	23.762
767.58	17.416
767.89	18.519
768.20	17.127
768.51	19.095
768.82	22.115
769.13	22.124
769.44	22.176
769.75	17.521
770.06	17.937
770.37	22.059
770.68	18.932
770.99	18.932
771.30	19.328
771.61	26.531
771.92	28.631
772.23	23.423
772.54	12.155
772.85	19.186
773.16	22.751
773.47	20.710
773.78	18.391
774.09	21.875
774.39	22.981
774.70	18.367
775.01	17.241
775.32	18.571
775.63	8.271
775.94	19.549
776.25	4.000
776.56	23.140
776.87	16.667
777.18	13.514
777.48	15.315
777.79	11.024
778.10	16.514
778.41	8.772
778.72	16.807
779.03	16.197
779.34	16.216
779.65	16.197
779.95	21.192
780.26	20.144
780.57	20.863
780.88	16.197
781.19	12.605
781.50	23.490
781.80	28.655
782.11	15.698
782.42	22.642
782.73	25.490
783.04	13.793
783.34	11.450
783.65	15.436
783.96	24.615
784.27	20.714
784.57	14.184
784.88	3.846
785.19	31.818
785.50	23.636
785.81	10.476
786.11	13.445
786.42	10.619
786.73	4.717
787.04	7.339
787.34	3.960
787.65	15.833
787.96	17.355
788.26	16.667
788.57	12.698
788.88	14.634
789.19	12.000
789.49	12.214
789.80	29.545
790.11	4.717
790.41	25.743
790.72	19.149
791.03	11.957
791.33	9.412
791.64	-4.938
791.95	21.739
792.25	17.045
792.56	24.359
792.87	14.103
793.17	-6.410
793.48	14.286
793.79	15.000
794.09	20.192
794.40	14.583
794.70	19.820
795.01	7.813
795.32	18.261
795.62	2.174
795.93	14.151
796.23	21.212
796.54	14.634
796.85	9.524
797.15	-7.576
797.46	7.246
797.76	23.684
798.07	17.045
798.37	15.854
798.68	1.613
798.99	-5.405
799.29	10.843
799.60	12.821
799.90	9.231
800.21	10.606
800.51	1.333
800.82	4.000
801.12	-6.250
801.43	-5.000
801.73	-8.108
802.04	2.857
802.34	-16.393
802.65	7.463
802.95	7.273
803.26	-6.897
803.56	6.154
803.87	15.094
804.17	1.613
804.48	16.176
804.78	0.000
805.09	15.942
805.39	4.412
805.70	-6.383
806.00	8.772
806.30	20.513
806.61	19.737
806.91	-6.757
807.22	0.000
807.52	15.909
807.83	-8.475
808.13	-9.091
808.43	15.000
808.74	-13.793
809.04	3.175
809.35	-6.122
809.65	5.000
809.95	-22.449
810.26	19.718
810.56	-2.083
810.86	-12.245
811.17	21.154
811.47	21.277
811.77	14.583
812.08	-5.660
812.38	-43.750
812.69	16.364
812.99	19.512
813.29	-5.405
813.59	-8.108
813.90	-16.364
814.20	1.818
814.50	-13.333
814.81	-3.636
815.11	0.000
815.41	4.651
815.72	0.000
816.02	-17.143
816.32	27.027
816.62	29.167
816.93	11.111
817.23	-6.667
817.53	-33.333
817.84	-8.108
818.14	4.878
818.44	0.000
818.74	-8.163
819.04	7.317
819.35	-2.778
819.65	15.909
819.95	-72.222
820.25	-9.091
820.56	-2.381
820.86	-27.778
821.16	-2.273
821.46	-23.913
821.76	-12.069
822.07	6.522
822.37	15.152
822.67	21.951
822.97	-16.216
823.27	-11.429
823.57	-3.448
823.88	-14.706
824.18	-5.556
824.48	-5.714
824.78	-47.619
825.08	17.857
825.38	3.704
825.69	-6.452
825.99	4.878
826.29	3.704
826.59	-12.500
826.89	-22.581
827.19	-60.870
827.49	-36.111
827.79	-43.478
828.09	-3.226
828.39	22.917
828.70	-34.375
829.00	-27.586
829.30	-5.405
829.60	-70.833
829.90	22.222
830.20	6.250
830.50	-13.636
830.80	-100.000
831.10	-13.636
831.40	-47.059
831.70	-7.692
832.00	3.030
832.30	-5.882
832.60	0.000
832.90	800.000
833.20	-39.286
833.50	-75.000
833.80	2.632
834.10	-45.833
834.40	-77.273
834.70	-60.000
835.00	-60.000
835.30	-50.000
835.60	4.762
835.90	-23.810
836.20	-16.000
836.50	-8.333
836.80	-94.737
837.10	-16.216
837.40	26.667
837.70	-43.478
838.00	4.167
838.30	-57.895
838.60	-130.000
838.90	-120.000
839.19	-91.667
839.49	-30.769
839.79	-42.105
840.09	-33.333
840.39	-210.000
840.69	-22.727
840.99	-33.333
841.29	-58.333
841.59	-100.000
841.88	-73.333
842.18	-114.286
842.48	-20.000
842.78	-228.571
843.08	-114.286
843.38	-12.500
843.68	-68.750
843.97	28.571
844.27	-77.778
844.57	-81.818
844.87	-106.667
845.17	-31.818
845.47	566.667
845.76	-26.667
846.06	-83.333
846.36	-950.000
846.66	-52.632
846.96	-13.636
847.25	-5.556
847.55	-100.000
847.85	-47.619
848.15	-15.385
848.44	-283.333
848.74	-25.000
849.04	-76.923
849.34	-425.000
849.63	-100.000
849.93	-135.714
850.23	-10.000
850.53	-187.500
850.82	22.222
851.12	-60.000
851.42	-41.176
851.71	0.000
852.01	-11.765
852.31	-23.077
852.61	150.000
852.90	11.765
853.20	0.000
853.50	12.500
853.79	-85.714
854.09	-225.000
854.39	-35.000
854.68	5.000
854.98	-9.524
855.28	-40.000
855.57	-25.000
855.87	-8.333
856.17	-12.000
856.46	3.125
856.76	0.000
857.05	-4.000
857.35	-75.000
857.65	-29.412
857.94	-191.667
858.24	-41.667
858.53	-45.000
858.83	-136.364
859.13	-24.000
859.42	-42.857
859.72	-225.000
860.01	0.000
860.31	-187.500
860.60	-62.500
860.90	-166.667
861.20	-133.333
861.49	26.667
861.79	-12.500
862.08	375.000
862.38	-91.667
862.67	285.714
862.97	325.000
863.26	-109.091
863.56	-18.182
863.85	68.421
864.15	0.000
864.44	-140.000
864.74	-100.000
865.03	-44.444
865.33	-57.143
865.62	121.429
865.92	-5.263
866.21	-83.333
866.51	-72.727
866.80	-122.222
867.10	-100.000
867.39	-6.250
867.69	-80.000
867.98	-20.000
868.27	0.000
868.57	0.000
868.86	1000.000
869.16	-475.000
869.45	-171.429
869.75	550.000
870.04	-130.000
870.33	-1400.000
870.63	-42.105
870.92	-116.667
871.22	-1400.000
871.51	-171.429
871.80	-166.667
872.10	-200.000
>>>>>End Processed Spectral Data<<<<<
