SpectraSuite Data File
++++++++++++++++++++++++++++++++++++
Date: Wed May 13 21:35:20 PDT 2015
User: schluterlab
Dark Spectrum Present: Yes
Reference Spectrum Present: Yes
Number of Sampled Component Spectra: 1
Spectrometers: USB2E3373
Integration Time (usec): 3000 (USB2E3373)
Spectra Averaged: 3 (USB2E3373)
Boxcar Smoothing: 0 (USB2E3373)
Correct for Electrical Dark: No (USB2E3373)
Strobe/Lamp Enabled: No (USB2E3373)
Correct for Detector Non-linearity: No (USB2E3373)
Correct for Stray Light: No (USB2E3373)
Number of Pixels in Processed Spectrum: 2048
>>>>>Begin Processed Spectral Data<<<<<
178.53	0.000
178.91	700.000
179.29	233.333
179.67	-600.000
180.04	-500.000
180.42	220.000
180.80	1100.000
181.18	233.333
181.56	-500.000
181.94	-325.000
182.31	-36.364
182.69	169.231
183.07	-100.000
183.45	400.000
183.83	222.222
184.20	185.714
184.58	-233.333
184.96	533.333
185.34	185.714
185.72	0.000
186.09	-700.000
186.47	-220.000
186.85	320.000
187.23	-300.000
187.61	1000.000
187.98	1900.000
188.36	-25.000
188.74	0.000
189.12	-118.182
189.49	80.000
189.87	91.667
190.25	540.000
190.63	1600.000
191.00	-360.000
191.38	300.000
191.76	525.000
192.14	183.333
192.51	-73.684
192.89	566.667
193.27	475.000
193.65	-400.000
194.02	181.818
194.40	310.000
194.78	-600.000
195.15	400.000
195.53	-360.000
195.91	-75.000
196.29	-333.333
196.66	0.000
197.04	700.000
197.42	-120.000
197.79	-100.000
198.17	-87.500
198.55	-433.333
198.92	350.000
199.30	-266.667
199.68	-100.000
200.05	800.000
200.43	266.667
200.81	-1400.000
201.18	-220.000
201.56	-116.667
201.94	525.000
202.31	-17.391
202.69	-214.286
203.07	-300.000
203.44	-220.000
203.82	-566.667
204.19	-80.000
204.57	0.000
204.95	-350.000
205.32	0.000
205.70	-800.000
206.08	-325.000
206.45	-166.667
206.83	500.000
207.20	-600.000
207.58	-60.000
207.96	-1700.000
208.33	-328.571
208.71	-2400.000
209.08	137.500
209.46	500.000
209.84	0.000
210.21	170.000
210.59	1400.000
210.96	460.000
211.34	2400.000
211.71	-550.000
212.09	-266.667
212.46	-150.000
212.84	-466.667
213.22	-250.000
213.59	-1500.000
213.97	-900.000
214.34	-900.000
214.72	-107.692
215.09	200.000
215.47	233.333
215.84	950.000
216.22	-175.000
216.59	-650.000
216.97	766.667
217.34	244.444
217.72	0.000
218.09	300.000
218.47	-500.000
218.84	-271.429
219.22	-225.000
219.59	-66.667
219.97	-350.000
220.34	-87.500
220.72	-60.000
221.09	0.000
221.47	-250.000
221.84	-1400.000
222.22	0.000
222.59	1300.000
222.97	-266.667
223.34	-50.000
223.72	-1500.000
224.09	-550.000
224.46	-100.000
224.84	-25.000
225.21	-257.143
225.59	-550.000
225.96	-183.333
226.34	-110.000
226.71	-200.000
227.08	950.000
227.46	-187.500
227.83	-1000.000
228.21	-93.750
228.58	-425.000
228.95	-41.176
229.33	-25.000
229.70	-237.500
230.08	-76.923
230.45	-150.000
230.82	-75.000
231.20	200.000
231.57	-275.000
231.95	1300.000
232.32	-16.667
232.69	-41.176
233.07	-1700.000
233.44	-34.783
233.81	-550.000
234.19	4.167
234.56	-66.667
234.93	-26.667
235.31	-15.789
235.68	-138.462
236.05	-61.538
236.43	-77.778
236.80	-33.333
237.17	-133.333
237.55	-88.235
237.92	3.448
238.29	-55.556
238.67	-16.667
239.04	-29.032
239.41	-40.426
239.79	-4.255
240.16	-11.628
240.53	-16.071
240.91	1.786
241.28	0.000
241.65	-16.129
242.02	7.895
242.40	-2.899
242.77	-15.942
243.14	2.564
243.51	9.574
243.89	2.885
244.26	16.981
244.63	-2.885
245.00	22.917
245.38	5.042
245.75	5.738
246.12	9.774
246.49	0.000
246.87	4.202
247.24	8.784
247.61	16.556
247.98	8.974
248.36	8.284
248.73	14.607
249.10	9.596
249.47	6.452
249.84	6.842
250.22	13.930
250.59	15.421
250.96	14.091
251.33	2.871
251.70	12.552
252.08	10.460
252.45	11.934
252.82	11.027
253.19	9.728
253.56	11.871
253.94	15.658
254.31	11.620
254.68	11.409
255.05	11.881
255.42	11.538
255.79	10.429
256.16	11.356
256.54	13.651
256.91	9.177
257.28	13.208
257.65	9.554
258.02	10.850
258.39	16.082
258.76	10.756
259.14	8.807
259.51	10.112
259.88	9.756
260.25	13.611
260.62	11.798
260.99	15.119
261.36	15.026
261.73	15.309
262.10	13.232
262.47	11.605
262.85	11.940
263.22	15.128
263.59	13.247
263.96	12.895
264.33	12.500
264.70	12.558
265.07	16.435
265.44	15.862
265.81	12.586
266.18	12.073
266.55	9.389
266.92	12.712
267.29	11.934
267.66	14.225
268.03	15.226
268.40	13.559
268.77	13.223
269.14	13.878
269.51	16.016
269.88	13.646
270.25	13.347
270.62	12.295
270.99	14.173
271.36	13.889
271.73	13.655
272.10	13.905
272.47	15.547
272.84	14.961
273.21	12.524
273.58	12.705
273.95	13.962
274.32	13.246
274.69	14.390
275.06	15.901
275.43	12.429
275.80	12.234
276.17	13.996
276.54	11.901
276.91	12.369
277.28	11.191
277.65	12.937
278.02	15.357
278.39	13.321
278.76	13.712
279.13	14.408
279.50	12.414
279.87	12.681
280.23	12.432
280.60	12.457
280.97	12.175
281.34	14.038
281.71	11.707
282.08	12.308
282.45	13.770
282.82	14.217
283.19	13.872
283.56	14.531
283.92	13.150
284.29	13.573
284.66	14.168
285.03	12.052
285.40	13.293
285.77	14.264
286.14	10.790
286.51	14.543
286.87	10.154
287.24	12.832
287.61	12.801
287.98	13.676
288.35	12.370
288.72	12.626
289.08	13.533
289.45	13.216
289.82	14.221
290.19	13.043
290.56	11.790
290.93	11.464
291.29	11.902
291.66	12.978
292.03	12.943
292.40	12.382
292.77	13.119
293.13	11.855
293.50	13.333
293.87	12.933
294.24	12.831
294.60	13.784
294.97	11.640
295.34	10.818
295.71	11.301
296.08	11.911
296.44	11.862
296.81	9.866
297.18	11.875
297.55	10.377
297.91	10.932
298.28	11.864
298.65	11.576
299.02	11.477
299.38	9.693
299.75	11.298
300.12	9.070
300.48	10.409
300.85	10.046
301.22	11.266
301.59	9.624
301.95	10.337
302.32	10.385
302.69	8.927
303.05	9.302
303.42	9.659
303.79	10.410
304.15	9.748
304.52	11.398
304.89	9.302
305.25	10.209
305.62	10.412
305.99	10.664
306.35	10.763
306.72	10.071
307.09	10.323
307.45	9.691
307.82	10.526
308.19	10.031
308.55	9.621
308.92	11.100
309.29	9.610
309.65	9.990
310.02	10.437
310.38	9.756
310.75	8.974
311.12	10.593
311.48	9.792
311.85	10.827
312.22	11.122
312.58	11.401
312.95	10.050
313.31	10.101
313.68	9.828
314.05	10.302
314.41	10.183
314.78	9.772
315.14	9.815
315.51	10.276
315.87	10.843
316.24	9.366
316.61	10.411
316.97	10.093
317.34	10.339
317.70	9.367
318.07	11.091
318.43	10.117
318.80	9.599
319.16	10.256
319.53	9.140
319.89	10.840
320.26	10.536
320.62	10.380
320.99	9.981
321.35	9.729
321.72	11.357
322.08	10.055
322.45	10.083
322.81	9.889
323.18	10.912
323.54	10.289
323.91	10.479
324.27	10.261
324.64	10.540
325.00	9.974
325.37	11.007
325.73	10.438
326.10	10.177
326.46	11.873
326.83	10.599
327.19	10.407
327.56	11.604
327.92	9.895
328.29	12.020
328.65	10.429
329.01	8.267
329.38	11.565
329.74	10.644
330.11	10.460
330.47	9.896
330.84	9.928
331.20	11.102
331.56	10.507
331.93	11.197
332.29	12.685
332.66	10.339
333.02	11.642
333.38	10.702
333.75	11.348
334.11	10.764
334.48	11.072
334.84	10.159
335.20	10.206
335.57	9.835
335.93	10.997
336.29	10.070
336.66	11.453
337.02	10.783
337.38	10.618
337.75	10.336
338.11	10.333
338.47	10.702
338.84	10.997
339.20	10.053
339.56	10.239
339.93	10.717
340.29	10.418
340.65	10.522
341.02	10.233
341.38	11.149
341.74	10.084
342.11	10.487
342.47	10.293
342.83	10.212
343.20	9.898
343.56	10.548
343.92	9.911
344.28	10.065
344.65	9.796
345.01	10.008
345.37	11.431
345.73	10.294
346.10	10.112
346.46	9.593
346.82	9.872
347.19	9.968
347.55	10.824
347.91	10.133
348.27	10.489
348.63	10.096
349.00	9.906
349.36	10.754
349.72	10.828
350.08	10.452
350.45	10.102
350.81	9.937
351.17	10.624
351.53	9.427
351.89	9.293
352.26	8.803
352.62	9.302
352.98	10.144
353.34	9.662
353.70	11.215
354.07	9.176
354.43	9.876
354.79	10.176
355.15	9.550
355.51	9.643
355.87	10.086
356.24	9.791
356.60	10.164
356.96	9.977
357.32	10.449
357.68	9.931
358.04	9.465
358.40	9.535
358.77	11.086
359.13	10.272
359.49	9.917
359.85	10.462
360.21	9.021
360.57	9.962
360.93	9.029
361.29	10.141
361.66	10.023
362.02	9.044
362.38	9.306
362.74	10.080
363.10	10.051
363.46	9.438
363.82	10.791
364.18	10.297
364.54	9.628
364.90	9.268
365.26	8.917
365.62	10.156
365.98	10.249
366.35	9.858
366.71	8.702
367.07	8.930
367.43	9.129
367.79	10.146
368.15	9.986
368.51	9.353
368.87	10.398
369.23	9.466
369.59	9.091
369.95	8.781
370.31	9.414
370.67	8.762
371.03	9.503
371.39	9.297
371.75	8.643
372.11	9.259
372.47	9.156
372.83	9.847
373.19	9.209
373.55	9.610
373.91	9.052
374.27	9.405
374.63	9.317
374.99	8.914
375.35	9.589
375.71	8.628
376.07	9.116
376.42	10.160
376.78	9.313
377.14	9.695
377.50	9.322
377.86	9.562
378.22	9.861
378.58	8.827
378.94	9.625
379.30	10.119
379.66	8.878
380.02	9.130
380.38	9.157
380.74	9.085
381.09	8.987
381.45	9.976
381.81	8.688
382.17	9.515
382.53	9.108
382.89	8.926
383.25	8.457
383.61	9.383
383.97	9.438
384.32	9.578
384.68	9.377
385.04	8.125
385.40	9.776
385.76	9.672
386.12	9.296
386.48	8.966
386.83	8.949
387.19	9.130
387.55	9.442
387.91	8.979
388.27	9.309
388.62	9.051
388.98	9.512
389.34	8.960
389.70	9.035
390.06	9.000
390.42	9.987
390.77	9.289
391.13	9.596
391.49	8.539
391.85	9.010
392.20	8.396
392.56	8.508
392.92	9.245
393.28	8.774
393.64	8.807
393.99	8.935
394.35	9.815
394.71	8.910
395.07	8.302
395.42	9.445
395.78	8.172
396.14	9.195
396.50	9.195
396.85	9.943
397.21	8.552
397.57	9.379
397.92	9.341
398.28	9.306
398.64	9.168
399.00	9.263
399.35	8.910
399.71	8.154
400.07	9.398
400.42	8.339
400.78	9.063
401.14	9.503
401.49	8.688
401.85	8.538
402.21	8.359
402.57	9.503
402.92	10.013
403.28	9.256
403.63	9.485
403.99	8.765
404.35	8.603
404.70	8.701
405.06	9.336
405.42	8.794
405.77	8.756
406.13	9.143
406.49	9.227
406.84	9.035
407.20	8.585
407.55	8.377
407.91	8.802
408.27	9.046
408.62	9.699
408.98	8.755
409.34	8.911
409.69	9.942
410.05	9.950
410.40	8.460
410.76	9.025
411.11	8.955
411.47	9.356
411.83	8.422
412.18	8.879
412.54	9.649
412.89	8.527
413.25	9.558
413.60	8.527
413.96	8.614
414.31	10.604
414.67	9.841
415.03	7.916
415.38	8.917
415.74	8.707
416.09	9.584
416.45	8.544
416.80	9.329
417.16	9.109
417.51	8.908
417.87	9.193
418.22	8.920
418.58	9.461
418.93	9.291
419.29	9.373
419.64	8.715
420.00	9.397
420.35	8.787
420.71	8.897
421.06	9.102
421.42	9.732
421.77	9.480
422.12	9.169
422.48	9.269
422.83	9.096
423.19	8.396
423.54	9.717
423.90	9.323
424.25	9.936
424.61	10.105
424.96	9.048
425.31	8.357
425.67	9.112
426.02	9.658
426.38	8.893
426.73	8.858
427.09	9.881
427.44	9.102
427.79	8.729
428.15	9.969
428.50	8.278
428.85	9.471
429.21	9.060
429.56	9.033
429.92	9.943
430.27	9.151
430.62	9.286
430.98	10.365
431.33	8.974
431.68	9.425
432.04	10.535
432.39	8.834
432.74	8.461
433.10	10.285
433.45	9.112
433.80	8.736
434.16	9.175
434.51	9.130
434.86	9.187
435.22	8.998
435.57	8.968
435.92	9.650
436.28	8.949
436.63	9.642
436.98	9.166
437.34	9.524
437.69	8.914
438.04	9.451
438.39	8.468
438.75	8.522
439.10	8.329
439.45	9.746
439.81	9.175
440.16	9.971
440.51	9.037
440.86	9.603
441.22	8.606
441.57	9.219
441.92	8.968
442.27	9.416
442.63	9.203
442.98	9.144
443.33	9.029
443.68	9.331
444.03	9.488
444.39	9.817
444.74	9.001
445.09	8.700
445.44	9.803
445.79	9.086
446.15	8.874
446.50	9.306
446.85	9.246
447.20	9.566
447.55	9.737
447.91	9.663
448.26	9.205
448.61	9.551
448.96	9.624
449.31	9.366
449.66	9.717
450.02	9.153
450.37	9.107
450.72	9.587
451.07	8.652
451.42	9.420
451.77	9.556
452.12	9.566
452.47	10.265
452.83	8.373
453.18	9.421
453.53	8.701
453.88	8.735
454.23	9.456
454.58	9.620
454.93	8.852
455.28	9.891
455.63	9.233
455.98	8.825
456.34	8.582
456.69	9.521
457.04	8.793
457.39	9.561
457.74	9.695
458.09	9.538
458.44	9.577
458.79	9.665
459.14	8.989
459.49	9.268
459.84	8.963
460.19	8.223
460.54	9.976
460.89	9.741
461.24	9.248
461.59	9.601
461.94	9.545
462.29	8.395
462.64	8.179
462.99	8.987
463.34	9.738
463.69	9.149
464.04	9.064
464.39	9.152
464.74	9.951
465.09	9.609
465.44	9.933
465.79	9.718
466.14	9.122
466.49	9.208
466.84	9.384
467.19	9.236
467.54	9.786
467.89	9.239
468.24	8.974
468.59	9.242
468.94	9.451
469.29	9.121
469.64	9.135
469.99	10.552
470.34	9.171
470.68	9.219
471.03	9.873
471.38	9.666
471.73	9.259
472.08	9.553
472.43	9.894
472.78	9.466
473.13	8.179
473.48	8.806
473.83	9.918
474.17	8.008
474.52	8.997
474.87	9.650
475.22	8.998
475.57	9.426
475.92	9.542
476.27	9.149
476.61	9.796
476.96	9.309
477.31	8.954
477.66	9.209
478.01	9.286
478.36	8.610
478.70	9.076
479.05	8.990
479.40	9.880
479.75	9.564
480.10	9.842
480.45	9.416
480.79	10.105
481.14	9.878
481.49	9.472
481.84	9.048
482.19	9.773
482.53	8.905
482.88	9.396
483.23	9.577
483.58	9.641
483.92	8.852
484.27	9.286
484.62	8.700
484.97	9.913
485.31	9.133
485.66	9.776
486.01	9.680
486.36	10.036
486.70	9.906
487.05	9.761
487.40	9.432
487.75	9.676
488.09	8.977
488.44	9.183
488.79	9.122
489.13	9.225
489.48	9.491
489.83	9.469
490.17	9.033
490.52	9.958
490.87	9.550
491.22	9.845
491.56	9.871
491.91	9.361
492.26	9.333
492.60	9.235
492.95	9.572
493.30	9.302
493.64	9.448
493.99	9.710
494.34	9.971
494.68	9.833
495.03	8.992
495.37	9.830
495.72	9.524
496.07	9.450
496.41	9.406
496.76	9.735
497.11	9.765
497.45	9.825
497.80	9.844
498.14	10.076
498.49	9.733
498.84	9.919
499.18	9.557
499.53	9.503
499.87	9.316
500.22	10.005
500.56	10.231
500.91	9.658
501.26	9.606
501.60	8.873
501.95	9.966
502.29	9.854
502.64	10.174
502.98	10.164
503.33	9.732
503.67	9.591
504.02	9.412
504.36	9.262
504.71	9.400
505.06	9.985
505.40	9.381
505.75	9.969
506.09	9.709
506.44	9.173
506.78	9.853
507.13	9.667
507.47	8.537
507.82	10.361
508.16	9.499
508.51	9.143
508.85	9.590
509.19	8.889
509.54	9.651
509.88	10.108
510.23	9.316
510.57	10.117
510.92	10.453
511.26	9.736
511.61	9.385
511.95	7.883
512.30	8.828
512.64	9.137
512.98	9.695
513.33	9.859
513.67	9.370
514.02	9.920
514.36	9.157
514.70	9.873
515.05	9.713
515.39	9.729
515.74	9.059
516.08	9.735
516.42	9.332
516.77	9.139
517.11	8.760
517.46	9.904
517.80	10.291
518.14	8.696
518.49	9.825
518.83	9.368
519.17	9.699
519.52	8.806
519.86	9.107
520.20	10.006
520.55	9.888
520.89	10.120
521.23	10.128
521.58	9.545
521.92	9.051
522.26	9.694
522.61	9.825
522.95	9.585
523.29	9.524
523.64	9.854
523.98	9.085
524.32	8.759
524.66	9.026
525.01	9.371
525.35	9.612
525.69	10.007
526.04	8.664
526.38	9.178
526.72	9.993
527.06	9.542
527.41	9.133
527.75	8.745
528.09	10.075
528.43	9.498
528.78	9.561
529.12	10.414
529.46	9.917
529.80	9.968
530.15	9.331
530.49	10.782
530.83	9.885
531.17	9.795
531.51	8.901
531.86	9.485
532.20	9.717
532.54	9.103
532.88	9.666
533.22	9.495
533.57	9.338
533.91	9.742
534.25	10.286
534.59	9.588
534.93	9.375
535.27	10.510
535.62	9.539
535.96	10.995
536.30	10.505
536.64	10.390
536.98	9.881
537.32	8.826
537.66	9.732
538.01	9.847
538.35	9.116
538.69	9.498
539.03	8.725
539.37	8.518
539.71	9.891
540.05	8.974
540.39	9.498
540.73	9.846
541.07	9.388
541.42	10.370
541.76	9.540
542.10	9.546
542.44	9.771
542.78	9.022
543.12	9.569
543.46	9.399
543.80	8.690
544.14	9.979
544.48	8.494
544.82	8.742
545.16	8.452
545.50	10.939
545.84	9.397
546.18	8.555
546.52	9.598
546.86	9.329
547.20	9.078
547.54	8.435
547.88	9.447
548.22	9.642
548.56	8.539
548.90	8.322
549.24	10.556
549.58	9.110
549.92	9.758
550.26	10.627
550.60	9.234
550.94	8.955
551.28	9.084
551.62	9.699
551.96	9.883
552.30	9.243
552.64	8.616
552.98	10.085
553.32	9.517
553.66	9.391
554.00	8.495
554.34	8.498
554.68	9.471
555.02	8.757
555.36	8.926
555.69	8.521
556.03	9.078
556.37	8.748
556.71	9.040
557.05	9.077
557.39	10.249
557.73	9.607
558.07	9.269
558.41	9.690
558.75	9.546
559.08	8.741
559.42	9.520
559.76	9.786
560.10	8.609
560.44	9.727
560.78	9.065
561.12	8.970
561.45	8.912
561.79	9.904
562.13	9.705
562.47	10.071
562.81	8.730
563.15	9.065
563.48	10.048
563.82	9.439
564.16	9.072
564.50	10.109
564.84	8.716
565.17	9.603
565.51	9.091
565.85	8.728
566.19	9.470
566.52	9.109
566.86	8.723
567.20	9.346
567.54	9.614
567.88	9.630
568.21	9.288
568.55	10.329
568.89	8.624
569.23	9.395
569.56	10.054
569.90	9.509
570.24	8.881
570.57	9.792
570.91	9.621
571.25	9.108
571.59	9.441
571.92	9.240
572.26	9.682
572.60	9.578
572.93	9.247
573.27	9.323
573.61	9.732
573.95	9.730
574.28	9.435
574.62	9.627
574.96	10.113
575.29	9.579
575.63	9.247
575.97	9.538
576.30	9.526
576.64	9.431
576.98	9.511
577.31	9.649
577.65	9.476
577.98	9.125
578.32	9.461
578.66	9.183
578.99	9.437
579.33	9.145
579.67	9.216
580.00	9.565
580.34	9.501
580.67	9.432
581.01	9.142
581.35	9.580
581.68	9.767
582.02	9.658
582.35	9.629
582.69	9.565
583.02	9.682
583.36	9.352
583.70	9.007
584.03	9.410
584.37	8.989
584.70	9.028
585.04	9.082
585.37	9.210
585.71	9.551
586.04	9.323
586.38	9.524
586.72	9.357
587.05	9.391
587.39	9.449
587.72	9.282
588.06	9.767
588.39	9.236
588.73	8.694
589.06	8.923
589.40	9.219
589.73	8.947
590.07	8.604
590.40	9.125
590.73	9.157
591.07	8.734
591.40	8.652
591.74	9.337
592.07	9.174
592.41	9.653
592.74	9.684
593.08	9.026
593.41	9.441
593.75	9.109
594.08	9.257
594.41	8.885
594.75	9.633
595.08	9.149
595.42	8.912
595.75	9.255
596.09	9.122
596.42	9.109
596.75	9.346
597.09	9.372
597.42	9.870
597.75	8.933
598.09	8.698
598.42	9.485
598.76	8.858
599.09	9.484
599.42	9.101
599.76	9.350
600.09	9.488
600.42	8.927
600.76	9.054
601.09	8.851
601.42	8.624
601.76	9.228
602.09	9.404
602.42	9.699
602.76	8.683
603.09	9.281
603.42	9.476
603.76	9.080
604.09	9.605
604.42	8.790
604.76	9.341
605.09	8.700
605.42	9.537
605.75	8.308
606.09	8.609
606.42	8.978
606.75	8.442
607.09	8.688
607.42	9.238
607.75	8.972
608.08	9.333
608.42	8.669
608.75	8.266
609.08	8.721
609.41	9.935
609.75	8.371
610.08	8.679
610.41	8.989
610.74	8.758
611.07	9.018
611.41	9.980
611.74	9.006
612.07	9.901
612.40	8.811
612.73	8.562
613.07	7.927
613.40	9.031
613.73	8.830
614.06	8.181
614.39	9.061
614.72	9.883
615.06	8.889
615.39	8.113
615.72	8.693
616.05	8.390
616.38	9.107
616.71	8.158
617.05	9.214
617.38	9.057
617.71	8.333
618.04	9.019
618.37	8.770
618.70	8.473
619.03	8.729
619.36	8.256
619.69	8.991
620.03	8.693
620.36	7.724
620.69	8.494
621.02	7.231
621.35	8.177
621.68	7.987
622.01	8.252
622.34	8.961
622.67	9.475
623.00	9.878
623.33	8.078
623.66	8.550
623.99	9.002
624.32	9.024
624.65	8.828
624.99	8.376
625.32	9.485
625.65	8.760
625.98	9.005
626.31	8.898
626.64	8.169
626.97	8.997
627.30	9.068
627.63	8.045
627.96	8.139
628.29	8.744
628.62	8.317
628.95	8.016
629.28	8.177
629.61	9.856
629.94	8.607
630.26	6.897
630.59	8.991
630.92	6.928
631.25	7.621
631.58	8.137
631.91	7.105
632.24	8.013
632.57	7.667
632.90	8.985
633.23	7.434
633.56	8.753
633.89	9.450
634.22	10.483
634.55	9.257
634.88	6.740
635.20	9.625
635.53	7.494
635.86	8.205
636.19	9.926
636.52	6.707
636.85	8.323
637.18	5.481
637.51	7.990
637.83	8.094
638.16	6.933
638.49	6.542
638.82	8.758
639.15	7.979
639.48	9.358
639.81	9.167
640.13	8.310
640.46	8.898
640.79	7.626
641.12	8.136
641.45	8.297
641.77	7.806
642.10	8.623
642.43	8.333
642.76	6.782
643.09	8.466
643.41	7.656
643.74	8.562
644.07	7.443
644.40	8.624
644.73	7.288
645.05	6.981
645.38	7.475
645.71	7.823
646.04	6.397
646.36	8.507
646.69	7.692
647.02	7.468
647.35	8.592
647.67	6.100
648.00	6.522
648.33	8.475
648.66	8.681
648.98	6.366
649.31	7.515
649.64	5.947
649.96	7.899
650.29	5.556
650.62	5.601
650.94	7.414
651.27	6.890
651.60	7.517
651.92	7.706
652.25	8.208
652.58	8.416
652.90	7.239
653.23	6.112
653.56	6.281
653.88	5.802
654.21	5.290
654.54	7.641
654.86	6.992
655.19	7.003
655.52	9.671
655.84	10.403
656.17	12.129
656.49	15.877
656.82	15.098
657.15	10.855
657.47	8.075
657.80	5.665
658.13	5.889
658.45	8.347
658.78	8.162
659.10	7.601
659.43	7.011
659.75	7.628
660.08	7.655
660.41	5.375
660.73	7.163
661.06	8.503
661.38	5.233
661.71	7.172
662.03	8.668
662.36	5.088
662.68	6.237
663.01	7.203
663.33	5.832
663.66	5.987
663.98	5.393
664.31	7.692
664.63	4.054
664.96	7.002
665.28	8.584
665.61	5.616
665.93	6.424
666.26	7.173
666.58	4.925
666.91	6.502
667.23	5.991
667.56	5.977
667.88	6.075
668.21	8.482
668.53	7.126
668.86	9.353
669.18	5.437
669.50	7.604
669.83	5.251
670.15	4.762
670.48	5.977
670.80	11.379
671.13	8.009
671.45	9.361
671.77	7.543
672.10	7.018
672.42	6.870
672.75	6.071
673.07	6.364
673.39	6.716
673.72	7.385
674.04	7.172
674.37	8.943
674.69	5.761
675.01	6.838
675.34	7.440
675.66	8.279
675.98	6.416
676.31	7.240
676.63	9.070
676.95	5.412
677.28	5.734
677.60	6.618
677.92	4.656
678.25	8.677
678.57	8.554
678.89	4.691
679.22	3.934
679.54	8.163
679.86	6.055
680.18	5.577
680.51	5.385
680.83	5.263
681.15	7.662
681.48	7.415
681.80	6.544
682.12	5.208
682.44	7.445
682.77	5.684
683.09	6.473
683.41	5.814
683.73	5.580
684.06	4.867
684.38	6.410
684.70	7.128
685.02	7.851
685.34	6.262
685.67	8.630
685.99	7.473
686.31	6.724
686.63	7.721
686.96	8.534
687.28	7.385
687.60	5.860
687.92	7.004
688.24	8.800
688.56	9.211
688.89	4.454
689.21	3.812
689.53	3.378
689.85	6.517
690.17	6.813
690.49	5.314
690.82	5.489
691.14	3.140
691.46	7.193
691.78	5.275
692.10	10.191
692.42	5.495
692.74	8.913
693.06	7.191
693.39	4.684
693.71	6.667
694.03	8.409
694.35	8.784
694.67	7.250
694.99	5.412
695.31	6.460
695.63	5.122
695.95	6.107
696.27	4.110
696.59	5.645
696.91	5.028
697.23	7.614
697.56	6.235
697.88	7.900
698.20	7.127
698.52	6.542
698.84	3.589
699.16	6.147
699.48	6.667
699.80	7.235
700.12	4.558
700.44	3.944
700.76	3.371
701.08	5.438
701.40	8.084
701.72	2.769
702.04	4.717
702.36	2.744
702.68	0.610
703.00	6.140
703.32	5.850
703.64	2.711
703.96	7.038
704.28	3.313
704.60	5.183
704.91	0.627
705.23	6.329
705.55	4.828
705.87	4.930
706.19	3.663
706.51	5.634
706.83	2.229
707.15	6.098
707.47	4.408
707.79	4.822
708.11	7.198
708.43	7.360
708.74	4.787
709.06	3.743
709.38	8.069
709.70	5.405
710.02	5.607
710.34	1.667
710.66	3.257
710.98	3.406
711.29	5.519
711.61	6.452
711.93	5.484
712.25	2.448
712.57	-2.105
712.89	2.564
713.20	6.383
713.52	2.190
713.84	5.161
714.16	1.294
714.48	6.329
714.80	4.473
715.11	9.302
715.43	2.484
715.75	7.764
716.07	10.241
716.39	5.724
716.70	5.036
717.02	1.176
717.34	7.576
717.66	2.586
717.97	1.587
718.29	5.512
718.61	1.717
718.93	2.326
719.24	7.380
719.56	8.240
719.88	2.985
720.20	0.395
720.51	1.953
720.83	3.502
721.15	2.033
721.46	3.053
721.78	4.781
722.10	1.195
722.42	0.403
722.73	6.950
723.05	3.673
723.37	0.000
723.68	6.000
724.00	0.000
724.32	4.603
724.63	4.527
724.95	0.855
725.27	11.392
725.58	6.173
725.90	2.510
726.22	6.522
726.53	1.176
726.85	7.299
727.16	0.000
727.48	6.130
727.80	3.906
728.11	4.098
728.43	7.031
728.74	6.349
729.06	2.400
729.38	3.953
729.69	6.050
730.01	5.948
730.32	4.059
730.64	-1.136
730.96	4.545
731.27	5.686
731.59	7.302
731.90	4.207
732.22	2.244
732.53	2.703
732.85	4.362
733.16	6.271
733.48	7.770
733.80	5.405
734.11	8.784
734.43	8.669
734.74	7.808
735.06	6.628
735.37	6.079
735.69	7.443
736.00	0.000
736.32	5.319
736.63	5.172
736.95	5.479
737.26	7.241
737.58	4.861
737.89	8.935
738.21	5.338
738.52	6.084
738.83	7.755
739.15	0.000
739.46	3.113
739.78	2.113
740.09	4.110
740.41	1.429
740.72	2.482
741.04	3.200
741.35	-4.386
741.66	4.889
741.98	6.250
742.29	4.950
742.61	3.415
742.92	8.772
743.23	1.415
743.55	4.505
743.86	1.794
744.18	3.431
744.49	1.015
744.80	1.020
745.12	0.467
745.43	6.161
745.74	9.910
746.06	6.075
746.37	0.459
746.68	-2.885
747.00	5.742
747.31	5.288
747.62	3.211
747.94	10.044
748.25	4.128
748.56	7.556
748.88	5.164
749.19	10.000
749.50	-3.398
749.82	-1.408
750.13	-3.333
750.44	2.692
750.75	4.059
751.07	8.185
751.38	5.674
751.69	0.386
752.01	6.641
752.32	3.846
752.63	5.970
752.94	6.400
753.26	6.276
753.57	0.417
753.88	6.478
754.19	1.594
754.51	3.008
754.82	4.762
755.13	0.000
755.44	2.033
755.75	2.000
756.07	0.738
756.38	5.755
756.69	8.532
757.00	5.607
757.31	2.265
757.63	2.160
757.94	7.345
758.25	7.672
758.56	4.076
758.87	5.357
759.18	8.517
759.50	4.040
759.81	6.689
760.12	10.154
760.43	2.679
760.74	4.520
761.05	6.630
761.36	2.292
761.67	6.949
761.99	2.062
762.30	4.380
762.61	1.235
762.92	3.846
763.23	6.557
763.54	4.329
763.85	8.571
764.16	4.472
764.47	2.000
764.78	4.643
765.10	8.525
765.41	7.295
765.72	4.969
766.03	4.950
766.34	4.615
766.65	1.674
766.96	0.939
767.27	6.931
767.58	-2.247
767.89	5.556
768.20	4.972
768.51	7.035
768.82	9.135
769.13	4.425
769.44	3.766
769.75	-2.564
770.06	4.484
770.37	-1.471
770.68	5.825
770.99	0.000
771.30	7.143
771.61	6.122
771.92	9.129
772.23	1.351
772.54	-2.762
772.85	5.814
773.16	8.995
773.47	-4.142
773.78	7.471
774.09	0.000
774.39	2.484
774.70	2.721
775.01	0.690
775.32	0.000
775.63	0.752
775.94	0.752
776.25	-10.400
776.56	0.000
776.87	0.794
777.18	-3.604
777.48	-6.306
777.79	0.000
778.10	-1.835
778.41	-3.509
778.72	-4.202
779.03	-2.113
779.34	6.081
779.65	-7.042
779.95	-6.623
780.26	-10.072
780.57	-1.439
780.88	2.113
781.19	-4.202
781.50	1.342
781.80	-0.585
782.11	-0.581
782.42	7.547
782.73	0.000
783.04	-2.069
783.34	-3.053
783.65	-0.671
783.96	-4.615
784.27	4.286
784.57	0.000
784.88	-12.500
785.19	10.000
785.50	0.000
785.81	-5.714
786.11	-6.723
786.42	-1.770
786.73	-9.434
787.04	-5.505
787.34	-10.891
787.65	0.833
787.96	-10.744
788.26	8.696
788.57	-0.794
788.88	-0.813
789.19	1.600
789.49	-9.160
789.80	12.121
790.11	-5.660
790.41	-5.941
790.72	4.255
791.03	2.174
791.33	-14.118
791.64	-6.173
791.95	6.522
792.25	10.227
792.56	-2.564
792.87	-12.821
793.17	-19.231
793.48	-3.571
793.79	-8.750
794.09	12.500
794.40	2.083
794.70	5.405
795.01	0.000
795.32	0.870
795.62	-21.739
795.93	-5.660
796.23	7.071
796.54	1.220
796.85	1.190
797.15	-16.667
797.46	-11.594
797.76	-6.579
798.07	-5.682
798.37	-13.415
798.68	-22.581
798.99	-9.459
799.29	3.614
799.60	2.564
799.90	-1.538
800.21	3.030
800.51	-8.000
800.82	1.333
801.12	-45.833
801.43	-31.667
801.73	-18.919
802.04	-1.429
802.34	-13.115
802.65	-7.463
802.95	-29.091
803.26	-1.724
803.56	-6.154
803.87	-20.755
804.17	-19.355
804.48	-2.941
804.78	-43.902
805.09	7.246
805.39	0.000
805.70	-55.319
806.00	-19.298
806.30	-3.846
806.61	-5.263
806.91	-5.405
807.22	-18.421
807.52	9.091
807.83	-30.508
808.13	-34.848
808.43	-23.333
808.74	-29.310
809.04	-7.937
809.35	-24.490
809.65	-21.667
809.95	-32.653
810.26	4.225
810.56	-33.333
810.86	-44.898
811.17	9.615
811.47	-23.404
811.77	-27.083
812.08	-32.075
812.38	-56.250
812.69	-12.727
812.99	-9.756
813.29	-43.243
813.59	-45.946
813.90	-7.273
814.20	-16.364
814.50	-31.667
814.81	-20.000
815.11	-12.281
815.41	2.326
815.72	-7.500
816.02	-51.429
816.32	-29.730
816.62	8.333
816.93	-15.556
817.23	-11.111
817.53	-22.222
817.84	-40.541
818.14	-26.829
818.44	-14.000
818.74	-8.163
819.04	9.756
819.35	-33.333
819.65	-15.909
819.95	-127.778
820.25	-27.273
820.56	-54.762
820.86	-36.111
821.16	-20.455
821.46	-39.130
821.76	-25.862
822.07	8.696
822.37	6.061
822.67	-4.878
822.97	0.000
823.27	-65.714
823.57	-48.276
823.88	-58.824
824.18	-25.000
824.48	-25.714
824.78	-71.429
825.08	-25.000
825.38	-14.815
825.69	-19.355
825.99	-14.634
826.29	-29.630
826.59	-40.625
826.89	-38.710
827.19	-65.217
827.49	-25.000
827.79	-56.522
828.09	-32.258
828.39	-10.417
828.70	-53.125
829.00	-44.828
829.30	-21.622
829.60	-54.167
829.90	-55.556
830.20	-15.625
830.50	-9.091
830.80	-158.824
831.10	-27.273
831.40	-29.412
831.70	-26.923
832.00	-15.152
832.30	-35.294
832.60	-35.135
832.90	2000.000
833.20	-28.571
833.50	-75.000
833.80	-34.211
834.10	-50.000
834.40	-113.636
834.70	-140.000
835.00	-90.000
835.30	-66.667
835.60	-33.333
835.90	-28.571
836.20	-40.000
836.50	-50.000
836.80	-84.211
837.10	-13.514
837.40	26.667
837.70	-60.870
838.00	8.333
838.30	-68.421
838.60	-210.000
838.90	-140.000
839.19	-83.333
839.49	-53.846
839.79	-31.579
840.09	-233.333
840.39	-170.000
840.69	-113.636
840.99	-57.143
841.29	-54.167
841.59	-169.231
841.88	-126.667
842.18	-71.429
842.48	-3.333
842.78	-357.143
843.08	-135.714
843.38	-225.000
843.68	-125.000
843.97	-71.429
844.27	-211.111
844.57	-127.273
844.87	-86.667
845.17	-50.000
845.47	766.667
845.76	-93.333
846.06	-83.333
846.36	-1050.000
846.66	-57.895
846.96	-72.727
847.25	-166.667
847.55	-244.444
847.85	-119.048
848.15	-92.308
848.44	-366.667
848.74	-50.000
849.04	-123.077
849.34	-475.000
849.63	-90.909
849.93	-114.286
850.23	-10.000
850.53	-212.500
850.82	-94.444
851.12	-80.000
851.42	-29.412
851.71	-25.000
852.01	-17.647
852.31	-130.769
852.61	500.000
852.90	5.882
853.20	-13.333
853.50	-31.250
853.79	-164.286
854.09	-450.000
854.39	-70.000
854.68	-12.500
854.98	-57.143
855.28	-52.000
855.57	-41.667
855.87	-41.667
856.17	-52.000
856.46	-15.625
856.76	-15.000
857.05	-28.000
857.35	-191.667
857.65	-82.353
857.94	-191.667
858.24	-91.667
858.53	-65.000
858.83	-90.909
859.13	8.000
859.42	-7.143
859.72	-125.000
860.01	-16.667
860.31	-187.500
860.60	-18.750
860.90	-300.000
861.20	-166.667
861.49	-33.333
861.79	-56.250
862.08	425.000
862.38	-158.333
862.67	414.286
862.97	375.000
863.26	-100.000
863.56	-54.545
863.85	-15.789
864.15	-52.941
864.44	-380.000
864.74	-140.000
865.03	-22.222
865.33	-21.429
865.62	157.143
865.92	-15.789
866.21	-61.111
866.51	-81.818
866.80	-155.556
867.10	-187.500
867.39	-75.000
867.69	-60.000
867.98	-60.000
868.27	-5.882
868.57	0.000
868.86	850.000
869.16	-325.000
869.45	-428.571
869.75	800.000
870.04	-110.000
870.33	-2600.000
870.63	-52.632
870.92	-75.000
871.22	-1200.000
871.51	-314.286
871.80	-233.333
872.10	-425.000
>>>>>End Processed Spectral Data<<<<<
