SpectraSuite Data File
++++++++++++++++++++++++++++++++++++
Date: Wed May 13 20:25:12 PDT 2015
User: schluterlab
Dark Spectrum Present: Yes
Reference Spectrum Present: Yes
Number of Sampled Component Spectra: 1
Spectrometers: USB2E3373
Integration Time (usec): 3000 (USB2E3373)
Spectra Averaged: 3 (USB2E3373)
Boxcar Smoothing: 0 (USB2E3373)
Correct for Electrical Dark: No (USB2E3373)
Strobe/Lamp Enabled: No (USB2E3373)
Correct for Detector Non-linearity: No (USB2E3373)
Correct for Stray Light: No (USB2E3373)
Number of Pixels in Processed Spectrum: 2048
>>>>>Begin Processed Spectral Data<<<<<
178.53	0.000
178.91	-1175.000
179.29	-1100.000
179.67	-255.556
180.04	-1075.000
180.42	2050.000
180.80	1160.000
181.18	-1125.000
181.56	685.714
181.94	0.000
182.31	-557.143
182.69	1633.333
183.07	-400.000
183.45	-477.778
183.83	354.545
184.20	-420.000
184.58	1850.000
184.96	5600.000
185.34	-900.000
185.72	-650.000
186.09	-2250.000
186.47	1950.000
186.85	2700.000
187.23	5200.000
187.61	-1466.667
187.98	1275.000
188.36	509.091
188.74	463.636
189.12	-1000.000
189.49	550.000
189.87	-4600.000
190.25	-1375.000
190.63	407.143
191.00	369.231
191.38	850.000
191.76	-1275.000
192.14	1300.000
192.51	612.500
192.89	933.333
193.27	600.000
193.65	-1100.000
194.02	480.000
194.40	700.000
194.78	500.000
195.15	450.000
195.53	700.000
195.91	-2500.000
196.29	318.750
196.66	294.737
197.04	-260.000
197.42	0.000
197.79	610.000
198.17	-5100.000
198.55	685.714
198.92	550.000
199.30	780.000
199.68	0.000
200.05	344.444
200.43	785.714
200.81	3800.000
201.18	2000.000
201.56	-1266.667
201.94	544.444
202.31	500.000
202.69	425.000
203.07	550.000
203.44	0.000
203.82	1250.000
204.19	757.143
204.57	385.714
204.95	525.000
205.32	1333.333
205.70	454.545
206.08	385.714
206.45	2700.000
206.83	343.750
207.20	733.333
207.58	660.000
207.96	361.111
208.33	637.500
208.71	-633.333
209.08	800.000
209.46	600.000
209.84	454.545
210.21	-1266.667
210.59	1675.000
210.96	-550.000
211.34	2350.000
211.71	570.000
212.09	716.667
212.46	0.000
212.84	1666.667
213.22	1250.000
213.59	-4300.000
213.97	800.000
214.34	828.571
214.72	481.818
215.09	1060.000
215.47	-2600.000
215.84	-2100.000
216.22	1533.333
216.59	385.714
216.97	1150.000
217.34	481.818
217.72	-650.000
218.09	0.000
218.47	-5000.000
218.84	500.000
219.22	728.571
219.59	1266.667
219.97	-442.857
220.34	980.000
220.72	-1733.333
221.09	414.286
221.47	1375.000
221.84	-800.000
222.22	0.000
222.59	1225.000
222.97	-2550.000
223.34	1000.000
223.72	415.385
224.09	740.000
224.46	1850.000
224.84	-4700.000
225.21	-860.000
225.59	-4200.000
225.96	540.000
226.34	325.000
226.71	2550.000
227.08	625.000
227.46	530.000
227.83	-875.000
228.21	-1950.000
228.58	522.222
228.95	-2050.000
229.33	-1850.000
229.70	1800.000
230.08	742.857
230.45	-780.000
230.82	391.667
231.20	833.333
231.57	714.286
231.95	466.667
232.32	231.818
232.69	381.818
233.07	542.857
233.44	369.231
233.81	-1300.000
234.19	284.211
234.56	450.000
234.93	375.000
235.31	409.091
235.68	300.000
236.05	328.571
236.43	166.667
236.80	236.842
237.17	4100.000
237.55	228.571
237.92	207.143
238.29	200.000
238.67	145.161
239.04	220.690
239.41	125.000
239.79	100.000
240.16	97.619
240.53	115.909
240.91	101.961
241.28	94.000
241.65	98.000
242.02	101.449
242.40	62.903
242.77	78.333
243.14	68.817
243.51	74.157
243.89	67.059
244.26	52.222
244.63	60.215
245.00	55.319
245.38	50.495
245.75	48.598
246.12	48.624
246.49	56.934
246.87	57.600
247.24	48.462
247.61	49.286
247.98	42.484
248.36	39.865
248.73	38.854
249.10	36.943
249.47	40.678
249.84	41.711
250.22	41.176
250.59	39.645
250.96	37.374
251.33	35.071
251.70	35.644
252.08	33.810
252.45	31.390
252.82	28.261
253.19	28.085
253.56	31.373
253.94	30.290
254.31	27.734
254.68	29.615
255.05	24.354
255.42	25.610
255.79	29.779
256.16	32.130
256.54	25.442
256.91	28.114
257.28	26.259
257.65	23.432
258.02	26.398
258.39	28.707
258.76	20.401
259.14	26.190
259.51	23.708
259.88	23.292
260.25	24.773
260.62	23.121
260.99	21.739
261.36	27.027
261.73	24.642
262.10	23.256
262.47	23.662
262.85	24.513
263.22	20.513
263.59	21.368
263.96	20.330
264.33	21.149
264.70	24.474
265.07	24.041
265.44	24.495
265.81	20.925
266.18	20.101
266.55	21.951
266.92	22.604
267.29	23.843
267.66	21.101
268.03	23.182
268.40	20.561
268.77	18.854
269.14	18.018
269.51	23.928
269.88	20.513
270.25	19.639
270.62	20.225
270.99	21.935
271.36	18.240
271.73	18.458
272.10	21.087
272.47	23.226
272.84	21.212
273.21	21.174
273.58	17.904
273.95	18.239
274.32	18.802
274.69	19.914
275.06	19.488
275.43	19.787
275.80	19.238
276.17	22.607
276.54	20.790
276.91	20.356
277.28	18.359
277.65	19.923
278.02	19.048
278.39	21.484
278.76	16.909
279.13	20.943
279.50	18.250
279.87	17.530
280.23	18.962
280.60	18.569
280.97	15.712
281.34	18.407
281.71	16.909
282.08	19.386
282.45	18.545
282.82	17.229
283.19	16.756
283.56	18.947
283.92	17.766
284.29	16.755
284.66	19.419
285.03	15.190
285.40	16.901
285.77	17.172
286.14	17.271
286.51	19.667
286.87	16.581
287.24	17.264
287.61	17.978
287.98	16.721
288.35	15.372
288.72	15.888
289.08	17.214
289.45	16.310
289.82	17.236
290.19	14.757
290.56	15.926
290.93	14.199
291.29	15.184
291.66	15.634
292.03	16.715
292.40	16.446
292.77	15.089
293.13	15.373
293.50	15.452
293.87	14.963
294.24	13.481
294.60	14.119
294.97	13.808
295.34	14.528
295.71	14.915
296.08	14.672
296.44	13.480
296.81	13.738
297.18	15.176
297.55	12.401
297.91	13.456
298.28	15.529
298.65	14.099
299.02	14.756
299.38	13.280
299.75	11.590
300.12	13.921
300.48	12.500
300.85	14.427
301.22	12.739
301.59	11.364
301.95	11.209
302.32	11.297
302.69	12.784
303.05	13.212
303.42	12.469
303.79	12.684
304.15	12.471
304.52	12.051
304.89	11.614
305.25	11.949
305.62	12.344
305.99	13.459
306.35	12.304
306.72	11.771
307.09	11.987
307.45	12.275
307.82	11.161
308.19	12.031
308.55	11.111
308.92	12.460
309.29	11.827
309.65	12.195
310.02	11.416
310.38	13.226
310.75	12.883
311.12	12.487
311.48	11.599
311.85	12.369
312.22	11.550
312.58	11.954
312.95	12.249
313.31	10.485
313.68	11.019
314.05	12.821
314.41	11.759
314.78	11.380
315.14	10.725
315.51	12.564
315.87	12.376
316.24	11.718
316.61	11.404
316.97	11.546
317.34	10.861
317.70	11.950
318.07	12.320
318.43	12.622
318.80	13.308
319.16	11.299
319.53	11.914
319.89	13.238
320.26	12.000
320.62	12.897
320.99	13.232
321.35	12.929
321.72	13.347
322.08	13.031
322.45	14.925
322.81	14.147
323.18	13.198
323.54	12.616
323.91	13.774
324.27	12.333
324.64	12.675
325.00	12.714
325.37	14.286
325.73	14.363
326.10	14.475
326.46	14.158
326.83	13.719
327.19	13.920
327.56	13.763
327.92	13.386
328.29	14.108
328.65	14.733
329.01	13.538
329.38	13.969
329.74	14.035
330.11	13.761
330.47	15.611
330.84	15.717
331.20	14.663
331.56	14.220
331.93	13.704
332.29	13.665
332.66	14.071
333.02	14.625
333.38	13.731
333.75	15.419
334.11	13.968
334.48	13.842
334.84	14.798
335.20	14.909
335.57	14.415
335.93	13.929
336.29	14.011
336.66	13.526
337.02	13.756
337.38	14.537
337.75	12.834
338.11	12.713
338.47	14.457
338.84	13.199
339.20	13.670
339.56	15.602
339.93	13.364
340.29	13.406
340.65	14.884
341.02	13.962
341.38	13.523
341.74	13.421
342.11	13.450
342.47	14.009
342.83	13.271
343.20	13.766
343.56	13.227
343.92	13.596
344.28	13.265
344.65	13.929
345.01	13.384
345.37	13.122
345.73	12.944
346.10	13.214
346.46	13.220
346.82	12.603
347.19	12.949
347.55	12.562
347.91	13.430
348.27	13.147
348.63	13.796
349.00	12.460
349.36	13.383
349.72	13.633
350.08	12.723
350.45	13.995
350.81	12.510
351.17	13.047
351.53	12.695
351.89	12.211
352.26	14.128
352.62	13.152
352.98	12.804
353.34	12.983
353.70	11.948
354.07	12.500
354.43	12.460
354.79	12.068
355.15	11.333
355.51	13.269
355.87	13.061
356.24	12.622
356.60	11.628
356.96	12.631
357.32	12.347
357.68	13.228
358.04	12.272
358.40	13.222
358.77	13.302
359.13	12.391
359.49	12.000
359.85	11.190
360.21	11.882
360.57	13.152
360.93	12.231
361.29	12.925
361.66	12.152
362.02	13.209
362.38	12.471
362.74	11.607
363.10	11.547
363.46	11.812
363.82	11.640
364.18	12.335
364.54	12.853
364.90	11.615
365.26	11.838
365.62	12.345
365.98	11.980
366.35	11.390
366.71	12.148
367.07	11.726
367.43	11.248
367.79	12.063
368.15	12.500
368.51	10.683
368.87	12.634
369.23	12.070
369.59	12.600
369.95	11.397
370.31	11.752
370.67	12.246
371.03	12.584
371.39	11.224
371.75	11.324
372.11	11.522
372.47	12.683
372.83	12.320
373.19	11.416
373.55	11.678
373.91	12.960
374.27	12.302
374.63	11.200
374.99	11.370
375.35	10.886
375.71	11.789
376.07	12.689
376.42	11.348
376.78	11.531
377.14	11.669
377.50	11.589
377.86	10.971
378.22	12.073
378.58	10.714
378.94	10.622
379.30	10.051
379.66	11.358
380.02	11.057
380.38	10.625
380.74	11.825
381.09	11.308
381.45	11.125
381.81	11.609
382.17	11.592
382.53	11.069
382.89	11.481
383.25	11.320
383.61	11.958
383.97	10.944
384.32	11.416
384.68	11.152
385.04	11.432
385.40	11.331
385.76	10.627
386.12	11.205
386.48	12.146
386.83	11.418
387.19	11.688
387.55	10.699
387.91	11.245
388.27	11.281
388.62	11.678
388.98	10.688
389.34	10.826
389.70	11.588
390.06	11.724
390.42	10.830
390.77	11.514
391.13	10.402
391.49	11.548
391.85	10.757
392.20	10.915
392.56	11.301
392.92	11.124
393.28	10.059
393.64	11.091
393.99	11.362
394.35	10.918
394.71	11.731
395.07	10.218
395.42	10.692
395.78	11.005
396.14	11.173
396.50	11.967
396.85	11.062
397.21	11.344
397.57	10.787
397.92	10.457
398.28	10.202
398.64	11.231
399.00	11.472
399.35	10.265
399.71	10.880
400.07	11.532
400.42	10.798
400.78	11.580
401.14	10.549
401.49	11.164
401.85	10.405
402.21	10.479
402.57	10.919
402.92	10.908
403.28	10.931
403.63	10.767
403.99	10.382
404.35	10.848
404.70	11.451
405.06	10.192
405.42	11.416
405.77	10.914
406.13	10.609
406.49	10.940
406.84	11.459
407.20	10.165
407.55	10.274
407.91	11.067
408.27	10.402
408.62	10.837
408.98	11.029
409.34	10.271
409.69	10.710
410.05	11.090
410.40	11.193
410.76	10.812
411.11	10.253
411.47	9.776
411.83	11.057
412.18	10.761
412.54	10.897
412.89	11.446
413.25	10.213
413.60	11.427
413.96	10.868
414.31	10.450
414.67	10.837
415.03	10.066
415.38	11.662
415.74	10.675
416.09	11.365
416.45	10.509
416.80	11.104
417.16	11.796
417.51	10.020
417.87	10.340
418.22	10.915
418.58	11.943
418.93	11.118
419.29	10.503
419.64	11.146
420.00	10.000
420.35	11.246
420.71	11.297
421.06	10.442
421.42	10.409
421.77	10.594
422.12	9.826
422.48	9.768
422.83	10.309
423.19	10.552
423.54	10.505
423.90	11.188
424.25	10.497
424.61	10.417
424.96	10.554
425.31	10.908
425.67	10.225
426.02	10.514
426.38	10.806
426.73	10.123
427.09	10.091
427.44	10.006
427.79	10.581
428.15	10.833
428.50	10.123
428.85	10.965
429.21	10.547
429.56	9.902
429.92	10.015
430.27	9.583
430.62	9.012
430.98	10.275
431.33	10.567
431.68	10.681
432.04	10.170
432.39	10.166
432.74	10.293
433.10	10.130
433.45	10.787
433.80	10.366
434.16	10.363
434.51	10.263
434.86	10.604
435.22	10.951
435.57	10.638
435.92	10.064
436.28	10.558
436.63	11.479
436.98	9.845
437.34	10.793
437.69	9.627
438.04	10.118
438.39	9.433
438.75	10.750
439.10	10.112
439.45	10.626
439.81	10.574
440.16	10.164
440.51	10.193
440.86	10.712
441.22	10.289
441.57	10.350
441.92	10.031
442.27	10.011
442.63	9.847
442.98	10.873
443.33	10.924
443.68	10.325
444.03	9.956
444.39	9.202
444.74	10.173
445.09	10.404
445.44	9.732
445.79	10.589
446.15	10.588
446.50	10.393
446.85	10.072
447.20	10.454
447.55	10.050
447.91	10.811
448.26	9.794
448.61	10.684
448.96	11.296
449.31	10.236
449.66	10.748
450.02	9.749
450.37	10.261
450.72	10.265
451.07	10.116
451.42	10.274
451.77	10.863
452.12	11.085
452.47	10.634
452.83	10.606
453.18	10.941
453.53	10.761
453.88	10.573
454.23	11.118
454.58	10.963
454.93	10.617
455.28	10.287
455.63	10.437
455.98	11.786
456.34	10.553
456.69	11.584
457.04	11.207
457.39	10.286
457.74	10.737
458.09	11.041
458.44	10.433
458.79	10.195
459.14	10.609
459.49	11.150
459.84	10.249
460.19	9.782
460.54	9.954
460.89	10.642
461.24	10.747
461.59	11.040
461.94	10.912
462.29	11.632
462.64	10.147
462.99	10.865
463.34	11.467
463.69	10.944
464.04	11.188
464.39	11.014
464.74	11.171
465.09	10.434
465.44	9.917
465.79	10.347
466.14	11.221
466.49	10.011
466.84	10.917
467.19	10.622
467.54	10.750
467.89	10.324
468.24	11.286
468.59	11.600
468.94	11.240
469.29	11.118
469.64	11.714
469.99	11.434
470.34	10.370
470.68	10.417
471.03	10.612
471.38	11.953
471.73	11.259
472.08	11.908
472.43	10.992
472.78	11.521
473.13	11.874
473.48	10.986
473.83	10.793
474.17	11.761
474.52	10.732
474.87	11.092
475.22	10.795
475.57	10.478
475.92	10.037
476.27	10.316
476.61	10.756
476.96	10.445
477.31	9.733
477.66	10.722
478.01	9.984
478.36	10.576
478.70	10.125
479.05	10.170
479.40	10.798
479.75	9.964
480.10	9.791
480.45	10.328
480.79	9.651
481.14	10.568
481.49	10.109
481.84	10.517
482.19	10.404
482.53	10.321
482.88	9.958
483.23	9.860
483.58	10.464
483.92	9.888
484.27	9.717
484.62	9.483
484.97	9.342
485.31	9.966
485.66	8.997
486.01	8.346
486.36	8.170
486.70	8.437
487.05	8.841
487.40	8.682
487.75	8.708
488.09	9.160
488.44	8.973
488.79	9.403
489.13	9.587
489.48	9.625
489.83	9.322
490.17	9.952
490.52	10.230
490.87	9.950
491.22	9.959
491.56	9.248
491.91	9.772
492.26	10.060
492.60	10.461
492.95	10.009
493.30	9.673
493.64	9.566
493.99	10.074
494.34	9.806
494.68	10.211
495.03	10.808
495.37	9.912
495.72	9.893
496.07	10.162
496.41	9.513
496.76	9.982
497.11	9.770
497.45	9.735
497.80	9.597
498.14	9.227
498.49	10.049
498.84	10.307
499.18	10.095
499.53	10.304
499.87	9.879
500.22	9.892
500.56	11.117
500.91	10.000
501.26	9.673
501.60	10.584
501.95	9.670
502.29	9.653
502.64	10.335
502.98	9.771
503.33	9.781
503.67	9.698
504.02	10.243
504.36	9.827
504.71	9.868
505.06	9.735
505.40	10.598
505.75	10.366
506.09	9.718
506.44	9.423
506.78	9.985
507.13	9.894
507.47	10.758
507.82	10.689
508.16	10.486
508.51	10.756
508.85	9.831
509.19	10.153
509.54	9.949
509.88	9.789
510.23	10.437
510.57	10.784
510.92	10.254
511.26	9.712
511.61	10.373
511.95	10.021
512.30	10.817
512.64	10.210
512.98	10.718
513.33	10.707
513.67	10.779
514.02	10.173
514.36	11.141
514.70	10.349
515.05	10.039
515.39	10.264
515.74	10.473
516.08	10.900
516.42	11.099
516.77	10.814
517.11	9.933
517.46	11.343
517.80	10.395
518.14	10.886
518.49	11.319
518.83	10.284
519.17	10.566
519.52	10.357
519.86	11.124
520.20	11.272
520.55	11.311
520.89	10.766
521.23	11.098
521.58	10.924
521.92	12.247
522.26	10.982
522.61	11.277
522.95	10.804
523.29	11.016
523.64	11.341
523.98	10.659
524.32	11.460
524.66	11.124
525.01	11.581
525.35	11.524
525.69	11.453
526.04	10.903
526.38	11.165
526.72	11.902
527.06	11.676
527.41	10.582
527.75	11.190
528.09	11.432
528.43	11.472
528.78	10.879
529.12	11.212
529.46	12.370
529.80	11.757
530.15	11.028
530.49	11.015
530.83	11.392
531.17	11.749
531.51	11.868
531.86	11.806
532.20	11.604
532.54	12.236
532.88	11.617
533.22	10.868
533.57	11.667
533.91	10.957
534.25	11.665
534.59	11.287
534.93	11.005
535.27	12.070
535.62	11.050
535.96	11.488
536.30	10.935
536.64	11.011
536.98	11.281
537.32	10.665
537.66	11.667
538.01	12.179
538.35	11.635
538.69	12.572
539.03	11.241
539.37	10.735
539.71	10.629
540.05	11.503
540.39	11.628
540.73	10.996
541.07	11.940
541.42	11.676
541.76	11.355
542.10	11.643
542.44	11.391
542.78	12.187
543.12	10.940
543.46	11.541
543.80	12.167
544.14	10.783
544.48	12.063
544.82	11.418
545.16	11.126
545.50	11.054
545.84	11.626
546.18	11.178
546.52	11.700
546.86	10.790
547.20	11.666
547.54	11.757
547.88	12.309
548.22	11.582
548.56	12.264
548.90	10.627
549.24	11.246
549.58	11.596
549.92	12.157
550.26	12.287
550.60	11.895
550.94	10.845
551.28	11.192
551.62	11.503
551.96	11.509
552.30	11.604
552.64	12.238
552.98	12.203
553.32	11.463
553.66	12.134
554.00	12.148
554.34	11.180
554.68	12.446
555.02	11.918
555.36	11.761
555.69	11.028
556.03	11.171
556.37	12.005
556.71	12.005
557.05	10.644
557.39	11.407
557.73	12.138
558.07	11.385
558.41	11.288
558.75	11.903
559.08	11.708
559.42	10.733
559.76	11.765
560.10	11.278
560.44	12.159
560.78	11.776
561.12	11.280
561.45	12.386
561.79	11.602
562.13	10.798
562.47	11.544
562.81	11.367
563.15	11.037
563.48	12.135
563.82	11.416
564.16	11.249
564.50	10.417
564.84	10.683
565.17	11.068
565.51	10.479
565.85	11.421
566.19	10.895
566.52	10.196
566.86	10.790
567.20	10.849
567.54	10.731
567.88	11.081
568.21	10.635
568.55	10.617
568.89	9.630
569.23	10.071
569.56	10.648
569.90	9.925
570.24	9.975
570.57	9.623
570.91	9.179
571.25	9.296
571.59	9.750
571.92	9.245
572.26	9.474
572.60	9.219
572.93	9.835
573.27	9.672
573.61	9.352
573.95	9.199
574.28	9.020
574.62	8.868
574.96	8.722
575.29	8.778
575.63	9.146
575.97	9.138
576.30	9.002
576.64	8.769
576.98	8.775
577.31	8.595
577.65	8.947
577.98	8.384
578.32	8.856
578.66	8.847
578.99	9.176
579.33	8.957
579.67	9.146
580.00	8.967
580.34	9.018
580.67	9.076
581.01	9.175
581.35	8.713
581.68	8.834
582.02	8.781
582.35	8.662
582.69	8.660
583.02	8.872
583.36	9.039
583.70	8.966
584.03	9.169
584.37	9.196
584.70	8.830
585.04	9.344
585.37	9.296
585.71	9.352
586.04	9.278
586.38	8.960
586.72	9.473
587.05	9.209
587.39	9.024
587.72	9.379
588.06	8.991
588.39	9.191
588.73	9.387
589.06	9.442
589.40	9.360
589.73	9.926
590.07	9.858
590.40	9.755
590.73	9.407
591.07	9.809
591.40	10.038
591.74	10.606
592.07	10.340
592.41	10.087
592.74	9.738
593.08	9.893
593.41	9.586
593.75	9.088
594.08	9.353
594.41	9.933
594.75	9.501
595.08	9.377
595.42	9.772
595.75	9.473
596.09	10.026
596.42	10.098
596.75	10.257
597.09	10.476
597.42	10.034
597.75	9.961
598.09	10.217
598.42	9.622
598.76	10.053
599.09	10.148
599.42	9.461
599.76	9.810
600.09	9.290
600.42	9.569
600.76	9.714
601.09	9.654
601.42	10.084
601.76	9.526
602.09	9.486
602.42	10.111
602.76	11.084
603.09	10.268
603.42	10.074
603.76	10.061
604.09	9.694
604.42	9.784
604.76	10.628
605.09	10.223
605.42	9.919
605.75	9.851
606.09	10.004
606.42	10.135
606.75	9.457
607.09	10.255
607.42	10.312
607.75	9.451
608.08	9.987
608.42	10.892
608.75	10.054
609.08	10.268
609.41	9.995
609.75	10.195
610.08	10.038
610.41	9.916
610.74	10.407
611.07	11.117
611.41	10.893
611.74	11.916
612.07	10.455
612.40	11.228
612.73	10.632
613.07	10.776
613.40	10.848
613.73	9.701
614.06	10.538
614.39	10.750
614.72	10.632
615.06	10.452
615.39	10.510
615.72	10.532
616.05	10.420
616.38	10.561
616.71	10.451
617.05	10.718
617.38	10.884
617.71	9.790
618.04	10.998
618.37	10.881
618.70	11.201
619.03	10.526
619.36	11.270
619.69	11.690
620.03	11.058
620.36	11.564
620.69	11.644
621.02	11.136
621.35	11.198
621.68	11.137
622.01	11.997
622.34	12.859
622.67	11.559
623.00	11.445
623.33	11.508
623.66	12.294
623.99	11.267
624.32	11.484
624.65	12.006
624.99	10.340
625.32	10.862
625.65	11.195
625.98	12.759
626.31	12.597
626.64	12.000
626.97	13.300
627.30	11.721
627.63	12.715
627.96	12.195
628.29	13.036
628.62	13.998
628.95	13.491
629.28	13.686
629.61	14.390
629.94	12.000
630.26	12.774
630.59	12.583
630.92	12.739
631.25	13.228
631.58	13.714
631.91	12.982
632.24	12.447
632.57	14.061
632.90	13.706
633.23	13.758
633.56	13.333
633.89	13.703
634.22	14.869
634.55	13.491
634.88	13.772
635.20	14.576
635.53	13.735
635.86	14.851
636.19	13.529
636.52	14.994
636.85	13.173
637.18	12.327
637.51	15.485
637.83	13.440
638.16	15.473
638.49	14.106
638.82	15.676
639.15	15.375
639.48	14.838
639.81	14.879
640.13	15.495
640.46	15.570
640.79	14.003
641.12	14.168
641.45	15.223
641.77	14.580
642.10	15.643
642.43	14.865
642.76	14.861
643.09	15.798
643.41	14.112
643.74	14.969
644.07	15.091
644.40	15.798
644.73	14.961
645.05	16.482
645.38	16.746
645.71	15.942
646.04	16.279
646.36	19.866
646.69	17.391
647.02	16.156
647.35	17.869
647.67	16.637
648.00	16.098
648.33	16.172
648.66	14.394
648.98	17.991
649.31	14.798
649.64	15.546
649.96	15.350
650.29	17.062
650.62	14.887
650.94	17.342
651.27	16.554
651.60	16.473
651.92	16.773
652.25	14.495
652.58	15.421
652.90	16.588
653.23	14.330
653.56	15.433
653.88	15.689
654.21	16.430
654.54	14.521
654.86	16.511
655.19	15.000
655.52	9.504
655.84	7.582
656.17	9.349
656.49	12.575
656.82	12.587
657.15	9.540
657.47	6.976
657.80	5.556
658.13	5.659
658.45	8.321
658.78	8.456
659.10	8.932
659.43	9.054
659.75	9.067
660.08	11.266
660.41	13.222
660.73	14.867
661.06	14.968
661.38	18.000
661.71	18.462
662.03	17.357
662.36	16.103
662.68	18.273
663.01	17.172
663.33	18.684
663.66	17.017
663.98	18.359
664.31	18.487
664.63	17.004
664.96	18.511
665.28	17.828
665.61	16.569
665.93	18.109
666.26	17.850
666.58	18.410
666.91	17.336
667.23	18.876
667.56	16.631
667.88	17.094
668.21	20.896
668.53	17.570
668.86	19.264
669.18	21.109
669.50	18.696
669.83	23.312
670.15	17.333
670.48	17.211
670.80	19.181
671.13	21.656
671.45	17.872
671.77	21.385
672.10	18.669
672.42	16.254
672.75	16.750
673.07	15.493
673.39	18.987
673.72	16.211
674.04	15.686
674.37	16.117
674.69	17.587
675.01	16.527
675.34	20.534
675.66	20.000
675.98	18.737
676.31	17.017
676.63	18.896
676.95	19.916
677.28	16.822
677.60	18.022
677.92	20.042
678.25	18.891
678.57	16.932
678.89	18.036
679.22	18.075
679.54	18.130
679.86	16.697
680.18	18.247
680.51	17.199
680.83	18.505
681.15	18.302
681.48	17.580
681.80	16.828
682.12	17.625
682.44	14.507
682.77	16.904
683.09	21.245
683.41	18.847
683.73	18.985
684.06	20.868
684.38	17.417
684.70	18.411
685.02	18.386
685.34	18.315
685.67	16.783
685.99	15.120
686.31	15.870
686.63	15.901
686.96	15.000
687.28	16.426
687.60	16.123
687.92	15.905
688.24	17.490
688.56	18.273
688.89	16.805
689.21	20.742
689.53	17.745
689.85	18.847
690.17	17.598
690.49	19.958
690.82	19.626
691.14	18.750
691.46	16.878
691.78	19.076
692.10	19.008
692.42	17.764
692.74	17.220
693.06	19.574
693.39	17.864
693.71	17.249
694.03	18.947
694.35	17.965
694.67	18.078
694.99	19.512
695.31	19.608
695.63	19.139
695.95	19.804
696.27	18.782
696.59	20.466
696.91	19.430
697.23	18.779
697.56	20.043
697.88	14.519
698.20	19.375
698.52	18.495
698.84	18.263
699.16	20.046
699.48	19.952
699.80	19.324
700.12	23.117
700.44	19.894
700.76	21.823
701.08	19.253
701.40	19.832
701.72	20.408
702.04	22.443
702.36	19.547
702.68	19.263
703.00	22.715
703.32	21.543
703.64	20.375
703.96	22.563
704.28	19.186
704.60	24.047
704.91	25.223
705.23	22.287
705.55	23.256
705.87	21.927
706.19	21.555
706.51	25.857
706.83	22.727
707.15	24.650
707.47	19.444
707.79	21.622
708.11	18.721
708.43	22.619
708.74	19.898
709.06	19.481
709.38	19.685
709.70	23.837
710.02	21.662
710.34	21.212
710.66	24.776
710.98	26.420
711.29	22.674
711.61	20.649
711.93	22.115
712.25	22.830
712.57	23.162
712.89	21.799
713.20	22.188
713.52	22.697
713.84	23.418
714.16	23.476
714.48	22.701
714.80	24.620
715.11	23.919
715.43	24.036
715.75	24.348
716.07	23.642
716.39	21.944
716.70	27.575
717.02	24.820
717.34	25.795
717.66	26.866
717.97	25.896
718.29	25.556
718.61	22.628
718.93	25.735
719.24	22.837
719.56	21.695
719.88	24.407
720.20	25.676
720.51	23.693
720.83	28.625
721.15	22.015
721.46	25.887
721.78	24.373
722.10	25.283
722.42	26.692
722.73	26.966
723.05	23.361
723.37	25.911
723.68	26.641
724.00	23.577
724.32	26.210
724.63	29.675
724.95	27.615
725.27	27.126
725.58	32.031
725.90	22.628
726.22	26.792
726.53	24.653
726.85	22.867
727.16	20.996
727.48	24.468
727.80	25.379
728.11	24.638
728.43	21.154
728.74	24.373
729.06	27.372
729.38	29.412
729.69	29.181
730.01	22.867
730.32	22.917
730.64	21.405
730.96	18.152
731.27	25.166
731.59	24.159
731.90	24.490
732.22	21.429
732.53	23.220
732.85	22.115
733.16	24.116
733.48	27.907
733.80	22.078
734.11	26.433
734.43	22.781
734.74	23.143
735.06	19.484
735.37	18.497
735.69	21.338
736.00	23.529
736.32	23.364
736.63	22.364
736.95	23.003
737.26	16.667
737.58	21.935
737.89	24.749
738.21	25.597
738.52	24.286
738.83	25.283
739.15	21.538
739.46	27.737
739.78	24.306
740.09	25.231
740.41	28.065
740.72	23.693
741.04	22.963
741.35	25.833
741.66	28.444
741.98	25.472
742.29	30.622
742.61	34.914
742.92	28.507
743.23	28.632
743.55	25.200
743.86	26.316
744.18	34.071
744.49	31.100
744.80	30.986
745.12	29.545
745.43	30.396
745.74	28.829
746.06	32.110
746.37	29.148
746.68	28.959
747.00	30.556
747.31	33.333
747.62	23.894
747.94	26.432
748.25	23.404
748.56	29.956
748.88	24.752
749.19	36.000
749.50	29.767
749.82	28.862
750.13	26.122
750.44	24.088
750.75	23.509
751.07	26.688
751.38	24.042
751.69	24.188
752.01	26.692
752.32	26.354
752.63	24.823
752.94	23.361
753.26	28.000
753.57	23.577
753.88	31.250
754.19	23.571
754.51	28.819
754.82	20.939
755.13	25.660
755.44	26.692
755.75	28.102
756.07	22.695
756.38	23.723
756.69	26.174
757.00	21.257
757.31	24.036
757.63	21.930
757.94	21.180
758.25	20.588
758.56	19.753
758.87	20.699
759.18	23.939
759.50	19.122
759.81	20.561
760.12	20.625
760.43	23.496
760.74	20.109
761.05	24.011
761.36	20.053
761.67	24.716
761.99	22.671
762.30	26.389
762.61	25.191
762.92	30.078
763.23	32.353
763.54	32.000
763.85	23.828
764.16	31.538
764.47	26.616
764.78	25.442
765.10	20.570
765.41	25.074
765.72	23.653
766.03	22.257
766.34	24.667
766.65	27.234
766.96	27.778
767.27	30.964
767.58	30.208
767.89	36.316
768.20	36.782
768.51	32.487
768.82	29.358
769.13	30.081
769.44	24.291
769.75	27.468
770.06	27.523
770.37	30.769
770.68	31.481
770.99	24.889
771.30	24.590
771.61	32.287
771.92	27.459
772.23	31.933
772.54	30.769
772.85	32.461
773.16	32.979
773.47	38.043
773.78	30.457
774.09	34.524
774.39	42.105
774.70	35.185
775.01	40.580
775.32	39.869
775.63	36.842
775.94	41.007
776.25	48.031
776.56	45.522
776.87	42.623
777.18	39.062
777.48	49.618
777.79	40.152
778.10	45.185
778.41	47.321
778.72	37.956
779.03	44.966
779.34	36.913
779.65	37.838
779.95	36.810
780.26	35.294
780.57	44.138
780.88	53.906
781.19	47.368
781.50	45.946
781.80	37.736
782.11	35.593
782.42	31.646
782.73	36.810
783.04	42.568
783.34	41.549
783.65	41.781
783.96	48.507
784.27	34.965
784.57	38.849
784.88	41.667
785.19	47.619
785.50	43.396
785.81	50.000
786.11	49.180
786.42	48.837
786.73	53.982
787.04	56.604
787.34	52.679
787.65	53.000
787.96	52.252
788.26	52.893
788.57	53.390
788.88	52.066
789.19	45.833
789.49	50.758
789.80	43.511
790.11	56.190
790.41	62.376
790.72	54.217
791.03	68.478
791.33	63.953
791.64	60.825
791.95	58.416
792.25	65.556
792.56	63.636
792.87	78.205
793.17	73.418
793.48	68.966
793.79	68.966
794.09	69.318
794.40	52.941
794.70	45.588
795.01	41.481
795.32	47.482
795.62	45.669
795.93	50.862
796.23	53.097
796.54	54.118
796.85	55.405
797.15	69.014
797.46	71.212
797.76	62.651
798.07	62.025
798.37	64.615
798.68	66.667
798.99	69.014
799.29	71.429
799.60	53.409
799.90	84.932
800.21	83.582
800.51	94.828
800.82	105.263
801.12	80.328
801.43	74.242
801.73	71.622
802.04	92.063
802.34	87.654
802.65	81.250
802.95	86.441
803.26	90.625
803.56	71.429
803.87	69.231
804.17	83.824
804.48	111.111
804.78	82.759
805.09	89.706
805.39	90.385
805.70	82.143
806.00	81.967
806.30	71.212
806.61	79.268
806.91	58.228
807.22	68.421
807.52	68.657
807.83	78.873
808.13	109.375
808.43	96.667
808.74	76.316
809.04	79.710
809.35	73.134
809.65	77.632
809.95	103.226
810.26	83.051
810.56	95.238
810.86	143.182
811.17	111.905
811.47	98.333
811.77	94.444
812.08	100.000
812.38	94.000
812.69	125.000
812.99	129.545
813.29	97.959
813.59	92.857
813.90	116.327
814.20	116.364
814.50	83.077
814.81	86.765
815.11	106.122
815.41	98.361
815.72	100.000
816.02	100.000
816.32	123.810
816.62	107.500
816.93	102.439
817.23	130.952
817.53	131.818
817.84	151.515
818.14	113.043
818.44	122.222
818.74	135.294
819.04	112.500
819.35	125.714
819.65	170.588
819.95	175.000
820.25	215.000
820.56	130.769
820.86	118.182
821.16	123.256
821.46	117.949
821.76	128.000
822.07	151.429
822.37	130.000
822.67	136.364
822.97	78.431
823.27	164.286
823.57	137.838
823.88	172.500
824.18	176.667
824.48	138.095
824.78	256.000
825.08	187.500
825.38	140.541
825.69	124.390
825.99	216.667
826.29	165.517
826.59	160.526
826.89	128.947
827.19	132.353
827.49	167.742
827.79	122.727
828.09	131.818
828.39	102.128
828.70	126.531
829.00	162.963
829.30	129.032
829.60	130.000
829.90	300.000
830.20	200.000
830.50	173.913
830.80	182.609
831.10	160.000
831.40	176.667
831.70	191.304
832.00	203.846
832.30	203.704
832.60	256.250
832.90	216.667
833.20	350.000
833.50	158.065
833.80	172.414
834.10	193.750
834.40	242.308
834.70	261.111
835.00	261.905
835.30	174.286
835.60	330.769
835.90	144.828
836.20	321.429
836.50	217.241
836.80	180.000
837.10	188.889
837.40	233.333
837.70	270.588
838.00	207.407
838.30	190.476
838.60	285.714
838.90	234.615
839.19	240.000
839.49	371.429
839.79	315.000
840.09	240.000
840.39	195.238
840.69	239.130
840.99	272.222
841.29	480.000
841.59	333.333
841.88	312.500
842.18	162.069
842.48	209.524
842.78	173.333
843.08	273.913
843.38	168.750
843.68	866.667
843.97	207.692
844.27	175.862
844.57	333.333
844.87	337.500
845.17	177.778
845.47	1266.667
845.76	344.444
846.06	282.353
846.36	337.500
846.66	378.571
846.96	275.000
847.25	309.091
847.55	418.182
847.85	273.913
848.15	480.000
848.44	335.714
848.74	166.667
849.04	276.471
849.34	450.000
849.63	300.000
849.93	363.636
850.23	900.000
850.53	428.571
850.82	1950.000
851.12	-3600.000
851.42	4300.000
851.71	270.000
852.01	-900.000
852.31	208.333
852.61	1433.333
852.90	223.810
853.20	216.000
853.50	223.529
853.79	200.000
854.09	229.167
854.39	268.750
854.68	156.757
854.98	164.516
855.28	143.333
855.57	200.000
855.87	222.222
856.17	268.421
856.46	280.000
856.76	235.294
857.05	162.069
857.35	166.667
857.65	386.667
857.94	256.522
858.24	230.769
858.53	265.000
858.83	240.909
859.13	293.333
859.42	0.000
859.72	544.444
860.01	436.364
860.31	250.000
860.60	278.947
860.90	182.609
861.20	600.000
861.49	441.667
861.79	-4600.000
862.08	575.000
862.38	257.143
862.67	307.692
862.97	305.882
863.26	522.222
863.56	305.556
863.85	400.000
864.15	587.500
864.44	406.667
864.74	750.000
865.03	637.500
865.33	236.842
865.62	418.182
865.92	407.692
866.21	425.000
866.51	0.000
866.80	481.818
867.10	1100.000
867.39	461.538
867.69	409.091
867.98	284.211
868.27	445.455
868.57	252.632
868.86	-5300.000
869.16	318.750
869.45	2000.000
869.75	-3700.000
870.04	450.000
870.33	528.571
870.63	950.000
870.92	2450.000
871.22	814.286
871.51	258.824
871.80	185.714
872.10	371.429
>>>>>End Processed Spectral Data<<<<<
