SpectraSuite Data File
++++++++++++++++++++++++++++++++++++
Date: Wed May 13 21:06:41 PDT 2015
User: schluterlab
Dark Spectrum Present: Yes
Reference Spectrum Present: Yes
Number of Sampled Component Spectra: 1
Spectrometers: USB2E3373
Integration Time (usec): 3000 (USB2E3373)
Spectra Averaged: 3 (USB2E3373)
Boxcar Smoothing: 0 (USB2E3373)
Correct for Electrical Dark: No (USB2E3373)
Strobe/Lamp Enabled: No (USB2E3373)
Correct for Detector Non-linearity: No (USB2E3373)
Correct for Stray Light: No (USB2E3373)
Number of Pixels in Processed Spectrum: 2048
>>>>>Begin Processed Spectral Data<<<<<
178.53	0.000
178.91	250.000
179.29	166.667
179.67	-1050.000
180.04	-466.667
180.42	160.000
180.80	900.000
181.18	33.333
181.56	-100.000
181.94	-25.000
182.31	-36.364
182.69	53.846
183.07	-300.000
183.45	233.333
183.83	177.778
184.20	157.143
184.58	0.000
184.96	333.333
185.34	142.857
185.72	0.000
186.09	-700.000
186.47	-180.000
186.85	120.000
187.23	250.000
187.61	300.000
187.98	800.000
188.36	-62.500
188.74	0.000
189.12	0.000
189.49	130.000
189.87	83.333
190.25	340.000
190.63	800.000
191.00	-20.000
191.38	100.000
191.76	50.000
192.14	75.000
192.51	-10.526
192.89	300.000
193.27	525.000
193.65	-240.000
194.02	127.273
194.40	140.000
194.78	900.000
195.15	140.000
195.53	-60.000
195.91	37.500
196.29	-233.333
196.66	0.000
197.04	600.000
197.42	-40.000
197.79	-50.000
198.17	-137.500
198.55	-166.667
198.92	-75.000
199.30	-266.667
199.68	-10.000
200.05	100.000
200.43	116.667
200.81	-200.000
201.18	-200.000
201.56	0.000
201.94	500.000
202.31	56.522
202.69	-71.429
203.07	-266.667
203.44	-120.000
203.82	33.333
204.19	-40.000
204.57	0.000
204.95	-100.000
205.32	0.000
205.70	-100.000
206.08	75.000
206.45	0.000
206.83	475.000
207.20	-233.333
207.58	-50.000
207.96	100.000
208.33	-228.571
208.71	-1800.000
209.08	100.000
209.46	300.000
209.84	0.000
210.21	150.000
210.59	2200.000
210.96	360.000
211.34	1300.000
211.71	-700.000
212.09	-200.000
212.46	-110.000
212.84	100.000
213.22	-50.000
213.59	-1000.000
213.97	-100.000
214.34	-550.000
214.72	-61.538
215.09	212.500
215.47	88.889
215.84	500.000
216.22	62.500
216.59	-400.000
216.97	466.667
217.34	133.333
217.72	0.000
218.09	100.000
218.47	-500.000
218.84	14.286
219.22	-162.500
219.59	-166.667
219.97	-225.000
220.34	-112.500
220.72	-60.000
221.09	0.000
221.47	-116.667
221.84	-200.000
222.22	0.000
222.59	300.000
222.97	-400.000
223.34	-8.333
223.72	-1500.000
224.09	-300.000
224.46	-100.000
224.84	-62.500
225.21	-114.286
225.59	-150.000
225.96	-116.667
226.34	70.000
226.71	-214.286
227.08	250.000
227.46	-162.500
227.83	-700.000
228.21	-12.500
228.58	-175.000
228.95	-35.294
229.33	0.000
229.70	-75.000
230.08	-23.077
230.45	-112.500
230.82	-33.333
231.20	214.286
231.57	-200.000
231.95	100.000
232.32	-16.667
232.69	-29.412
233.07	-1400.000
233.44	-52.174
233.81	-50.000
234.19	-4.167
234.56	-66.667
234.93	-53.333
235.31	-36.842
235.68	-38.462
236.05	0.000
236.43	27.778
236.80	39.394
237.17	-60.000
237.55	-23.529
237.92	-48.276
238.29	-44.444
238.67	-5.556
239.04	3.226
239.41	17.021
239.79	23.404
240.16	20.930
240.53	0.000
240.91	12.500
241.28	19.643
241.65	17.742
242.02	18.421
242.40	26.087
242.77	13.043
243.14	-2.564
243.51	14.894
243.89	21.154
244.26	27.358
244.63	8.654
245.00	19.792
245.38	15.126
245.75	17.213
246.12	17.293
246.49	15.447
246.87	5.042
247.24	20.270
247.61	23.841
247.98	23.718
248.36	19.527
248.73	19.663
249.10	15.657
249.47	13.978
249.84	23.158
250.22	20.896
250.59	20.093
250.96	24.545
251.33	11.005
251.70	23.013
252.08	24.686
252.45	20.165
252.82	21.293
253.19	20.233
253.56	21.583
253.94	20.996
254.31	21.831
254.68	22.148
255.05	19.802
255.42	20.979
255.79	21.472
256.16	21.451
256.54	19.683
256.91	18.038
257.28	22.327
257.65	19.108
258.02	21.994
258.39	21.637
258.76	19.186
259.14	19.034
259.51	21.629
259.88	20.867
260.25	18.889
260.62	20.225
260.99	18.302
261.36	20.466
261.73	20.988
262.10	19.084
262.47	20.247
262.85	19.652
263.22	19.744
263.59	20.519
263.96	20.438
264.33	20.673
264.70	22.791
265.07	19.907
265.44	21.379
265.81	19.680
266.18	20.729
266.55	21.179
266.92	20.339
267.29	20.165
267.66	19.533
268.03	20.576
268.40	19.068
268.77	22.521
269.14	21.020
269.51	23.614
269.88	17.515
270.25	20.339
270.62	21.516
270.99	20.866
271.36	19.841
271.73	19.679
272.10	21.714
272.47	21.689
272.84	20.866
273.21	19.961
273.58	22.746
273.95	19.623
274.32	19.776
274.69	20.765
275.06	23.498
275.43	21.469
275.80	18.794
276.17	20.810
276.54	20.959
276.91	19.164
277.28	18.051
277.65	22.028
278.02	20.357
278.39	19.005
278.76	20.401
279.13	20.240
279.50	21.034
279.87	19.203
280.23	21.081
280.60	19.377
280.97	19.968
281.34	22.082
281.71	18.374
282.08	19.316
282.45	20.656
282.82	20.447
283.19	20.884
283.56	19.688
283.92	21.713
284.29	18.721
284.66	18.287
285.03	18.078
285.40	18.882
285.77	19.219
286.14	18.845
286.51	20.990
286.87	16.615
287.24	17.552
287.61	18.825
287.98	20.000
288.35	17.288
288.72	20.086
289.08	18.661
289.45	18.943
289.82	20.272
290.19	18.654
290.56	17.756
290.93	17.403
291.29	17.784
291.66	16.803
292.03	18.529
292.40	17.227
292.77	17.403
293.13	17.713
293.50	17.908
293.87	16.133
294.24	17.328
294.60	17.425
294.97	17.989
295.34	17.678
295.71	16.820
296.08	14.791
296.44	15.561
296.81	15.713
297.18	16.000
297.55	16.745
297.91	16.025
298.28	15.617
298.65	14.901
299.02	17.216
299.38	16.319
299.75	15.625
300.12	13.721
300.48	16.140
300.85	16.859
301.22	14.750
301.59	14.789
301.95	15.796
302.32	15.286
302.69	15.028
303.05	15.282
303.42	16.364
303.79	15.563
304.15	15.225
304.52	16.559
304.89	14.618
305.25	13.611
305.62	13.774
305.99	14.690
306.35	16.301
306.72	14.547
307.09	16.058
307.45	14.058
307.82	14.421
308.19	13.898
308.55	14.944
308.92	15.619
309.29	13.213
309.65	13.986
310.02	15.209
310.38	14.533
310.75	13.215
311.12	15.258
311.48	14.540
311.85	15.354
312.22	16.054
312.58	13.237
312.95	15.522
313.31	15.794
313.68	14.218
314.05	14.839
314.41	14.313
314.78	14.137
315.14	14.444
315.51	14.558
315.87	15.014
316.24	14.968
316.61	14.703
316.97	12.870
317.34	14.349
317.70	14.897
318.07	15.262
318.43	15.086
318.80	14.485
319.16	13.970
319.53	13.799
319.89	13.640
320.26	14.325
320.62	14.365
320.99	12.112
321.35	14.032
321.72	13.571
322.08	13.930
322.45	16.004
322.81	14.233
323.18	14.132
323.54	13.809
323.91	15.357
324.27	13.591
324.64	14.547
325.00	14.348
325.37	14.334
325.73	14.394
326.10	14.214
326.46	13.043
326.83	14.401
327.19	15.041
327.56	14.988
327.92	14.240
328.29	15.693
328.65	14.198
329.01	13.456
329.38	15.739
329.74	14.077
330.11	14.788
330.47	13.021
330.84	13.448
331.20	13.920
331.56	14.674
331.93	14.643
332.29	14.596
332.66	12.966
333.02	15.117
333.38	13.509
333.75	14.334
334.11	14.323
334.48	13.165
334.84	13.869
335.20	13.465
335.57	12.881
335.93	13.488
336.29	13.310
336.66	12.906
337.02	14.261
337.38	13.664
337.75	12.317
338.11	12.980
338.47	14.041
338.84	13.402
339.20	13.668
339.56	12.713
339.93	13.397
340.29	13.920
340.65	13.601
341.02	14.309
341.38	13.598
341.74	12.689
342.11	14.203
342.47	12.887
342.83	14.297
343.20	13.113
343.56	14.064
343.92	13.079
344.28	13.636
344.65	13.388
345.01	12.994
345.37	14.309
345.73	14.134
346.10	13.483
346.46	13.740
346.82	13.403
347.19	13.449
347.55	13.489
347.91	14.497
348.27	13.013
348.63	13.301
349.00	13.443
349.36	13.187
349.72	13.380
350.08	13.261
350.45	13.234
350.81	14.632
351.17	13.857
351.53	13.511
351.89	12.232
352.26	12.510
352.62	12.791
352.98	12.540
353.34	12.560
353.70	13.240
354.07	12.863
354.43	13.453
354.79	13.702
355.15	13.509
355.51	12.984
355.87	13.683
356.24	13.082
356.60	12.197
356.96	13.047
357.32	13.003
357.68	12.758
358.04	12.258
358.40	12.481
358.77	13.226
359.13	12.763
359.49	12.718
359.85	13.419
360.21	12.490
360.57	13.232
360.93	11.760
361.29	13.323
361.66	12.149
362.02	12.898
362.38	12.999
362.74	12.255
363.10	12.943
363.46	11.527
363.82	12.934
364.18	11.603
364.54	12.035
364.90	12.056
365.26	11.748
365.62	12.784
365.98	12.811
366.35	13.262
366.71	13.338
367.07	12.332
367.43	13.240
367.79	13.551
368.15	13.713
368.51	12.307
368.87	12.561
369.23	11.530
369.59	13.460
369.95	12.046
370.31	12.483
370.67	11.948
371.03	13.363
371.39	11.923
371.75	12.429
372.11	12.536
372.47	13.194
372.83	12.829
373.19	11.871
373.55	12.355
373.91	13.225
374.27	11.272
374.63	12.518
374.99	11.003
375.35	11.918
375.71	11.345
376.07	13.023
376.42	11.698
376.78	13.342
377.14	12.339
377.50	12.451
377.86	13.081
378.22	11.694
378.58	11.791
378.94	13.250
379.30	12.555
379.66	12.515
380.02	12.316
380.38	13.012
380.74	12.194
381.09	12.425
381.45	11.911
381.81	12.200
382.17	12.098
382.53	11.754
382.89	11.399
383.25	11.235
383.61	12.470
383.97	12.937
384.32	10.838
384.68	12.215
385.04	11.973
385.40	12.391
385.76	12.774
386.12	13.170
386.48	11.912
386.83	11.952
387.19	11.351
387.55	12.630
387.91	12.915
388.27	11.837
388.62	12.235
388.98	12.265
389.34	12.782
389.70	12.515
390.06	11.687
390.42	12.822
390.77	11.787
391.13	12.626
391.49	11.512
391.85	11.438
392.20	11.842
392.56	12.317
392.92	11.761
393.28	11.970
393.64	12.049
393.99	11.261
394.35	11.975
394.71	11.282
395.07	11.006
395.42	12.431
395.78	11.261
396.14	12.429
396.50	11.351
396.85	12.428
397.21	12.422
397.57	11.801
397.92	11.138
398.28	12.296
398.64	10.990
399.00	12.500
399.35	12.089
399.71	11.532
400.07	11.566
400.42	11.411
400.78	10.876
401.14	11.281
401.49	11.803
401.85	12.101
402.21	12.322
402.57	12.262
402.92	12.078
403.28	11.007
403.63	11.841
403.99	11.708
404.35	10.973
404.70	11.239
405.06	12.214
405.42	10.867
405.77	10.945
406.13	11.657
406.49	11.264
406.84	11.233
407.20	11.782
407.55	11.494
407.91	11.516
408.27	10.979
408.62	12.769
408.98	10.912
409.34	11.448
409.69	12.865
410.05	12.500
410.40	10.895
410.76	11.492
411.11	11.505
411.47	11.612
411.83	11.478
412.18	11.461
412.54	11.278
412.89	10.846
413.25	11.209
413.60	11.787
413.96	10.986
414.31	11.221
414.67	11.238
415.03	11.367
415.38	11.229
415.74	12.086
416.09	11.368
416.45	11.825
416.80	11.611
417.16	11.673
417.51	12.190
417.87	11.508
418.22	11.700
418.58	11.301
418.93	11.237
419.29	12.475
419.64	11.132
420.00	11.683
420.35	10.640
420.71	10.847
421.06	11.255
421.42	12.348
421.77	11.734
422.12	11.289
422.48	11.450
422.83	11.931
423.19	11.386
423.54	11.484
423.90	9.679
424.25	10.919
424.61	10.783
424.96	11.059
425.31	11.105
425.67	11.346
426.02	11.602
426.38	11.816
426.73	11.240
427.09	11.069
427.44	10.922
427.79	10.511
428.15	10.826
428.50	11.057
428.85	11.685
429.21	11.536
429.56	11.371
429.92	11.400
430.27	10.020
430.62	11.175
430.98	11.898
431.33	11.016
431.68	12.247
432.04	10.704
432.39	10.855
432.74	10.975
433.10	11.505
433.45	11.243
433.80	11.207
434.16	10.978
434.51	11.848
434.86	11.425
435.22	11.092
435.57	10.995
435.92	11.037
436.28	10.210
436.63	11.316
436.98	11.516
437.34	10.745
437.69	10.331
438.04	10.300
438.39	10.585
438.75	11.025
439.10	10.989
439.45	11.259
439.81	10.837
440.16	11.826
440.51	10.285
440.86	10.907
441.22	11.647
441.57	11.280
441.92	10.524
442.27	10.606
442.63	10.764
442.98	9.433
443.33	10.214
443.68	11.228
444.03	11.724
444.39	11.601
444.74	10.436
445.09	10.848
445.44	10.986
445.79	11.048
446.15	11.425
446.50	11.509
446.85	11.117
447.20	11.343
447.55	10.968
447.91	10.674
448.26	10.234
448.61	10.127
448.96	10.991
449.31	11.422
449.66	11.105
450.02	10.688
450.37	10.165
450.72	10.218
451.07	10.721
451.42	10.480
451.77	10.895
452.12	11.289
452.47	10.587
452.83	10.731
453.18	10.057
453.53	10.782
453.88	10.663
454.23	10.321
454.58	11.458
454.93	10.391
455.28	10.983
455.63	10.667
455.98	9.982
456.34	9.663
456.69	10.863
457.04	10.279
457.39	10.283
457.74	10.832
458.09	10.723
458.44	10.282
458.79	10.928
459.14	10.000
459.49	10.488
459.84	10.090
460.19	10.264
460.54	10.827
460.89	10.698
461.24	10.789
461.59	10.749
461.94	10.177
462.29	10.294
462.64	10.488
462.99	10.530
463.34	10.221
463.69	10.760
464.04	10.264
464.39	10.311
464.74	10.197
465.09	10.477
465.44	11.223
465.79	11.501
466.14	10.148
466.49	10.440
466.84	10.520
467.19	10.637
467.54	10.693
467.89	10.308
468.24	9.527
468.59	9.879
468.94	9.898
469.29	10.245
469.64	9.693
469.99	10.621
470.34	10.924
470.68	9.071
471.03	9.450
471.38	11.196
471.73	9.945
472.08	9.210
472.43	10.884
472.78	11.494
473.13	9.894
473.48	9.459
473.83	10.421
474.17	9.375
474.52	10.356
474.87	9.891
475.22	9.541
475.57	10.764
475.92	10.414
476.27	9.907
476.61	9.740
476.96	10.280
477.31	10.140
477.66	10.508
478.01	10.330
478.36	9.428
478.70	9.667
479.05	10.211
479.40	10.556
479.75	9.405
480.10	10.454
480.45	10.152
480.79	10.304
481.14	10.284
481.49	10.360
481.84	9.661
482.19	10.329
482.53	9.714
482.88	9.971
483.23	9.577
483.58	10.870
483.92	9.339
484.27	9.927
484.62	9.942
484.97	9.706
485.31	10.132
485.66	11.108
486.01	11.391
486.36	11.550
486.70	11.419
487.05	11.346
487.40	10.878
487.75	10.709
488.09	11.104
488.44	10.410
488.79	10.295
489.13	10.378
489.48	9.962
489.83	9.826
490.17	9.805
490.52	10.566
490.87	9.597
491.22	9.703
491.56	9.966
491.91	9.890
492.26	9.913
492.60	9.524
492.95	9.670
493.30	9.981
493.64	9.017
493.99	10.386
494.34	10.260
494.68	10.072
495.03	9.486
495.37	9.878
495.72	8.972
496.07	10.132
496.41	9.920
496.76	9.552
497.11	10.469
497.45	9.728
497.80	9.440
498.14	9.824
498.49	9.027
498.84	9.818
499.18	9.358
499.53	9.847
499.87	8.734
500.22	9.507
500.56	9.529
500.91	10.412
501.26	10.493
501.60	9.608
501.95	10.589
502.29	9.417
502.64	10.077
502.98	10.019
503.33	10.122
503.67	9.834
504.02	9.804
504.36	9.361
504.71	9.553
505.06	10.341
505.40	9.330
505.75	9.715
506.09	10.271
506.44	9.879
506.78	9.853
507.13	9.511
507.47	8.961
507.82	9.471
508.16	9.868
508.51	10.227
508.85	9.072
509.19	9.259
509.54	10.295
509.88	9.462
510.23	9.789
510.57	9.481
510.92	9.752
511.26	9.351
511.61	9.166
511.95	9.041
512.30	9.051
512.64	9.535
512.98	9.695
513.33	9.690
513.67	8.461
514.02	9.464
514.36	8.989
514.70	9.527
515.05	9.128
515.39	9.139
515.74	8.407
516.08	8.614
516.42	8.986
516.77	8.553
517.11	8.760
517.46	10.324
517.80	9.806
518.14	8.451
518.49	8.258
518.83	9.189
519.17	9.458
519.52	9.530
519.86	9.775
520.20	9.278
520.55	8.893
520.89	9.298
521.23	9.744
521.58	8.850
521.92	8.485
522.26	9.239
522.61	9.890
522.95	9.003
523.29	9.079
523.64	9.981
523.98	8.958
524.32	8.696
524.66	8.182
525.01	9.043
525.35	8.361
525.69	8.482
526.04	8.534
526.38	9.305
526.72	8.613
527.06	8.446
527.41	8.670
527.75	8.745
528.09	9.394
528.43	9.837
528.78	8.398
529.12	9.444
529.46	9.405
529.80	8.997
530.15	8.816
530.49	9.097
530.83	9.140
531.17	8.699
531.51	8.429
531.86	8.130
532.20	8.615
532.54	7.724
532.88	8.918
533.22	9.091
533.57	9.205
533.91	9.161
534.25	9.635
534.59	8.623
534.93	9.949
535.27	8.854
535.62	9.013
535.96	9.499
536.30	8.976
536.64	7.861
536.98	8.479
537.32	8.683
537.66	8.674
538.01	9.362
538.35	9.185
538.69	7.759
539.03	8.859
539.37	8.987
539.71	8.390
540.05	9.042
540.39	8.741
540.73	8.520
541.07	8.912
541.42	8.620
541.76	9.675
542.10	8.802
542.44	8.039
542.78	9.924
543.12	9.030
543.46	8.362
543.80	10.115
544.14	9.429
544.48	8.228
544.82	8.944
545.16	9.195
545.50	9.926
545.84	8.906
546.18	8.205
546.52	9.880
546.86	8.622
547.20	8.149
547.54	8.292
547.88	9.447
548.22	9.577
548.56	8.873
548.90	8.796
549.24	9.028
549.58	8.826
549.92	9.831
550.26	9.668
550.60	8.634
550.94	8.507
551.28	8.933
551.62	8.571
551.96	9.517
552.30	7.933
552.64	8.545
552.98	10.227
553.32	8.003
553.66	8.217
554.00	8.279
554.34	8.278
554.68	9.545
555.02	8.907
555.36	8.396
555.69	9.177
556.03	9.364
556.37	8.677
556.71	9.040
557.05	8.856
557.39	8.440
557.73	9.153
558.07	8.892
558.41	9.538
558.75	9.007
559.08	7.538
559.42	8.733
559.76	8.945
560.10	9.070
560.44	9.064
560.78	8.417
561.12	8.619
561.45	9.048
561.79	9.560
562.13	9.423
562.47	9.714
562.81	8.947
563.15	8.782
563.48	8.465
563.82	9.918
564.16	9.479
564.50	9.566
564.84	9.662
565.17	9.338
565.51	9.091
565.85	8.861
566.19	9.338
566.52	9.436
566.86	9.545
567.20	9.774
567.54	10.017
567.88	9.406
568.21	9.723
568.55	9.859
568.89	9.771
569.23	10.174
569.56	10.138
569.90	11.196
570.24	10.181
570.57	11.054
570.91	11.052
571.25	10.510
571.59	10.673
571.92	10.912
572.26	11.256
572.60	11.149
572.93	11.153
573.27	10.932
573.61	11.460
573.95	11.211
574.28	11.188
574.62	10.886
574.96	11.467
575.29	11.033
575.63	11.275
575.97	11.168
576.30	11.068
576.64	11.423
576.98	11.352
577.31	11.465
577.65	11.222
577.98	11.132
578.32	11.524
578.66	11.813
578.99	11.174
579.33	11.469
579.67	11.100
580.00	11.130
580.34	11.197
580.67	11.367
581.01	11.334
581.35	11.501
581.68	11.565
582.02	11.838
582.35	11.650
582.69	11.865
583.02	11.242
583.36	11.095
583.70	11.342
584.03	11.782
584.37	11.421
584.70	11.505
585.04	11.474
585.37	11.567
585.71	11.433
586.04	11.629
586.38	11.208
586.72	11.436
587.05	11.506
587.39	11.377
587.72	11.383
588.06	11.601
588.39	11.615
588.73	11.071
589.06	10.702
589.40	10.561
589.73	10.133
590.07	10.864
590.40	11.208
590.73	10.981
591.07	10.949
591.40	10.000
591.74	10.316
592.07	11.228
592.41	11.025
592.74	10.764
593.08	10.222
593.41	11.400
593.75	10.465
594.08	10.674
594.41	10.420
594.75	11.357
595.08	11.016
595.42	10.379
595.75	11.135
596.09	11.124
596.42	10.907
596.75	10.531
597.09	11.056
597.42	11.620
597.75	10.756
598.09	10.428
598.42	10.559
598.76	10.915
599.09	10.724
599.42	11.178
599.76	11.228
600.09	10.768
600.42	10.960
600.76	10.791
601.09	10.923
601.42	10.898
601.76	10.541
602.09	11.674
602.42	11.267
602.76	9.941
603.09	10.760
603.42	11.196
603.76	10.795
604.09	10.830
604.42	10.213
604.76	10.738
605.09	10.874
605.42	11.066
605.75	10.535
606.09	10.886
606.42	11.056
606.75	10.649
607.09	10.284
607.42	11.515
607.75	10.109
608.08	11.001
608.42	10.450
608.75	10.607
609.08	10.142
609.41	10.879
609.75	10.590
610.08	10.404
610.41	10.787
610.74	11.213
611.07	10.822
611.41	11.157
611.74	10.611
612.07	10.526
612.40	11.081
612.73	10.209
613.07	10.089
613.40	10.518
613.73	10.618
614.06	10.337
614.39	10.951
614.72	11.993
615.06	9.778
615.39	10.430
615.72	10.205
616.05	9.685
616.38	10.137
616.71	9.778
617.05	10.934
617.38	9.735
617.71	10.355
618.04	9.872
618.37	10.536
618.70	9.573
619.03	10.172
619.36	10.036
619.69	9.722
620.03	9.753
620.36	10.369
620.69	9.065
621.02	9.462
621.35	8.177
621.68	9.372
622.01	8.495
622.34	8.565
622.67	9.632
623.00	9.650
623.33	10.097
623.66	9.591
623.99	9.602
624.32	9.538
624.65	9.496
624.99	8.964
625.32	9.335
625.65	9.070
625.98	9.479
626.31	9.714
626.64	8.684
626.97	9.083
627.30	9.666
627.63	10.121
627.96	9.091
628.29	9.488
628.62	9.574
628.95	8.717
629.28	7.586
629.61	9.665
629.94	10.155
630.26	8.177
630.59	8.392
630.92	8.735
631.25	8.548
631.58	9.101
631.91	7.529
632.24	8.562
632.57	8.222
632.90	7.585
633.23	6.954
633.56	8.873
633.89	8.732
634.22	9.305
634.55	8.526
634.88	7.721
635.20	7.750
635.53	8.527
635.86	8.077
636.19	8.809
636.52	8.049
636.85	6.514
637.18	7.552
637.51	8.489
637.83	8.355
638.16	7.067
638.49	8.011
638.82	7.190
639.15	7.580
639.48	7.487
639.81	8.889
640.13	7.042
640.46	8.898
640.79	6.331
641.12	6.213
641.45	7.860
641.77	7.069
642.10	6.959
642.43	6.604
642.76	5.994
643.09	7.348
643.41	7.177
643.74	6.300
644.07	7.605
644.40	7.629
644.73	6.780
645.05	7.853
645.38	6.645
645.71	8.333
646.04	4.882
646.36	6.771
646.69	7.867
647.02	5.282
647.35	6.764
647.67	6.470
648.00	6.341
648.33	6.102
648.66	5.175
648.98	8.540
649.31	9.202
649.64	6.103
649.96	9.163
650.29	7.353
650.62	6.260
650.94	6.207
651.27	6.537
651.60	7.517
651.92	6.093
652.25	9.883
652.58	7.426
652.90	8.586
653.23	4.414
653.56	6.281
653.88	5.119
654.21	5.119
654.54	7.475
654.86	6.504
655.19	7.143
655.52	12.057
655.84	12.567
656.17	15.521
656.49	20.820
656.82	20.247
657.15	15.262
657.47	11.220
657.80	8.132
658.13	8.435
658.45	12.371
658.78	12.267
659.10	12.053
659.43	11.734
659.75	10.611
660.08	9.655
660.41	7.809
660.73	6.887
661.06	6.293
661.38	6.202
661.71	8.197
662.03	7.611
662.36	4.867
662.68	6.237
663.01	8.475
663.33	5.184
663.66	3.548
663.98	6.742
664.31	6.593
664.63	3.153
664.96	8.534
665.28	6.438
665.61	5.184
665.93	7.281
666.26	11.181
666.58	5.567
666.91	10.314
667.23	5.530
667.56	5.977
667.88	6.776
668.21	7.143
668.53	5.057
668.86	5.755
669.18	4.492
669.50	5.530
669.83	4.535
670.15	6.429
670.48	4.828
670.80	7.659
671.13	6.407
671.45	4.795
671.77	5.603
672.10	6.433
672.42	6.107
672.75	8.929
673.07	8.364
673.39	8.209
673.72	7.585
674.04	7.787
674.37	6.911
674.69	6.790
675.01	7.265
675.34	5.689
675.66	8.932
675.98	7.080
676.31	6.561
676.63	7.710
676.95	6.824
677.28	5.963
677.60	5.882
677.92	7.539
678.25	8.894
678.57	10.591
678.89	7.676
679.22	9.110
679.54	6.531
679.86	6.641
680.18	6.923
680.51	7.115
680.83	4.678
681.15	8.251
681.48	7.816
681.80	7.566
682.12	4.375
682.44	6.439
682.77	5.474
683.09	5.804
683.41	5.349
683.73	4.911
684.06	5.752
684.38	5.769
684.70	4.481
685.02	8.884
685.34	7.632
685.67	10.131
685.99	7.473
686.31	9.828
686.63	7.721
686.96	8.720
687.28	5.788
687.60	10.397
687.92	9.144
688.24	8.800
688.56	6.579
688.89	5.345
689.21	4.484
689.53	6.306
689.85	7.640
690.17	8.132
690.49	5.314
690.82	7.160
691.14	3.140
691.46	4.176
691.78	8.352
692.10	8.917
692.42	4.835
692.74	8.043
693.06	7.640
693.39	3.044
693.71	8.444
694.03	8.864
694.35	7.658
694.67	8.500
694.99	8.247
695.31	7.235
695.63	6.098
695.95	6.361
696.27	3.014
696.59	4.839
696.91	3.911
697.23	4.061
697.56	8.393
697.88	11.227
698.20	9.935
698.52	8.411
698.84	8.852
699.16	6.383
699.48	8.395
699.80	6.977
700.12	6.166
700.44	3.380
700.76	5.337
701.08	3.021
701.40	10.180
701.72	1.231
702.04	4.403
702.36	5.488
702.68	3.354
703.00	6.140
703.32	6.407
703.64	6.627
703.96	7.918
704.28	5.723
704.60	6.707
704.91	4.389
705.23	6.646
705.55	4.483
705.87	6.338
706.19	2.564
706.51	5.282
706.83	3.185
707.15	8.537
707.47	7.713
707.79	7.360
708.11	4.370
708.43	8.883
708.74	7.181
709.06	6.684
709.38	7.205
709.70	7.207
710.02	6.542
710.34	3.667
710.66	7.492
710.98	7.121
711.29	8.442
711.61	3.871
711.93	5.806
712.25	2.098
712.57	4.561
712.89	3.663
713.20	4.610
713.52	5.109
713.84	7.097
714.16	4.207
714.48	6.962
714.80	4.153
715.11	9.012
715.43	4.037
715.75	7.764
716.07	7.831
716.39	8.418
716.70	8.993
717.02	3.529
717.34	3.409
717.66	0.862
717.97	3.571
718.29	6.299
718.61	4.721
718.93	6.202
719.24	6.273
719.56	9.363
719.88	5.597
720.20	4.348
720.51	6.641
720.83	6.615
721.15	1.220
721.46	9.924
721.78	7.570
722.10	7.171
722.42	1.613
722.73	9.653
723.05	8.163
723.37	5.042
723.68	9.200
724.00	3.830
724.32	7.113
724.63	11.523
724.95	0.427
725.27	5.063
725.58	9.877
725.90	8.787
726.22	3.261
726.53	2.353
726.85	8.394
727.16	6.667
727.48	8.812
727.80	6.250
728.11	5.738
728.43	8.594
728.74	6.349
729.06	6.000
729.38	5.929
729.69	5.694
730.01	8.178
730.32	8.118
730.64	4.167
730.96	11.888
731.27	5.686
731.59	6.349
731.90	5.825
732.22	5.769
732.53	4.392
732.85	5.369
733.16	7.591
733.48	9.459
733.80	10.473
734.11	10.135
734.43	7.121
734.74	8.108
735.06	6.340
735.37	8.815
735.69	7.767
736.00	3.960
736.32	9.220
736.63	9.310
736.95	5.822
737.26	7.586
737.58	7.986
737.89	9.966
738.21	10.676
738.52	7.224
738.83	8.163
739.15	1.688
739.46	3.891
739.78	4.225
740.09	9.589
740.41	2.500
740.72	6.383
741.04	1.600
741.35	6.140
741.66	8.444
741.98	10.096
742.29	13.861
742.61	-1.463
742.92	9.211
743.23	3.302
743.55	7.658
743.86	4.484
744.18	6.373
744.49	5.584
744.80	6.633
745.12	6.075
745.43	8.531
745.74	9.009
746.06	4.673
746.37	3.670
746.68	2.885
747.00	11.483
747.31	9.615
747.62	9.633
747.94	12.227
748.25	9.174
748.56	8.000
748.88	7.512
749.19	10.952
749.50	-0.485
749.82	3.756
750.13	2.917
750.44	5.769
750.75	5.535
751.07	9.609
751.38	7.801
751.69	4.633
752.01	5.859
752.32	5.000
752.63	7.836
752.94	5.600
753.26	7.950
753.57	6.250
753.88	8.502
754.19	3.984
754.51	7.519
754.82	6.960
755.13	3.913
755.44	5.285
755.75	3.200
756.07	8.118
756.38	6.835
756.69	8.874
757.00	11.215
757.31	5.502
757.63	8.025
757.94	8.757
758.25	13.228
758.56	10.870
758.87	10.417
759.18	9.464
759.50	2.694
759.81	8.361
760.12	11.692
760.43	5.655
760.74	7.062
761.05	10.497
761.36	7.163
761.67	5.740
761.99	4.467
762.30	6.569
762.61	6.584
762.92	9.402
763.23	11.475
763.54	7.359
763.85	5.306
764.16	8.537
764.47	2.000
764.78	7.857
765.10	8.525
765.41	9.726
765.72	9.317
766.03	11.221
766.34	8.462
766.65	6.276
766.96	6.573
767.27	11.881
767.58	-3.933
767.89	11.728
768.20	1.657
768.51	4.523
768.82	9.135
769.13	6.637
769.44	11.297
769.75	3.419
770.06	11.211
770.37	4.412
770.68	16.019
770.99	10.680
771.30	9.244
771.61	12.245
771.92	10.788
772.23	7.207
772.54	2.762
772.85	4.651
773.16	8.466
773.47	2.367
773.78	1.149
774.09	8.125
774.39	11.801
774.70	10.204
775.01	5.517
775.32	12.857
775.63	7.519
775.94	4.511
776.25	0.000
776.56	0.826
776.87	-1.587
777.18	5.405
777.48	1.802
777.79	8.661
778.10	4.587
778.41	-1.754
778.72	7.563
779.03	-1.408
779.34	9.459
779.65	7.746
779.95	11.258
780.26	5.755
780.57	12.230
780.88	3.521
781.19	1.681
781.50	6.040
781.80	4.094
782.11	4.651
782.42	8.805
782.73	7.190
783.04	3.448
783.34	2.290
783.65	8.725
783.96	14.615
784.27	3.571
784.57	-1.418
784.88	-4.808
785.19	14.545
785.50	7.273
785.81	2.857
786.11	5.882
786.42	12.389
786.73	-10.377
787.04	-2.752
787.34	-7.921
787.65	9.167
787.96	5.785
788.26	5.797
788.57	4.762
788.88	0.813
789.19	8.800
789.49	-0.763
789.80	17.424
790.11	-8.491
790.41	9.901
790.72	9.574
791.03	-5.435
791.33	0.000
791.64	-7.407
791.95	-2.174
792.25	5.682
792.56	-1.282
792.87	-10.256
793.17	-6.410
793.48	0.000
793.79	-2.500
794.09	15.385
794.40	3.125
794.70	8.108
795.01	3.906
795.32	5.217
795.62	-15.217
795.93	-2.830
796.23	5.051
796.54	1.220
796.85	2.381
797.15	-12.121
797.46	-2.899
797.76	3.947
798.07	5.682
798.37	6.098
798.68	-25.806
798.99	-8.108
799.29	9.639
799.60	-2.564
799.90	-9.231
800.21	9.091
800.51	-8.000
800.82	20.000
801.12	-39.583
801.43	-31.667
801.73	-10.811
802.04	12.857
802.34	3.279
802.65	4.478
802.95	-1.818
803.26	-12.069
803.56	-1.538
803.87	0.000
804.17	17.742
804.48	4.412
804.78	-39.024
805.09	8.696
805.39	0.000
805.70	-29.787
806.00	8.772
806.30	6.410
806.61	5.263
806.91	6.757
807.22	2.632
807.52	10.227
807.83	-15.254
808.13	-25.758
808.43	-8.333
808.74	-17.241
809.04	6.349
809.35	-22.449
809.65	-6.667
809.95	-2.041
810.26	29.577
810.56	4.167
810.86	-2.041
811.17	7.692
811.47	-19.149
811.77	-6.250
812.08	-11.321
812.38	-25.000
812.69	21.818
812.99	-21.951
813.29	-29.730
813.59	-51.351
813.90	-7.273
814.20	3.636
814.50	-13.333
814.81	3.636
815.11	-10.526
815.41	-6.977
815.72	5.000
816.02	-20.000
816.32	-10.811
816.62	0.000
816.93	2.222
817.23	-13.333
817.53	-27.778
817.84	13.514
818.14	-9.756
818.44	2.000
818.74	0.000
819.04	7.317
819.35	-5.556
819.65	6.818
819.95	-83.333
820.25	-36.364
820.56	-45.238
820.86	-38.889
821.16	-4.545
821.46	-10.870
821.76	-8.621
822.07	0.000
822.37	3.030
822.67	21.951
822.97	5.405
823.27	-51.429
823.57	20.690
823.88	14.706
824.18	-8.333
824.48	11.429
824.78	-33.333
825.08	0.000
825.38	-7.407
825.69	3.226
825.99	2.439
826.29	-37.037
826.59	-21.875
826.89	9.677
827.19	-47.826
827.49	-19.444
827.79	-60.870
828.09	-9.677
828.39	-8.333
828.70	-43.750
829.00	-31.034
829.30	-18.919
829.60	-66.667
829.90	25.926
830.20	-12.500
830.50	0.000
830.80	-105.882
831.10	-50.000
831.40	-17.647
831.70	-3.846
832.00	-24.242
832.30	-5.882
832.60	-10.811
832.90	1300.000
833.20	-14.286
833.50	-100.000
833.80	-15.789
834.10	-50.000
834.40	-27.273
834.70	-60.000
835.00	-60.000
835.30	-54.167
835.60	-47.619
835.90	-23.810
836.20	-52.000
836.50	-25.000
836.80	-52.632
837.10	18.919
837.40	33.333
837.70	-52.174
838.00	12.500
838.30	31.579
838.60	-140.000
838.90	-100.000
839.19	-200.000
839.49	-15.385
839.79	-21.053
840.09	-183.333
840.39	-140.000
840.69	-22.727
840.99	-14.286
841.29	-29.167
841.59	-61.538
841.88	-100.000
842.18	-14.286
842.48	3.333
842.78	-185.714
843.08	-50.000
843.38	-62.500
843.68	-25.000
843.97	-35.714
844.27	-166.667
844.57	-136.364
844.87	-66.667
845.17	0.000
845.47	800.000
845.76	-46.667
846.06	-16.667
846.36	-550.000
846.66	-57.895
846.96	-36.364
847.25	-55.556
847.55	-77.778
847.85	-57.143
848.15	-46.154
848.44	-283.333
848.74	-91.667
849.04	-84.615
849.34	-300.000
849.63	-100.000
849.93	-121.429
850.23	25.000
850.53	0.000
850.82	-50.000
851.12	-60.000
851.42	-41.176
851.71	-25.000
852.01	-11.765
852.31	-92.308
852.61	550.000
852.90	17.647
853.20	-26.667
853.50	-56.250
853.79	-121.429
854.09	-350.000
854.39	-70.000
854.68	-10.000
854.98	0.000
855.28	-16.000
855.57	-4.167
855.87	16.667
856.17	8.000
856.46	21.875
856.76	5.000
857.05	44.000
857.35	-33.333
857.65	-41.176
857.94	-91.667
858.24	-75.000
858.53	-5.000
858.83	0.000
859.13	16.000
859.42	-35.714
859.72	-125.000
860.01	-29.167
860.31	-275.000
860.60	-25.000
860.90	66.667
861.20	16.667
861.49	20.000
861.79	-12.500
862.08	300.000
862.38	-158.333
862.67	214.286
862.97	175.000
863.26	-145.455
863.56	-90.909
863.85	21.053
864.15	-47.059
864.44	40.000
864.74	-150.000
865.03	-77.778
865.33	0.000
865.62	157.143
865.92	52.632
866.21	-72.222
866.51	9.091
866.80	-77.778
867.10	-12.500
867.39	37.500
867.69	-73.333
867.98	100.000
868.27	0.000
868.57	0.000
868.86	1050.000
869.16	-400.000
869.45	-171.429
869.75	550.000
870.04	-10.000
870.33	-1400.000
870.63	31.579
870.92	-125.000
871.22	-800.000
871.51	-257.143
871.80	-200.000
872.10	-325.000
>>>>>End Processed Spectral Data<<<<<
