SpectraSuite Data File
++++++++++++++++++++++++++++++++++++
Date: Wed May 13 21:26:15 PDT 2015
User: schluterlab
Dark Spectrum Present: Yes
Reference Spectrum Present: Yes
Number of Sampled Component Spectra: 1
Spectrometers: USB2E3373
Integration Time (usec): 3000 (USB2E3373)
Spectra Averaged: 3 (USB2E3373)
Boxcar Smoothing: 0 (USB2E3373)
Correct for Electrical Dark: No (USB2E3373)
Strobe/Lamp Enabled: No (USB2E3373)
Correct for Detector Non-linearity: No (USB2E3373)
Correct for Stray Light: No (USB2E3373)
Number of Pixels in Processed Spectrum: 2048
>>>>>Begin Processed Spectral Data<<<<<
178.53	0.000
178.91	800.000
179.29	158.333
179.67	-1050.000
180.04	-566.667
180.42	180.000
180.80	1700.000
181.18	266.667
181.56	-400.000
181.94	-450.000
182.31	54.545
182.69	123.077
183.07	-220.000
183.45	216.667
183.83	222.222
184.20	128.571
184.58	-333.333
184.96	300.000
185.34	128.571
185.72	0.000
186.09	-1100.000
186.47	-120.000
186.85	160.000
187.23	-450.000
187.61	700.000
187.98	1300.000
188.36	-137.500
188.74	0.000
189.12	-45.455
189.49	60.000
189.87	133.333
190.25	300.000
190.63	1500.000
191.00	-120.000
191.38	240.000
191.76	350.000
192.14	150.000
192.51	-36.842
192.89	300.000
193.27	250.000
193.65	-200.000
194.02	209.091
194.40	200.000
194.78	-600.000
195.15	100.000
195.53	-220.000
195.91	-87.500
196.29	-233.333
196.66	0.000
197.04	550.000
197.42	0.000
197.79	30.000
198.17	-62.500
198.55	-400.000
198.92	150.000
199.30	-300.000
199.68	-90.000
200.05	1150.000
200.43	83.333
200.81	-1000.000
201.18	-160.000
201.56	-150.000
201.94	525.000
202.31	8.696
202.69	14.286
203.07	-500.000
203.44	-220.000
203.82	-333.333
204.19	30.000
204.57	0.000
204.95	-83.333
205.32	0.000
205.70	-500.000
206.08	-250.000
206.45	-66.667
206.83	525.000
207.20	-266.667
207.58	30.000
207.96	-1100.000
208.33	-185.714
208.71	-1600.000
209.08	275.000
209.46	300.000
209.84	0.000
210.21	160.000
210.59	2300.000
210.96	240.000
211.34	600.000
211.71	-1000.000
212.09	-133.333
212.46	-90.000
212.84	-366.667
213.22	0.000
213.59	-800.000
213.97	-450.000
214.34	-450.000
214.72	-38.462
215.09	162.500
215.47	88.889
215.84	550.000
216.22	-12.500
216.59	-500.000
216.97	433.333
217.34	111.111
217.72	0.000
218.09	466.667
218.47	-1100.000
218.84	28.571
219.22	-75.000
219.59	-533.333
219.97	-75.000
220.34	0.000
220.72	-120.000
221.09	0.000
221.47	-50.000
221.84	0.000
222.22	0.000
222.59	800.000
222.97	-133.333
223.34	-100.000
223.72	-900.000
224.09	-550.000
224.46	-54.545
224.84	-50.000
225.21	-214.286
225.59	-300.000
225.96	50.000
226.34	-130.000
226.71	-200.000
227.08	600.000
227.46	-25.000
227.83	-100.000
228.21	-6.250
228.58	-325.000
228.95	11.765
229.33	50.000
229.70	-75.000
230.08	-69.231
230.45	-87.500
230.82	-150.000
231.20	214.286
231.57	-25.000
231.95	-0.000
232.32	50.000
232.69	0.000
233.07	-1400.000
233.44	-26.087
233.81	-300.000
234.19	8.333
234.56	-20.000
234.93	13.333
235.31	57.895
235.68	-46.154
236.05	-46.154
236.43	-16.667
236.80	6.061
237.17	-40.000
237.55	11.765
237.92	-31.034
238.29	-40.741
238.67	8.333
239.04	16.129
239.41	2.128
239.79	48.936
240.16	18.605
240.53	33.929
240.91	46.429
241.28	39.286
241.65	33.871
242.02	47.368
242.40	44.928
242.77	39.130
243.14	33.333
243.51	41.489
243.89	35.577
244.26	57.547
244.63	35.577
245.00	54.167
245.38	42.017
245.75	45.902
246.12	37.594
246.49	33.333
246.87	42.017
247.24	42.568
247.61	39.073
247.98	42.308
248.36	47.337
248.73	39.888
249.10	40.909
249.47	45.699
249.84	40.526
250.22	38.806
250.59	44.860
250.96	41.818
251.33	39.713
251.70	40.167
252.08	45.188
252.45	41.975
252.82	47.529
253.19	44.747
253.56	41.007
253.94	46.263
254.31	43.310
254.68	46.309
255.05	47.855
255.42	46.503
255.79	44.479
256.16	46.057
256.54	45.397
256.91	43.354
257.28	45.597
257.65	44.586
258.02	44.868
258.39	47.661
258.76	43.314
259.14	48.295
259.51	42.697
259.88	45.528
260.25	46.667
260.62	44.663
260.99	44.297
261.36	47.927
261.73	49.630
262.10	45.293
262.47	44.198
262.85	44.279
263.22	45.897
263.59	46.753
263.96	43.552
264.33	45.673
264.70	44.884
265.07	41.898
265.44	49.195
265.81	45.538
266.18	46.241
266.55	45.633
266.92	45.551
267.29	45.473
267.66	46.921
268.03	44.650
268.40	43.644
268.77	44.008
269.14	47.143
269.51	44.764
269.88	44.603
270.25	46.398
270.62	44.057
270.99	44.882
271.36	46.032
271.73	45.783
272.10	47.238
272.47	45.681
272.84	45.669
273.21	43.444
273.58	47.746
273.95	43.396
274.32	43.470
274.69	45.537
275.06	44.170
275.43	44.444
275.80	46.099
276.17	46.409
276.54	41.918
276.91	46.864
277.28	42.780
277.65	47.203
278.02	43.750
278.39	45.471
278.76	44.314
279.13	43.396
279.50	43.621
279.87	44.384
280.23	43.243
280.60	45.329
280.97	43.994
281.34	42.271
281.71	42.439
282.08	45.983
282.45	43.443
282.82	42.332
283.19	44.207
283.56	44.219
283.92	44.954
284.29	42.434
284.66	43.657
285.03	42.020
285.40	42.447
285.77	44.895
286.14	44.225
286.51	43.928
286.87	43.231
287.24	42.183
287.61	42.771
287.98	42.353
288.35	43.070
288.72	41.320
289.08	42.593
289.45	40.235
289.82	41.604
290.19	41.515
290.56	37.358
290.93	38.398
291.29	39.945
291.66	39.754
292.03	41.144
292.40	39.166
292.77	38.420
293.13	39.052
293.50	38.301
293.87	36.933
294.24	37.434
294.60	37.841
294.97	39.418
295.34	35.092
295.71	36.925
296.08	36.257
296.44	36.735
296.81	35.323
297.18	38.500
297.55	36.321
297.91	36.522
298.28	35.956
298.65	36.823
299.02	36.996
299.38	36.319
299.75	36.298
300.12	34.070
300.48	35.205
300.85	37.298
301.22	35.075
301.59	34.977
301.95	35.308
302.32	35.006
302.69	34.915
303.05	34.330
303.42	34.659
303.79	34.805
304.15	35.159
304.52	35.806
304.89	34.884
305.25	33.699
305.62	33.189
305.99	32.753
306.35	35.110
306.72	35.402
307.09	34.307
307.45	34.824
307.82	33.789
308.19	32.915
308.55	35.517
308.92	33.497
309.29	34.334
309.65	33.067
310.02	33.002
310.38	33.537
310.75	34.911
311.12	35.083
311.48	35.509
311.85	33.760
312.22	34.623
312.58	35.072
312.95	35.224
313.31	35.262
313.68	34.542
314.05	34.972
314.41	35.831
314.78	35.294
315.14	35.370
315.51	37.774
315.87	36.052
316.24	35.078
316.61	37.169
316.97	37.222
317.34	36.898
317.70	37.467
318.07	38.421
318.43	39.657
318.80	38.394
319.16	38.196
319.53	40.323
319.89	39.657
320.26	40.388
320.62	38.554
320.99	40.698
321.35	40.973
321.72	41.097
322.08	43.542
322.45	44.033
322.81	43.623
323.18	44.365
323.54	45.668
323.91	45.890
324.27	47.885
324.64	47.125
325.00	48.644
325.37	48.208
325.73	48.569
326.10	49.874
326.46	49.247
326.83	51.052
327.19	51.382
327.56	52.941
327.92	53.580
328.29	55.593
328.65	55.478
329.01	56.376
329.38	57.478
329.74	55.279
330.11	57.439
330.47	57.813
330.84	58.213
331.20	57.558
331.56	58.877
331.93	58.656
332.29	61.077
332.66	60.339
333.02	59.861
333.38	60.789
333.75	61.689
334.11	60.503
334.48	64.342
334.84	60.601
335.20	60.892
335.57	59.878
335.93	60.825
336.29	63.310
336.66	60.769
337.02	61.565
337.38	62.489
337.75	62.705
338.11	63.279
338.47	61.216
338.84	62.027
339.20	63.668
339.56	62.713
339.93	64.045
340.29	62.425
340.65	63.730
341.02	62.895
341.38	62.753
341.74	62.017
342.11	63.419
342.47	64.351
342.83	62.908
343.20	64.552
343.56	64.268
343.92	62.145
344.28	62.906
344.65	63.184
345.01	61.824
345.37	64.062
345.73	65.196
346.10	62.039
346.46	62.927
346.82	64.928
347.19	63.370
347.55	63.651
347.91	62.822
348.27	62.697
348.63	63.942
349.00	62.893
349.36	64.835
349.72	62.722
350.08	63.027
350.45	63.665
350.81	64.241
351.17	63.202
351.53	64.101
351.89	61.954
352.26	62.317
352.62	64.496
352.98	64.537
353.34	63.929
353.70	63.707
354.07	63.451
354.43	63.997
354.79	66.587
355.15	63.898
355.51	63.705
355.87	63.565
356.24	65.008
356.60	63.487
356.96	65.081
357.32	63.545
357.68	65.088
358.04	63.848
358.40	63.876
358.77	64.067
359.13	64.981
359.49	63.285
359.85	65.580
360.21	65.227
360.57	65.247
360.93	65.781
361.29	64.545
361.66	64.617
362.02	65.901
362.38	64.254
362.74	63.597
363.10	63.557
363.46	63.833
363.82	66.075
364.18	63.162
364.54	65.646
364.90	63.833
365.26	62.703
365.62	63.778
365.98	64.626
366.35	65.390
366.71	64.265
367.07	64.777
367.43	63.554
367.79	64.072
368.15	64.416
368.51	64.487
368.87	64.201
369.23	65.979
369.59	64.693
369.95	65.312
370.31	63.319
370.67	63.722
371.03	65.553
371.39	64.585
371.75	63.214
372.11	64.815
372.47	64.672
372.83	65.603
373.19	64.029
373.55	66.113
373.91	62.942
374.27	66.044
374.63	64.438
374.99	64.554
375.35	64.589
375.71	62.772
376.07	65.182
376.42	64.973
376.78	66.314
377.14	65.763
377.50	66.037
377.86	65.671
378.22	66.308
378.58	65.132
378.94	65.438
379.30	66.084
379.66	66.030
380.02	65.564
380.38	66.024
380.74	64.555
381.09	64.958
381.45	64.752
381.81	66.235
382.17	64.083
382.53	64.185
382.89	64.355
383.25	65.988
383.61	64.770
383.97	66.812
384.32	63.075
384.68	65.207
385.04	65.486
385.40	64.882
385.76	64.173
386.12	64.622
386.48	65.266
386.83	63.642
387.19	64.837
387.55	65.175
387.91	65.744
388.27	65.043
388.62	65.044
388.98	65.707
389.34	66.228
389.70	64.103
390.06	64.500
390.42	65.142
390.77	64.638
391.13	64.773
391.49	63.631
391.85	65.176
392.20	64.411
392.56	65.714
392.92	64.892
393.28	64.323
393.64	64.587
393.99	64.565
394.35	63.395
394.71	64.359
395.07	62.075
395.42	63.437
395.78	63.320
396.14	64.172
396.50	64.807
396.85	64.882
397.21	63.983
397.57	63.478
397.92	63.892
398.28	63.734
398.64	63.692
399.00	63.616
399.35	63.961
399.71	63.192
400.07	62.711
400.42	63.636
400.78	62.175
401.14	62.722
401.49	62.672
401.85	63.145
402.21	63.653
402.57	62.354
402.92	63.705
403.28	63.102
403.63	61.934
403.99	62.956
404.35	62.843
404.70	62.115
405.06	62.008
405.42	61.683
405.77	61.521
406.13	60.571
406.49	62.313
406.84	62.332
407.20	60.154
407.55	62.143
407.91	61.284
408.27	59.326
408.62	62.308
408.98	60.912
409.34	61.324
409.69	61.598
410.05	61.194
410.40	59.769
410.76	61.131
411.11	60.697
411.47	60.849
411.83	61.884
412.18	60.579
412.54	61.341
412.89	61.379
413.25	60.177
413.60	61.881
413.96	59.738
414.31	59.741
414.67	60.698
415.03	61.502
415.38	60.568
415.74	60.429
416.09	60.476
416.45	60.629
416.80	60.000
417.16	60.729
417.51	60.750
417.87	60.582
418.22	60.181
418.58	60.381
418.93	60.640
419.29	61.518
419.64	59.924
420.00	61.016
420.35	59.833
420.71	61.243
421.06	60.025
421.42	61.557
421.77	60.925
422.12	61.547
422.48	60.523
422.83	60.898
423.19	60.667
423.54	60.483
423.90	60.451
424.25	60.485
424.61	59.211
424.96	60.615
425.31	59.731
425.67	60.141
426.02	61.190
426.38	60.821
426.73	61.759
427.09	60.663
427.44	60.893
427.79	61.580
428.15	60.612
428.50	60.725
428.85	60.455
429.21	60.495
429.56	61.690
429.92	62.363
430.27	60.583
430.62	61.805
430.98	61.237
431.33	61.472
431.68	60.596
432.04	61.634
432.39	59.469
432.74	60.392
433.10	61.650
433.45	61.065
433.80	61.552
434.16	61.278
434.51	60.978
434.86	62.603
435.22	61.573
435.57	59.644
435.92	62.847
436.28	60.601
436.63	61.721
436.98	61.986
437.34	62.576
437.69	59.622
438.04	60.158
438.39	63.450
438.75	61.383
439.10	62.464
439.45	61.441
439.81	60.961
440.16	61.797
440.51	62.545
440.86	61.529
441.22	61.790
441.57	61.551
441.92	61.794
442.27	62.229
442.63	60.441
442.98	61.748
443.33	62.810
443.68	60.780
444.03	61.252
444.39	61.725
444.74	62.010
445.09	61.784
445.44	63.099
445.79	63.087
446.15	63.450
446.50	61.123
446.85	62.159
447.20	62.990
447.55	59.933
447.91	62.303
448.26	61.235
448.61	61.623
448.96	60.934
449.31	61.850
449.66	61.770
450.02	61.853
450.37	63.690
450.72	62.687
451.07	62.382
451.42	60.449
451.77	62.812
452.12	61.438
452.47	61.330
452.83	62.500
453.18	62.317
453.53	62.295
453.88	61.867
454.23	62.114
454.58	61.336
454.93	63.117
455.28	62.299
455.63	60.324
455.98	62.142
456.34	61.221
456.69	62.364
457.04	62.539
457.39	60.854
457.74	60.323
458.09	62.145
458.44	61.222
458.79	59.583
459.14	59.438
459.49	61.220
459.84	60.936
460.19	59.604
460.54	61.375
460.89	60.417
461.24	61.406
461.59	62.862
461.94	60.303
462.29	61.336
462.64	60.554
462.99	61.636
463.34	60.981
463.69	61.791
464.04	60.564
464.39	61.562
464.74	60.627
465.09	60.136
465.44	59.933
465.79	62.392
466.14	59.749
466.49	61.466
466.84	60.311
467.19	60.446
467.54	60.726
467.89	61.534
468.24	59.865
468.59	60.038
468.94	60.153
469.29	60.939
469.64	60.391
469.99	61.655
470.34	59.811
470.68	61.041
471.03	60.437
471.38	58.623
471.73	59.465
472.08	61.375
472.43	61.280
472.78	59.635
473.13	58.575
473.48	59.426
473.83	59.887
474.17	60.677
474.52	59.935
474.87	58.625
475.22	60.688
475.57	58.561
475.92	59.706
476.27	59.615
476.61	58.664
476.96	59.909
477.31	59.331
477.66	59.209
478.01	59.066
478.36	59.728
478.70	58.754
479.05	59.434
479.40	59.334
479.75	59.617
480.10	59.255
480.45	59.049
480.79	59.233
481.14	59.524
481.49	58.954
481.84	58.671
482.19	58.175
482.53	58.238
482.88	58.965
483.23	57.363
483.58	57.987
483.92	58.074
484.27	57.640
484.62	57.124
484.97	58.772
485.31	58.687
485.66	55.542
486.01	56.880
486.36	57.157
486.70	57.702
487.05	57.947
487.40	58.092
487.75	59.288
488.09	58.617
488.44	58.745
488.79	58.441
489.13	58.171
489.48	57.589
489.83	57.570
490.17	58.193
490.52	58.532
490.87	57.024
491.22	57.183
491.56	58.601
491.91	57.801
492.26	58.027
492.60	57.672
492.95	57.872
493.30	56.686
493.64	57.218
493.99	57.633
494.34	56.936
494.68	57.757
495.03	57.510
495.37	57.178
495.72	57.544
496.07	57.623
496.41	56.762
496.76	56.627
497.11	57.746
497.45	57.198
497.80	57.496
498.14	57.531
498.49	56.430
498.84	57.540
499.18	56.446
499.53	56.228
499.87	56.380
500.22	57.093
500.56	57.422
500.91	56.690
501.26	55.665
501.60	56.078
501.95	56.828
502.29	56.602
502.64	55.931
502.98	55.539
503.33	57.080
503.67	56.475
504.02	55.196
504.36	56.909
504.71	56.402
505.06	56.801
505.40	56.134
505.75	55.849
506.09	55.851
506.44	55.696
506.78	55.155
507.13	56.497
507.47	57.264
507.82	54.840
508.16	56.095
508.51	55.579
508.85	54.847
509.19	55.185
509.54	55.764
509.88	55.591
510.23	54.474
510.57	56.038
510.92	56.250
511.26	55.226
511.61	55.049
511.95	56.395
512.30	55.303
512.64	55.562
512.98	55.512
513.33	55.944
513.67	55.082
514.02	55.587
514.36	54.775
514.70	55.139
515.05	54.652
515.39	55.425
515.74	55.536
516.08	54.041
516.42	54.032
516.77	54.833
517.11	55.203
517.46	54.802
517.80	55.266
518.14	54.378
518.49	54.551
518.83	53.819
519.17	54.398
519.52	54.282
519.86	56.041
520.20	54.882
520.55	54.851
520.89	54.965
521.23	56.154
521.58	54.235
521.92	53.551
522.26	53.416
522.61	54.557
522.95	54.728
523.29	54.349
523.64	53.528
523.98	53.494
524.32	54.316
524.66	53.312
525.01	54.784
525.35	53.588
525.69	52.286
526.04	54.528
526.38	54.238
526.72	55.030
527.06	53.965
527.41	53.475
527.75	53.672
528.09	55.412
528.43	54.545
528.78	54.199
529.12	54.916
529.46	53.231
529.80	54.110
530.15	52.831
530.49	53.235
530.83	53.216
531.17	53.836
531.51	52.057
531.86	52.710
532.20	53.411
532.54	54.138
532.88	52.076
533.22	52.862
533.57	52.914
533.91	53.226
534.25	53.776
534.59	53.282
534.93	54.337
535.27	52.548
535.62	52.829
535.96	52.960
536.30	52.593
536.64	53.589
536.98	52.418
537.32	51.744
537.66	53.526
538.01	51.803
538.35	51.727
538.69	51.839
539.03	51.544
539.37	50.168
539.71	52.319
540.05	50.945
540.39	50.998
540.73	53.212
541.07	51.224
541.42	51.717
541.76	50.609
542.10	49.966
542.44	51.698
542.78	52.047
543.12	51.146
543.46	50.242
543.80	51.256
544.14	51.136
544.48	50.763
544.82	51.917
545.16	50.237
545.50	50.912
545.84	51.262
546.18	50.281
546.52	51.235
546.86	50.389
547.20	49.392
547.54	51.680
547.88	52.767
548.22	50.814
548.56	50.834
548.90	50.812
549.24	50.833
549.58	50.961
549.92	52.018
550.26	51.808
550.60	50.976
550.94	49.701
551.28	50.492
551.62	50.902
551.96	51.464
552.30	49.636
552.64	50.353
552.98	51.136
553.32	51.983
553.66	51.577
554.00	50.252
554.34	50.330
554.68	50.112
555.02	50.973
555.36	51.664
555.69	49.818
556.03	49.535
556.37	49.289
556.71	49.685
557.05	49.373
557.39	48.983
557.73	49.395
558.07	49.359
558.41	50.416
558.75	50.654
559.08	48.917
559.42	50.433
559.76	48.471
560.10	50.269
560.44	50.111
560.78	49.928
561.12	49.755
561.45	48.231
561.79	49.862
562.13	48.523
562.47	49.286
562.81	49.567
563.15	49.150
563.48	48.176
563.82	48.837
564.16	50.237
564.50	48.982
564.84	49.122
565.17	49.139
565.51	48.864
565.85	48.568
566.19	49.338
566.52	49.279
566.86	48.799
567.20	48.748
567.54	48.014
567.88	47.872
568.21	48.289
568.55	47.626
568.89	48.056
569.23	47.479
569.56	48.018
569.90	46.626
570.24	46.318
570.57	45.957
570.91	46.771
571.25	46.529
571.59	46.753
571.92	47.111
572.26	47.075
572.60	47.090
572.93	47.579
573.27	46.462
573.61	47.884
573.95	46.986
574.28	46.404
574.62	46.779
574.96	47.293
575.29	46.916
575.63	47.181
575.97	46.821
576.30	46.448
576.64	47.315
576.98	46.594
577.31	46.780
577.65	45.770
577.98	47.424
578.32	46.179
578.66	46.799
578.99	47.183
579.33	46.302
579.67	47.454
580.00	46.783
580.34	46.365
580.67	46.668
581.01	46.502
581.35	46.316
581.68	45.959
582.02	46.739
582.35	46.307
582.69	46.396
583.02	46.530
583.36	47.491
583.70	46.780
584.03	46.455
584.37	45.738
584.70	46.178
585.04	47.029
585.37	45.419
585.71	45.948
586.04	46.742
586.38	45.409
586.72	46.221
587.05	46.813
587.39	45.805
587.72	46.223
588.06	46.484
588.39	45.760
588.73	46.149
589.06	46.363
589.40	46.199
589.73	45.562
590.07	45.607
590.40	46.232
590.73	46.029
591.07	45.967
591.40	46.000
591.74	46.287
592.07	47.330
592.41	46.547
592.74	45.602
593.08	44.923
593.41	45.376
593.75	45.704
594.08	45.250
594.41	45.082
594.75	44.828
595.08	45.818
595.42	45.240
595.75	46.132
596.09	45.612
596.42	45.384
596.75	46.161
597.09	47.407
597.42	45.626
597.75	45.111
598.09	45.583
598.42	45.235
598.76	45.298
599.09	45.738
599.42	45.053
599.76	45.813
600.09	45.482
600.42	45.047
600.76	44.678
601.09	45.198
601.42	45.159
601.76	44.517
602.09	45.237
602.42	45.811
602.76	45.470
603.09	45.832
603.42	45.382
603.76	44.427
604.09	44.980
604.42	44.747
604.76	45.570
605.09	45.129
605.42	45.884
605.75	45.011
606.09	44.495
606.42	44.098
606.75	44.632
607.09	45.168
607.42	44.177
607.75	43.370
608.08	45.401
608.42	44.705
608.75	44.768
609.08	44.096
609.41	44.461
609.75	43.974
610.08	45.365
610.41	45.044
610.74	44.514
611.07	44.589
611.41	45.036
611.74	44.617
612.07	43.981
612.40	45.297
612.73	44.127
613.07	43.958
613.40	45.264
613.73	44.908
614.06	44.887
614.39	45.247
614.72	44.364
615.06	43.000
615.39	45.088
615.72	44.492
616.05	45.045
616.38	44.559
616.71	43.251
617.05	43.735
617.38	43.746
617.71	43.382
618.04	43.754
618.37	45.363
618.70	43.984
619.03	43.643
619.36	43.488
619.69	42.617
620.03	42.544
620.36	45.094
620.69	43.326
621.02	44.154
621.35	43.500
621.68	42.950
622.01	44.660
622.34	43.458
622.67	44.636
623.00	43.161
623.33	43.530
623.66	43.569
623.99	44.336
624.32	43.727
624.65	43.398
624.99	43.424
625.32	43.017
625.65	43.411
625.98	43.523
626.31	42.531
626.64	42.562
626.97	43.858
627.30	43.627
627.63	42.388
627.96	41.472
628.29	43.628
628.62	44.487
628.95	43.186
629.28	42.956
629.61	42.967
629.94	42.070
630.26	43.350
630.59	43.656
630.92	42.068
631.25	43.048
631.58	43.362
631.91	42.842
632.24	41.603
632.57	42.889
632.90	44.341
633.23	43.165
633.56	43.885
633.89	44.258
634.22	43.110
634.55	43.118
634.88	42.892
635.20	42.625
635.53	43.023
635.86	43.333
636.19	42.556
636.52	42.805
636.85	42.702
637.18	40.682
637.51	43.196
637.83	42.950
638.16	40.667
638.49	40.454
638.82	43.137
639.15	41.489
639.48	42.380
639.81	42.222
640.13	41.972
640.46	41.525
640.79	42.158
641.12	41.568
641.45	40.320
641.77	41.237
642.10	42.209
642.43	44.182
642.76	40.379
643.09	39.936
643.41	40.829
643.74	41.195
644.07	40.453
644.40	41.294
644.73	42.712
645.05	41.012
645.38	40.698
645.71	42.687
646.04	40.236
646.36	44.271
646.69	41.608
647.02	42.441
647.35	42.230
647.67	40.296
648.00	39.674
648.33	40.339
648.66	40.568
648.98	38.354
649.31	41.564
649.64	41.315
649.96	43.286
650.29	37.418
650.62	39.868
650.94	40.690
651.27	41.696
651.60	44.056
651.92	40.860
652.25	39.698
652.58	41.419
652.90	40.741
653.23	38.710
653.56	39.008
653.88	39.078
654.21	41.468
654.54	39.203
654.86	39.837
655.19	39.356
655.52	42.618
655.84	41.146
656.17	49.061
656.49	65.158
656.82	64.979
657.15	49.111
657.47	36.413
657.80	27.399
658.13	28.749
658.45	42.351
658.78	42.048
659.10	41.208
659.43	41.292
659.75	40.587
660.08	39.724
660.41	40.365
660.73	40.909
661.06	37.585
661.38	39.922
661.71	37.910
662.03	39.746
662.36	39.381
662.68	41.505
663.01	39.619
663.33	38.445
663.66	36.142
663.98	43.371
664.31	38.462
664.63	37.613
664.96	39.606
665.28	40.343
665.61	39.741
665.93	37.901
666.26	39.662
666.58	37.687
666.91	42.825
667.23	38.940
667.56	40.690
667.88	39.486
668.21	37.946
668.53	35.862
668.86	40.288
669.18	39.953
669.50	37.788
669.83	40.573
670.15	36.429
670.48	38.161
670.80	42.232
671.13	36.842
671.45	41.553
671.77	37.500
672.10	37.817
672.42	40.267
672.75	38.571
673.07	36.909
673.39	38.060
673.72	41.517
674.04	39.754
674.37	40.041
674.69	38.066
675.01	37.821
675.34	38.293
675.66	39.651
675.98	36.283
676.31	35.973
676.63	42.177
676.95	37.176
677.28	36.927
677.60	41.667
677.92	37.694
678.25	41.866
678.57	39.919
678.89	39.232
679.22	37.681
679.54	37.959
679.86	38.672
680.18	39.231
680.51	39.423
680.83	37.037
681.15	38.507
681.48	36.273
681.80	39.059
682.12	37.500
682.44	36.016
682.77	36.632
683.09	35.938
683.41	36.512
683.73	38.393
684.06	38.496
684.38	37.393
684.70	36.864
685.02	39.463
685.34	39.335
685.67	42.402
685.99	36.477
686.31	37.414
686.63	37.132
686.96	37.848
687.28	37.924
687.60	40.076
687.92	36.381
688.24	36.800
688.56	42.763
688.89	35.412
689.21	36.323
689.53	38.514
689.85	37.528
690.17	38.681
690.49	37.198
690.82	37.709
691.14	38.164
691.46	33.875
691.78	38.681
692.10	39.066
692.42	35.604
692.74	35.217
693.06	36.404
693.39	35.363
693.71	38.667
694.03	40.909
694.35	36.712
694.67	39.500
694.99	36.598
695.31	38.243
695.63	37.317
695.95	36.896
696.27	35.890
696.59	33.065
696.91	35.475
697.23	36.294
697.56	37.410
697.88	36.175
698.20	35.853
698.52	35.047
698.84	38.517
699.16	34.515
699.48	37.284
699.80	41.085
700.12	35.657
700.44	33.803
700.76	31.742
701.08	35.650
701.40	35.030
701.72	36.308
702.04	31.761
702.36	35.366
702.68	35.976
703.00	39.181
703.32	36.490
703.64	37.952
703.96	35.191
704.28	33.434
704.60	32.012
704.91	35.423
705.23	34.177
705.55	37.586
705.87	35.211
706.19	33.333
706.51	34.155
706.83	34.395
707.15	39.634
707.47	36.364
707.79	33.503
708.11	34.704
708.43	37.563
708.74	34.840
709.06	34.759
709.38	32.277
709.70	35.435
710.02	36.760
710.34	34.333
710.66	31.270
710.98	34.365
711.29	32.468
711.61	31.613
711.93	37.097
712.25	32.168
712.57	31.228
712.89	36.264
713.20	36.879
713.52	34.307
713.84	34.194
714.16	32.362
714.48	38.291
714.80	33.546
715.11	38.663
715.43	37.888
715.75	34.783
716.07	32.831
716.39	32.997
716.70	38.129
717.02	30.588
717.34	29.924
717.66	31.034
717.97	30.952
718.29	37.402
718.61	36.910
718.93	33.721
719.24	32.472
719.56	31.086
719.88	36.940
720.20	37.154
720.51	34.375
720.83	36.576
721.15	32.114
721.46	32.061
721.78	35.458
722.10	32.271
722.42	32.258
722.73	32.046
723.05	33.469
723.37	31.933
723.68	34.400
724.00	28.085
724.32	28.452
724.63	38.272
724.95	29.060
725.27	33.333
725.58	32.510
725.90	34.310
726.22	30.435
726.53	30.588
726.85	32.117
727.16	33.333
727.48	33.716
727.80	36.328
728.11	35.246
728.43	33.984
728.74	33.730
729.06	38.800
729.38	36.364
729.69	32.384
730.01	33.086
730.32	32.103
730.64	31.439
730.96	36.713
731.27	29.097
731.59	30.794
731.90	34.304
732.22	33.333
732.53	32.770
732.85	28.859
733.16	35.644
733.48	31.757
733.80	32.770
734.11	34.797
734.43	33.127
734.74	36.036
735.06	36.311
735.37	35.258
735.69	34.951
736.00	33.663
736.32	33.688
736.63	32.414
736.95	35.959
737.26	32.759
737.58	31.944
737.89	32.646
738.21	30.605
738.52	31.179
738.83	37.551
739.15	31.224
739.46	34.630
739.78	35.211
740.09	29.452
740.41	30.357
740.72	33.333
741.04	30.000
741.35	28.947
741.66	34.667
741.98	36.058
742.29	34.653
742.61	35.122
742.92	36.842
743.23	30.189
743.55	36.036
743.86	26.906
744.18	29.902
744.49	31.472
744.80	34.694
745.12	28.972
745.43	27.962
745.74	31.081
746.06	31.308
746.37	25.688
746.68	34.135
747.00	35.407
747.31	28.365
747.62	35.321
747.94	35.371
748.25	31.193
748.56	31.556
748.88	31.455
749.19	31.429
749.50	22.816
749.82	33.803
750.13	26.667
750.44	32.308
750.75	31.734
751.07	32.384
751.38	38.298
751.69	33.977
752.01	34.375
752.32	31.923
752.63	31.716
752.94	30.000
753.26	32.636
753.57	32.083
753.88	30.769
754.19	33.466
754.51	37.970
754.82	29.670
755.13	25.217
755.44	32.520
755.75	28.800
756.07	29.889
756.38	35.252
756.69	34.471
757.00	36.449
757.31	32.039
757.63	31.790
757.94	35.593
758.25	35.979
758.56	32.609
758.87	34.821
759.18	35.016
759.50	32.323
759.81	32.107
760.12	36.308
760.43	31.845
760.74	31.921
761.05	32.320
761.36	30.659
761.67	31.420
761.99	33.677
762.30	29.197
762.61	33.333
762.92	35.470
763.23	34.426
763.54	33.333
763.85	28.980
764.16	28.862
764.47	26.800
764.78	32.500
765.10	37.377
765.41	34.650
765.72	32.609
766.03	29.373
766.34	29.615
766.65	30.126
766.96	29.577
767.27	33.663
767.58	26.404
767.89	33.333
768.20	24.862
768.51	30.653
768.82	36.538
769.13	31.416
769.44	31.799
769.75	29.487
770.06	30.493
770.37	31.863
770.68	36.893
770.99	30.097
771.30	28.992
771.61	27.755
771.92	36.100
772.23	31.081
772.54	28.177
772.85	26.163
773.16	31.746
773.47	17.751
773.78	34.483
774.09	25.625
774.39	32.298
774.70	36.054
775.01	26.207
775.32	27.143
775.63	29.323
775.94	25.564
776.25	16.800
776.56	20.661
776.87	20.635
777.18	18.018
777.48	37.838
777.79	29.921
778.10	30.275
778.41	21.053
778.72	33.613
779.03	21.127
779.34	27.027
779.65	22.535
779.95	19.868
780.26	23.741
780.57	35.971
780.88	16.901
781.19	29.412
781.50	32.886
781.80	22.807
782.11	18.605
782.42	32.704
782.73	31.373
783.04	18.621
783.34	27.481
783.65	22.148
783.96	33.077
784.27	29.286
784.57	29.078
784.88	22.115
785.19	37.273
785.50	28.182
785.81	24.762
786.11	16.807
786.42	27.434
786.73	16.038
787.04	13.761
787.34	27.723
787.65	23.333
787.96	23.967
788.26	20.290
788.57	21.429
788.88	30.081
789.19	28.800
789.49	17.557
789.80	22.727
790.11	19.811
790.41	29.703
790.72	20.213
791.03	20.652
791.33	25.882
791.64	17.284
791.95	19.565
792.25	31.818
792.56	24.359
792.87	24.359
793.17	25.641
793.48	11.905
793.79	22.500
794.09	25.000
794.40	40.625
794.70	35.135
795.01	26.563
795.32	30.435
795.62	21.739
795.93	27.358
796.23	29.293
796.54	28.049
796.85	23.810
797.15	19.697
797.46	20.290
797.76	22.368
798.07	20.455
798.37	15.854
798.68	19.355
798.99	20.270
799.29	31.325
799.60	19.231
799.90	27.692
800.21	13.636
800.51	28.000
800.82	25.333
801.12	-4.167
801.43	5.000
801.73	8.108
802.04	12.857
802.34	14.754
802.65	35.821
802.95	25.455
803.26	10.345
803.56	29.231
803.87	5.660
804.17	17.742
804.48	22.059
804.78	14.634
805.09	15.942
805.39	7.353
805.70	-10.638
806.00	5.263
806.30	24.359
806.61	14.474
806.91	16.216
807.22	14.474
807.52	29.545
807.83	18.644
808.13	-1.515
808.43	28.333
808.74	0.000
809.04	-1.587
809.35	6.122
809.65	23.333
809.95	8.163
810.26	30.986
810.56	12.500
810.86	6.122
811.17	32.692
811.47	-2.128
811.77	0.000
812.08	24.528
812.38	21.875
812.69	14.545
812.99	14.634
813.29	10.811
813.59	-18.919
813.90	10.909
814.20	10.909
814.50	0.000
814.81	-3.636
815.11	10.526
815.41	32.558
815.72	17.500
816.02	0.000
816.32	16.216
816.62	41.667
816.93	24.444
817.23	2.222
817.53	-38.889
817.84	18.919
818.14	9.756
818.44	14.000
818.74	4.082
819.04	-7.317
819.35	0.000
819.65	13.636
819.95	-94.444
820.25	33.333
820.56	-9.524
820.86	0.000
821.16	9.091
821.46	15.217
821.76	1.724
822.07	8.696
822.37	39.394
822.67	9.756
822.97	8.108
823.27	-17.143
823.57	27.586
823.88	-5.882
824.18	8.333
824.48	37.143
824.78	28.571
825.08	28.571
825.38	-11.111
825.69	25.806
825.99	-2.439
826.29	-3.704
826.59	3.125
826.89	-6.452
827.19	-8.696
827.49	-5.556
827.79	-30.435
828.09	22.581
828.39	-2.083
828.70	-28.125
829.00	-3.448
829.30	8.108
829.60	-25.000
829.90	25.926
830.20	-3.125
830.50	4.545
830.80	-82.353
831.10	-68.182
831.40	0.000
831.70	-38.462
832.00	18.182
832.30	23.529
832.60	5.405
832.90	800.000
833.20	-21.429
833.50	-25.000
833.80	5.263
834.10	-8.333
834.40	-59.091
834.70	-80.000
835.00	-80.000
835.30	-25.000
835.60	-9.524
835.90	4.762
836.20	-24.000
836.50	-4.167
836.80	-26.316
837.10	18.919
837.40	36.667
837.70	13.043
838.00	33.333
838.30	-15.789
838.60	-130.000
838.90	-170.000
839.19	-108.333
839.49	0.000
839.79	-21.053
840.09	-266.667
840.39	-60.000
840.69	-4.545
840.99	-38.095
841.29	-29.167
841.59	-53.846
841.88	-40.000
842.18	-14.286
842.48	20.000
842.78	-242.857
843.08	-50.000
843.38	-12.500
843.68	-81.250
843.97	92.857
844.27	-77.778
844.57	-36.364
844.87	-60.000
845.17	18.182
845.47	466.667
845.76	-46.667
846.06	-91.667
846.36	-550.000
846.66	-47.368
846.96	-4.545
847.25	-77.778
847.55	-144.444
847.85	-4.762
848.15	-30.769
848.44	-33.333
848.74	16.667
849.04	-61.538
849.34	-100.000
849.63	-100.000
849.93	-71.429
850.23	-5.000
850.53	-100.000
850.82	-38.889
851.12	-53.333
851.42	-58.824
851.71	-25.000
852.01	-41.176
852.31	-46.154
852.61	450.000
852.90	-41.176
853.20	-13.333
853.50	-31.250
853.79	-114.286
854.09	-175.000
854.39	-35.000
854.68	-2.500
854.98	42.857
855.28	8.000
855.57	-8.333
855.87	12.500
856.17	-44.000
856.46	-3.125
856.76	-25.000
857.05	24.000
857.35	-91.667
857.65	-35.294
857.94	-133.333
858.24	-91.667
858.53	-35.000
858.83	-81.818
859.13	-16.000
859.42	-7.143
859.72	-125.000
860.01	4.167
860.31	-187.500
860.60	-87.500
860.90	-183.333
861.20	-116.667
861.49	0.000
861.79	-25.000
862.08	300.000
862.38	-91.667
862.67	342.857
862.97	325.000
863.26	-118.182
863.56	-54.545
863.85	21.053
864.15	29.412
864.44	-300.000
864.74	-110.000
865.03	-111.111
865.33	0.000
865.62	57.143
865.92	-31.579
866.21	-22.222
866.51	-100.000
866.80	-88.889
867.10	-125.000
867.39	-18.750
867.69	-106.667
867.98	-80.000
868.27	-35.294
868.57	0.000
868.86	400.000
869.16	-400.000
869.45	-142.857
869.75	400.000
870.04	-150.000
870.33	-900.000
870.63	-15.789
870.92	-83.333
871.22	0.000
871.51	-228.571
871.80	-211.111
872.10	-325.000
>>>>>End Processed Spectral Data<<<<<
