SpectraSuite Data File
++++++++++++++++++++++++++++++++++++
Date: Wed May 13 21:26:19 PDT 2015
User: schluterlab
Dark Spectrum Present: Yes
Reference Spectrum Present: Yes
Number of Sampled Component Spectra: 1
Spectrometers: USB2E3373
Integration Time (usec): 3000 (USB2E3373)
Spectra Averaged: 3 (USB2E3373)
Boxcar Smoothing: 0 (USB2E3373)
Correct for Electrical Dark: No (USB2E3373)
Strobe/Lamp Enabled: No (USB2E3373)
Correct for Detector Non-linearity: No (USB2E3373)
Correct for Stray Light: No (USB2E3373)
Number of Pixels in Processed Spectrum: 2048
>>>>>Begin Processed Spectral Data<<<<<
178.53	0.000
178.91	250.000
179.29	225.000
179.67	-600.000
180.04	-100.000
180.42	180.000
180.80	1600.000
181.18	166.667
181.56	-250.000
181.94	-125.000
182.31	-63.636
182.69	192.308
183.07	-240.000
183.45	300.000
183.83	188.889
184.20	300.000
184.58	-300.000
184.96	366.667
185.34	185.714
185.72	0.000
186.09	-600.000
186.47	-200.000
186.85	-80.000
187.23	-50.000
187.61	350.000
187.98	2000.000
188.36	-37.500
188.74	0.000
189.12	-54.545
189.49	30.000
189.87	133.333
190.25	300.000
190.63	400.000
191.00	-220.000
191.38	140.000
191.76	300.000
192.14	108.333
192.51	-15.789
192.89	400.000
193.27	375.000
193.65	-420.000
194.02	200.000
194.40	180.000
194.78	-400.000
195.15	200.000
195.53	-280.000
195.91	12.500
196.29	-266.667
196.66	0.000
197.04	750.000
197.42	-20.000
197.79	-10.000
198.17	-250.000
198.55	-200.000
198.92	225.000
199.30	-33.333
199.68	-90.000
200.05	550.000
200.43	166.667
200.81	-1500.000
201.18	-200.000
201.56	-333.333
201.94	525.000
202.31	17.391
202.69	-242.857
203.07	-266.667
203.44	-180.000
203.82	-266.667
204.19	0.000
204.57	0.000
204.95	33.333
205.32	0.000
205.70	-550.000
206.08	-150.000
206.45	-150.000
206.83	325.000
207.20	-266.667
207.58	-20.000
207.96	-1000.000
208.33	-171.429
208.71	-1800.000
209.08	187.500
209.46	250.000
209.84	0.000
210.21	190.000
210.59	2100.000
210.96	300.000
211.34	1100.000
211.71	-1100.000
212.09	-100.000
212.46	-140.000
212.84	-300.000
213.22	-75.000
213.59	-1000.000
213.97	-100.000
214.34	-650.000
214.72	0.000
215.09	237.500
215.47	188.889
215.84	950.000
216.22	12.500
216.59	-750.000
216.97	266.667
217.34	166.667
217.72	0.000
218.09	400.000
218.47	-1000.000
218.84	-85.714
219.22	-225.000
219.59	-433.333
219.97	-50.000
220.34	-150.000
220.72	-160.000
221.09	0.000
221.47	100.000
221.84	-1100.000
222.22	0.000
222.59	300.000
222.97	-600.000
223.34	-58.333
223.72	-2300.000
224.09	-1000.000
224.46	-54.545
224.84	-50.000
225.21	-214.286
225.59	-575.000
225.96	-50.000
226.34	-10.000
226.71	-285.714
227.08	950.000
227.46	-87.500
227.83	-400.000
228.21	-12.500
228.58	-400.000
228.95	-70.588
229.33	-25.000
229.70	-37.500
230.08	-61.538
230.45	-175.000
230.82	-58.333
231.20	328.571
231.57	-225.000
231.95	800.000
232.32	-25.000
232.69	-23.529
233.07	-1000.000
233.44	-21.739
233.81	-850.000
234.19	25.000
234.56	-40.000
234.93	-26.667
235.31	-15.789
235.68	-76.923
236.05	-92.308
236.43	-33.333
236.80	-9.091
237.17	-100.000
237.55	-105.882
237.92	-51.724
238.29	-77.778
238.67	-16.667
239.04	-35.484
239.41	-4.255
239.79	-6.383
240.16	-16.279
240.53	-3.571
240.91	1.786
241.28	3.571
241.65	-3.226
242.02	0.000
242.40	5.797
242.77	-24.638
243.14	-17.949
243.51	-7.447
243.89	6.731
244.26	9.434
244.63	-9.615
245.00	-7.292
245.38	-6.723
245.75	-3.279
246.12	2.256
246.49	-12.195
246.87	-13.445
247.24	-8.784
247.61	-5.960
247.98	-10.897
248.36	-7.692
248.73	-2.809
249.10	-1.515
249.47	0.538
249.84	0.000
250.22	-1.990
250.59	-0.935
250.96	4.091
251.33	-7.177
251.70	7.531
252.08	0.837
252.45	-0.412
252.82	1.521
253.19	1.556
253.56	0.000
253.94	5.338
254.31	-2.113
254.68	1.342
255.05	0.990
255.42	-1.748
255.79	-3.067
256.16	3.785
256.54	-0.952
256.91	-2.215
257.28	5.975
257.65	-2.548
258.02	-0.587
258.39	2.632
258.76	4.070
259.14	1.989
259.51	1.124
259.88	0.542
260.25	1.944
260.62	-1.685
260.99	3.448
261.36	4.404
261.73	0.494
262.10	0.509
262.47	2.469
262.85	0.995
263.22	1.795
263.59	2.078
263.96	0.730
264.33	0.962
264.70	0.930
265.07	3.704
265.44	0.690
265.81	2.288
266.18	1.595
266.55	3.712
266.92	1.483
267.29	0.617
267.66	1.699
268.03	2.469
268.40	-1.483
268.77	2.686
269.14	2.449
269.51	3.285
269.88	-0.815
270.25	1.907
270.62	0.820
270.99	2.559
271.36	1.786
271.73	3.213
272.10	1.905
272.47	2.303
272.84	3.150
273.21	0.587
273.58	0.000
273.95	2.075
274.32	1.119
274.69	2.732
275.06	3.180
275.43	1.507
275.80	1.418
276.17	0.737
276.54	2.131
276.91	3.310
277.28	0.903
277.65	2.098
278.02	4.107
278.39	1.599
278.76	2.007
279.13	0.172
279.50	1.207
279.87	0.543
280.23	1.441
280.60	0.692
280.97	-0.487
281.34	2.208
281.71	0.163
282.08	0.513
282.45	3.279
282.82	1.438
283.19	4.726
283.56	2.500
283.92	2.599
284.29	0.936
284.66	-0.494
285.03	0.163
285.40	1.511
285.77	2.402
286.14	0.304
286.51	2.999
286.87	0.769
287.24	0.885
287.61	3.765
287.98	1.176
288.35	0.447
288.72	1.865
289.08	2.279
289.45	2.937
289.82	0.303
290.19	2.945
290.56	1.562
290.93	1.657
291.29	1.505
291.66	1.230
292.03	3.815
292.40	2.692
292.77	2.945
293.13	2.929
293.50	2.222
293.87	3.333
294.24	2.249
294.60	2.341
294.97	2.910
295.34	1.055
295.71	0.788
296.08	0.262
296.44	1.020
296.81	1.583
297.18	1.750
297.55	2.005
297.91	1.615
298.28	3.148
298.65	2.463
299.02	2.564
299.38	1.350
299.75	1.082
300.12	1.512
300.48	0.819
300.85	1.270
301.22	0.813
301.59	0.939
301.95	0.348
302.32	1.867
302.69	0.791
303.05	1.772
303.42	1.591
303.79	2.208
304.15	1.533
304.52	2.043
304.89	1.661
305.25	0.220
305.62	1.085
305.99	1.632
306.35	3.135
306.72	2.543
307.09	1.251
307.45	2.023
307.82	1.789
308.19	0.104
308.55	0.102
308.92	2.652
309.29	1.001
309.65	0.899
310.02	1.889
310.38	1.423
310.75	0.000
311.12	1.944
311.48	2.473
311.85	1.673
312.22	2.418
312.58	1.063
312.95	1.891
313.31	2.112
313.68	2.004
314.05	2.552
314.41	2.209
314.78	3.226
315.14	2.778
315.51	3.616
315.87	2.780
316.24	3.398
316.61	3.288
316.97	2.685
317.34	2.852
317.70	3.390
318.07	4.259
318.43	3.162
318.80	3.839
319.16	2.387
319.53	3.853
319.89	4.155
320.26	5.268
320.62	5.097
320.99	3.585
321.35	4.116
321.72	5.679
322.08	6.089
322.45	6.013
322.81	6.285
323.18	6.440
323.54	7.040
323.91	7.136
324.27	7.651
324.64	7.143
325.00	7.612
325.37	8.874
325.73	8.670
326.10	8.410
326.46	8.863
326.83	9.951
327.19	9.512
327.56	9.670
327.92	9.493
328.29	12.020
328.65	11.744
329.01	9.850
329.38	12.000
329.74	11.416
330.11	11.271
330.47	11.372
330.84	11.101
331.20	12.383
331.56	12.409
331.93	12.834
332.29	14.509
332.66	12.373
333.02	13.901
333.38	13.246
333.75	12.287
334.11	12.674
334.48	12.729
334.84	11.661
335.20	13.465
335.57	13.055
335.93	12.629
336.29	13.835
336.66	15.128
337.02	14.783
337.38	13.751
337.75	13.351
338.11	13.151
338.47	13.014
338.84	13.402
339.20	14.638
339.56	14.846
339.93	14.261
340.29	14.005
340.65	13.944
341.02	13.894
341.38	15.034
341.74	14.034
342.11	14.038
342.47	14.226
342.83	13.889
343.20	15.144
343.56	15.290
343.92	14.785
344.28	14.610
344.65	14.776
345.01	14.528
345.37	14.474
345.73	15.605
346.10	15.329
346.46	14.634
346.82	15.008
347.19	14.478
347.55	15.590
347.91	15.121
348.27	14.274
348.63	15.224
349.00	15.094
349.36	15.385
349.72	16.396
350.08	14.899
350.45	14.565
350.81	15.728
351.17	16.859
351.53	15.554
351.89	15.012
352.26	15.058
352.62	15.271
352.98	16.134
353.34	16.345
353.70	16.433
354.07	15.529
354.43	15.163
354.79	16.587
355.15	16.304
355.51	16.781
355.87	16.732
356.24	16.292
356.60	16.028
356.96	16.731
357.32	17.337
357.68	16.883
358.04	18.231
358.40	17.907
358.77	17.355
359.13	17.276
359.49	17.562
359.85	17.817
360.21	17.656
360.57	18.251
360.93	18.513
361.29	19.467
361.66	19.058
362.02	18.162
362.38	18.612
362.74	17.114
363.10	18.872
363.46	18.516
363.82	19.217
364.18	19.144
364.54	20.058
364.90	18.118
365.26	18.967
365.62	19.531
365.98	18.648
366.35	20.142
366.71	19.544
367.07	19.561
367.43	20.070
367.79	20.709
368.15	20.956
368.51	21.238
368.87	21.214
369.23	21.281
369.59	21.001
369.95	21.263
370.31	21.688
370.67	20.927
371.03	21.381
371.39	21.292
371.75	21.857
372.11	21.510
372.47	22.278
372.83	22.261
373.19	22.230
373.55	22.977
373.91	22.702
374.27	22.891
374.63	23.257
374.99	23.329
375.35	23.082
375.71	23.234
376.07	24.743
376.42	23.864
376.78	23.514
377.14	24.542
377.50	24.641
377.86	25.498
378.22	24.842
378.58	25.284
378.94	26.188
379.30	25.422
379.66	25.277
380.02	26.225
380.38	26.024
380.74	27.017
381.09	26.538
381.45	27.690
381.81	27.110
382.17	27.536
382.53	26.954
382.89	27.684
383.25	27.222
383.61	28.450
383.97	28.187
384.32	27.914
384.68	28.131
385.04	27.795
385.40	28.144
385.76	28.832
386.12	28.664
386.48	29.843
386.83	30.225
387.19	30.722
387.55	29.798
387.91	30.504
388.27	29.963
388.62	29.526
388.98	30.350
389.34	31.642
389.70	30.586
390.06	30.750
390.42	32.216
390.77	31.775
391.13	31.818
391.49	31.373
391.85	32.204
392.20	31.516
392.56	32.444
392.92	31.831
393.28	32.249
393.64	32.416
393.99	31.334
394.35	32.654
394.71	33.654
395.07	31.447
395.42	32.419
395.78	33.333
396.14	33.735
396.50	32.847
396.85	32.186
397.21	32.522
397.57	32.360
397.92	32.275
398.28	33.164
398.64	33.455
399.00	33.984
399.35	34.279
399.71	33.896
400.07	34.337
400.42	33.981
400.78	33.958
401.14	33.170
401.49	32.714
401.85	34.521
402.21	33.622
402.57	34.273
402.92	33.229
403.28	34.334
403.63	33.478
403.99	34.229
404.35	33.666
404.70	33.112
405.06	34.410
405.42	33.731
405.77	34.505
406.13	33.257
406.49	33.613
406.84	33.761
407.20	33.866
407.55	34.545
407.91	33.686
408.27	32.751
408.62	33.947
408.98	33.477
409.34	33.045
409.69	34.373
410.05	34.017
410.40	33.841
410.76	33.454
411.11	34.080
411.47	35.036
411.83	33.624
412.18	34.005
412.54	34.837
412.89	34.859
413.25	33.038
413.60	33.981
413.96	34.145
414.31	34.155
414.67	34.286
415.03	34.168
415.38	34.016
415.74	33.853
416.09	34.699
416.45	33.766
416.80	34.161
417.16	34.143
417.51	34.293
417.87	33.995
418.22	33.937
418.58	33.903
418.93	34.149
419.29	34.125
419.64	33.079
420.00	34.032
420.35	33.831
420.71	34.552
421.06	33.087
421.42	34.246
421.77	34.509
422.12	34.269
422.48	33.261
422.83	34.318
423.19	34.100
423.54	35.336
423.90	34.917
424.25	33.507
424.61	34.627
424.96	33.116
425.31	33.595
425.67	35.332
426.02	34.923
426.38	34.328
426.73	33.293
427.09	33.333
427.44	33.705
427.79	35.511
428.15	33.456
428.50	33.656
428.85	34.440
429.21	33.258
429.56	34.113
429.92	33.524
430.27	32.720
430.62	34.365
430.98	34.320
431.33	33.369
431.68	34.665
432.04	34.366
432.39	33.256
432.74	33.660
433.10	34.399
433.45	33.314
433.80	33.908
434.16	33.479
434.51	33.913
434.86	34.747
435.22	33.673
435.57	32.985
435.92	32.992
436.28	33.273
436.63	33.718
436.98	34.078
437.34	34.615
437.69	33.294
438.04	34.239
438.39	33.873
438.75	33.611
439.10	34.066
439.45	33.898
439.81	34.729
440.16	33.275
440.51	34.126
440.86	33.610
441.22	33.333
441.57	33.568
441.92	33.904
442.27	32.738
442.63	33.154
442.98	33.275
443.33	33.578
443.68	32.472
444.03	33.333
444.39	32.970
444.74	32.303
445.09	33.370
445.44	33.521
445.79	33.402
446.15	33.666
446.50	32.048
446.85	33.244
447.20	34.083
447.55	32.121
447.91	31.461
448.26	32.361
448.61	31.703
448.96	32.232
449.31	33.409
449.66	33.430
450.02	31.950
450.37	33.196
450.72	32.147
451.07	31.599
451.42	30.505
451.77	32.075
452.12	31.313
452.47	32.860
452.83	31.132
453.18	32.018
453.53	32.093
453.88	32.229
454.23	32.015
454.58	31.434
454.93	31.559
455.28	32.563
455.63	31.316
455.98	31.649
456.34	31.024
456.69	31.502
457.04	31.455
457.39	31.569
457.74	30.999
458.09	31.931
458.44	31.257
458.79	30.258
459.14	29.663
459.49	31.220
459.84	31.003
460.19	30.252
460.54	31.326
460.89	30.462
461.24	31.073
461.59	29.650
461.94	30.657
462.29	30.821
462.64	29.815
462.99	29.577
463.34	30.249
463.69	30.284
464.04	29.532
464.39	29.835
464.74	28.870
465.09	30.316
465.44	29.517
465.79	29.960
466.14	29.361
466.49	28.915
466.84	29.408
467.19	28.981
467.54	30.006
467.89	29.855
468.24	29.502
468.59	28.553
468.94	28.289
469.29	28.751
469.64	28.591
469.99	29.379
470.34	28.321
470.68	28.401
471.03	28.420
471.38	27.399
471.73	27.778
472.08	28.729
472.43	27.836
472.78	28.803
473.13	27.836
473.48	28.050
473.83	27.621
474.17	26.628
474.52	27.120
474.87	27.141
475.22	27.657
475.57	27.105
475.92	27.699
476.27	27.156
476.61	27.350
476.96	28.041
477.31	26.753
477.66	27.571
478.01	26.923
478.36	27.520
478.70	25.994
479.05	26.637
479.40	25.481
479.75	26.196
480.10	26.721
480.45	25.944
480.79	26.829
481.14	26.748
481.49	27.232
481.84	25.212
482.19	25.289
482.53	26.429
482.88	25.312
483.23	24.735
483.58	25.614
483.92	25.243
484.27	24.840
484.62	26.099
484.97	26.089
485.31	24.474
485.66	25.057
486.01	25.470
486.36	25.156
486.70	25.512
487.05	25.701
487.40	24.488
487.75	25.208
488.09	24.429
488.44	24.536
488.79	24.300
489.13	24.215
489.48	24.027
489.83	23.493
490.17	23.604
490.52	24.591
490.87	23.551
491.22	24.070
491.56	24.006
491.91	23.188
492.26	24.033
492.60	22.944
492.95	23.129
493.30	22.287
493.64	22.206
493.99	23.237
494.34	22.832
494.68	23.532
495.03	22.974
495.37	23.650
495.72	22.406
496.07	23.088
496.41	22.602
496.76	22.898
497.11	21.784
497.45	23.346
497.80	23.221
498.14	22.469
498.49	21.382
498.84	21.660
499.18	21.653
499.53	21.713
499.87	21.058
500.22	21.802
500.56	21.916
500.91	21.781
501.26	21.970
501.60	21.618
501.95	20.891
502.29	21.408
502.64	22.324
502.98	21.339
503.33	20.584
503.67	21.714
504.02	20.882
504.36	20.406
504.71	20.478
505.06	21.447
505.40	21.031
505.75	20.905
506.09	20.746
506.44	21.321
506.78	20.772
507.13	21.518
507.47	20.467
507.82	20.774
508.16	21.003
508.51	20.506
508.85	20.373
509.19	20.370
509.54	20.429
509.88	20.699
510.23	20.421
510.57	19.862
510.92	20.582
511.26	20.517
511.61	20.252
511.95	19.956
512.30	19.711
512.64	20.715
512.98	19.889
513.33	20.282
513.67	20.216
514.02	19.669
514.36	19.944
514.70	19.688
515.05	19.485
515.39	19.458
515.74	20.071
516.08	20.000
516.42	18.548
516.77	18.746
517.11	19.106
517.46	19.808
517.80	20.944
518.14	18.187
518.49	18.807
518.83	18.616
519.17	18.976
519.52	18.999
519.86	19.186
520.20	17.950
520.55	18.968
520.89	19.418
521.23	19.359
521.58	18.837
521.92	19.422
522.26	19.323
522.61	19.198
522.95	19.689
523.29	19.048
523.64	18.881
523.98	18.615
524.32	18.967
524.66	18.636
525.01	18.807
525.35	19.223
525.69	18.025
526.04	17.394
526.38	18.929
526.72	18.014
527.06	18.053
527.41	17.207
527.75	17.423
528.09	18.516
528.43	18.453
528.78	17.829
529.12	18.887
529.46	18.682
529.80	17.735
530.15	17.053
530.49	18.261
530.83	17.536
531.17	17.466
531.51	16.993
531.86	17.344
532.20	17.161
532.54	16.759
532.88	16.406
533.22	18.182
533.57	17.417
533.91	17.355
534.25	17.708
534.59	17.053
534.93	16.773
535.27	17.134
535.62	16.447
535.96	18.282
536.30	17.620
536.64	16.746
536.98	17.309
537.32	16.299
537.66	16.996
538.01	16.990
538.35	15.124
538.69	16.455
539.03	16.510
539.37	16.834
539.71	15.894
540.05	15.722
540.39	16.311
540.73	16.480
541.07	16.667
541.42	17.172
541.76	16.712
542.10	16.385
542.44	16.355
542.78	15.475
543.12	16.779
543.46	16.240
543.80	16.633
544.14	16.518
544.48	15.461
544.82	16.274
545.16	15.957
545.50	16.475
545.84	15.358
546.18	15.638
546.52	15.737
546.86	14.841
547.20	15.583
547.54	15.225
547.88	17.004
548.22	15.831
548.56	14.743
548.90	15.156
549.24	16.042
549.58	14.093
549.92	16.434
550.26	15.572
550.60	15.015
550.94	15.448
551.28	14.686
551.62	15.489
551.96	14.714
552.30	14.192
552.64	15.113
552.98	15.483
553.32	14.924
553.66	15.481
554.00	14.471
554.34	14.359
554.68	15.063
555.02	13.997
555.36	14.750
555.69	14.275
556.03	14.939
556.37	14.723
556.71	14.646
557.05	15.572
557.39	13.564
557.73	14.145
558.07	13.564
558.41	14.459
558.75	14.473
559.08	12.911
559.42	14.005
559.76	13.685
560.10	14.450
560.44	15.770
560.78	13.597
561.12	14.506
561.45	15.170
561.79	14.443
562.13	14.838
562.47	14.143
562.81	13.492
563.15	14.164
563.48	13.765
563.82	13.953
564.16	14.150
564.50	14.247
564.84	13.716
565.17	14.371
565.51	14.372
565.85	13.924
566.19	13.245
566.52	14.155
566.86	13.274
567.20	13.928
567.54	13.644
567.88	13.326
568.21	13.417
568.55	14.345
568.89	12.812
569.23	13.657
569.56	14.018
569.90	13.535
570.24	13.069
570.57	13.784
570.91	13.515
571.25	13.854
571.59	13.710
571.92	13.787
572.26	13.692
572.60	13.551
572.93	13.496
573.27	13.210
573.61	13.763
573.95	13.300
574.28	13.689
574.62	13.305
574.96	13.681
575.29	13.365
575.63	13.093
575.97	14.158
576.30	13.161
576.64	13.204
576.98	13.724
577.31	13.635
577.65	13.674
577.98	13.346
578.32	13.629
578.66	13.387
578.99	13.732
579.33	13.368
579.67	13.366
580.00	12.969
580.34	13.282
580.67	13.547
581.01	13.130
581.35	13.150
581.68	13.004
582.02	13.333
582.35	13.267
582.69	13.353
583.02	13.077
583.36	13.168
583.70	13.087
584.03	12.861
584.37	13.060
584.70	12.703
585.04	13.146
585.37	12.612
585.71	13.266
586.04	12.807
586.38	12.655
586.72	12.897
587.05	13.085
587.39	12.870
587.72	12.420
588.06	13.160
588.39	13.182
588.73	12.425
589.06	12.803
589.40	12.900
589.73	12.504
590.07	13.197
590.40	12.722
590.73	12.844
591.07	12.913
591.40	12.391
591.74	12.094
592.07	12.597
592.41	12.784
592.74	12.693
593.08	12.615
593.41	12.717
593.75	12.371
594.08	12.815
594.41	12.541
594.75	12.744
595.08	12.584
595.42	11.847
595.75	12.111
596.09	12.664
596.42	12.541
596.75	12.111
597.09	12.875
597.42	12.293
597.75	12.178
598.09	12.204
598.42	12.573
598.76	11.839
599.09	12.525
599.42	12.236
599.76	12.092
600.09	12.236
600.42	11.714
600.76	11.899
601.09	12.166
601.42	12.505
601.76	12.239
602.09	12.039
602.42	12.423
602.76	11.493
603.09	12.156
603.42	12.155
603.76	11.808
604.09	11.739
604.42	11.553
604.76	12.003
605.09	12.778
605.42	12.371
605.75	11.563
606.09	11.548
606.42	11.845
606.75	11.212
607.09	11.613
607.42	11.778
607.75	10.547
608.08	12.218
608.42	11.903
608.75	12.088
609.08	11.514
609.41	11.724
609.75	11.447
610.08	11.834
610.41	11.808
610.74	11.550
611.07	12.174
611.41	12.180
611.74	12.267
612.07	11.256
612.40	11.784
612.73	11.196
613.07	11.475
613.40	11.674
613.73	12.189
614.06	11.166
614.39	10.728
614.72	11.993
615.06	11.444
615.39	11.534
615.72	10.799
616.05	11.092
616.38	11.283
616.71	10.678
617.05	11.179
617.38	11.953
617.71	10.539
618.04	11.274
618.37	10.978
618.70	11.255
619.03	10.722
619.36	11.174
619.69	10.965
620.03	11.237
620.36	10.926
620.69	10.564
621.02	10.769
621.35	10.957
621.68	10.350
622.01	10.841
622.34	10.706
622.67	11.668
623.00	11.398
623.33	10.770
623.66	9.963
623.99	11.478
624.32	10.638
624.65	9.792
624.99	11.168
625.32	11.352
625.65	11.008
625.98	10.742
626.31	9.959
626.64	11.264
626.97	10.813
627.30	11.377
627.63	10.208
627.96	9.610
628.29	11.349
628.62	11.992
628.95	10.621
629.28	9.557
629.61	10.622
629.94	10.155
630.26	10.542
630.59	11.489
630.92	9.538
631.25	10.299
631.58	11.028
631.91	9.438
632.24	9.440
632.57	11.111
632.90	9.918
633.23	8.753
633.56	10.671
633.89	10.885
634.22	11.896
634.55	10.719
634.88	10.539
635.20	10.250
635.53	9.948
635.86	8.974
636.19	9.305
636.52	8.293
636.85	9.771
637.18	8.039
637.51	8.864
637.83	11.097
638.16	9.600
638.49	8.411
638.82	9.804
639.15	11.569
639.48	10.294
639.81	10.556
640.13	9.718
640.46	11.582
640.79	9.065
641.12	7.840
641.45	10.335
641.77	8.100
642.10	10.741
642.43	10.220
642.76	9.148
643.09	9.585
643.41	9.410
643.74	10.501
644.07	9.385
644.40	9.619
644.73	7.797
645.05	7.679
645.38	8.804
645.71	9.864
646.04	8.586
646.36	9.375
646.69	9.091
647.02	9.654
647.35	10.603
647.67	9.242
648.00	7.428
648.33	10.847
648.66	6.845
648.98	9.472
649.31	8.896
649.64	8.138
649.96	8.057
650.29	8.170
650.62	9.061
650.94	8.793
651.27	9.011
651.60	9.091
651.92	8.602
652.25	9.380
652.58	11.551
652.90	9.259
653.23	8.489
653.56	8.926
653.88	7.167
654.21	7.679
654.54	9.468
654.86	7.317
655.19	8.543
655.52	10.703
655.84	10.283
656.17	11.917
656.49	16.302
656.82	16.026
657.15	12.105
657.47	9.086
657.80	6.763
658.13	7.201
658.45	10.498
658.78	10.308
659.10	10.153
659.43	9.815
659.75	9.829
660.08	8.759
660.41	8.621
660.73	10.055
661.06	9.694
661.38	6.202
661.71	8.402
662.03	8.879
662.36	7.743
662.68	10.108
663.01	9.958
663.33	7.775
663.66	7.095
663.98	9.663
664.31	7.253
664.63	5.856
664.96	10.284
665.28	10.086
665.61	6.048
665.93	9.636
666.26	10.759
666.58	7.066
666.91	8.520
667.23	5.991
667.56	8.966
667.88	7.710
668.21	9.152
668.53	6.437
668.86	10.072
669.18	6.856
669.50	8.295
669.83	9.069
670.15	5.714
670.48	9.425
670.80	11.597
671.13	8.009
671.45	8.219
671.77	8.405
672.10	9.552
672.42	8.588
672.75	7.143
673.07	6.545
673.39	8.209
673.72	8.982
674.04	8.811
674.37	8.943
674.69	7.407
675.01	8.120
675.34	9.628
675.66	12.418
675.98	8.186
676.31	7.466
676.63	9.524
676.95	6.353
677.28	5.505
677.60	5.147
677.92	8.426
678.25	9.761
678.57	9.572
678.89	7.676
679.22	5.797
679.54	9.184
679.86	7.422
680.18	8.462
680.51	6.154
680.83	6.433
681.15	8.448
681.48	6.012
681.80	6.544
682.12	6.667
682.44	8.048
682.77	4.211
683.09	6.027
683.41	6.512
683.73	4.911
684.06	9.071
684.38	6.410
684.70	7.332
685.02	8.264
685.34	8.219
685.67	8.818
685.99	7.651
686.31	9.655
686.63	8.456
686.96	11.317
687.28	6.986
687.60	11.153
687.92	7.782
688.24	7.000
688.56	8.114
688.89	5.345
689.21	9.641
689.53	6.081
689.85	8.764
690.17	7.692
690.49	4.831
690.82	4.773
691.14	7.246
691.46	9.049
691.78	8.132
692.10	8.280
692.42	5.055
692.74	9.783
693.06	5.618
693.39	8.431
693.71	7.778
694.03	8.864
694.35	8.333
694.67	8.000
694.99	8.247
695.31	6.977
695.63	7.317
695.95	8.906
696.27	3.014
696.59	6.452
696.91	4.749
697.23	6.853
697.56	7.914
697.88	7.900
698.20	8.207
698.52	3.738
698.84	7.895
699.16	5.437
699.48	8.395
699.80	8.010
700.12	5.630
700.44	4.789
700.76	5.618
701.08	5.740
701.40	7.485
701.72	9.231
702.04	4.717
702.36	7.927
702.68	4.878
703.00	7.602
703.32	6.964
703.64	5.422
703.96	8.504
704.28	6.928
704.60	6.707
704.91	4.075
705.23	4.430
705.55	6.552
705.87	4.930
706.19	4.762
706.51	5.282
706.83	4.459
707.15	8.537
707.47	9.091
707.79	6.345
708.11	4.884
708.43	8.883
708.74	5.851
709.06	6.150
709.38	6.916
709.70	10.811
710.02	9.346
710.34	6.333
710.66	8.795
710.98	7.430
711.29	4.221
711.61	5.484
711.93	3.548
712.25	5.944
712.57	1.404
712.89	5.128
713.20	9.220
713.52	6.569
713.84	6.129
714.16	5.178
714.48	4.747
714.80	2.236
715.11	7.849
715.43	4.348
715.75	8.385
716.07	8.735
716.39	6.061
716.70	8.633
717.02	7.059
717.34	5.682
717.66	-0.431
717.97	2.778
718.29	9.449
718.61	5.150
718.93	6.977
719.24	7.011
719.56	5.993
719.88	5.224
720.20	2.767
720.51	4.297
720.83	8.171
721.15	-0.407
721.46	2.672
721.78	3.586
722.10	0.797
722.42	2.823
722.73	6.950
723.05	2.857
723.37	7.563
723.68	2.800
724.00	3.404
724.32	9.205
724.63	7.407
724.95	3.419
725.27	4.641
725.58	6.996
725.90	2.092
726.22	4.710
726.53	-2.353
726.85	9.854
727.16	6.296
727.48	10.345
727.80	10.938
728.11	6.967
728.43	6.641
728.74	4.365
729.06	0.800
729.38	7.115
729.69	7.473
730.01	3.717
730.32	5.535
730.64	1.136
730.96	8.741
731.27	6.689
731.59	6.349
731.90	5.178
732.22	4.487
732.53	2.365
732.85	6.376
733.16	7.591
733.48	4.730
733.80	6.081
734.11	9.122
734.43	6.811
734.74	7.508
735.06	7.493
735.37	5.775
735.69	7.443
736.00	5.941
736.32	6.383
736.63	5.172
736.95	3.767
737.26	2.414
737.58	5.556
737.89	4.124
738.21	3.915
738.52	3.422
738.83	8.163
739.15	5.063
739.46	4.669
739.78	2.465
740.09	3.425
740.41	1.071
740.72	8.511
741.04	2.800
741.35	2.632
741.66	6.667
741.98	6.731
742.29	8.911
742.61	3.415
742.92	7.456
743.23	1.887
743.55	5.405
743.86	1.794
744.18	10.294
744.49	7.614
744.80	3.061
745.12	3.738
745.43	3.791
745.74	4.054
746.06	0.467
746.37	5.505
746.68	-0.481
747.00	0.957
747.31	8.654
747.62	4.128
747.94	8.297
748.25	3.211
748.56	8.000
748.88	7.042
749.19	6.190
749.50	-0.971
749.82	-1.878
750.13	-0.417
750.44	5.769
750.75	2.214
751.07	11.032
751.38	8.865
751.69	4.633
752.01	7.422
752.32	6.154
752.63	2.612
752.94	6.000
753.26	3.347
753.57	2.917
753.88	7.287
754.19	3.984
754.51	4.511
754.82	5.128
755.13	-1.304
755.44	5.691
755.75	3.200
756.07	6.273
756.38	5.755
756.69	6.485
757.00	7.788
757.31	5.825
757.63	0.309
757.94	7.062
758.25	9.524
758.56	4.076
758.87	6.250
759.18	7.886
759.50	5.387
759.81	7.023
760.12	7.385
760.43	4.167
760.74	3.390
761.05	6.630
761.36	4.011
761.67	4.532
761.99	1.718
762.30	5.474
762.61	3.704
762.92	5.128
763.23	9.016
763.54	3.896
763.85	5.714
764.16	5.691
764.47	4.800
764.78	3.571
765.10	5.902
765.41	6.079
765.72	5.901
766.03	6.601
766.34	6.154
766.65	4.603
766.96	1.878
767.27	5.446
767.58	1.124
767.89	-4.938
768.20	-3.867
768.51	3.015
768.82	8.173
769.13	6.195
769.44	3.347
769.75	-1.282
770.06	4.484
770.37	3.431
770.68	8.252
770.99	0.971
771.30	6.303
771.61	2.857
771.92	9.129
772.23	4.955
772.54	1.105
772.85	1.163
773.16	6.878
773.47	-2.367
773.78	6.897
774.09	-3.125
774.39	5.590
774.70	4.762
775.01	-4.138
775.32	0.000
775.63	2.256
775.94	-4.511
776.25	-3.200
776.56	5.785
776.87	7.937
777.18	-5.405
777.48	-2.703
777.79	3.937
778.10	1.835
778.41	-6.140
778.72	0.840
779.03	-5.634
779.34	2.703
779.65	-0.704
779.95	2.649
780.26	-1.439
780.57	3.597
780.88	-3.521
781.19	-6.723
781.50	3.356
781.80	1.170
782.11	-2.907
782.42	6.289
782.73	6.536
783.04	-0.690
783.34	-5.344
783.65	1.342
783.96	-5.385
784.27	2.857
784.57	3.546
784.88	-17.308
785.19	7.273
785.50	-0.909
785.81	0.000
786.11	-9.244
786.42	-2.655
786.73	-9.434
787.04	-9.174
787.34	0.000
787.65	3.333
787.96	-3.306
788.26	7.971
788.57	0.000
788.88	4.878
789.19	-4.800
789.49	-5.344
789.80	10.606
790.11	0.000
790.41	0.990
790.72	10.638
791.03	-10.870
791.33	-9.412
791.64	-4.938
791.95	-11.957
792.25	-6.818
792.56	-7.692
792.87	-10.256
793.17	-8.974
793.48	-14.286
793.79	-11.250
794.09	7.692
794.40	-2.083
794.70	0.901
795.01	3.125
795.32	8.696
795.62	-8.696
795.93	-3.774
796.23	8.081
796.54	-1.220
796.85	-7.143
797.15	-19.697
797.46	-7.246
797.76	0.000
798.07	2.273
798.37	0.000
798.68	-17.742
798.99	-18.919
799.29	1.205
799.60	-1.282
799.90	0.000
800.21	-12.121
800.51	-1.333
800.82	2.667
801.12	-27.083
801.43	-26.667
801.73	-8.108
802.04	-4.286
802.34	-6.557
802.65	-7.463
802.95	-18.182
803.26	-22.414
803.56	3.077
803.87	-20.755
804.17	-4.839
804.48	-13.235
804.78	-36.585
805.09	-4.348
805.39	4.412
805.70	-29.787
806.00	-19.298
806.30	10.256
806.61	-2.632
806.91	-16.216
807.22	-7.895
807.52	1.136
807.83	-16.949
808.13	-21.212
808.43	-18.333
808.74	-37.931
809.04	-22.222
809.35	-38.776
809.65	-18.333
809.95	-28.571
810.26	12.676
810.56	-27.083
810.86	-26.531
811.17	-11.538
811.47	-19.149
811.77	-16.667
812.08	-9.434
812.38	-12.500
812.69	0.000
812.99	-14.634
813.29	-37.838
813.59	-54.054
813.90	-21.818
814.20	-20.000
814.50	-10.000
814.81	16.364
815.11	-3.509
815.41	13.953
815.72	-20.000
816.02	-22.857
816.32	-32.432
816.62	-14.583
816.93	2.222
817.23	-13.333
817.53	-52.778
817.84	-32.432
818.14	-9.756
818.44	-4.000
818.74	-18.367
819.04	-17.073
819.35	0.000
819.65	0.000
819.95	-144.444
820.25	-30.303
820.56	-14.286
820.86	-41.667
821.16	-31.818
821.46	-19.565
821.76	-12.069
822.07	-13.043
822.37	-12.121
822.67	0.000
822.97	-10.811
823.27	-25.714
823.57	31.034
823.88	-17.647
824.18	-27.778
824.48	-31.429
824.78	-19.048
825.08	-32.143
825.38	-55.556
825.69	-41.935
825.99	-29.268
826.29	-44.444
826.59	-6.250
826.89	-12.903
827.19	-69.565
827.49	-44.444
827.79	-121.739
828.09	0.000
828.39	-14.583
828.70	-53.125
829.00	-27.586
829.30	0.000
829.60	-91.667
829.90	-33.333
830.20	-25.000
830.50	-50.000
830.80	-170.588
831.10	-81.818
831.40	-47.059
831.70	-15.385
832.00	-30.303
832.30	-26.471
832.60	-16.216
832.90	500.000
833.20	-10.714
833.50	-75.000
833.80	-21.053
834.10	-62.500
834.40	-50.000
834.70	-113.333
835.00	-60.000
835.30	-75.000
835.60	-52.381
835.90	-57.143
836.20	-28.000
836.50	-58.333
836.80	-57.895
837.10	-8.108
837.40	10.000
837.70	-52.174
838.00	-25.000
838.30	-52.632
838.60	-110.000
838.90	-160.000
839.19	-133.333
839.49	-76.923
839.79	-5.263
840.09	-300.000
840.39	-100.000
840.69	-36.364
840.99	-57.143
841.29	-12.500
841.59	-61.538
841.88	-113.333
842.18	-85.714
842.48	-3.333
842.78	-128.571
843.08	-21.429
843.38	-112.500
843.68	-37.500
843.97	-14.286
844.27	-266.667
844.57	-172.727
844.87	-86.667
845.17	-27.273
845.47	1133.333
845.76	-60.000
846.06	-91.667
846.36	-850.000
846.66	-57.895
846.96	-50.000
847.25	-111.111
847.55	-222.222
847.85	-66.667
848.15	-38.462
848.44	-366.667
848.74	-141.667
849.04	-130.769
849.34	-400.000
849.63	-145.455
849.93	-107.143
850.23	-40.000
850.53	-262.500
850.82	-5.556
851.12	0.000
851.42	-23.529
851.71	-125.000
852.01	-47.059
852.31	-84.615
852.61	600.000
852.90	0.000
853.20	-66.667
853.50	-43.750
853.79	-150.000
854.09	-250.000
854.39	-90.000
854.68	-20.000
854.98	-23.810
855.28	-24.000
855.57	-4.167
855.87	-25.000
856.17	-76.000
856.46	9.375
856.76	-25.000
857.05	-32.000
857.35	-175.000
857.65	-35.294
857.94	-166.667
858.24	-108.333
858.53	-15.000
858.83	-145.455
859.13	-8.000
859.42	-28.571
859.72	-175.000
860.01	-29.167
860.31	-112.500
860.60	-37.500
860.90	-216.667
861.20	-116.667
861.49	-26.667
861.79	-87.500
862.08	500.000
862.38	-191.667
862.67	257.143
862.97	350.000
863.26	-81.818
863.56	-63.636
863.85	21.053
864.15	0.000
864.44	-360.000
864.74	-130.000
865.03	-122.222
865.33	-57.143
865.62	200.000
865.92	-10.526
866.21	-50.000
866.51	-27.273
866.80	-33.333
867.10	-137.500
867.39	-62.500
867.69	-100.000
867.98	-90.000
868.27	23.529
868.57	0.000
868.86	850.000
869.16	-375.000
869.45	-142.857
869.75	300.000
870.04	-50.000
870.33	-1400.000
870.63	-47.368
870.92	-125.000
871.22	-1000.000
871.51	-128.571
871.80	-155.556
872.10	-350.000
>>>>>End Processed Spectral Data<<<<<
