SpectraSuite Data File
++++++++++++++++++++++++++++++++++++
Date: Wed May 13 21:24:30 PDT 2015
User: schluterlab
Dark Spectrum Present: Yes
Reference Spectrum Present: Yes
Number of Sampled Component Spectra: 1
Spectrometers: USB2E3373
Integration Time (usec): 3000 (USB2E3373)
Spectra Averaged: 3 (USB2E3373)
Boxcar Smoothing: 0 (USB2E3373)
Correct for Electrical Dark: No (USB2E3373)
Strobe/Lamp Enabled: No (USB2E3373)
Correct for Detector Non-linearity: No (USB2E3373)
Correct for Stray Light: No (USB2E3373)
Number of Pixels in Processed Spectrum: 2048
>>>>>Begin Processed Spectral Data<<<<<
178.53	0.000
178.91	450.000
179.29	183.333
179.67	-500.000
180.04	-266.667
180.42	180.000
180.80	1400.000
181.18	250.000
181.56	-550.000
181.94	-175.000
182.31	-27.273
182.69	138.462
183.07	-200.000
183.45	150.000
183.83	133.333
184.20	271.429
184.58	66.667
184.96	300.000
185.34	100.000
185.72	0.000
186.09	-800.000
186.47	-280.000
186.85	240.000
187.23	-500.000
187.61	300.000
187.98	400.000
188.36	-12.500
188.74	0.000
189.12	-63.636
189.49	20.000
189.87	75.000
190.25	360.000
190.63	700.000
191.00	-120.000
191.38	260.000
191.76	325.000
192.14	200.000
192.51	-36.842
192.89	700.000
193.27	325.000
193.65	-500.000
194.02	181.818
194.40	110.000
194.78	-500.000
195.15	100.000
195.53	-300.000
195.91	-12.500
196.29	-333.333
196.66	0.000
197.04	800.000
197.42	-80.000
197.79	40.000
198.17	-237.500
198.55	-233.333
198.92	125.000
199.30	-533.333
199.68	-80.000
200.05	550.000
200.43	200.000
200.81	-600.000
201.18	-160.000
201.56	-200.000
201.94	475.000
202.31	4.348
202.69	-128.571
203.07	-333.333
203.44	-260.000
203.82	-266.667
204.19	-30.000
204.57	0.000
204.95	-166.667
205.32	0.000
205.70	-250.000
206.08	-350.000
206.45	0.000
206.83	350.000
207.20	-533.333
207.58	-40.000
207.96	-800.000
208.33	-300.000
208.71	-1800.000
209.08	262.500
209.46	500.000
209.84	0.000
210.21	110.000
210.59	1600.000
210.96	280.000
211.34	900.000
211.71	-300.000
212.09	-183.333
212.46	-110.000
212.84	200.000
213.22	50.000
213.59	-1400.000
213.97	-250.000
214.34	-550.000
214.72	-69.231
215.09	225.000
215.47	144.444
215.84	750.000
216.22	-212.500
216.59	-450.000
216.97	633.333
217.34	133.333
217.72	0.000
218.09	400.000
218.47	800.000
218.84	-214.286
219.22	-112.500
219.59	-166.667
219.97	-300.000
220.34	-62.500
220.72	-240.000
221.09	0.000
221.47	-100.000
221.84	-800.000
222.22	0.000
222.59	100.000
222.97	-266.667
223.34	-75.000
223.72	-1500.000
224.09	-600.000
224.46	-54.545
224.84	62.500
225.21	-42.857
225.59	-225.000
225.96	0.000
226.34	10.000
226.71	-200.000
227.08	800.000
227.46	-237.500
227.83	-700.000
228.21	-43.750
228.58	-375.000
228.95	17.647
229.33	-43.750
229.70	-25.000
230.08	-23.077
230.45	-225.000
230.82	-125.000
231.20	200.000
231.57	-475.000
231.95	1500.000
232.32	41.667
232.69	-5.882
233.07	-800.000
233.44	4.348
233.81	-1050.000
234.19	16.667
234.56	-53.333
234.93	-20.000
235.31	-10.526
235.68	-7.692
236.05	61.538
236.43	33.333
236.80	-9.091
237.17	-20.000
237.55	-41.176
237.92	-37.931
238.29	-37.037
238.67	25.000
239.04	-32.258
239.41	8.511
239.79	27.660
240.16	41.860
240.53	37.500
240.91	35.714
241.28	39.286
241.65	40.323
242.02	40.789
242.40	43.478
242.77	24.638
243.14	21.795
243.51	31.915
243.89	37.500
244.26	42.453
244.63	39.423
245.00	44.792
245.38	31.933
245.75	38.525
246.12	51.880
246.49	28.455
246.87	29.412
247.24	53.378
247.61	39.073
247.98	49.359
248.36	39.053
248.73	39.326
249.10	37.879
249.47	46.774
249.84	47.895
250.22	41.791
250.59	39.252
250.96	41.364
251.33	42.105
251.70	46.025
252.08	45.607
252.45	44.033
252.82	46.768
253.19	43.969
253.56	48.561
253.94	44.840
254.31	43.662
254.68	40.940
255.05	44.224
255.42	47.203
255.79	45.399
256.16	46.057
256.54	47.302
256.91	42.089
257.28	46.226
257.65	42.675
258.02	44.575
258.39	45.322
258.76	42.151
259.14	49.432
259.51	42.416
259.88	44.173
260.25	43.056
260.62	44.101
260.99	47.215
261.36	43.005
261.73	44.444
262.10	46.565
262.47	44.938
262.85	45.522
263.22	46.410
263.59	46.494
263.96	44.769
264.33	45.913
264.70	43.721
265.07	44.907
265.44	47.126
265.81	43.478
266.18	47.153
266.55	46.288
266.92	48.093
267.29	45.885
267.66	46.285
268.03	45.473
268.40	43.008
268.77	45.455
269.14	46.531
269.51	46.612
269.88	43.992
270.25	45.551
270.62	43.238
270.99	44.882
271.36	46.627
271.73	45.783
272.10	44.381
272.47	45.489
272.84	46.850
273.21	43.640
273.58	47.541
273.95	45.849
274.32	42.724
274.69	42.987
275.06	45.053
275.43	44.444
275.80	45.745
276.17	44.015
276.54	43.339
276.91	44.251
277.28	44.765
277.65	47.203
278.02	44.464
278.39	42.451
278.76	43.980
279.13	45.111
279.50	42.931
279.87	43.116
280.23	47.928
280.60	45.675
280.97	40.747
281.34	46.057
281.71	42.602
282.08	44.274
282.45	44.918
282.82	43.291
283.19	44.665
283.56	44.688
283.92	42.355
284.29	43.994
284.66	42.010
285.03	42.345
285.40	44.260
285.77	42.342
286.14	43.313
286.51	43.778
286.87	42.154
287.24	41.150
287.61	41.566
287.98	42.941
288.35	42.325
288.72	41.750
289.08	39.886
289.45	40.382
289.82	40.998
290.19	40.533
290.56	38.920
290.93	36.878
291.29	37.346
291.66	38.251
292.03	39.782
292.40	38.627
292.77	37.751
293.13	38.215
293.50	36.209
293.87	38.267
294.24	36.640
294.60	36.671
294.97	35.847
295.34	34.037
295.71	35.742
296.08	35.340
296.44	35.332
296.81	35.079
297.18	35.625
297.55	34.552
297.91	36.770
298.28	35.593
298.65	35.345
299.02	34.188
299.38	34.724
299.75	35.216
300.12	33.023
300.48	34.269
300.85	34.065
301.22	33.449
301.59	33.333
301.95	33.449
302.32	31.622
302.69	32.881
303.05	31.894
303.42	32.841
303.79	32.492
304.15	33.735
304.52	34.731
304.89	32.669
305.25	31.504
305.62	31.128
305.99	32.427
306.35	33.020
306.72	32.248
307.09	32.534
307.45	32.162
307.82	31.474
308.19	31.661
308.55	31.116
308.92	31.827
309.29	30.230
309.65	30.669
310.02	31.113
310.38	30.793
310.75	30.868
311.12	31.778
311.48	30.959
311.85	31.299
312.22	30.948
312.58	29.565
312.95	29.254
313.31	32.599
313.68	30.534
314.05	30.624
314.41	31.892
314.78	32.068
315.14	29.907
315.51	30.447
315.87	30.677
316.24	30.946
316.61	30.685
316.97	31.111
317.34	29.412
317.70	29.349
318.07	30.612
318.43	30.172
318.80	30.628
319.16	30.504
319.53	31.631
319.89	29.901
320.26	30.129
320.62	30.120
320.99	30.039
321.35	29.373
321.72	29.548
322.08	30.351
322.45	31.267
322.81	30.222
323.18	27.639
323.54	30.235
323.91	29.539
324.27	29.253
324.64	29.530
325.00	29.746
325.37	30.205
325.73	29.209
326.10	30.530
326.46	30.518
326.83	30.016
327.19	28.943
327.56	30.218
327.92	30.088
328.29	30.050
328.65	30.675
329.01	28.936
329.38	30.174
329.74	29.356
330.11	30.748
330.47	29.080
330.84	28.791
331.20	29.889
331.56	29.710
331.93	30.663
332.29	30.235
332.66	29.661
333.02	30.669
333.38	30.439
333.75	29.778
334.11	29.514
334.48	29.643
334.84	29.417
335.20	28.559
335.57	28.547
335.93	28.780
336.29	28.897
336.66	29.402
337.02	29.739
337.38	29.591
337.75	29.630
338.11	28.352
338.47	27.654
338.84	29.381
339.20	29.894
339.56	29.010
339.93	28.608
340.29	28.693
340.65	28.571
341.02	29.201
341.38	28.463
341.74	27.731
342.11	27.746
342.47	28.703
342.83	28.350
343.20	28.680
343.56	28.863
343.92	28.757
344.28	28.815
344.65	28.898
345.01	27.845
345.37	29.112
345.73	29.330
346.10	28.250
346.46	29.512
346.82	26.003
347.19	27.453
347.55	29.160
347.91	29.540
348.27	28.312
348.63	27.083
349.00	28.931
349.36	28.336
349.72	28.074
350.08	28.705
350.45	28.348
350.81	28.169
351.17	28.253
351.53	27.651
351.89	27.959
352.26	27.413
352.62	27.364
352.98	27.716
353.34	26.973
353.70	26.947
354.07	27.922
354.43	27.916
354.79	27.885
355.15	26.786
355.51	25.968
355.87	27.365
356.24	28.571
356.60	27.443
356.96	27.552
357.32	27.554
357.68	26.738
358.04	26.532
358.40	26.667
358.77	27.676
359.13	26.226
359.49	26.722
359.85	27.369
360.21	26.831
360.57	27.605
360.93	26.859
361.29	27.609
361.66	27.107
362.02	26.019
362.38	26.514
362.74	26.033
363.10	26.681
363.46	26.153
363.82	27.199
364.18	25.526
364.54	26.623
364.90	26.969
365.26	25.690
365.62	27.344
365.98	25.979
366.35	26.667
366.71	26.248
367.07	25.868
367.43	26.620
367.79	27.102
368.15	26.653
368.51	26.090
368.87	26.448
369.23	26.263
369.59	26.568
369.95	26.197
370.31	26.151
370.67	25.778
371.03	27.468
371.39	26.615
371.75	25.357
372.11	26.140
372.47	26.604
372.83	25.728
373.19	26.978
373.55	26.590
373.91	25.743
374.27	24.965
374.63	25.889
374.99	26.045
375.35	25.753
375.71	24.321
376.07	26.045
376.42	25.668
376.78	25.694
377.14	26.034
377.50	26.271
377.86	25.631
378.22	24.399
378.58	25.851
378.94	26.562
379.30	26.858
379.66	26.017
380.02	25.123
380.38	25.964
380.74	26.718
381.09	25.754
381.45	26.481
381.81	25.262
382.17	25.205
382.53	25.415
382.89	26.055
383.25	25.000
383.61	26.211
383.97	24.750
384.32	26.024
384.68	25.910
385.04	24.557
385.40	25.342
385.76	25.730
386.12	25.500
386.48	24.828
386.83	25.344
387.19	25.540
387.55	25.935
387.91	26.753
388.27	25.216
388.62	25.343
388.98	25.782
389.34	26.003
389.70	24.664
390.06	25.312
390.42	25.515
390.77	24.856
391.13	25.253
391.49	24.478
391.85	25.112
392.20	25.376
392.56	25.079
392.92	24.927
393.28	24.463
393.64	25.994
393.99	24.480
394.35	25.247
394.71	25.000
395.07	25.031
395.42	25.716
395.78	24.903
396.14	25.238
396.50	25.048
396.85	25.175
397.21	25.218
397.57	24.286
397.92	24.491
398.28	24.760
398.64	25.683
399.00	25.558
399.35	26.107
399.71	25.393
400.07	24.157
400.42	24.890
400.78	24.169
401.14	23.973
401.49	25.165
401.85	25.430
402.21	25.201
402.57	25.383
402.92	25.657
403.28	25.391
403.63	25.108
403.99	24.632
404.35	24.688
404.70	25.498
405.06	25.543
405.42	25.251
405.77	24.827
406.13	24.457
406.49	23.847
406.84	25.031
407.20	24.808
407.55	24.156
407.91	25.215
408.27	24.454
408.62	24.985
408.98	24.723
409.34	25.248
409.69	25.081
410.05	24.689
410.40	24.833
410.76	24.248
411.11	25.622
411.47	24.818
411.83	24.454
412.18	24.622
412.54	25.564
412.89	24.201
413.25	23.540
413.60	24.514
413.96	24.719
414.31	24.168
414.67	24.889
415.03	24.493
415.38	23.910
415.74	23.587
416.09	25.248
416.45	24.470
416.80	25.034
417.16	24.494
417.51	24.715
417.87	24.405
418.22	24.758
418.58	23.982
418.93	24.482
419.29	24.752
419.64	24.427
420.00	24.635
420.35	23.909
420.71	22.669
421.06	23.924
421.42	24.574
421.77	24.451
422.12	24.814
422.48	24.427
422.83	24.749
423.19	25.474
423.54	24.617
423.90	24.584
424.25	24.783
424.61	24.646
424.96	24.542
425.31	24.117
425.67	23.516
426.02	24.912
426.38	24.129
426.73	24.435
427.09	24.078
427.44	24.721
427.79	23.694
428.15	24.709
428.50	24.471
428.85	23.801
429.21	24.311
429.56	24.548
429.92	24.571
430.27	25.613
430.62	25.131
430.98	25.066
431.33	25.094
431.68	25.133
432.04	24.789
432.39	24.249
432.74	24.157
433.10	23.998
433.45	22.959
433.80	24.310
434.16	24.631
434.51	24.185
434.86	24.676
435.22	23.769
435.57	23.403
435.92	23.703
436.28	22.943
436.63	23.730
436.98	24.501
437.34	23.932
437.69	24.321
438.04	22.977
438.39	25.156
438.75	23.778
439.10	24.291
439.45	24.031
439.81	23.584
440.16	25.275
440.51	24.792
440.86	24.363
441.22	24.096
441.57	23.753
441.92	24.209
442.27	23.647
442.63	23.412
442.98	23.843
443.33	23.646
443.68	23.985
444.03	23.597
444.39	24.294
444.74	23.965
445.09	23.954
445.44	24.282
445.79	24.368
446.15	24.126
446.50	25.496
446.85	24.212
447.20	25.353
447.55	24.063
447.91	23.989
448.26	23.671
448.61	23.763
448.96	24.032
449.31	22.844
449.66	24.291
450.02	24.218
450.37	23.796
450.72	23.536
451.07	23.574
451.42	23.269
451.77	24.163
452.12	23.292
452.47	24.338
452.83	23.290
453.18	24.316
453.53	22.762
453.88	23.675
454.23	23.486
454.58	23.468
454.93	23.605
455.28	24.342
455.63	22.645
455.98	23.615
456.34	22.950
456.69	24.665
457.04	23.406
457.39	23.391
457.74	23.160
458.09	23.282
458.44	23.913
458.79	23.504
459.14	23.146
459.49	23.476
459.84	22.943
460.19	22.929
460.54	22.993
460.89	23.818
461.24	23.551
461.59	23.611
461.94	23.515
462.29	22.549
462.64	22.955
462.99	23.005
463.34	23.481
463.69	23.840
464.04	23.770
464.39	24.527
464.74	23.526
465.09	23.435
465.44	23.064
465.79	24.037
466.14	23.888
466.49	24.223
466.84	22.654
467.19	22.994
467.54	23.202
467.89	23.947
468.24	23.294
468.59	23.391
468.94	23.244
469.29	23.463
469.64	23.291
469.99	23.517
470.34	21.982
470.68	20.892
471.03	22.638
471.38	22.531
471.73	23.320
472.08	22.268
472.43	23.813
472.78	23.259
473.13	21.768
473.48	21.592
473.83	22.159
474.17	22.396
474.52	22.524
474.87	22.678
475.22	23.068
475.57	22.309
475.92	22.792
476.27	22.727
476.61	22.990
476.96	22.444
477.31	21.953
477.66	23.051
478.01	21.484
478.36	22.452
478.70	23.147
479.05	23.085
479.40	22.673
479.75	22.317
480.10	22.081
480.45	21.824
480.79	23.245
481.14	23.658
481.49	23.236
481.84	22.714
482.19	22.325
482.53	22.524
482.88	22.675
483.23	22.040
483.58	23.440
483.92	22.130
484.27	21.866
484.62	22.237
484.97	22.729
485.31	24.652
485.66	24.202
486.01	25.113
486.36	25.403
486.70	24.534
487.05	24.368
487.40	23.883
487.75	23.744
488.09	22.240
488.44	22.748
488.79	22.634
489.13	21.829
489.48	22.232
489.83	22.331
490.17	22.288
490.52	22.814
490.87	21.836
491.22	22.562
491.56	22.856
491.91	21.795
492.26	21.905
492.60	22.222
492.95	22.983
493.30	22.238
493.64	21.199
493.99	22.367
494.34	22.495
494.68	21.289
495.03	21.887
495.37	21.217
495.72	22.757
496.07	22.017
496.41	21.900
496.76	22.166
497.11	22.394
497.45	21.839
497.80	22.110
498.14	22.217
498.49	20.575
498.84	21.609
499.18	22.698
499.53	21.763
499.87	20.718
500.22	22.150
500.56	21.815
500.91	21.378
501.26	21.675
501.60	21.471
501.95	21.993
502.29	22.961
502.64	22.324
502.98	21.917
503.33	22.579
503.67	21.957
504.02	20.833
504.36	21.942
504.71	21.646
505.06	22.211
505.40	21.804
505.75	21.821
506.09	21.972
506.44	21.573
506.78	21.991
507.13	22.193
507.47	21.368
507.82	20.827
508.16	21.900
508.51	21.384
508.85	20.995
509.19	21.376
509.54	21.180
509.88	21.344
510.23	21.105
510.57	21.610
510.92	21.390
511.26	22.002
511.61	21.295
511.95	21.279
512.30	20.044
512.64	22.304
512.98	21.219
513.33	21.408
513.67	20.897
514.02	20.867
514.36	21.124
514.70	21.420
515.05	21.240
515.39	21.403
515.74	19.716
516.08	19.469
516.42	19.988
516.77	20.621
517.11	21.105
517.46	20.768
517.80	22.155
518.14	19.657
518.49	20.374
518.83	20.406
519.17	20.542
519.52	20.265
519.86	19.854
520.20	19.284
520.55	20.460
520.89	19.734
521.23	20.705
521.58	19.722
521.92	19.736
522.26	19.388
522.61	19.845
522.95	19.624
523.29	20.000
523.64	19.962
523.98	20.521
524.32	19.849
524.66	19.870
525.01	20.708
525.35	20.671
525.69	20.411
526.04	19.739
526.38	20.204
526.72	19.461
527.06	20.245
527.41	19.523
527.75	19.226
528.09	20.967
528.43	20.692
528.78	20.284
529.12	20.763
529.46	20.090
529.80	20.388
530.15	19.048
530.49	19.811
530.83	19.296
531.17	20.000
531.51	19.757
531.86	19.309
532.20	19.779
532.54	20.207
532.88	19.809
533.22	21.010
533.57	21.258
533.91	21.032
534.25	21.289
534.59	21.107
534.93	20.855
535.27	21.019
535.62	20.789
535.96	21.666
536.30	20.213
536.64	19.344
536.98	19.341
537.32	20.996
537.66	19.676
538.01	20.319
538.35	20.166
538.69	20.000
539.03	19.396
539.37	20.188
539.71	20.464
540.05	19.298
540.39	20.028
540.73	19.623
541.07	19.592
541.42	20.337
541.76	19.824
542.10	19.634
542.44	19.681
542.78	21.096
543.12	20.350
543.46	20.180
543.80	20.706
544.14	20.853
544.48	20.040
544.82	21.184
545.16	20.014
545.50	20.392
545.84	20.196
546.18	18.934
546.52	20.395
546.86	20.353
547.20	20.014
547.54	19.657
547.88	20.378
548.22	20.717
548.56	20.547
548.90	20.501
549.24	20.486
549.58	20.071
549.92	20.249
550.26	21.181
550.60	20.120
550.94	19.254
551.28	19.682
551.62	19.850
551.96	20.571
552.30	19.360
552.64	19.986
552.98	20.241
553.32	20.332
553.66	19.883
554.00	20.878
554.34	19.414
554.68	20.060
555.02	20.584
555.36	20.877
555.69	20.393
556.03	20.014
556.37	20.341
556.71	19.832
557.05	19.557
557.39	19.970
557.73	20.272
558.07	19.894
558.41	19.304
558.75	19.707
559.08	19.166
559.42	19.040
559.76	19.419
560.10	19.216
560.44	20.634
560.78	20.144
561.12	19.061
561.45	20.340
561.79	20.495
562.13	20.394
562.47	20.214
562.81	19.336
563.15	20.326
563.48	20.234
563.82	19.083
564.16	21.056
564.50	20.421
564.84	20.338
565.17	19.868
565.51	19.920
565.85	19.853
566.19	20.397
566.52	19.856
566.86	19.975
567.20	21.075
567.54	20.150
567.88	20.381
568.21	20.478
568.55	21.335
568.89	21.186
569.23	22.411
569.56	22.778
569.90	22.393
570.24	22.816
570.57	22.893
570.91	22.770
571.25	22.611
571.59	23.091
571.92	23.379
572.26	23.344
572.60	23.037
572.93	22.555
573.27	23.201
573.61	23.380
573.95	23.612
574.28	23.537
574.62	23.056
574.96	24.237
575.29	23.796
575.63	23.551
575.97	23.560
576.30	22.687
576.64	23.186
576.98	23.840
577.31	23.850
577.65	23.526
577.98	24.064
578.32	23.784
578.66	23.863
578.99	24.202
579.33	23.688
579.67	23.371
580.00	23.379
580.34	23.364
580.67	23.616
581.01	23.368
581.35	24.379
581.68	24.664
582.02	24.649
582.35	24.660
582.69	23.459
583.02	23.476
583.36	23.322
583.70	23.146
584.03	23.268
584.37	22.732
584.70	22.929
585.04	23.643
585.37	23.475
585.71	23.758
586.04	23.283
586.38	23.336
586.72	23.153
587.05	23.548
587.39	23.758
587.72	23.191
588.06	23.393
588.39	23.090
588.73	22.864
589.06	22.373
589.40	22.704
589.73	21.847
590.07	22.129
590.40	22.151
590.73	22.650
591.07	21.688
591.40	20.826
591.74	22.188
592.07	22.364
592.41	22.651
592.74	22.492
593.08	23.043
593.41	23.828
593.75	23.094
594.08	23.178
594.41	22.413
594.75	23.276
595.08	22.965
595.42	22.011
595.75	23.066
596.09	22.979
596.42	21.609
596.75	22.027
597.09	22.111
597.42	21.489
597.75	22.489
598.09	22.313
598.42	22.819
598.76	22.502
599.09	23.489
599.42	23.414
599.76	23.357
600.09	22.703
600.42	23.051
600.76	22.358
601.09	23.427
601.42	23.089
601.76	21.699
602.09	23.591
602.42	22.740
602.76	22.399
603.09	22.669
603.42	22.951
603.76	22.759
604.09	22.213
604.42	22.143
604.76	22.567
605.09	22.429
605.42	22.762
605.75	21.670
606.09	21.937
606.42	22.402
606.75	21.905
607.09	22.606
607.42	22.723
607.75	21.575
608.08	22.272
608.42	22.118
608.75	21.978
609.08	21.705
609.41	21.957
609.75	21.432
610.08	22.288
610.41	22.498
610.74	22.281
611.07	21.794
611.41	22.108
611.74	21.946
612.07	21.991
612.40	22.054
612.73	21.625
613.07	21.508
613.40	21.035
613.73	21.127
614.06	22.001
614.39	22.290
614.72	22.321
615.06	21.389
615.39	21.854
615.72	21.274
616.05	21.453
616.38	21.879
616.71	20.996
617.05	22.359
617.38	20.333
617.71	21.140
618.04	20.232
618.37	21.767
618.70	20.310
619.03	19.519
619.36	18.932
619.69	20.249
620.03	19.859
620.36	20.181
620.69	20.985
621.02	18.769
621.35	18.070
621.68	19.967
622.01	19.417
622.34	19.429
622.67	20.987
623.00	20.973
623.33	19.970
623.66	19.777
623.99	21.680
624.32	20.323
624.65	19.955
624.99	21.014
625.32	20.314
625.65	20.155
625.98	19.905
626.31	19.020
626.64	18.917
626.97	19.550
627.30	19.589
627.63	18.945
627.96	18.528
628.29	18.791
628.62	19.729
628.95	17.435
629.28	18.227
629.61	19.234
629.94	18.859
630.26	20.788
630.59	18.282
630.92	17.169
631.25	16.478
631.58	18.308
631.91	17.709
632.24	17.453
632.57	17.222
632.90	18.086
633.23	15.468
633.56	18.705
633.89	17.823
634.22	19.552
634.55	18.392
634.88	16.667
635.20	18.500
635.53	15.375
635.86	17.179
636.19	17.990
636.52	17.805
636.85	17.250
637.18	14.251
637.51	16.729
637.83	16.971
638.16	16.533
638.49	16.956
638.82	17.255
639.15	16.755
639.48	17.914
639.81	15.278
640.13	16.901
640.46	17.090
640.79	16.115
641.12	14.793
641.45	17.031
641.77	15.906
642.10	16.036
642.43	14.780
642.76	14.353
643.09	15.815
643.41	15.789
643.74	16.801
644.07	15.372
644.40	15.423
644.73	13.559
645.05	13.264
645.38	14.950
645.71	15.646
646.04	11.616
646.36	18.229
646.69	14.161
647.02	17.122
647.35	14.077
647.67	12.939
648.00	14.130
648.33	14.407
648.66	15.860
648.98	17.081
649.31	16.871
649.64	15.336
649.96	18.167
650.29	14.216
650.62	15.157
650.94	13.621
651.27	13.604
651.60	18.357
651.92	16.487
652.25	18.090
652.58	16.667
652.90	16.498
653.23	14.431
653.56	15.537
653.88	14.164
654.21	14.846
654.54	15.947
654.86	16.098
655.19	16.527
655.52	24.371
655.84	26.990
656.17	33.226
656.49	42.959
656.82	40.774
657.15	29.672
657.47	21.215
657.80	15.456
658.13	15.715
658.45	22.171
658.78	20.826
659.10	19.711
659.43	19.336
659.75	18.973
660.08	17.310
660.41	17.444
660.73	14.876
661.06	13.946
661.38	11.822
661.71	14.754
662.03	16.279
662.36	13.938
662.68	16.129
663.01	13.771
663.33	11.879
663.66	10.421
663.98	15.506
664.31	13.626
664.63	8.333
664.96	15.317
665.28	16.738
665.61	13.175
665.93	11.777
666.26	14.557
666.58	13.276
666.91	15.695
667.23	13.364
667.56	17.241
667.88	11.916
668.21	15.848
668.53	14.253
668.86	14.628
669.18	10.165
669.50	14.055
669.83	12.649
670.15	12.619
670.48	12.644
670.80	17.724
671.13	13.043
671.45	13.927
671.77	16.164
672.10	15.400
672.42	16.985
672.75	14.464
673.07	15.455
673.39	16.791
673.72	16.966
674.04	14.959
674.37	14.837
674.69	14.198
675.01	13.034
675.34	14.442
675.66	14.161
675.98	14.823
676.31	13.122
676.63	16.780
676.95	13.176
677.28	14.220
677.60	14.706
677.92	16.408
678.25	13.883
678.57	17.719
678.89	14.499
679.22	16.149
679.54	15.714
679.86	17.773
680.18	16.154
680.51	17.308
680.83	14.620
681.15	16.110
681.48	14.429
681.80	15.951
682.12	16.875
682.44	15.895
682.77	12.421
683.09	14.063
683.41	11.860
683.73	14.955
684.06	16.372
684.38	14.316
684.70	14.460
685.02	15.909
685.34	16.243
685.67	18.386
685.99	15.125
686.31	17.759
686.63	17.647
686.96	18.553
687.28	13.373
687.60	20.416
687.92	18.677
688.24	16.400
688.56	15.132
688.89	13.363
689.21	15.695
689.53	15.315
689.85	17.303
690.17	16.703
690.49	16.425
690.82	17.184
691.14	15.459
691.46	15.081
691.78	17.802
692.10	17.622
692.42	14.066
692.74	17.609
693.06	12.584
693.39	14.988
693.71	19.111
694.03	17.955
694.35	13.964
694.67	17.750
694.99	15.206
695.31	17.054
695.63	15.610
695.95	15.013
696.27	12.329
696.59	11.022
696.91	13.966
697.23	16.751
697.56	16.307
697.88	18.919
698.20	16.415
698.52	15.187
698.84	15.311
699.16	14.184
699.48	15.556
699.80	18.863
700.12	13.941
700.44	14.085
700.76	14.888
701.08	13.595
701.40	13.473
701.72	11.692
702.04	10.692
702.36	9.146
702.68	13.720
703.00	16.082
703.32	12.535
703.64	14.759
703.96	16.129
704.28	13.855
704.60	15.854
704.91	15.047
705.23	17.405
705.55	14.483
705.87	14.789
706.19	10.623
706.51	14.437
706.83	10.828
707.15	14.939
707.47	18.733
707.79	16.497
708.11	16.710
708.43	15.482
708.74	15.691
709.06	14.171
709.38	16.715
709.70	15.916
710.02	12.773
710.34	12.333
710.66	12.704
710.98	14.551
711.29	16.234
711.61	12.258
711.93	15.484
712.25	9.441
712.57	8.421
712.89	11.722
713.20	19.504
713.52	9.854
713.84	13.226
714.16	14.563
714.48	17.405
714.80	13.419
715.11	19.186
715.43	12.733
715.75	16.460
716.07	15.964
716.39	16.498
716.70	15.108
717.02	12.157
717.34	13.636
717.66	8.621
717.97	11.111
718.29	16.535
718.61	13.305
718.93	12.016
719.24	15.129
719.56	13.109
719.88	14.179
720.20	14.229
720.51	13.281
720.83	14.397
721.15	5.691
721.46	12.977
721.78	17.131
722.10	9.960
722.42	10.887
722.73	14.286
723.05	15.510
723.37	12.185
723.68	13.200
724.00	7.660
724.32	12.552
724.63	16.049
724.95	8.547
725.27	12.658
725.58	13.580
725.90	17.992
726.22	15.942
726.53	11.765
726.85	17.153
727.16	11.111
727.48	14.559
727.80	16.016
728.11	13.525
728.43	13.672
728.74	18.651
729.06	16.400
729.38	15.020
729.69	18.861
730.01	14.498
730.32	21.402
730.64	14.015
730.96	19.231
731.27	15.719
731.59	17.778
731.90	15.210
732.22	17.949
732.53	15.541
732.85	10.067
733.16	22.442
733.48	15.541
733.80	16.216
734.11	16.216
734.43	16.099
734.74	18.619
735.06	19.885
735.37	20.061
735.69	16.181
736.00	18.482
736.32	15.957
736.63	14.483
736.95	21.233
737.26	15.862
737.58	17.014
737.89	17.526
738.21	11.388
738.52	15.589
738.83	18.367
739.15	15.612
739.46	14.397
739.78	15.141
740.09	14.384
740.41	14.643
740.72	15.957
741.04	14.800
741.35	10.965
741.66	12.889
741.98	13.462
742.29	18.317
742.61	12.683
742.92	14.035
743.23	9.434
743.55	16.667
743.86	11.211
744.18	13.235
744.49	8.122
744.80	18.367
745.12	13.551
745.43	15.166
745.74	15.315
746.06	12.617
746.37	16.055
746.68	10.096
747.00	15.311
747.31	12.981
747.62	16.055
747.94	18.341
748.25	19.266
748.56	23.111
748.88	11.737
749.19	17.619
749.50	10.680
749.82	8.451
750.13	6.250
750.44	16.538
750.75	21.033
751.07	18.861
751.38	14.184
751.69	13.127
752.01	13.672
752.32	18.077
752.63	20.149
752.94	17.200
753.26	17.155
753.57	17.917
753.88	19.028
754.19	13.944
754.51	15.038
754.82	14.286
755.13	14.783
755.44	16.260
755.75	15.600
756.07	15.129
756.38	16.547
756.69	17.747
757.00	18.069
757.31	14.887
757.63	15.123
757.94	18.362
758.25	22.751
758.56	14.946
758.87	19.643
759.18	21.136
759.50	17.508
759.81	20.401
760.12	20.308
760.43	16.964
760.74	19.209
761.05	16.022
761.36	21.490
761.67	17.825
761.99	14.089
762.30	17.153
762.61	16.461
762.92	18.376
763.23	16.803
763.54	19.481
763.85	17.551
764.16	15.041
764.47	19.200
764.78	18.214
765.10	20.000
765.41	19.757
765.72	19.565
766.03	19.142
766.34	16.154
766.65	12.552
766.96	16.432
767.27	14.851
767.58	6.742
767.89	11.111
768.20	9.945
768.51	16.583
768.82	19.231
769.13	15.487
769.44	18.410
769.75	11.111
770.06	21.076
770.37	16.176
770.68	15.534
770.99	7.282
771.30	17.647
771.61	15.102
771.92	19.502
772.23	17.117
772.54	9.392
772.85	14.535
773.16	14.286
773.47	10.651
773.78	20.115
774.09	10.000
774.39	13.043
774.70	10.204
775.01	8.276
775.32	13.571
775.63	12.030
775.94	0.000
776.25	4.000
776.56	9.091
776.87	13.492
777.18	8.108
777.48	4.505
777.79	11.811
778.10	12.844
778.41	4.386
778.72	1.681
779.03	3.521
779.34	10.811
779.65	7.042
779.95	19.868
780.26	14.388
780.57	20.144
780.88	7.042
781.19	8.403
781.50	11.409
781.80	12.865
782.11	14.535
782.42	20.126
782.73	22.876
783.04	15.862
783.34	12.977
783.65	5.369
783.96	19.231
784.27	12.857
784.57	18.440
784.88	0.962
785.19	20.000
785.50	14.545
785.81	21.905
786.11	5.882
786.42	2.655
786.73	8.491
787.04	1.835
787.34	2.970
787.65	12.500
787.96	17.355
788.26	15.942
788.57	9.524
788.88	8.943
789.19	7.200
789.49	5.344
789.80	25.000
790.11	6.604
790.41	11.881
790.72	8.511
791.03	-4.348
791.33	9.412
791.64	8.642
791.95	13.043
792.25	7.955
792.56	6.410
792.87	-14.103
793.17	-3.846
793.48	-5.952
793.79	8.750
794.09	12.500
794.40	27.083
794.70	14.414
795.01	7.813
795.32	13.043
795.62	5.435
795.93	8.491
796.23	10.101
796.54	3.659
796.85	19.048
797.15	-12.121
797.46	2.899
797.76	6.579
798.07	12.500
798.37	7.317
798.68	4.839
798.99	-8.108
799.29	2.410
799.60	5.128
799.90	-3.077
800.21	0.000
800.51	-10.667
800.82	6.667
801.12	-33.333
801.43	-21.667
801.73	-10.811
802.04	11.429
802.34	3.279
802.65	4.478
802.95	-9.091
803.26	1.724
803.56	7.692
803.87	11.321
804.17	-12.903
804.48	7.353
804.78	-7.317
805.09	2.899
805.39	0.000
805.70	-12.766
806.00	-17.544
806.30	8.974
806.61	10.526
806.91	6.757
807.22	2.632
807.52	17.045
807.83	-5.085
808.13	-15.152
808.43	6.667
808.74	-27.586
809.04	-19.048
809.35	-42.857
809.65	-8.333
809.95	-20.408
810.26	22.535
810.56	2.083
810.86	-12.245
811.17	17.308
811.47	-4.255
811.77	-4.167
812.08	-13.208
812.38	-34.375
812.69	7.273
812.99	0.000
813.29	-27.027
813.59	-10.811
813.90	-7.273
814.20	9.091
814.50	10.000
814.81	-3.636
815.11	8.772
815.41	-13.953
815.72	5.000
816.02	-28.571
816.32	-27.027
816.62	-6.250
816.93	-11.111
817.23	-2.222
817.53	0.000
817.84	-40.541
818.14	-12.195
818.44	6.000
818.74	0.000
819.04	-7.317
819.35	-19.444
819.65	-6.818
819.95	-83.333
820.25	-24.242
820.56	-19.048
820.86	-27.778
821.16	-22.727
821.46	0.000
821.76	-12.069
822.07	4.348
822.37	-3.030
822.67	24.390
822.97	5.405
823.27	-37.143
823.57	20.690
823.88	-23.529
824.18	-2.778
824.48	-11.429
824.78	-23.810
825.08	-10.714
825.38	-22.222
825.69	0.000
825.99	-9.756
826.29	-11.111
826.59	-12.500
826.89	-12.903
827.19	-39.130
827.49	-22.222
827.79	-17.391
828.09	-22.581
828.39	2.083
828.70	-68.750
829.00	-48.276
829.30	5.405
829.60	-54.167
829.90	-29.630
830.20	-28.125
830.50	-9.091
830.80	-123.529
831.10	-59.091
831.40	-2.941
831.70	-7.692
832.00	-30.303
832.30	-2.941
832.60	2.703
832.90	300.000
833.20	-21.429
833.50	-70.000
833.80	-36.842
834.10	-45.833
834.40	-54.545
834.70	-140.000
835.00	-110.000
835.30	-25.000
835.60	-28.571
835.90	-23.810
836.20	-60.000
836.50	-20.833
836.80	-63.158
837.10	-13.514
837.40	16.667
837.70	-43.478
838.00	0.000
838.30	-42.105
838.60	-110.000
838.90	-110.000
839.19	-183.333
839.49	-30.769
839.79	-57.895
840.09	-200.000
840.39	-130.000
840.69	-13.636
840.99	-38.095
841.29	-41.667
841.59	-61.538
841.88	-106.667
842.18	-107.143
842.48	16.667
842.78	-285.714
843.08	-100.000
843.38	-100.000
843.68	-118.750
843.97	-7.143
844.27	-144.444
844.57	-81.818
844.87	-113.333
845.17	-13.636
845.47	766.667
845.76	-53.333
846.06	-116.667
846.36	-1650.000
846.66	-57.895
846.96	-36.364
847.25	-44.444
847.55	-222.222
847.85	-47.619
848.15	-30.769
848.44	-433.333
848.74	-25.000
849.04	-61.538
849.34	-375.000
849.63	-127.273
849.93	-128.571
850.23	45.000
850.53	-150.000
850.82	-50.000
851.12	-26.667
851.42	-41.176
851.71	-37.500
852.01	-58.824
852.31	-107.692
852.61	550.000
852.90	-11.765
853.20	-13.333
853.50	-43.750
853.79	-150.000
854.09	-350.000
854.39	10.000
854.68	-25.000
854.98	9.524
855.28	-28.000
855.57	20.833
855.87	8.333
856.17	-28.000
856.46	0.000
856.76	15.000
857.05	32.000
857.35	-41.667
857.65	-82.353
857.94	-133.333
858.24	-141.667
858.53	-5.000
858.83	-118.182
859.13	16.000
859.42	-57.143
859.72	-175.000
860.01	-29.167
860.31	-225.000
860.60	-25.000
860.90	-216.667
861.20	-116.667
861.49	-20.000
861.79	-68.750
862.08	300.000
862.38	-125.000
862.67	242.857
862.97	250.000
863.26	-109.091
863.56	-54.545
863.85	26.316
864.15	11.765
864.44	-200.000
864.74	-160.000
865.03	-133.333
865.33	-14.286
865.62	107.143
865.92	-5.263
866.21	-66.667
866.51	-72.727
866.80	-155.556
867.10	-237.500
867.39	12.500
867.69	-80.000
867.98	-170.000
868.27	-35.294
868.57	0.000
868.86	700.000
869.16	-125.000
869.45	-185.714
869.75	500.000
870.04	0.000
870.33	-500.000
870.63	-47.368
870.92	-100.000
871.22	-800.000
871.51	-85.714
871.80	-222.222
872.10	-450.000
>>>>>End Processed Spectral Data<<<<<
