SpectraSuite Data File
++++++++++++++++++++++++++++++++++++
Date: Wed May 13 21:35:51 PDT 2015
User: schluterlab
Dark Spectrum Present: Yes
Reference Spectrum Present: Yes
Number of Sampled Component Spectra: 1
Spectrometers: USB2E3373
Integration Time (usec): 3000 (USB2E3373)
Spectra Averaged: 3 (USB2E3373)
Boxcar Smoothing: 0 (USB2E3373)
Correct for Electrical Dark: No (USB2E3373)
Strobe/Lamp Enabled: No (USB2E3373)
Correct for Detector Non-linearity: No (USB2E3373)
Correct for Stray Light: No (USB2E3373)
Number of Pixels in Processed Spectrum: 2048
>>>>>Begin Processed Spectral Data<<<<<
178.53	0.000
178.91	650.000
179.29	216.667
179.67	-1300.000
180.04	-266.667
180.42	340.000
180.80	1700.000
181.18	300.000
181.56	-425.000
181.94	-450.000
182.31	-63.636
182.69	146.154
183.07	-220.000
183.45	400.000
183.83	244.444
184.20	271.429
184.58	-233.333
184.96	533.333
185.34	342.857
185.72	0.000
186.09	-1500.000
186.47	-440.000
186.85	80.000
187.23	-850.000
187.61	700.000
187.98	1800.000
188.36	-125.000
188.74	0.000
189.12	-54.545
189.49	-70.000
189.87	166.667
190.25	520.000
190.63	1200.000
191.00	-200.000
191.38	380.000
191.76	400.000
192.14	191.667
192.51	-26.316
192.89	466.667
193.27	450.000
193.65	-340.000
194.02	218.182
194.40	340.000
194.78	-1200.000
195.15	340.000
195.53	-240.000
195.91	-37.500
196.29	-366.667
196.66	0.000
197.04	600.000
197.42	-200.000
197.79	-10.000
198.17	-125.000
198.55	-566.667
198.92	350.000
199.30	-900.000
199.68	-100.000
200.05	450.000
200.43	316.667
200.81	-1500.000
201.18	-340.000
201.56	-100.000
201.94	525.000
202.31	-21.739
202.69	-42.857
203.07	-666.667
203.44	-260.000
203.82	-533.333
204.19	10.000
204.57	0.000
204.95	-233.333
205.32	0.000
205.70	-150.000
206.08	-375.000
206.45	-166.667
206.83	350.000
207.20	-566.667
207.58	-60.000
207.96	-1900.000
208.33	-128.571
208.71	-1500.000
209.08	100.000
209.46	650.000
209.84	0.000
210.21	240.000
210.59	2100.000
210.96	560.000
211.34	2400.000
211.71	-1750.000
212.09	-283.333
212.46	-150.000
212.84	-400.000
213.22	-75.000
213.59	-2400.000
213.97	-850.000
214.34	-1000.000
214.72	-23.077
215.09	275.000
215.47	155.556
215.84	650.000
216.22	-100.000
216.59	-950.000
216.97	766.667
217.34	244.444
217.72	0.000
218.09	566.667
218.47	-900.000
218.84	-185.714
219.22	-150.000
219.59	-433.333
219.97	-400.000
220.34	-50.000
220.72	-460.000
221.09	0.000
221.47	-333.333
221.84	-300.000
222.22	0.000
222.59	700.000
222.97	-700.000
223.34	-133.333
223.72	-1700.000
224.09	-800.000
224.46	0.000
224.84	12.500
225.21	-171.429
225.59	-325.000
225.96	-33.333
226.34	-60.000
226.71	-342.857
227.08	850.000
227.46	-137.500
227.83	-300.000
228.21	-68.750
228.58	-425.000
228.95	-47.059
229.33	0.000
229.70	-25.000
230.08	-115.385
230.45	-75.000
230.82	-125.000
231.20	200.000
231.57	-225.000
231.95	2100.000
232.32	-8.333
232.69	5.882
233.07	-2300.000
233.44	-17.391
233.81	-550.000
234.19	-4.167
234.56	-60.000
234.93	-53.333
235.31	-21.053
235.68	-100.000
236.05	-7.692
236.43	-55.556
236.80	-6.061
237.17	-20.000
237.55	17.647
237.92	-3.448
238.29	-11.111
238.67	13.889
239.04	6.452
239.41	-10.638
239.79	42.553
240.16	39.535
240.53	12.500
240.91	26.786
241.28	12.500
241.65	40.323
242.02	22.368
242.40	37.681
242.77	28.986
243.14	24.359
243.51	39.362
243.89	25.962
244.26	49.057
244.63	35.577
245.00	38.542
245.38	39.496
245.75	34.426
246.12	34.586
246.49	28.455
246.87	41.176
247.24	47.973
247.61	43.046
247.98	41.667
248.36	42.604
248.73	39.888
249.10	37.879
249.47	41.398
249.84	45.789
250.22	39.801
250.59	46.262
250.96	46.364
251.33	37.321
251.70	46.862
252.08	40.586
252.45	50.617
252.82	49.430
253.19	44.358
253.56	46.043
253.94	51.246
254.31	46.831
254.68	49.329
255.05	48.515
255.42	43.706
255.79	46.319
256.16	52.366
256.54	45.397
256.91	46.519
257.28	45.283
257.65	47.134
258.02	43.988
258.39	46.199
258.76	47.093
259.14	50.000
259.51	44.944
259.88	47.425
260.25	49.722
260.62	47.191
260.99	47.215
261.36	47.927
261.73	43.457
262.10	45.802
262.47	44.938
262.85	47.264
263.22	51.538
263.59	47.013
263.96	45.499
264.33	46.154
264.70	46.279
265.07	44.907
265.44	49.195
265.81	46.911
266.18	46.469
266.55	46.725
266.92	50.000
267.29	46.091
267.66	50.743
268.03	46.502
268.40	47.881
268.77	47.934
269.14	49.592
269.51	48.460
269.88	49.084
270.25	49.364
270.62	48.566
270.99	46.457
271.36	47.024
271.73	47.189
272.10	48.762
272.47	49.136
272.84	46.063
273.21	44.423
273.58	50.205
273.95	45.283
274.32	46.082
274.69	44.627
275.06	46.113
275.43	48.211
275.80	47.872
276.17	46.409
276.54	45.293
276.91	45.470
277.28	46.931
277.65	45.804
278.02	46.786
278.39	48.313
278.76	46.488
279.13	43.225
279.50	46.207
279.87	46.739
280.23	49.550
280.60	46.713
280.97	45.292
281.34	45.268
281.71	42.276
282.08	47.521
282.45	46.230
282.82	45.687
283.19	45.427
283.56	45.469
283.92	45.107
284.29	46.178
284.66	45.799
285.03	43.485
285.40	42.749
285.77	46.246
286.14	44.681
286.51	47.976
286.87	44.000
287.24	44.100
287.61	45.331
287.98	42.647
288.35	44.262
288.72	43.329
289.08	41.880
289.45	42.731
289.82	42.511
290.19	41.655
290.56	42.187
290.93	39.917
291.29	40.903
291.66	41.120
292.03	43.052
292.40	38.762
292.77	39.357
293.13	40.586
293.50	40.131
293.87	40.400
294.24	39.550
294.60	38.492
294.97	41.402
295.34	38.786
295.71	38.371
296.08	38.220
296.44	36.862
296.81	37.028
297.18	38.375
297.55	35.613
297.91	38.509
298.28	37.046
298.65	37.562
299.02	37.729
299.38	37.423
299.75	37.139
300.12	33.837
300.48	34.503
300.85	34.296
301.22	35.424
301.59	35.329
301.95	33.914
302.32	35.473
302.69	35.254
303.05	34.441
303.42	33.523
303.79	35.121
304.15	33.187
304.52	36.452
304.89	33.776
305.25	34.907
305.62	34.816
305.99	33.950
306.35	35.946
306.72	33.978
307.09	34.619
307.45	33.227
307.82	34.105
308.19	32.811
308.55	35.210
308.92	34.676
309.29	32.533
309.65	32.567
310.02	33.797
310.38	34.248
310.75	31.755
311.12	33.139
311.48	33.828
311.85	33.563
312.22	32.882
312.58	32.367
312.95	33.433
313.31	34.343
313.68	33.015
314.05	34.216
314.41	35.255
314.78	35.199
315.14	35.000
315.51	35.014
315.87	34.754
316.24	33.517
316.61	35.708
316.97	35.278
317.34	34.581
317.70	34.523
318.07	34.871
318.43	36.495
318.80	35.253
319.16	36.516
319.53	37.814
319.89	37.579
320.26	38.262
320.62	38.091
320.99	38.372
321.35	38.915
321.72	39.557
322.08	39.852
322.45	41.258
322.81	40.665
323.18	41.592
323.54	43.773
323.91	41.463
324.27	42.124
324.64	42.422
325.00	44.707
325.37	44.198
325.73	42.677
326.10	44.659
326.46	44.649
326.83	44.417
327.19	46.911
327.56	46.172
327.92	46.018
328.29	46.828
328.65	48.817
329.01	46.790
329.38	47.826
329.74	48.498
330.11	49.143
330.47	47.396
330.84	48.195
331.20	48.762
331.56	50.091
331.93	49.785
332.29	50.565
332.66	48.475
333.02	49.001
333.38	49.035
333.75	49.659
334.11	50.347
334.48	49.695
334.84	48.852
335.20	48.027
335.57	48.738
335.93	49.742
336.29	50.613
336.66	49.060
337.02	49.130
337.38	49.695
337.75	50.215
338.11	49.616
338.47	48.202
338.84	47.766
339.20	51.235
339.56	49.573
339.93	48.747
340.29	48.762
340.65	49.786
341.02	48.586
341.38	50.169
341.74	48.655
342.11	48.142
342.47	49.456
342.83	48.448
343.20	50.254
343.56	50.204
343.92	48.741
344.28	48.133
344.65	47.837
345.01	48.910
345.37	50.658
345.73	49.265
346.10	48.555
346.46	48.293
346.82	49.679
347.19	48.339
347.55	50.000
347.91	49.415
348.27	49.132
348.63	48.157
349.00	49.057
349.36	49.686
349.72	48.260
350.08	48.752
350.45	47.925
350.81	48.435
351.17	48.191
351.53	48.233
351.89	47.657
352.26	48.803
352.62	47.364
352.98	48.403
353.34	48.712
353.70	47.664
354.07	48.549
354.43	48.134
354.79	50.000
355.15	47.593
355.51	47.532
355.87	48.866
356.24	47.753
356.60	47.146
356.96	48.350
357.32	47.368
357.68	48.739
358.04	47.711
358.40	48.140
358.77	47.783
359.13	48.249
359.49	47.388
359.85	47.991
360.21	47.726
360.57	47.681
360.93	48.634
361.29	48.557
361.66	48.292
362.02	47.072
362.38	48.375
362.74	46.338
363.10	48.301
363.46	47.767
363.82	47.967
364.18	47.426
364.54	48.067
364.90	47.875
365.26	48.478
365.62	47.443
365.98	48.826
366.35	47.163
366.71	47.575
367.07	48.405
367.43	47.875
367.79	48.506
368.15	47.398
368.51	46.624
368.87	48.988
369.23	48.114
369.59	48.344
369.95	47.678
370.31	48.326
370.67	48.154
371.03	49.443
371.39	48.332
371.75	47.429
372.11	49.217
372.47	49.027
372.83	48.197
373.19	48.345
373.55	49.205
373.91	47.808
374.27	48.409
374.63	48.791
374.99	48.468
375.35	48.836
375.71	47.622
376.07	50.171
376.42	47.794
376.78	48.745
377.14	49.424
377.50	49.870
377.86	49.203
378.22	49.558
378.58	49.054
378.94	51.125
379.30	50.281
379.66	49.692
380.02	48.468
380.38	49.759
380.74	50.149
381.09	49.879
381.45	49.516
381.81	48.922
382.17	49.401
382.53	47.877
382.89	49.337
383.25	48.827
383.61	48.971
383.97	49.062
384.32	49.653
384.68	49.105
385.04	49.359
385.40	50.436
385.76	49.148
386.12	50.549
386.48	50.094
386.83	50.188
387.19	51.018
387.55	50.460
387.91	51.292
388.27	50.493
388.62	50.499
388.98	52.003
389.34	50.251
389.70	49.512
390.06	50.375
390.42	51.546
390.77	50.096
391.13	49.684
391.49	50.411
391.85	51.054
392.20	51.566
392.56	51.111
392.92	51.083
393.28	51.540
393.64	51.560
393.99	49.082
394.35	51.173
394.71	51.731
395.07	49.748
395.42	51.371
395.78	50.000
396.14	51.237
396.50	51.300
396.85	51.944
397.21	51.124
397.57	50.621
397.92	50.719
398.28	50.761
398.64	51.184
399.00	50.725
399.35	52.157
399.71	50.728
400.07	50.904
400.42	52.038
400.78	51.057
401.14	52.422
401.49	51.708
401.85	52.764
402.21	52.074
402.57	50.950
402.92	52.691
403.28	51.470
403.63	51.395
403.99	51.248
404.35	51.933
404.70	51.360
405.06	52.554
405.42	50.879
405.77	51.382
406.13	51.429
406.49	51.648
406.84	51.404
407.20	51.569
407.55	52.662
407.91	50.298
408.27	51.404
408.62	52.732
408.98	51.418
409.34	51.980
409.69	52.372
410.05	51.368
410.40	51.065
410.76	50.903
411.11	52.799
411.47	53.351
411.83	52.527
412.18	50.504
412.54	52.318
412.89	51.160
413.25	50.265
413.60	51.724
413.96	51.311
414.31	52.713
414.67	50.667
415.03	53.180
415.38	51.915
415.74	50.162
416.09	53.272
416.45	53.110
416.80	52.886
417.16	51.822
417.51	52.311
417.87	51.389
418.22	53.200
418.58	51.511
418.93	51.350
419.29	52.805
419.64	51.972
420.00	52.381
420.35	51.763
420.71	52.529
421.06	52.706
421.42	53.467
421.77	52.601
422.12	53.181
422.48	51.581
422.83	53.219
423.19	52.156
423.54	51.413
423.90	51.366
424.25	53.033
424.61	52.249
424.96	52.099
425.31	51.374
425.67	53.263
426.02	52.650
426.38	53.296
426.73	52.352
427.09	51.720
427.44	52.143
427.79	52.969
428.15	52.232
428.50	53.051
428.85	51.845
429.21	51.941
429.56	52.869
429.92	52.577
430.27	52.607
430.62	53.358
430.98	52.671
431.33	53.143
431.68	52.077
432.04	52.620
432.39	52.483
432.74	51.931
433.10	53.051
433.45	51.893
433.80	52.644
434.16	52.703
434.51	52.989
434.86	52.768
435.22	51.839
435.57	52.150
435.92	53.016
436.28	52.432
436.63	53.349
436.98	52.585
437.34	52.991
437.69	52.952
438.04	51.669
438.39	53.487
438.75	53.516
439.10	53.557
439.45	52.724
439.81	52.894
440.16	53.043
440.51	52.438
440.86	53.942
441.22	53.643
441.57	52.495
441.92	52.722
442.27	53.517
442.63	52.745
442.98	53.472
443.33	53.442
443.68	52.451
444.03	52.856
444.39	53.099
444.74	51.574
445.09	52.037
445.44	52.394
445.79	52.452
446.15	52.357
446.50	52.148
446.85	53.127
447.20	52.065
447.55	52.770
447.91	51.573
448.26	52.430
448.61	51.956
448.96	53.132
449.31	53.798
449.66	53.094
450.02	51.904
450.37	52.996
450.72	51.665
451.07	53.793
451.42	51.528
451.77	52.100
452.12	52.406
452.47	51.646
452.83	50.649
453.18	52.069
453.53	52.963
453.88	51.867
454.23	51.854
454.58	51.348
454.93	50.994
455.28	52.344
455.63	51.404
455.98	52.222
456.34	52.257
456.69	51.374
457.04	51.703
457.39	51.774
457.74	51.227
458.09	52.073
458.44	53.408
458.79	51.071
459.14	50.787
459.49	52.073
459.84	51.691
460.19	51.621
460.54	51.582
460.89	52.252
461.24	51.233
461.59	50.906
461.94	50.885
462.29	51.654
462.64	52.111
462.99	51.375
463.34	52.624
463.69	51.611
464.04	50.900
464.39	51.373
464.74	51.536
465.09	51.829
465.44	50.449
465.79	52.559
466.14	50.627
466.49	50.733
466.84	52.600
467.19	51.401
467.54	51.134
467.89	50.723
468.24	50.338
468.59	50.159
468.94	50.575
469.29	50.628
469.64	49.791
469.99	50.414
470.34	50.708
470.68	50.706
471.03	50.353
471.38	50.209
471.73	49.794
472.08	50.584
472.43	50.594
472.78	49.358
473.13	46.834
473.48	49.446
473.83	49.090
474.17	50.977
474.52	50.291
474.87	49.819
475.22	50.543
475.57	49.470
475.92	49.073
476.27	49.359
476.61	48.981
476.96	49.172
477.31	49.407
477.66	48.927
478.01	48.846
478.36	48.610
478.70	49.033
479.05	49.723
479.40	48.986
479.75	48.831
480.10	48.649
480.45	48.995
480.79	48.731
481.14	49.797
481.49	48.594
481.84	48.256
482.19	48.587
482.53	48.810
482.88	48.274
483.23	47.401
483.58	48.062
483.92	48.103
484.27	48.353
484.62	47.936
484.97	47.740
485.31	47.984
485.66	47.122
486.01	48.872
486.36	49.342
486.70	49.308
487.05	49.035
487.40	47.872
487.75	48.119
488.09	46.950
488.44	48.651
488.79	48.032
489.13	46.958
489.48	46.601
489.83	47.209
490.17	47.254
490.52	47.873
490.87	45.480
491.22	47.009
491.56	47.437
491.91	46.519
492.26	46.712
492.60	46.849
492.95	46.016
493.30	45.882
493.64	44.460
493.99	46.232
494.34	46.484
494.68	46.110
495.03	46.294
495.37	45.304
495.72	45.915
496.07	46.322
496.41	44.689
496.76	46.207
497.11	45.258
497.45	45.963
497.80	46.340
498.14	46.247
498.49	44.982
498.84	46.306
499.18	45.097
499.53	45.249
499.87	44.930
500.22	45.844
500.56	46.389
500.91	45.825
501.26	45.222
501.60	44.559
501.95	45.424
502.29	44.223
502.64	45.468
502.98	44.220
503.33	44.818
503.67	44.645
504.02	44.216
504.36	43.635
504.71	44.817
505.06	44.473
505.40	44.227
505.75	44.710
506.09	43.843
506.44	44.002
506.78	44.439
507.13	43.607
507.47	43.319
507.82	43.380
508.16	44.011
508.51	42.304
508.85	43.027
509.19	43.492
509.54	44.558
509.88	42.903
510.23	42.895
510.57	43.962
510.92	43.750
511.26	43.894
511.61	42.371
511.95	41.951
512.30	42.254
512.64	43.814
512.98	41.330
513.33	42.028
513.67	42.646
514.02	43.273
514.36	42.360
514.70	42.841
515.05	42.481
515.39	42.099
515.74	42.570
516.08	42.065
516.42	41.705
516.77	40.773
517.11	41.740
517.46	41.777
517.80	41.646
518.14	40.416
518.49	42.194
518.83	41.527
519.17	41.145
519.52	42.280
519.86	40.437
520.20	40.570
520.55	40.734
520.89	41.176
521.23	41.667
521.58	40.961
521.92	39.472
522.26	39.558
522.61	40.465
522.95	39.961
523.29	39.619
523.64	39.733
523.98	40.597
524.32	39.509
524.66	39.610
525.01	40.695
525.35	40.224
525.69	41.021
526.04	39.544
526.38	39.324
526.72	39.119
527.06	38.878
527.41	38.981
527.75	38.985
528.09	39.823
528.43	38.128
528.78	39.664
529.12	40.427
529.46	39.283
529.80	39.547
530.15	38.353
530.49	39.016
530.83	39.540
531.17	38.288
531.51	38.301
531.86	37.263
532.20	38.801
532.54	38.138
532.88	38.598
533.22	38.586
533.57	37.881
533.91	39.355
534.25	40.625
534.59	37.902
534.93	39.222
535.27	38.535
535.62	38.026
535.96	37.411
536.30	39.894
536.64	37.116
536.98	37.701
537.32	37.794
537.66	38.152
538.01	38.211
538.35	38.743
538.69	38.060
539.03	37.450
539.37	37.492
539.71	37.790
540.05	37.112
540.39	36.820
540.73	37.849
541.07	37.075
541.42	36.835
541.76	38.092
542.10	36.628
542.44	36.937
542.78	36.641
543.12	37.601
543.46	36.904
543.80	37.339
544.14	37.715
544.48	35.567
544.82	37.189
545.16	37.593
545.50	37.880
545.84	36.115
546.18	37.237
546.52	36.697
546.86	35.830
547.20	36.526
547.54	35.954
547.88	36.640
548.22	36.156
548.56	35.624
548.90	38.227
549.24	35.625
549.58	34.591
549.92	37.124
550.26	36.236
550.60	35.135
550.94	35.149
551.28	35.125
551.62	36.391
551.96	34.041
552.30	35.808
552.64	35.240
552.98	36.293
553.32	35.544
553.66	35.657
554.00	35.781
554.34	35.238
554.68	35.496
555.02	34.506
555.36	35.552
555.69	34.741
556.03	35.883
556.37	34.068
556.71	34.338
557.05	34.317
557.39	33.986
557.73	34.796
558.07	33.760
558.41	35.958
558.75	35.104
559.08	33.921
559.42	35.405
559.76	33.945
560.10	36.049
560.44	35.520
560.78	34.604
561.12	34.338
561.45	33.401
561.79	34.525
562.13	35.302
562.47	34.214
562.81	34.343
563.15	33.711
563.48	33.723
563.82	34.952
564.16	34.191
564.50	34.668
564.84	34.595
565.17	34.503
565.51	34.759
565.85	33.245
566.19	34.901
566.52	34.207
566.86	33.502
567.20	34.148
567.54	34.139
567.88	34.658
568.21	34.764
568.55	34.690
568.89	35.593
569.23	35.243
569.56	34.501
569.90	35.008
570.24	34.477
570.57	35.142
570.91	35.719
571.25	35.287
571.59	35.598
571.92	35.084
572.26	35.284
572.60	35.109
572.93	34.552
573.27	35.074
573.61	35.934
573.95	35.616
574.28	35.834
574.62	35.078
574.96	35.581
575.29	35.055
575.63	34.563
575.97	34.973
576.30	34.279
576.64	34.766
576.98	35.242
577.31	35.291
577.65	35.321
577.98	35.671
578.32	35.309
578.66	35.460
578.99	34.789
579.33	35.157
579.67	34.852
580.00	34.857
580.34	34.731
580.67	35.277
581.01	34.538
581.35	35.149
581.68	35.321
582.02	35.640
582.35	35.832
582.69	35.014
583.02	33.811
583.36	34.064
583.70	34.437
584.03	33.998
584.37	33.361
584.70	34.567
585.04	34.500
585.37	34.338
585.71	34.153
586.04	34.110
586.38	34.307
586.72	33.352
587.05	34.236
587.39	34.130
587.72	33.989
588.06	33.735
588.39	33.641
588.73	33.785
589.06	33.883
589.40	33.471
589.73	32.519
590.07	33.102
590.40	33.548
590.73	32.901
591.07	33.389
591.40	32.130
591.74	32.325
592.07	32.816
592.41	32.647
592.74	32.986
593.08	33.368
593.41	33.365
593.75	33.786
594.08	33.264
594.41	33.784
594.75	33.321
595.08	32.674
595.42	32.391
595.75	32.393
596.09	32.987
596.42	32.802
596.75	33.085
597.09	32.757
597.42	32.571
597.75	32.444
598.09	32.514
598.42	32.125
598.76	32.620
599.09	32.933
599.42	32.855
599.76	33.308
600.09	32.794
600.42	32.881
600.76	32.520
601.09	32.768
601.42	33.242
601.76	32.124
602.09	31.942
602.42	32.893
602.76	32.215
603.09	32.238
603.42	32.067
603.76	32.580
604.09	32.134
604.42	31.854
604.76	32.082
605.09	31.989
605.42	32.479
605.75	32.077
606.09	31.498
606.42	32.751
606.75	31.342
607.09	32.225
607.42	31.786
607.75	30.941
608.08	32.011
608.42	30.975
608.75	32.346
609.08	31.406
609.41	31.992
609.75	31.014
610.08	31.755
610.41	31.341
610.74	31.906
611.07	31.363
611.41	31.320
611.74	30.590
612.07	30.537
612.40	32.000
612.73	30.681
613.07	30.488
613.40	31.883
613.73	30.715
614.06	30.790
614.39	30.684
614.72	31.538
615.06	30.944
615.39	31.567
615.72	30.454
616.05	31.025
616.38	31.386
616.71	30.294
617.05	31.388
617.38	29.945
617.71	29.902
618.04	29.860
618.37	30.284
618.70	29.625
619.03	29.759
619.36	29.039
619.69	30.409
620.03	29.682
620.36	29.297
620.69	29.907
621.02	29.231
621.35	27.882
621.68	29.258
622.01	28.722
622.34	27.597
622.67	28.504
623.00	29.787
623.33	28.497
623.66	28.327
623.99	29.332
624.32	29.787
624.65	29.970
624.99	28.949
625.32	28.902
625.65	30.155
625.98	28.673
626.31	28.327
626.64	28.375
626.97	28.979
627.30	29.598
627.63	27.509
627.96	27.965
628.29	29.116
628.62	27.853
628.95	27.054
629.28	28.177
629.61	28.517
629.94	28.337
630.26	27.586
630.59	27.373
630.92	27.209
631.25	26.880
631.58	27.623
631.91	27.466
632.24	27.333
632.57	26.778
632.90	27.421
633.23	25.180
633.56	27.218
633.89	26.914
634.22	28.151
634.55	28.015
634.88	25.858
635.20	26.250
635.53	25.581
635.86	26.282
636.19	27.295
636.52	26.220
636.85	27.262
637.18	25.579
637.51	27.341
637.83	27.415
638.16	25.200
638.49	24.566
638.82	26.144
639.15	26.729
639.48	26.604
639.81	25.139
640.13	25.775
640.46	27.401
640.79	23.597
641.12	24.704
641.45	23.726
641.77	23.270
642.10	24.054
642.43	25.157
642.76	23.659
643.09	26.837
643.41	23.126
643.74	25.363
644.07	23.625
644.40	24.378
644.73	24.915
645.05	23.560
645.38	21.096
645.71	24.490
646.04	22.391
646.36	23.958
646.69	23.776
647.02	21.494
647.35	23.949
647.67	23.105
648.00	23.551
648.33	25.085
648.66	26.043
648.98	24.379
649.31	26.380
649.64	24.726
649.96	26.066
650.29	23.529
650.62	24.547
650.94	21.897
651.27	24.028
651.60	24.650
651.92	24.910
652.25	26.633
652.58	24.587
652.90	24.242
653.23	23.430
653.56	22.810
653.88	22.526
654.21	24.061
654.54	22.924
654.86	23.740
655.19	23.950
655.52	31.915
655.84	33.827
656.17	40.493
656.49	52.446
656.82	50.468
657.15	36.972
657.47	27.267
657.80	19.684
658.13	20.527
658.45	29.841
658.78	28.871
659.10	28.474
659.43	27.675
659.75	27.188
660.08	26.414
660.41	23.428
660.73	23.829
661.06	21.429
661.38	18.798
661.71	22.951
662.03	23.890
662.36	20.796
662.68	23.441
663.01	23.517
663.33	23.758
663.66	20.399
663.98	21.348
664.31	20.659
664.63	18.919
664.96	22.101
665.28	24.034
665.61	21.598
665.93	22.698
666.26	26.793
666.58	21.199
666.91	23.094
667.23	19.355
667.56	21.149
667.88	21.729
668.21	22.768
668.53	22.989
668.86	20.863
669.18	20.804
669.50	23.041
669.83	20.048
670.15	22.143
670.48	20.920
670.80	25.383
671.13	22.197
671.45	23.288
671.77	23.707
672.10	22.807
672.42	23.092
672.75	23.393
673.07	21.818
673.39	24.254
673.72	22.954
674.04	23.566
674.37	25.610
674.69	24.280
675.01	21.368
675.34	22.319
675.66	21.569
675.98	19.248
676.31	20.588
676.63	25.170
676.95	19.765
677.28	17.202
677.60	23.529
677.92	23.947
678.25	22.343
678.57	25.255
678.89	21.748
679.22	25.052
679.54	22.857
679.86	25.000
680.18	22.692
680.51	23.462
680.83	22.612
681.15	22.004
681.48	23.447
681.80	24.949
682.12	22.708
682.44	24.346
682.77	18.526
683.09	22.991
683.41	20.000
683.73	23.214
684.06	22.345
684.38	17.735
684.70	24.236
685.02	25.207
685.34	24.266
685.67	24.015
685.99	22.064
686.31	24.483
686.63	25.368
686.96	24.861
687.28	23.553
687.60	25.331
687.92	21.790
688.24	22.600
688.56	23.684
688.89	19.822
689.21	23.094
689.53	18.468
689.85	24.270
690.17	22.198
690.49	21.256
690.82	21.002
691.14	20.048
691.46	24.130
691.78	23.956
692.10	24.416
692.42	20.440
692.74	23.261
693.06	22.472
693.39	20.609
693.71	22.889
694.03	22.955
694.35	22.973
694.67	21.250
694.99	25.000
695.31	21.447
695.63	22.683
695.95	21.120
696.27	17.260
696.59	19.624
696.91	20.391
697.23	22.335
697.56	24.460
697.88	27.235
698.20	22.678
698.52	21.963
698.84	23.684
699.16	20.804
699.48	21.728
699.80	24.806
700.12	24.397
700.44	21.690
700.76	21.910
701.08	22.356
701.40	20.060
701.72	20.923
702.04	18.239
702.36	18.598
702.68	17.378
703.00	21.930
703.32	22.006
703.64	19.880
703.96	22.874
704.28	18.373
704.60	19.207
704.91	21.003
705.23	21.835
705.55	14.483
705.87	21.127
706.19	15.751
706.51	23.592
706.83	17.516
707.15	24.695
707.47	22.865
707.79	20.558
708.11	22.879
708.43	22.081
708.74	21.809
709.06	18.717
709.38	23.055
709.70	19.520
710.02	20.872
710.34	21.000
710.66	17.264
710.98	19.195
711.29	22.403
711.61	20.645
711.93	18.710
712.25	19.231
712.57	19.649
712.89	17.949
713.20	19.858
713.52	16.058
713.84	15.806
714.16	18.447
714.48	21.203
714.80	16.294
715.11	24.128
715.43	21.429
715.75	19.876
716.07	21.687
716.39	22.896
716.70	18.705
717.02	20.000
717.34	20.833
717.66	17.241
717.97	17.857
718.29	20.079
718.61	22.747
718.93	16.279
719.24	20.664
719.56	19.476
719.88	16.045
720.20	19.368
720.51	25.391
720.83	24.514
721.15	19.106
721.46	17.557
721.78	22.709
722.10	16.335
722.42	14.516
722.73	21.236
723.05	22.041
723.37	18.908
723.68	15.200
724.00	16.170
724.32	12.971
724.63	20.165
724.95	15.385
725.27	18.987
725.58	20.165
725.90	19.247
726.22	21.377
726.53	19.216
726.85	19.708
727.16	19.630
727.48	21.839
727.80	22.656
728.11	20.492
728.43	19.922
728.74	17.857
729.06	14.800
729.38	15.020
729.69	20.641
730.01	21.561
730.32	22.509
730.64	23.864
730.96	25.874
731.27	22.742
731.59	20.952
731.90	22.654
732.22	18.910
732.53	19.595
732.85	20.470
733.16	24.092
733.48	20.608
733.80	20.946
734.11	23.311
734.43	22.910
734.74	24.324
735.06	20.749
735.37	22.492
735.69	22.977
736.00	20.792
736.32	23.759
736.63	22.414
736.95	20.548
737.26	21.034
737.58	20.833
737.89	20.962
738.21	19.217
738.52	22.053
738.83	21.224
739.15	20.253
739.46	16.342
739.78	23.592
740.09	18.493
740.41	20.000
740.72	24.113
741.04	20.000
741.35	20.175
741.66	19.111
741.98	23.077
742.29	20.792
742.61	18.049
742.92	20.614
743.23	23.585
743.55	21.622
743.86	18.386
744.18	16.667
744.49	16.751
744.80	17.857
745.12	16.822
745.43	18.009
745.74	21.171
746.06	16.355
746.37	12.385
746.68	12.981
747.00	15.789
747.31	18.269
747.62	18.807
747.94	23.581
748.25	18.349
748.56	22.222
748.88	21.596
749.19	20.952
749.50	14.078
749.82	19.249
750.13	20.417
750.44	16.923
750.75	20.664
751.07	23.488
751.38	23.759
751.69	20.463
752.01	24.609
752.32	18.846
752.63	24.254
752.94	21.200
753.26	19.247
753.57	18.333
753.88	21.862
754.19	18.725
754.51	16.541
754.82	17.582
755.13	16.522
755.44	19.106
755.75	20.000
756.07	23.247
756.38	23.741
756.69	21.502
757.00	21.184
757.31	23.625
757.63	22.531
757.94	24.576
758.25	24.868
758.56	23.913
758.87	25.298
759.18	22.713
759.50	20.202
759.81	24.415
760.12	23.385
760.43	22.321
760.74	20.339
761.05	23.204
761.36	22.923
761.67	21.450
761.99	24.742
762.30	18.613
762.61	21.399
762.92	23.504
763.23	23.361
763.54	19.913
763.85	16.327
764.16	16.667
764.47	23.200
764.78	20.714
765.10	21.311
765.41	24.620
765.72	22.671
766.03	22.442
766.34	21.923
766.65	19.665
766.96	19.249
767.27	21.782
767.58	15.169
767.89	18.519
768.20	18.232
768.51	21.106
768.82	20.673
769.13	17.257
769.44	20.502
769.75	14.530
770.06	17.489
770.37	14.706
770.68	21.359
770.99	19.417
771.30	18.067
771.61	17.551
771.92	20.332
772.23	21.622
772.54	14.365
772.85	12.791
773.16	19.048
773.47	21.302
773.78	18.391
774.09	16.875
774.39	23.602
774.70	12.925
775.01	8.966
775.32	14.286
775.63	15.789
775.94	12.782
776.25	4.000
776.56	14.876
776.87	19.841
777.18	21.622
777.48	18.018
777.79	4.724
778.10	22.936
778.41	8.772
778.72	6.723
779.03	7.746
779.34	17.568
779.65	15.493
779.95	17.881
780.26	16.547
780.57	20.144
780.88	11.972
781.19	3.361
781.50	19.463
781.80	21.637
782.11	16.279
782.42	20.126
782.73	18.954
783.04	15.172
783.34	13.740
783.65	17.450
783.96	14.615
784.27	25.000
784.57	12.057
784.88	-1.923
785.19	15.455
785.50	9.091
785.81	13.333
786.11	14.286
786.42	21.239
786.73	-3.774
787.04	4.587
787.34	2.970
787.65	23.333
787.96	17.355
788.26	13.768
788.57	15.079
788.88	24.390
789.19	20.000
789.49	10.687
789.80	23.485
790.11	2.830
790.41	2.970
790.72	18.085
791.03	3.261
791.33	-1.176
791.64	6.173
791.95	21.739
792.25	10.227
792.56	25.641
792.87	-1.282
793.17	-10.256
793.48	2.381
793.79	8.750
794.09	17.308
794.40	5.208
794.70	20.721
795.01	10.937
795.32	14.783
795.62	-2.174
795.93	9.434
796.23	14.141
796.54	-2.439
796.85	1.190
797.15	4.545
797.46	15.942
797.76	3.947
798.07	6.818
798.37	6.098
798.68	9.677
798.99	6.757
799.29	7.229
799.60	1.282
799.90	3.077
800.21	16.667
800.51	-2.667
800.82	20.000
801.12	-12.500
801.43	-6.667
801.73	2.703
802.04	14.286
802.34	-1.639
802.65	13.433
802.95	9.091
803.26	8.621
803.56	7.692
803.87	0.000
804.17	-8.065
804.48	10.294
804.78	-31.707
805.09	26.087
805.39	7.353
805.70	-42.553
806.00	1.754
806.30	12.821
806.61	0.000
806.91	16.216
807.22	11.842
807.52	15.909
807.83	-11.864
808.13	-13.636
808.43	-8.333
808.74	-24.138
809.04	4.762
809.35	-8.163
809.65	1.667
809.95	0.000
810.26	-2.817
810.56	4.167
810.86	-14.286
811.17	11.538
811.47	-21.277
811.77	2.083
812.08	1.887
812.38	-21.875
812.69	1.818
812.99	-26.829
813.29	-29.730
813.59	-18.919
813.90	-1.818
814.20	9.091
814.50	16.667
814.81	12.727
815.11	-3.509
815.41	2.326
815.72	-22.500
816.02	-5.714
816.32	-10.811
816.62	-6.250
816.93	-8.889
817.23	-28.889
817.53	-47.222
817.84	0.000
818.14	-21.951
818.44	-6.000
818.74	0.000
819.04	12.195
819.35	-16.667
819.65	-11.364
819.95	-133.333
820.25	-21.212
820.56	-9.524
820.86	-5.556
821.16	-11.364
821.46	-32.609
821.76	-3.448
822.07	-10.870
822.37	15.152
822.67	0.000
822.97	8.108
823.27	-40.000
823.57	10.345
823.88	-5.882
824.18	-25.000
824.48	8.571
824.78	-76.190
825.08	-57.143
825.38	-18.519
825.69	-9.677
825.99	12.195
826.29	3.704
826.59	-31.250
826.89	-22.581
827.19	-56.522
827.49	-44.444
827.79	-91.304
828.09	-3.226
828.39	16.667
828.70	-34.375
829.00	-31.034
829.30	-8.108
829.60	-70.833
829.90	-18.519
830.20	-31.250
830.50	-36.364
830.80	-82.353
831.10	-13.636
831.40	-20.588
831.70	-23.077
832.00	-15.152
832.30	-20.588
832.60	-2.703
832.90	3000.000
833.20	-25.000
833.50	-90.000
833.80	13.158
834.10	-12.500
834.40	-77.273
834.70	-100.000
835.00	-120.000
835.30	-20.833
835.60	-80.952
835.90	-42.857
836.20	-36.000
836.50	-54.167
836.80	-78.947
837.10	-8.108
837.40	-43.333
837.70	-43.478
838.00	-20.833
838.30	-36.842
838.60	-180.000
838.90	-250.000
839.19	-166.667
839.49	-130.769
839.79	-21.053
840.09	-316.667
840.39	-120.000
840.69	-31.818
840.99	-23.810
841.29	0.000
841.59	-130.769
841.88	-160.000
842.18	-71.429
842.48	0.000
842.78	-185.714
843.08	-92.857
843.38	-137.500
843.68	-75.000
843.97	-57.143
844.27	-144.444
844.57	-163.636
844.87	-93.333
845.17	-31.818
845.47	766.667
845.76	-140.000
846.06	-133.333
846.36	-1100.000
846.66	-42.105
846.96	-63.636
847.25	-111.111
847.55	-200.000
847.85	-76.190
848.15	-123.077
848.44	-366.667
848.74	-100.000
849.04	-69.231
849.34	-500.000
849.63	-172.727
849.93	-100.000
850.23	-65.000
850.53	-250.000
850.82	-94.444
851.12	-86.667
851.42	-82.353
851.71	-50.000
852.01	-41.176
852.31	-92.308
852.61	450.000
852.90	52.941
853.20	20.000
853.50	-62.500
853.79	-85.714
854.09	-475.000
854.39	-60.000
854.68	-10.000
854.98	-52.381
855.28	-28.000
855.57	-4.167
855.87	-12.500
856.17	-40.000
856.46	-18.750
856.76	-35.000
857.05	28.000
857.35	-166.667
857.65	-35.294
857.94	-166.667
858.24	-58.333
858.53	0.000
858.83	-127.273
859.13	-44.000
859.42	-142.857
859.72	-237.500
860.01	-25.000
860.31	-212.500
860.60	-68.750
860.90	-166.667
861.20	-183.333
861.49	-26.667
861.79	-50.000
862.08	550.000
862.38	-125.000
862.67	314.286
862.97	500.000
863.26	-154.545
863.56	-172.727
863.85	-5.263
864.15	-105.882
864.44	-400.000
864.74	-180.000
865.03	-255.556
865.33	-107.143
865.62	178.571
865.92	-84.211
866.21	-83.333
866.51	-136.364
866.80	11.111
867.10	-175.000
867.39	-37.500
867.69	-113.333
867.98	-80.000
868.27	-52.941
868.57	0.000
868.86	1000.000
869.16	-450.000
869.45	-328.571
869.75	900.000
870.04	-90.000
870.33	-1500.000
870.63	-73.684
870.92	-75.000
871.22	-1300.000
871.51	-328.571
871.80	-322.222
872.10	-425.000
>>>>>End Processed Spectral Data<<<<<
