SpectraSuite Data File
++++++++++++++++++++++++++++++++++++
Date: Wed May 13 21:24:44 PDT 2015
User: schluterlab
Dark Spectrum Present: Yes
Reference Spectrum Present: Yes
Number of Sampled Component Spectra: 1
Spectrometers: USB2E3373
Integration Time (usec): 3000 (USB2E3373)
Spectra Averaged: 3 (USB2E3373)
Boxcar Smoothing: 0 (USB2E3373)
Correct for Electrical Dark: No (USB2E3373)
Strobe/Lamp Enabled: No (USB2E3373)
Correct for Detector Non-linearity: No (USB2E3373)
Correct for Stray Light: No (USB2E3373)
Number of Pixels in Processed Spectrum: 2048
>>>>>Begin Processed Spectral Data<<<<<
178.53	0.000
178.91	600.000
179.29	208.333
179.67	-1000.000
180.04	-533.333
180.42	60.000
180.80	600.000
181.18	283.333
181.56	-325.000
181.94	-225.000
182.31	81.818
182.69	184.615
183.07	-140.000
183.45	116.667
183.83	155.556
184.20	171.429
184.58	-100.000
184.96	500.000
185.34	285.714
185.72	0.000
186.09	-600.000
186.47	-200.000
186.85	300.000
187.23	-350.000
187.61	900.000
187.98	1500.000
188.36	-187.500
188.74	0.000
189.12	18.182
189.49	-10.000
189.87	100.000
190.25	320.000
190.63	1800.000
191.00	-160.000
191.38	480.000
191.76	425.000
192.14	225.000
192.51	-26.316
192.89	333.333
193.27	350.000
193.65	-360.000
194.02	236.364
194.40	200.000
194.78	-1400.000
195.15	360.000
195.53	-160.000
195.91	-12.500
196.29	33.333
196.66	0.000
197.04	750.000
197.42	-20.000
197.79	-60.000
198.17	-137.500
198.55	-600.000
198.92	400.000
199.30	-533.333
199.68	30.000
200.05	400.000
200.43	250.000
200.81	-500.000
201.18	-200.000
201.56	-100.000
201.94	525.000
202.31	-26.087
202.69	71.429
203.07	-333.333
203.44	-120.000
203.82	-100.000
204.19	-20.000
204.57	0.000
204.95	-116.667
205.32	0.000
205.70	-50.000
206.08	-300.000
206.45	-116.667
206.83	375.000
207.20	-333.333
207.58	-80.000
207.96	-2000.000
208.33	-200.000
208.71	-1600.000
209.08	75.000
209.46	450.000
209.84	0.000
210.21	200.000
210.59	1800.000
210.96	200.000
211.34	1100.000
211.71	-800.000
212.09	-150.000
212.46	-120.000
212.84	66.667
213.22	75.000
213.59	-300.000
213.97	-250.000
214.34	-600.000
214.72	-69.231
215.09	300.000
215.47	200.000
215.84	600.000
216.22	-62.500
216.59	-250.000
216.97	433.333
217.34	66.667
217.72	0.000
218.09	100.000
218.47	-800.000
218.84	-114.286
219.22	-112.500
219.59	-333.333
219.97	-175.000
220.34	-62.500
220.72	40.000
221.09	0.000
221.47	-200.000
221.84	-100.000
222.22	0.000
222.59	1200.000
222.97	-200.000
223.34	-75.000
223.72	-1200.000
224.09	-650.000
224.46	-27.273
224.84	-37.500
225.21	-142.857
225.59	-150.000
225.96	-183.333
226.34	-100.000
226.71	-114.286
227.08	800.000
227.46	-25.000
227.83	-700.000
228.21	-62.500
228.58	-475.000
228.95	-23.529
229.33	18.750
229.70	-12.500
230.08	-100.000
230.45	-75.000
230.82	-133.333
231.20	171.429
231.57	-275.000
231.95	1200.000
232.32	58.333
232.69	-11.765
233.07	-2300.000
233.44	-8.696
233.81	-600.000
234.19	41.667
234.56	-20.000
234.93	-53.333
235.31	-10.526
235.68	-92.308
236.05	-100.000
236.43	-55.556
236.80	-6.061
237.17	-53.333
237.55	-52.941
237.92	-20.690
238.29	-55.556
238.67	-25.000
239.04	-12.903
239.41	4.255
239.79	8.511
240.16	0.000
240.53	10.714
240.91	10.714
241.28	5.357
241.65	11.290
242.02	7.895
242.40	10.145
242.77	7.246
243.14	11.538
243.51	12.766
243.89	21.154
244.26	13.208
244.63	12.500
245.00	9.375
245.38	21.008
245.75	15.574
246.12	26.316
246.49	2.439
246.87	5.042
247.24	20.946
247.61	11.921
247.98	19.231
248.36	19.527
248.73	15.730
249.10	20.707
249.47	15.591
249.84	18.421
250.22	19.403
250.59	15.421
250.96	17.273
251.33	7.656
251.70	23.013
252.08	15.481
252.45	22.222
252.82	22.814
253.19	20.623
253.56	19.784
253.94	24.555
254.31	20.775
254.68	21.141
255.05	23.102
255.42	17.133
255.79	19.018
256.16	25.868
256.54	16.190
256.91	16.456
257.28	19.497
257.65	14.650
258.02	19.648
258.39	20.468
258.76	18.605
259.14	20.455
259.51	19.382
259.88	20.867
260.25	20.556
260.62	18.539
260.99	22.812
261.36	20.466
261.73	19.259
262.10	19.593
262.47	18.025
262.85	17.910
263.22	22.564
263.59	19.740
263.96	20.195
264.33	19.471
264.70	23.256
265.07	20.370
265.44	22.069
265.81	20.595
266.18	21.412
266.55	20.306
266.92	20.975
267.29	18.724
267.66	19.745
268.03	21.605
268.40	18.220
268.77	21.281
269.14	19.184
269.51	20.739
269.88	17.108
270.25	20.975
270.62	20.492
270.99	20.866
271.36	20.833
271.73	21.285
272.10	21.905
272.47	21.497
272.84	21.850
273.21	20.939
273.58	21.107
273.95	17.547
274.32	19.403
274.69	20.583
275.06	21.555
275.43	22.787
275.80	20.035
276.17	19.890
276.54	22.025
276.91	19.164
277.28	17.870
277.65	20.105
278.02	20.000
278.39	19.716
278.76	19.398
279.13	21.098
279.50	21.034
279.87	19.565
280.23	20.180
280.60	16.955
280.97	20.455
281.34	20.032
281.71	19.350
282.08	20.855
282.45	20.984
282.82	19.808
283.19	21.494
283.56	18.906
283.92	20.642
284.29	20.437
284.66	17.298
285.03	18.567
285.40	18.127
285.77	20.571
286.14	19.453
286.51	21.589
286.87	20.308
287.24	17.404
287.61	21.084
287.98	18.529
288.35	16.393
288.72	19.799
289.08	22.934
289.45	18.209
289.82	16.793
290.19	18.654
290.56	17.187
290.93	17.403
291.29	17.921
291.66	19.126
292.03	17.575
292.40	18.708
292.77	18.474
293.13	17.434
293.50	17.124
293.87	17.467
294.24	16.402
294.60	18.205
294.97	19.048
295.34	15.435
295.71	15.375
296.08	16.099
296.44	15.944
296.81	16.078
297.18	16.625
297.55	17.335
297.91	17.267
298.28	17.191
298.65	15.271
299.02	15.995
299.38	15.951
299.75	16.226
300.12	14.884
300.48	15.088
300.85	15.358
301.22	16.028
301.59	15.023
301.95	13.240
302.32	14.702
302.69	13.785
303.05	14.618
303.42	16.023
303.79	15.247
304.15	15.991
304.52	16.237
304.89	13.732
305.25	14.599
305.62	15.510
305.99	15.669
306.35	15.361
306.72	15.666
307.09	15.120
307.45	14.483
307.82	14.632
308.19	13.375
308.55	14.330
308.92	15.914
309.29	15.015
309.65	13.287
310.02	14.612
310.38	14.126
310.75	15.483
311.12	14.189
311.48	15.430
311.85	14.862
312.22	14.313
312.58	13.140
312.95	15.423
313.31	14.968
313.68	14.027
314.05	15.595
314.41	15.466
314.78	15.560
315.14	15.000
315.51	14.653
315.87	15.477
316.24	14.876
316.61	15.251
316.97	14.907
317.34	14.349
317.70	16.236
318.07	15.705
318.43	15.447
318.80	15.881
319.16	15.031
319.53	15.412
319.89	15.718
320.26	15.989
320.62	16.126
320.99	15.698
321.35	16.370
321.72	15.784
322.08	16.513
322.45	17.761
322.81	17.006
323.18	17.263
323.54	18.773
323.91	17.706
324.27	17.822
324.64	16.463
325.00	17.848
325.37	18.515
325.73	19.276
326.10	17.914
326.46	19.565
326.83	19.498
327.19	19.350
327.56	20.467
327.92	20.193
328.29	21.452
328.65	21.472
329.01	20.229
329.38	21.652
329.74	21.116
330.11	20.018
330.47	21.181
330.84	21.300
331.20	23.057
331.56	21.830
331.93	21.016
332.29	23.197
332.66	21.610
333.02	23.197
333.38	22.456
333.75	22.355
334.11	23.264
334.48	23.104
334.84	21.820
335.20	23.499
335.57	21.671
335.93	22.423
336.29	21.716
336.66	23.932
337.02	21.652
337.38	21.758
337.75	23.686
338.11	21.691
338.47	22.346
338.84	24.399
339.20	23.369
339.56	22.696
339.93	24.633
340.29	23.313
340.65	23.695
341.02	23.544
341.38	23.986
341.74	22.857
342.11	24.112
342.47	22.929
342.83	23.448
343.20	24.958
343.56	23.549
343.92	23.639
344.28	23.133
344.65	23.592
345.01	23.487
345.37	25.247
345.73	25.327
346.10	25.762
346.46	23.984
346.82	24.639
347.19	24.604
347.55	24.798
347.91	24.708
348.27	24.054
348.63	24.679
349.00	24.528
349.36	24.097
349.72	25.677
350.08	24.493
350.45	24.276
350.81	24.491
351.17	26.174
351.53	25.059
351.89	24.464
352.26	24.479
352.62	25.736
352.98	24.681
353.34	24.396
353.70	25.623
354.07	26.275
354.43	24.806
354.79	26.122
355.15	24.301
355.51	25.664
355.87	25.254
356.24	25.682
356.60	25.332
356.96	25.787
357.32	25.155
357.68	26.432
358.04	26.455
358.40	26.357
358.77	26.300
359.13	27.393
359.49	26.571
359.85	26.763
360.21	26.214
360.57	26.312
360.93	27.542
361.29	27.535
361.66	27.639
362.02	26.093
362.38	26.662
362.74	26.251
363.10	27.621
363.46	26.297
363.82	28.381
364.18	26.759
364.54	27.717
364.90	26.899
365.26	27.742
365.62	26.847
365.98	28.043
366.35	27.447
366.71	27.389
367.07	28.065
367.43	28.084
367.79	29.048
368.15	27.918
368.51	27.496
368.87	29.658
369.23	27.402
369.59	28.330
369.95	29.173
370.31	28.103
370.67	28.602
371.03	30.290
371.39	28.815
371.75	30.071
372.11	28.704
372.47	29.921
372.83	29.542
373.19	29.640
373.55	30.708
373.91	30.410
374.27	30.360
374.63	31.223
374.99	31.058
375.35	32.123
375.71	29.416
376.07	32.351
376.42	30.682
376.78	31.110
377.14	32.542
377.50	30.313
377.86	32.802
378.22	30.468
378.58	31.715
378.94	32.875
379.30	32.792
379.66	32.552
380.02	32.966
380.38	32.169
380.74	33.592
381.09	33.655
381.45	33.736
381.81	33.765
382.17	33.333
382.53	33.785
382.89	33.776
383.25	33.642
383.61	34.140
383.97	34.500
384.32	34.342
384.68	34.547
385.04	34.331
385.40	34.869
385.76	35.158
386.12	34.732
386.48	35.799
386.83	35.294
387.19	34.978
387.55	35.193
387.91	35.793
388.27	36.190
388.62	36.767
388.98	35.920
389.34	36.090
389.70	36.325
390.06	36.875
390.42	37.629
390.77	36.131
391.13	37.816
391.49	35.737
391.85	37.444
392.20	37.281
392.56	37.841
392.92	37.917
393.28	38.059
393.64	38.532
393.99	36.414
394.35	38.148
394.71	38.205
395.07	37.673
395.42	38.635
395.78	38.867
396.14	38.427
396.50	38.618
396.85	39.452
397.21	39.388
397.57	39.317
397.92	38.323
398.28	39.650
398.64	41.044
399.00	38.504
399.35	40.238
399.71	39.546
400.07	40.964
400.42	40.439
400.78	40.000
401.14	40.589
401.49	40.623
401.85	40.786
402.21	41.238
402.57	41.386
402.92	41.677
403.28	41.839
403.63	41.785
403.99	42.290
404.35	41.521
404.70	42.236
405.06	42.220
405.42	42.462
405.77	41.705
406.13	42.571
406.49	43.200
406.84	44.139
407.20	43.043
407.55	44.026
407.91	43.018
408.27	41.984
408.62	43.708
408.98	43.835
409.34	43.069
409.69	44.444
410.05	45.398
410.40	43.153
410.76	44.224
411.11	45.398
411.47	44.791
411.83	44.916
412.18	45.214
412.54	45.113
412.89	44.828
413.25	44.897
413.60	45.768
413.96	44.632
414.31	45.314
414.67	45.587
415.03	46.752
415.38	45.178
415.74	45.484
416.09	46.596
416.45	45.591
416.80	45.235
417.16	45.951
417.51	46.618
417.87	45.966
418.22	46.671
418.58	45.861
418.93	47.332
419.29	47.723
419.64	46.628
420.00	47.302
420.35	46.683
420.71	46.374
421.06	47.048
421.42	47.202
421.77	47.283
422.12	47.736
422.48	46.619
422.83	47.312
423.19	47.671
423.54	47.939
423.90	46.437
424.25	47.776
424.61	47.874
424.96	46.659
425.31	46.607
425.67	47.678
426.02	47.644
426.38	48.134
426.73	47.587
427.09	49.218
427.44	47.622
427.79	47.328
428.15	46.667
428.50	46.949
428.85	48.216
429.21	49.240
429.56	47.343
429.92	48.464
430.27	47.904
430.62	48.478
430.98	48.070
431.33	48.361
431.68	48.136
432.04	48.394
432.39	47.055
432.74	47.885
433.10	48.286
433.45	48.107
433.80	48.506
434.16	47.515
434.51	47.989
434.86	49.293
435.22	46.802
435.57	47.789
435.92	48.070
436.28	47.267
436.63	48.672
436.98	48.531
437.34	49.084
437.69	46.930
438.04	47.595
438.39	50.249
438.75	49.046
439.10	49.277
439.45	48.547
439.81	49.015
440.16	48.754
440.51	48.216
440.86	48.311
441.22	48.365
441.57	49.403
441.92	49.663
442.27	48.701
442.63	47.955
442.98	47.512
443.33	48.815
443.68	47.865
444.03	48.634
444.39	48.686
444.74	48.095
445.09	47.522
445.44	49.803
445.79	48.425
446.15	49.418
446.50	49.009
446.85	49.653
447.20	48.615
447.55	48.797
447.91	48.989
448.26	48.142
448.61	47.699
448.96	49.374
449.31	48.144
449.66	48.814
450.02	47.243
450.37	48.061
450.72	47.474
451.07	47.774
451.42	46.912
451.77	47.900
452.12	48.069
452.47	48.870
452.83	48.467
453.18	48.695
453.53	46.847
453.88	48.193
454.23	47.899
454.58	48.162
454.93	47.659
455.28	48.812
455.63	47.910
455.98	48.022
456.34	47.743
456.69	48.435
457.04	48.297
457.39	47.865
457.74	48.175
458.09	47.275
458.44	47.767
458.79	47.227
459.14	46.742
459.49	47.744
459.84	46.618
460.19	47.179
460.54	49.513
460.89	47.860
461.24	46.732
461.59	47.162
461.94	47.029
462.29	47.794
462.64	45.646
462.99	45.875
463.34	47.169
463.69	48.325
464.04	46.699
464.39	47.041
464.74	46.806
465.09	46.683
465.44	46.296
465.79	47.384
466.14	47.092
466.49	47.977
466.84	45.487
467.19	47.134
467.54	47.051
467.89	46.889
468.24	47.818
468.59	46.718
468.94	46.679
469.29	46.067
469.64	46.583
469.99	47.379
470.34	46.325
470.68	46.617
471.03	46.544
471.38	46.662
471.73	45.748
472.08	48.591
472.43	46.768
472.78	45.842
473.13	44.459
473.48	47.097
473.83	46.202
474.17	46.680
474.52	47.573
474.87	45.356
475.22	46.196
475.57	45.120
475.92	45.965
476.27	46.445
476.61	45.696
476.96	46.316
477.31	45.038
477.66	45.650
478.01	46.319
478.36	46.376
478.70	45.865
479.05	46.337
479.40	45.814
479.75	45.643
480.10	44.875
480.45	44.532
480.79	45.545
481.14	46.505
481.49	45.683
481.84	44.628
482.19	45.067
482.53	44.476
482.88	44.775
483.23	43.936
483.58	44.754
483.92	44.358
484.27	44.785
484.62	44.119
484.97	45.002
485.31	44.024
485.66	43.654
486.01	44.211
486.36	44.636
486.70	43.903
487.05	44.419
487.40	43.773
487.75	43.784
488.09	44.166
488.44	44.444
488.79	44.133
489.13	44.612
489.48	43.010
489.83	44.573
490.17	44.439
490.52	44.367
490.87	43.764
491.22	43.947
491.56	43.603
491.91	43.351
492.26	43.617
492.60	43.867
492.95	44.704
493.30	43.411
493.64	43.022
493.99	44.106
494.34	43.642
494.68	43.914
495.03	43.182
495.37	42.871
495.72	44.060
496.07	44.423
496.41	42.911
496.76	43.419
497.11	44.225
497.45	45.039
497.80	43.816
498.14	43.375
498.49	42.864
498.84	43.421
499.18	44.102
499.53	43.821
499.87	43.523
500.22	44.201
500.56	44.032
500.91	43.913
501.26	42.956
501.60	43.333
501.95	43.124
502.29	43.738
502.64	44.021
502.98	43.497
503.33	43.504
503.67	45.229
504.02	43.578
504.36	43.883
504.71	43.699
505.06	44.524
505.40	44.330
505.75	44.456
506.09	43.383
506.44	44.002
506.78	43.321
507.13	43.659
507.47	44.062
507.82	42.700
508.16	44.116
508.51	43.388
508.85	44.220
509.19	43.439
509.54	43.592
509.88	44.301
510.23	43.842
510.57	43.856
510.92	44.019
511.26	44.499
511.61	44.402
511.95	43.716
512.30	43.753
512.64	44.949
512.98	44.432
513.33	43.887
513.67	44.804
514.02	44.641
514.36	44.494
514.70	44.804
515.05	44.529
515.39	43.573
515.74	44.523
516.08	44.366
516.42	42.800
516.77	44.991
517.11	43.974
517.46	45.078
517.80	45.763
518.14	44.458
518.49	43.400
518.83	44.809
519.17	44.036
519.52	45.235
519.86	44.809
520.20	43.723
520.55	44.279
520.89	45.414
521.23	46.154
521.58	45.133
521.92	44.123
522.26	44.632
522.61	45.184
522.95	45.013
523.29	43.365
523.64	45.264
523.98	45.299
524.32	44.991
524.66	45.519
525.01	46.592
525.35	46.083
525.69	45.063
526.04	44.625
526.38	45.188
526.72	44.970
527.06	44.745
527.41	44.275
527.75	44.059
528.09	46.018
528.43	47.965
528.78	44.961
529.12	45.925
529.46	44.722
529.80	44.984
530.15	45.045
530.49	45.687
530.83	45.904
531.17	46.370
531.51	44.504
531.86	45.461
532.20	45.279
532.54	44.897
532.88	45.065
533.22	45.926
533.57	45.364
533.91	45.677
534.25	45.833
534.59	45.238
534.93	44.770
535.27	45.350
535.62	44.474
535.96	46.324
536.30	46.476
536.64	45.455
536.98	44.989
537.32	44.270
537.66	46.897
538.01	45.492
538.35	44.959
538.69	44.482
539.03	44.228
539.37	45.339
539.71	44.270
540.05	44.399
540.39	44.666
540.73	44.832
541.07	45.918
541.42	43.569
541.76	44.114
542.10	43.873
542.44	44.976
542.78	44.622
543.12	45.148
543.46	44.022
543.80	44.399
544.14	46.111
544.48	43.464
544.82	44.452
545.16	44.016
545.50	45.645
545.84	44.670
546.18	45.161
546.52	45.166
546.86	43.816
547.20	43.174
547.54	43.817
547.88	44.602
548.22	44.039
548.56	44.696
548.90	44.723
549.24	43.958
549.58	43.203
549.92	46.222
550.26	46.199
550.60	43.994
550.94	45.149
551.28	43.603
551.62	43.985
551.96	45.168
552.30	43.595
552.64	43.079
552.98	42.898
553.32	44.773
553.66	46.148
554.00	42.909
554.34	43.297
554.68	45.339
555.02	44.012
555.36	45.159
555.69	43.554
556.03	42.244
556.37	42.176
556.71	42.677
557.05	42.657
557.39	44.537
557.73	43.646
558.07	42.879
558.41	43.452
558.75	43.726
559.08	44.106
559.42	43.666
559.76	42.737
560.10	44.197
560.44	43.405
560.78	43.597
561.12	44.569
561.45	42.585
561.79	43.260
562.13	43.108
562.47	44.071
562.81	43.218
563.15	42.918
563.48	42.533
563.82	43.707
564.16	42.316
564.50	43.148
564.84	42.297
565.17	42.119
565.51	42.981
565.85	42.105
566.19	43.113
566.52	42.529
566.86	41.783
567.20	42.700
567.54	43.351
567.88	40.258
568.21	40.304
568.55	41.836
568.89	40.828
569.23	41.705
569.56	41.761
569.90	42.101
570.24	40.614
570.57	41.010
570.91	40.013
571.25	40.318
571.59	40.770
571.92	41.009
572.26	41.016
572.60	41.977
572.93	40.519
573.27	39.903
573.61	41.319
573.95	40.402
574.28	40.371
574.62	40.583
574.96	41.043
575.29	40.697
575.63	40.964
575.97	41.005
576.30	41.134
576.64	41.001
576.98	40.918
577.31	40.882
577.65	40.667
577.98	40.472
578.32	40.539
578.66	40.483
578.99	41.502
579.33	40.955
579.67	40.453
580.00	39.876
580.34	40.208
580.67	40.397
581.01	40.159
581.35	40.534
581.68	40.261
582.02	40.811
582.35	40.665
582.69	39.942
583.02	39.760
583.36	40.094
583.70	40.056
584.03	40.496
584.37	39.891
584.70	40.666
585.04	40.211
585.37	40.292
585.71	40.135
586.04	40.376
586.38	39.621
586.72	39.674
587.05	40.299
587.39	40.185
587.72	40.372
588.06	39.644
588.39	40.022
588.73	39.771
589.06	40.123
589.40	39.560
589.73	38.771
590.07	39.519
590.40	39.265
590.73	40.113
591.07	40.033
591.40	39.522
591.74	40.285
592.07	39.799
592.41	40.069
592.74	39.738
593.08	39.419
593.41	40.655
593.75	39.826
594.08	39.724
594.41	39.744
594.75	39.730
595.08	39.358
595.42	39.120
595.75	39.046
596.09	39.261
596.42	40.033
596.75	39.930
597.09	39.854
597.42	40.781
597.75	39.333
598.09	40.164
598.42	39.911
598.76	39.295
599.09	40.616
599.42	40.144
599.76	40.105
600.09	39.834
600.42	39.247
600.76	39.246
601.09	39.247
601.42	39.592
601.76	38.610
602.09	39.522
602.42	39.950
602.76	39.471
603.09	39.548
603.42	39.024
603.76	38.698
604.09	39.486
604.42	38.510
604.76	39.546
605.09	40.100
605.42	40.126
605.75	38.887
606.09	39.445
606.42	39.568
606.75	38.398
607.09	39.140
607.42	39.842
607.75	38.993
608.08	39.991
608.42	39.410
608.75	38.796
609.08	39.196
609.41	38.847
609.75	38.830
610.08	39.892
610.41	39.067
610.74	39.365
611.07	39.329
611.41	39.867
611.74	38.147
612.07	37.989
612.40	39.676
612.73	38.804
613.07	37.805
613.40	38.877
613.73	38.570
614.06	38.530
614.39	38.633
614.72	39.367
615.06	38.667
615.39	39.128
615.72	38.499
616.05	37.950
616.38	38.545
616.71	39.292
617.05	39.496
617.38	39.002
617.71	37.377
618.04	38.879
618.37	39.117
618.70	38.939
619.03	38.557
619.36	38.577
619.69	38.304
620.03	37.809
620.36	37.857
620.69	38.473
621.02	38.769
621.35	37.694
621.68	38.142
622.01	39.482
622.34	37.748
622.67	38.215
623.00	39.438
623.33	38.070
623.66	37.323
623.99	38.335
624.32	36.977
624.65	39.392
624.99	38.207
625.32	36.893
625.65	37.829
625.98	38.073
626.31	38.449
626.64	38.607
626.97	37.370
627.30	37.040
627.63	38.062
627.96	37.316
628.29	38.977
628.62	40.039
628.95	37.475
629.28	39.212
629.61	39.713
629.94	38.685
630.26	39.015
630.59	38.761
630.92	36.948
631.25	37.899
631.58	39.079
631.91	36.267
632.24	37.541
632.57	38.000
632.90	37.806
633.23	36.331
633.56	38.369
633.89	39.474
634.22	39.458
634.55	38.368
634.88	36.520
635.20	39.625
635.53	37.080
635.86	39.487
636.19	37.593
636.52	37.317
636.85	37.998
637.18	36.784
637.51	37.079
637.83	37.337
638.16	37.200
638.49	37.250
638.82	38.301
639.15	38.830
639.48	37.032
639.81	37.500
640.13	37.746
640.46	37.288
640.79	36.403
641.12	36.686
641.45	37.991
641.77	36.966
642.10	38.578
642.43	37.893
642.76	37.855
643.09	37.380
643.41	35.088
643.74	37.157
644.07	38.350
644.40	38.474
644.73	37.458
645.05	36.998
645.38	33.555
645.71	38.435
646.04	33.838
646.36	37.153
646.69	38.636
647.02	37.158
647.35	37.294
647.67	38.262
648.00	36.957
648.33	35.424
648.66	34.558
648.98	38.354
649.31	36.503
649.64	36.150
649.96	38.073
650.29	34.477
650.62	35.420
650.94	37.069
651.27	36.042
651.60	36.713
651.92	36.559
652.25	34.506
652.58	36.799
652.90	36.700
653.23	37.521
653.56	33.554
653.88	33.788
654.21	34.130
654.54	34.718
654.86	34.146
655.19	36.555
655.52	39.458
655.84	37.086
656.17	44.445
656.49	58.462
656.82	56.766
657.15	42.416
657.47	31.415
657.80	22.780
658.13	23.758
658.45	34.562
658.78	34.585
659.10	33.664
659.43	33.838
659.75	34.034
660.08	34.828
660.41	32.860
660.73	34.022
661.06	33.844
661.38	34.496
661.71	38.320
662.03	37.844
662.36	35.841
662.68	37.204
663.01	35.805
663.33	35.637
663.66	33.259
663.98	37.079
664.31	36.264
664.63	33.333
664.96	35.667
665.28	35.622
665.61	36.285
665.93	35.760
666.26	33.755
666.58	35.546
666.91	36.323
667.23	34.101
667.56	35.632
667.88	33.879
668.21	35.491
668.53	34.253
668.86	34.532
669.18	34.988
669.50	35.023
669.83	34.368
670.15	32.381
670.48	33.563
670.80	36.980
671.13	32.952
671.45	35.845
671.77	38.147
672.10	32.943
672.42	34.924
672.75	33.393
673.07	34.545
673.39	33.769
673.72	35.329
674.04	34.426
674.37	33.537
674.69	33.951
675.01	34.829
675.34	35.011
675.66	35.948
675.98	33.850
676.31	35.520
676.63	38.095
676.95	32.471
677.28	35.550
677.60	32.108
677.92	33.925
678.25	35.792
678.57	33.401
678.89	35.394
679.22	31.884
679.54	35.510
679.86	33.789
680.18	35.000
680.51	34.423
680.83	33.333
681.15	35.363
681.48	31.864
681.80	32.924
682.12	34.167
682.44	32.193
682.77	29.895
683.09	32.589
683.41	33.953
683.73	33.259
684.06	37.611
684.38	34.615
684.70	33.198
685.02	34.917
685.34	34.834
685.67	35.084
685.99	31.851
686.31	33.793
686.63	34.743
686.96	31.911
687.28	30.339
687.60	35.350
687.92	31.712
688.24	34.200
688.56	35.526
688.89	35.189
689.21	32.735
689.53	29.730
689.85	32.360
690.17	31.868
690.49	33.816
690.82	31.265
691.14	33.575
691.46	33.179
691.78	32.527
692.10	35.032
692.42	33.187
692.74	34.783
693.06	28.989
693.39	31.148
693.71	33.111
694.03	37.727
694.35	32.883
694.67	35.250
694.99	27.062
695.31	32.558
695.63	33.902
695.95	31.807
696.27	31.233
696.59	30.914
696.91	30.168
697.23	29.695
697.56	34.532
697.88	34.304
698.20	30.238
698.52	27.570
698.84	32.536
699.16	34.279
699.48	35.062
699.80	34.367
700.12	31.635
700.44	31.831
700.76	35.112
701.08	34.441
701.40	36.228
701.72	30.154
702.04	34.906
702.36	28.659
702.68	32.317
703.00	36.257
703.32	32.312
703.64	33.434
703.96	31.965
704.28	32.530
704.60	35.976
704.91	31.661
705.23	35.127
705.55	30.000
705.87	30.986
706.19	26.007
706.51	29.577
706.83	29.299
707.15	36.280
707.47	33.058
707.79	32.487
708.11	34.447
708.43	31.472
708.74	32.447
709.06	31.283
709.38	31.700
709.70	32.432
710.02	31.464
710.34	31.333
710.66	31.596
710.98	29.721
711.29	32.792
711.61	31.290
711.93	33.226
712.25	31.119
712.57	23.158
712.89	32.967
713.20	32.270
713.52	31.022
713.84	29.677
714.16	31.068
714.48	31.013
714.80	31.310
715.11	32.849
715.43	30.435
715.75	31.988
716.07	28.916
716.39	30.303
716.70	28.058
717.02	26.275
717.34	34.848
717.66	29.741
717.97	30.952
718.29	29.134
718.61	31.330
718.93	28.295
719.24	30.996
719.56	29.213
719.88	25.373
720.20	31.621
720.51	28.516
720.83	33.852
721.15	23.171
721.46	28.244
721.78	34.661
722.10	29.482
722.42	24.597
722.73	30.502
723.05	33.469
723.37	36.555
723.68	28.800
724.00	26.383
724.32	33.054
724.63	27.572
724.95	26.923
725.27	30.802
725.58	36.626
725.90	28.870
726.22	28.261
726.53	25.490
726.85	30.292
727.16	25.185
727.48	31.801
727.80	30.078
728.11	29.918
728.43	30.469
728.74	28.175
729.06	29.200
729.38	30.830
729.69	27.402
730.01	26.022
730.32	34.317
730.64	26.136
730.96	29.021
731.27	31.438
731.59	29.206
731.90	28.803
732.22	31.731
732.53	28.378
732.85	29.530
733.16	28.713
733.48	27.703
733.80	30.068
734.11	35.473
734.43	24.768
734.74	32.733
735.06	29.107
735.37	32.523
735.69	28.479
736.00	28.053
736.32	27.660
736.63	30.690
736.95	32.192
737.26	25.517
737.58	25.347
737.89	27.835
738.21	29.181
738.52	29.658
738.83	32.245
739.15	29.536
739.46	29.183
739.78	29.930
740.09	31.164
740.41	31.071
740.72	29.433
741.04	28.400
741.35	28.509
741.66	32.000
741.98	30.288
742.29	31.188
742.61	30.732
742.92	32.456
743.23	25.472
743.55	28.829
743.86	26.906
744.18	25.000
744.49	25.381
744.80	26.020
745.12	28.037
745.43	32.227
745.74	25.225
746.06	29.439
746.37	27.523
746.68	27.404
747.00	22.488
747.31	32.212
747.62	27.982
747.94	33.624
748.25	32.110
748.56	29.333
748.88	34.742
749.19	29.048
749.50	24.757
749.82	28.169
750.13	26.250
750.44	24.615
750.75	26.937
751.07	32.740
751.38	25.532
751.69	32.819
752.01	28.906
752.32	27.308
752.63	28.731
752.94	28.800
753.26	24.268
753.57	29.583
753.88	29.150
754.19	22.709
754.51	30.451
754.82	25.641
755.13	28.261
755.44	28.049
755.75	24.400
756.07	28.782
756.38	29.856
756.69	27.304
757.00	26.480
757.31	29.126
757.63	26.235
757.94	29.096
758.25	29.365
758.56	28.804
758.87	30.655
759.18	29.968
759.50	21.212
759.81	30.769
760.12	29.538
760.43	26.488
760.74	28.814
761.05	28.177
761.36	26.648
761.67	23.565
761.99	23.711
762.30	27.737
762.61	28.395
762.92	34.615
763.23	30.738
763.54	28.571
763.85	27.347
764.16	26.016
764.47	24.000
764.78	26.429
765.10	30.164
765.41	25.228
765.72	28.261
766.03	26.733
766.34	30.769
766.65	30.126
766.96	28.169
767.27	23.762
767.58	16.854
767.89	30.247
768.20	19.890
768.51	28.643
768.82	31.250
769.13	29.204
769.44	29.707
769.75	22.650
770.06	29.148
770.37	23.529
770.68	24.272
770.99	26.699
771.30	26.471
771.61	22.041
771.92	26.141
772.23	26.577
772.54	19.890
772.85	30.233
773.16	26.984
773.47	22.485
773.78	29.310
774.09	23.125
774.39	24.845
774.70	34.694
775.01	18.621
775.32	27.143
775.63	24.060
775.94	18.045
776.25	16.800
776.56	22.314
776.87	26.984
777.18	15.315
777.48	10.811
777.79	23.622
778.10	39.450
778.41	20.175
778.72	11.765
779.03	24.648
779.34	22.973
779.65	30.282
779.95	21.192
780.26	18.705
780.57	20.144
780.88	23.239
781.19	18.487
781.50	26.846
781.80	21.637
782.11	27.907
782.42	27.044
782.73	26.144
783.04	22.069
783.34	26.718
783.65	18.121
783.96	26.923
784.27	27.143
784.57	28.369
784.88	10.577
785.19	34.545
785.50	24.545
785.81	20.952
786.11	31.933
786.42	26.549
786.73	25.472
787.04	19.266
787.34	11.881
787.65	27.500
787.96	19.008
788.26	22.464
788.57	12.698
788.88	21.951
789.19	13.600
789.49	16.794
789.80	31.818
790.11	21.698
790.41	29.703
790.72	27.660
791.03	14.130
791.33	15.294
791.64	14.815
791.95	18.478
792.25	21.591
792.56	28.205
792.87	10.256
793.17	10.256
793.48	10.714
793.79	17.500
794.09	37.500
794.40	21.875
794.70	24.324
795.01	22.656
795.32	19.130
795.62	15.217
795.93	17.925
796.23	21.212
796.54	-10.976
796.85	26.190
797.15	13.636
797.46	13.043
797.76	6.579
798.07	12.500
798.37	18.293
798.68	6.452
798.99	10.811
799.29	22.892
799.60	15.385
799.90	32.308
800.21	-6.061
800.51	-6.667
800.82	18.667
801.12	-14.583
801.43	-6.667
801.73	8.108
802.04	18.571
802.34	11.475
802.65	26.866
802.95	10.909
803.26	24.138
803.56	27.692
803.87	0.000
804.17	24.194
804.48	8.824
804.78	-9.756
805.09	13.043
805.39	13.235
805.70	-19.149
806.00	12.281
806.30	25.641
806.61	28.947
806.91	14.865
807.22	5.263
807.52	20.455
807.83	11.864
808.13	6.061
808.43	11.667
808.74	-13.793
809.04	1.587
809.35	-6.122
809.65	10.000
809.95	2.041
810.26	22.535
810.56	18.750
810.86	12.245
811.17	9.615
811.47	-19.149
811.77	-12.500
812.08	5.660
812.38	-12.500
812.69	3.636
812.99	-4.878
813.29	0.000
813.59	10.811
813.90	0.000
814.20	25.455
814.50	25.000
814.81	23.636
815.11	3.509
815.41	6.977
815.72	0.000
816.02	0.000
816.32	-5.405
816.62	10.417
816.93	37.778
817.23	-26.667
817.53	-33.333
817.84	0.000
818.14	-29.268
818.44	32.000
818.74	0.000
819.04	14.634
819.35	-8.333
819.65	0.000
819.95	-38.889
820.25	-6.061
820.56	-9.524
820.86	11.111
821.16	-11.364
821.46	-8.696
821.76	3.448
822.07	0.000
822.37	18.182
822.67	48.780
822.97	10.811
823.27	-37.143
823.57	3.448
823.88	11.765
824.18	8.333
824.48	5.714
824.78	-33.333
825.08	-17.857
825.38	33.333
825.69	-9.677
825.99	2.439
826.29	14.815
826.59	12.500
826.89	-12.903
827.19	-17.391
827.49	-27.778
827.79	-43.478
828.09	-19.355
828.39	14.583
828.70	-43.750
829.00	0.000
829.30	-5.405
829.60	-20.833
829.90	0.000
830.20	12.500
830.50	-27.273
830.80	-123.529
831.10	-59.091
831.40	-11.765
831.70	-26.923
832.00	-15.152
832.30	-14.706
832.60	0.000
832.90	900.000
833.20	10.714
833.50	-75.000
833.80	15.789
834.10	-29.167
834.40	-45.455
834.70	-113.333
835.00	-20.000
835.30	4.167
835.60	-4.762
835.90	-14.286
836.20	-8.000
836.50	-41.667
836.80	-21.053
837.10	5.405
837.40	20.000
837.70	-34.783
838.00	4.167
838.30	-36.842
838.60	-200.000
838.90	-190.000
839.19	-75.000
839.49	-53.846
839.79	-68.421
840.09	-250.000
840.39	-90.000
840.69	-27.273
840.99	-14.286
841.29	-41.667
841.59	-100.000
841.88	-140.000
842.18	-57.143
842.48	16.667
842.78	-200.000
843.08	-7.143
843.38	-100.000
843.68	-81.250
843.97	-7.143
844.27	-188.889
844.57	-127.273
844.87	-86.667
845.17	4.545
845.47	633.333
845.76	-106.667
846.06	-125.000
846.36	-1050.000
846.66	-42.105
846.96	-40.909
847.25	-77.778
847.55	-155.556
847.85	-4.762
848.15	0.000
848.44	-283.333
848.74	-75.000
849.04	-161.538
849.34	-375.000
849.63	-109.091
849.93	-100.000
850.23	-20.000
850.53	-87.500
850.82	-38.889
851.12	-53.333
851.42	-17.647
851.71	-137.500
852.01	-5.882
852.31	53.846
852.61	750.000
852.90	29.412
853.20	-20.000
853.50	-75.000
853.79	-107.143
854.09	-325.000
854.39	-65.000
854.68	0.000
854.98	-38.095
855.28	12.000
855.57	-16.667
855.87	-8.333
856.17	-20.000
856.46	-3.125
856.76	-5.000
857.05	16.000
857.35	-83.333
857.65	-41.176
857.94	-133.333
858.24	-83.333
858.53	-30.000
858.83	-90.909
859.13	12.000
859.42	-64.286
859.72	-62.500
860.01	25.000
860.31	-187.500
860.60	-50.000
860.90	-266.667
861.20	-83.333
861.49	-13.333
861.79	-18.750
862.08	250.000
862.38	-100.000
862.67	328.571
862.97	275.000
863.26	-190.909
863.56	-45.455
863.85	0.000
864.15	-47.059
864.44	-340.000
864.74	-120.000
865.03	-166.667
865.33	-57.143
865.62	142.857
865.92	5.263
866.21	-83.333
866.51	-100.000
866.80	-55.556
867.10	-162.500
867.39	-25.000
867.69	-26.667
867.98	-90.000
868.27	5.882
868.57	0.000
868.86	1050.000
869.16	-150.000
869.45	-85.714
869.75	350.000
870.04	50.000
870.33	-1000.000
870.63	-5.263
870.92	-41.667
871.22	-900.000
871.51	-171.429
871.80	-277.778
872.10	-300.000
>>>>>End Processed Spectral Data<<<<<
