SpectraSuite Data File
++++++++++++++++++++++++++++++++++++
Date: Wed May 13 21:27:39 PDT 2015
User: schluterlab
Dark Spectrum Present: Yes
Reference Spectrum Present: Yes
Number of Sampled Component Spectra: 1
Spectrometers: USB2E3373
Integration Time (usec): 3000 (USB2E3373)
Spectra Averaged: 3 (USB2E3373)
Boxcar Smoothing: 0 (USB2E3373)
Correct for Electrical Dark: No (USB2E3373)
Strobe/Lamp Enabled: No (USB2E3373)
Correct for Detector Non-linearity: No (USB2E3373)
Correct for Stray Light: No (USB2E3373)
Number of Pixels in Processed Spectrum: 2048
>>>>>Begin Processed Spectral Data<<<<<
178.53	0.000
178.91	350.000
179.29	208.333
179.67	-800.000
180.04	-300.000
180.42	100.000
180.80	1400.000
181.18	283.333
181.56	-425.000
181.94	-250.000
182.31	18.182
182.69	146.154
183.07	-60.000
183.45	366.667
183.83	166.667
184.20	285.714
184.58	-133.333
184.96	633.333
185.34	271.429
185.72	0.000
186.09	-300.000
186.47	-100.000
186.85	220.000
187.23	-200.000
187.61	400.000
187.98	700.000
188.36	-87.500
188.74	0.000
189.12	-72.727
189.49	60.000
189.87	141.667
190.25	380.000
190.63	800.000
191.00	-120.000
191.38	420.000
191.76	200.000
192.14	175.000
192.51	-52.632
192.89	633.333
193.27	400.000
193.65	-460.000
194.02	254.545
194.40	220.000
194.78	-700.000
195.15	280.000
195.53	-340.000
195.91	-125.000
196.29	0.000
196.66	0.000
197.04	350.000
197.42	-100.000
197.79	-40.000
198.17	-100.000
198.55	-366.667
198.92	150.000
199.30	-333.333
199.68	-10.000
200.05	950.000
200.43	266.667
200.81	-800.000
201.18	-160.000
201.56	-66.667
201.94	875.000
202.31	-21.739
202.69	-100.000
203.07	-466.667
203.44	-400.000
203.82	-500.000
204.19	-70.000
204.57	0.000
204.95	-233.333
205.32	0.000
205.70	-350.000
206.08	-400.000
206.45	-166.667
206.83	325.000
207.20	-666.667
207.58	-140.000
207.96	-2100.000
208.33	-185.714
208.71	-1400.000
209.08	250.000
209.46	550.000
209.84	0.000
210.21	60.000
210.59	1300.000
210.96	320.000
211.34	1400.000
211.71	-400.000
212.09	-216.667
212.46	-170.000
212.84	-233.333
213.22	0.000
213.59	-1400.000
213.97	-700.000
214.34	-500.000
214.72	30.769
215.09	275.000
215.47	144.444
215.84	600.000
216.22	-175.000
216.59	-600.000
216.97	266.667
217.34	255.556
217.72	0.000
218.09	33.333
218.47	-800.000
218.84	-142.857
219.22	-150.000
219.59	-300.000
219.97	-375.000
220.34	-37.500
220.72	-160.000
221.09	0.000
221.47	-83.333
221.84	-1700.000
222.22	0.000
222.59	-300.000
222.97	-500.000
223.34	-83.333
223.72	-1600.000
224.09	-900.000
224.46	45.455
224.84	-62.500
225.21	-142.857
225.59	-350.000
225.96	-100.000
226.34	-180.000
226.71	-171.429
227.08	600.000
227.46	-150.000
227.83	-1100.000
228.21	0.000
228.58	-350.000
228.95	-58.824
229.33	0.000
229.70	0.000
230.08	-115.385
230.45	-187.500
230.82	-41.667
231.20	214.286
231.57	-250.000
231.95	1300.000
232.32	-8.333
232.69	-29.412
233.07	-1800.000
233.44	-26.087
233.81	-1050.000
234.19	-4.167
234.56	-73.333
234.93	26.667
235.31	5.263
235.68	-123.077
236.05	-30.769
236.43	-66.667
236.80	-12.121
237.17	-166.667
237.55	-94.118
237.92	-68.966
238.29	-66.667
238.67	-19.444
239.04	-48.387
239.41	-25.532
239.79	-10.638
240.16	-6.977
240.53	-30.357
240.91	-5.357
241.28	-21.429
241.65	-3.226
242.02	-5.263
242.40	-1.449
242.77	-17.391
243.14	-5.128
243.51	-5.319
243.89	-11.538
244.26	2.830
244.63	-9.615
245.00	-3.125
245.38	-11.765
245.75	-0.820
246.12	-6.015
246.49	-13.821
246.87	-23.529
247.24	-5.405
247.61	-4.636
247.98	-3.205
248.36	-10.651
248.73	-8.427
249.10	-5.051
249.47	-5.376
249.84	-5.263
250.22	-6.965
250.59	-5.607
250.96	-0.455
251.33	-11.005
251.70	-1.255
252.08	-3.347
252.45	2.058
252.82	-5.703
253.19	-2.335
253.56	-1.079
253.94	-2.135
254.31	-3.169
254.68	0.671
255.05	-1.980
255.42	-1.399
255.79	-0.307
256.16	-1.893
256.54	-4.127
256.91	-4.747
257.28	-0.629
257.65	-5.414
258.02	-3.812
258.39	0.585
258.76	-4.942
259.14	-2.557
259.51	-2.528
259.88	1.084
260.25	-2.222
260.62	-3.652
260.99	1.326
261.36	-0.259
261.73	-3.457
262.10	-3.308
262.47	-3.210
262.85	-1.493
263.22	-3.590
263.59	-2.857
263.96	-2.920
264.33	-3.606
264.70	-0.465
265.07	0.000
265.44	-1.379
265.81	-2.288
266.18	-2.506
266.55	-1.310
266.92	-2.542
267.29	-2.263
267.66	0.637
268.03	-1.029
268.40	-4.661
268.77	1.033
269.14	-1.837
269.51	1.437
269.88	-2.648
270.25	-0.212
270.62	-2.664
270.99	0.197
271.36	-0.397
271.73	-2.209
272.10	0.190
272.47	-2.687
272.84	0.787
273.21	-0.196
273.58	-1.230
273.95	-1.887
274.32	-2.239
274.69	-1.093
275.06	0.530
275.43	0.377
275.80	-0.887
276.17	-1.842
276.54	-0.710
276.91	-0.871
277.28	-2.888
277.65	1.049
278.02	-0.893
278.39	-3.020
278.76	-0.836
279.13	-1.372
279.50	-2.069
279.87	-1.630
280.23	-3.063
280.60	-2.249
280.97	-2.110
281.34	1.262
281.71	-1.463
282.08	-2.222
282.45	0.164
282.82	-0.160
283.19	0.762
283.56	0.625
283.92	0.153
284.29	-1.872
284.66	-0.824
285.03	-3.094
285.40	-0.453
285.77	-1.802
286.14	0.152
286.51	1.199
286.87	0.000
287.24	-1.917
287.61	0.000
287.98	0.294
288.35	-1.788
288.72	1.435
289.08	1.994
289.45	-1.909
289.82	-0.605
290.19	-0.982
290.56	-1.705
290.93	-0.829
291.29	0.137
291.66	-0.683
292.03	0.681
292.40	0.404
292.77	0.000
293.13	-2.232
293.50	-0.784
293.87	0.000
294.24	-0.794
294.60	-0.130
294.97	0.926
295.34	-2.243
295.71	-1.314
296.08	-1.963
296.44	-1.786
296.81	-1.096
297.18	0.000
297.55	0.236
297.91	-2.112
298.28	-0.969
298.65	-1.601
299.02	-0.977
299.38	-1.840
299.75	-0.721
300.12	-1.744
300.48	-1.988
300.85	-1.617
301.22	-0.929
301.59	-1.056
301.95	-2.555
302.32	-1.284
302.69	-2.712
303.05	-0.775
303.42	-0.568
303.79	-0.210
304.15	-1.095
304.52	0.000
304.89	-1.661
305.25	-1.427
305.62	-1.085
305.99	-1.197
306.35	0.836
306.72	-0.305
307.09	-0.104
307.45	-1.171
307.82	-2.105
308.19	-0.836
308.55	-0.921
308.92	0.786
309.29	-0.501
309.65	-1.399
310.02	-0.994
310.38	0.305
310.75	0.000
311.12	0.097
311.48	-1.682
311.85	-0.689
312.22	0.677
312.58	0.386
312.95	0.597
313.31	0.826
313.68	1.050
314.05	-0.189
314.41	0.672
314.78	0.285
315.14	0.093
315.51	0.476
315.87	1.390
316.24	1.653
316.61	1.461
316.97	0.741
317.34	1.426
317.70	1.873
318.07	3.461
318.43	1.716
318.80	2.967
319.16	1.592
319.53	2.419
319.89	3.342
320.26	2.865
320.62	3.336
320.99	4.554
321.35	3.835
321.72	3.561
322.08	6.365
322.45	5.735
322.81	5.360
323.18	5.993
323.54	5.776
323.91	5.420
324.27	6.751
324.64	7.143
325.00	7.262
325.37	7.765
325.73	6.734
326.10	7.485
326.46	8.027
326.83	8.576
327.19	9.187
327.56	10.073
327.92	9.574
328.29	11.269
328.65	11.131
329.01	9.587
329.38	11.913
329.74	11.845
330.11	9.829
330.47	11.024
330.84	11.282
331.20	11.699
331.56	12.047
331.93	11.972
332.29	13.206
332.66	11.017
333.02	12.163
333.38	13.333
333.75	12.116
334.11	13.281
334.48	12.119
334.84	12.456
335.20	12.178
335.57	12.272
335.93	12.715
336.29	12.872
336.66	13.932
337.02	13.739
337.38	13.577
337.75	13.092
338.11	12.980
338.47	13.185
338.84	13.574
339.20	14.638
339.56	14.078
339.93	13.483
340.29	13.749
340.65	14.457
341.02	14.226
341.38	13.345
341.74	13.866
342.11	14.451
342.47	13.891
342.83	12.990
343.20	14.213
343.56	14.800
343.92	14.216
344.28	14.692
344.65	14.857
345.01	14.286
345.37	15.378
345.73	15.441
346.10	14.848
346.46	15.203
346.82	14.045
347.19	13.845
347.55	15.590
347.91	15.433
348.27	15.300
348.63	15.785
349.00	15.016
349.36	15.306
349.72	15.700
350.08	14.665
350.45	14.957
350.81	16.197
351.17	15.781
351.53	15.475
351.89	15.568
352.26	14.595
352.62	15.891
352.98	14.696
353.34	15.862
353.70	15.732
354.07	16.392
354.43	16.796
354.79	15.385
355.15	16.149
355.51	16.097
355.87	16.654
356.24	15.971
356.60	14.934
356.96	16.193
357.32	16.641
357.68	16.425
358.04	16.137
358.40	16.822
358.77	16.284
359.13	15.953
359.49	17.108
359.85	16.907
360.21	16.962
360.57	17.338
360.93	16.768
361.29	17.024
361.66	16.173
362.02	16.976
362.38	17.356
362.74	16.461
363.10	17.064
363.46	16.354
363.82	18.108
364.18	17.186
364.54	18.162
364.90	16.028
365.26	17.197
365.62	17.045
365.98	17.509
366.35	18.369
366.71	17.618
367.07	17.222
367.43	17.282
367.79	18.138
368.15	17.651
368.51	17.089
368.87	18.702
369.23	17.295
369.59	17.336
369.95	17.126
370.31	17.852
370.67	16.727
371.03	18.337
371.39	18.595
371.75	17.643
372.11	17.308
372.47	18.673
372.83	18.377
373.19	17.482
373.55	18.280
373.91	18.670
374.27	17.981
374.63	18.137
374.99	17.758
375.35	18.836
375.71	17.188
376.07	19.260
376.42	18.583
376.78	19.947
377.14	19.932
377.50	19.100
377.86	18.858
378.22	19.722
378.58	19.042
378.94	20.062
379.30	18.551
379.66	18.989
380.02	18.934
380.38	18.675
380.74	19.366
381.09	19.542
381.45	20.133
381.81	19.532
382.17	18.778
382.53	19.200
382.89	19.662
383.25	18.704
383.61	20.157
383.97	19.813
384.32	18.778
384.68	19.679
385.04	19.853
385.40	20.423
385.76	20.073
386.12	19.045
386.48	19.373
386.83	19.650
387.19	19.803
387.55	20.294
387.91	20.849
388.27	19.544
388.62	19.538
388.98	19.775
389.34	19.298
389.70	19.292
390.06	20.188
390.42	20.296
390.77	20.500
391.13	19.697
391.49	18.975
391.85	20.703
392.20	19.424
392.56	20.000
392.92	20.012
393.28	19.930
393.64	20.000
393.99	19.706
394.35	20.494
394.71	20.064
395.07	19.371
395.42	19.196
395.78	19.434
396.14	19.594
396.50	19.341
396.85	20.778
397.21	19.850
397.57	19.876
397.92	19.521
398.28	19.233
398.64	20.036
399.00	19.810
399.35	20.885
399.71	19.685
400.07	18.675
400.42	20.125
400.78	18.671
401.14	18.884
401.49	18.933
401.85	19.717
402.21	18.700
402.57	19.497
402.92	20.588
403.28	19.012
403.63	19.467
403.99	19.002
404.35	19.701
404.70	17.100
405.06	20.023
405.42	18.342
405.77	18.721
406.13	18.514
406.49	18.874
406.84	18.315
407.20	19.716
407.55	18.701
407.91	18.200
408.27	18.216
408.62	19.890
408.98	18.866
409.34	18.007
409.69	19.558
410.05	18.719
410.40	18.077
410.76	19.495
411.11	17.973
411.47	18.912
411.83	17.717
412.18	18.577
412.54	19.298
412.89	18.433
413.25	18.525
413.60	18.119
413.96	17.790
414.31	18.434
414.67	17.397
415.03	18.268
415.38	17.239
415.74	18.259
416.09	18.308
416.45	19.002
416.80	18.121
417.16	17.814
417.51	16.879
417.87	17.791
418.22	18.229
418.58	17.083
418.93	17.828
419.29	18.482
419.64	16.539
420.00	18.476
420.35	17.454
420.71	16.758
421.06	17.159
421.42	18.066
421.77	17.977
422.12	17.708
422.48	17.884
422.83	18.311
423.19	17.309
423.54	18.375
423.90	17.399
424.25	17.678
424.61	17.375
424.96	17.682
425.31	17.106
425.67	17.637
426.02	17.432
426.38	17.226
426.73	17.104
427.09	16.448
427.44	17.205
427.79	16.983
428.15	16.575
428.50	16.556
428.85	16.790
429.21	15.926
429.56	16.844
429.92	16.450
430.27	17.127
430.62	16.894
430.98	17.345
431.33	16.819
431.68	17.252
432.04	16.507
432.39	15.993
432.74	16.432
433.10	16.676
433.45	16.095
433.80	16.264
434.16	16.658
434.51	16.413
434.86	15.960
435.22	15.280
435.57	15.356
435.92	15.682
436.28	15.315
436.63	15.531
436.98	15.746
437.34	16.178
437.69	15.289
438.04	15.450
438.39	15.567
438.75	15.614
439.10	16.079
439.45	15.073
439.81	16.810
440.16	16.406
440.51	15.636
440.86	14.464
441.22	15.950
441.57	15.239
441.92	15.656
442.27	14.719
442.63	15.608
442.98	14.178
443.33	15.463
443.68	15.182
444.03	15.251
444.39	15.716
444.74	15.240
445.09	14.262
445.44	15.380
445.79	14.404
446.15	15.530
446.50	14.813
446.85	15.072
447.20	14.009
447.55	15.221
447.91	14.382
448.26	14.465
448.61	14.960
448.96	13.952
449.31	14.620
449.66	15.038
450.02	14.213
450.37	14.454
450.72	13.720
451.07	14.671
451.42	13.724
451.77	13.816
452.12	13.607
452.47	13.751
452.83	13.443
453.18	13.176
453.53	13.997
453.88	13.554
454.23	13.412
454.58	13.725
454.93	12.765
455.28	14.644
455.63	12.289
455.98	13.512
456.34	13.350
456.69	13.546
457.04	12.879
457.39	12.928
457.74	12.867
458.09	13.863
458.44	13.337
458.79	12.685
459.14	12.921
459.49	12.744
459.84	12.458
460.19	12.305
460.54	12.835
460.89	13.232
461.24	12.885
461.59	12.560
461.94	12.642
462.29	12.316
462.64	12.467
462.99	12.542
463.34	12.500
463.69	12.113
464.04	11.765
464.39	11.348
464.74	11.548
465.09	11.469
465.44	12.121
465.79	12.478
466.14	11.231
466.49	11.378
466.84	12.134
467.19	10.764
467.54	11.795
467.89	11.565
468.24	11.555
468.59	10.453
468.94	12.005
469.29	11.699
469.64	11.855
469.99	11.793
470.34	11.194
470.68	10.558
471.03	11.495
471.38	11.474
471.73	10.700
472.08	10.378
472.43	10.950
472.78	11.697
473.13	10.356
473.48	10.372
473.83	9.605
474.17	9.440
474.52	9.773
474.87	10.615
475.22	10.870
475.57	10.039
475.92	11.123
476.27	9.732
476.61	10.532
476.96	10.394
477.31	10.032
477.66	10.113
478.01	9.615
478.36	10.082
478.70	10.204
479.05	10.211
479.40	9.932
479.75	9.830
480.10	10.505
480.45	9.318
480.79	9.756
481.14	10.385
481.49	9.719
481.84	9.472
482.19	9.356
482.53	9.429
482.88	9.684
483.23	9.143
483.58	9.594
483.92	8.755
484.27	8.646
484.62	9.099
484.97	9.540
485.31	8.883
485.66	9.525
486.01	9.492
486.36	9.526
486.70	9.592
487.05	9.508
487.40	9.117
487.75	9.130
488.09	8.915
488.44	8.833
488.79	9.122
489.13	8.787
489.48	8.764
489.83	8.039
490.17	7.898
490.52	9.070
490.87	8.623
491.22	8.337
491.56	9.008
491.91	8.257
492.26	8.172
492.60	8.514
492.95	8.552
493.30	8.769
493.64	8.058
493.99	8.599
494.34	7.659
494.68	8.067
495.03	7.856
495.37	7.883
495.72	7.569
496.07	7.842
496.41	7.534
496.76	8.135
497.11	7.840
497.45	8.025
497.80	8.077
498.14	7.809
498.49	7.867
498.84	7.591
499.18	7.666
499.53	7.829
499.87	7.715
500.22	7.168
500.56	7.673
500.91	7.897
501.26	7.882
501.60	7.206
501.95	7.858
502.29	7.427
502.64	7.907
502.98	8.092
503.33	6.764
503.67	7.595
504.02	7.255
504.36	7.429
504.71	7.165
505.06	8.049
505.40	7.423
505.75	7.986
506.09	7.154
506.44	8.065
506.78	7.161
507.13	6.809
507.47	7.317
507.82	7.274
508.16	7.071
508.51	6.870
508.85	7.154
509.19	6.561
509.54	7.614
509.88	6.344
510.23	7.053
510.57	7.203
510.92	7.543
511.26	7.096
511.61	6.422
511.95	7.111
512.30	6.385
512.64	7.264
512.98	7.258
513.33	6.648
513.67	7.041
514.02	6.613
514.36	6.854
514.70	6.467
515.05	6.846
515.39	6.840
515.74	6.039
516.08	6.490
516.42	6.452
516.77	6.151
517.11	6.820
517.46	6.423
517.80	6.780
518.14	5.756
518.49	5.967
518.83	6.742
519.17	6.506
519.52	6.574
519.86	6.072
520.20	5.882
520.55	6.157
520.89	6.705
521.23	6.667
521.58	6.511
521.92	5.783
522.26	5.725
522.61	5.947
522.95	7.060
523.29	6.476
523.64	6.548
523.98	6.099
524.32	5.419
524.66	5.519
525.01	5.832
525.35	5.991
525.69	6.097
526.04	6.645
526.38	6.373
526.72	5.786
527.06	6.641
527.41	5.692
527.75	4.873
528.09	6.399
528.43	6.309
528.78	6.718
529.12	6.662
529.46	6.334
529.80	6.537
530.15	5.663
530.49	5.660
530.83	5.484
531.17	5.616
531.51	5.192
531.86	5.217
532.20	5.996
532.54	4.552
532.88	6.535
533.22	5.791
533.57	6.093
533.91	6.774
534.25	6.185
534.59	5.920
534.93	6.122
535.27	5.924
535.62	5.000
535.96	6.766
536.30	4.920
536.64	5.058
536.98	4.765
537.32	4.982
537.66	5.501
538.01	5.964
538.35	5.318
538.69	5.753
539.03	5.772
539.37	5.567
539.71	5.730
540.05	5.128
540.39	5.162
540.73	5.796
541.07	5.714
541.42	5.859
541.76	5.413
542.10	5.349
542.44	4.782
542.78	4.927
543.12	5.458
543.46	5.321
543.80	5.567
544.14	4.955
544.48	5.375
544.82	4.842
545.16	4.462
545.50	6.009
545.84	5.119
546.18	4.909
546.52	5.999
546.86	3.887
547.20	4.360
547.54	4.932
547.88	4.926
548.22	5.342
548.56	4.270
548.90	5.007
549.24	5.347
549.58	4.626
549.92	5.723
550.26	6.568
550.60	4.730
550.94	4.701
551.28	4.012
551.62	5.564
551.96	5.124
552.30	4.585
552.64	3.955
552.98	6.179
553.32	4.614
553.66	5.062
554.00	5.184
554.34	4.835
554.68	4.698
555.02	4.716
555.36	4.992
555.69	4.588
556.03	4.146
556.37	4.979
556.71	5.116
557.05	4.797
557.39	4.145
557.73	4.841
558.07	4.446
558.41	5.148
558.75	5.081
559.08	3.609
559.42	4.799
559.76	4.893
560.10	4.842
560.44	4.495
560.78	4.029
561.12	4.835
561.45	4.626
561.79	5.158
562.13	4.712
562.47	4.286
562.81	4.545
563.15	4.320
563.48	5.368
563.82	3.899
564.16	4.942
564.50	5.020
564.84	3.919
565.17	5.232
565.51	4.479
565.85	4.197
566.19	4.437
566.52	4.456
566.86	3.856
567.20	4.887
567.54	5.527
567.88	4.367
568.21	4.889
568.55	4.799
568.89	3.988
569.23	4.629
569.56	5.590
569.90	5.023
570.24	4.549
570.57	5.084
570.91	5.293
571.25	5.064
571.59	5.051
571.92	5.456
572.26	5.198
572.60	5.112
572.93	4.717
573.27	4.798
573.61	5.269
573.95	5.182
574.28	5.104
574.62	5.233
574.96	5.192
575.29	4.689
575.63	4.768
575.97	5.054
576.30	4.846
576.64	4.978
576.98	5.247
577.31	5.143
577.65	5.081
577.98	5.173
578.32	4.945
578.66	5.238
578.99	5.047
579.33	4.748
579.67	4.913
580.00	4.596
580.34	5.138
580.67	5.365
581.01	5.014
581.35	5.135
581.68	5.111
582.02	5.099
582.35	5.292
582.69	5.063
583.02	4.999
583.36	4.900
583.70	4.901
584.03	4.934
584.37	4.454
584.70	4.847
585.04	4.862
585.37	4.982
585.71	4.945
586.04	4.812
586.38	5.025
586.72	5.058
587.05	5.189
587.39	5.458
587.72	5.027
588.06	5.062
588.39	4.954
588.73	4.813
589.06	4.429
589.40	4.954
589.73	4.599
590.07	4.958
590.40	4.847
590.73	4.822
591.07	4.639
591.40	4.652
591.74	4.713
592.07	4.564
592.41	5.234
592.74	4.977
593.08	4.718
593.41	5.170
593.75	4.716
594.08	4.560
594.41	4.717
594.75	4.798
595.08	4.444
595.42	4.438
595.75	4.772
596.09	4.811
596.42	4.371
596.75	4.476
597.09	5.187
597.42	5.159
597.75	4.444
598.09	4.872
598.42	4.430
598.76	4.156
599.09	4.802
599.42	4.796
599.76	5.069
600.09	4.330
600.42	5.047
600.76	4.324
601.09	5.198
601.42	4.351
601.76	4.595
602.09	4.905
602.42	5.241
602.76	4.530
603.09	4.641
603.42	4.838
603.76	4.677
604.09	4.427
604.42	4.186
604.76	4.540
605.09	4.667
605.42	5.488
605.75	4.540
606.09	4.139
606.42	4.156
606.75	4.242
607.09	4.034
607.42	4.641
607.75	4.114
608.08	4.554
608.42	4.592
608.75	4.300
609.08	4.361
609.41	4.670
609.75	4.236
610.08	4.783
610.41	4.519
610.74	4.283
611.07	4.359
611.41	5.067
611.74	4.762
612.07	4.638
612.40	4.811
612.73	4.501
613.07	4.767
613.40	4.130
613.73	4.713
614.06	3.759
614.39	3.502
614.72	5.053
615.06	3.833
615.39	4.249
615.72	3.564
616.05	4.336
616.38	4.353
616.71	3.599
617.05	4.914
617.38	4.498
617.71	3.676
618.04	4.875
618.37	3.975
618.70	4.463
619.03	3.643
619.36	4.199
619.69	4.459
620.03	3.816
620.36	3.827
620.69	3.426
621.02	3.077
621.35	3.434
621.68	3.586
622.01	4.126
622.34	3.093
622.67	4.542
623.00	4.407
623.33	3.590
623.66	3.792
623.99	4.426
624.32	4.109
624.65	4.451
624.99	3.527
625.32	4.108
625.65	4.031
625.98	3.081
626.31	4.490
626.64	3.611
626.97	3.806
627.30	3.593
627.63	2.768
627.96	2.684
628.29	3.256
628.62	4.836
628.95	3.106
629.28	2.759
629.61	4.306
629.94	3.191
630.26	4.729
630.59	3.696
630.92	3.614
631.25	3.605
631.58	3.747
631.91	2.863
632.24	2.634
632.57	1.778
632.90	2.917
633.23	2.758
633.56	5.036
633.89	3.110
634.22	4.122
634.55	3.898
634.88	2.941
635.20	5.500
635.53	2.842
635.86	2.564
636.19	3.970
636.52	1.707
636.85	2.292
637.18	2.558
637.51	3.620
637.83	3.525
638.16	1.333
638.49	1.335
638.82	3.137
639.15	2.527
639.48	3.342
639.81	3.889
640.13	4.085
640.46	4.944
640.79	2.014
641.12	1.627
641.45	2.475
641.77	3.535
642.10	3.631
642.43	3.774
642.76	2.839
643.09	2.077
643.41	3.349
643.74	3.716
644.07	1.456
644.40	3.648
644.73	1.356
645.05	0.873
645.38	2.159
645.71	3.571
646.04	1.010
646.36	1.736
646.69	3.497
647.02	3.643
647.35	2.742
647.67	2.957
648.00	1.449
648.33	2.542
648.66	1.669
648.98	2.950
649.31	1.687
649.64	1.408
649.96	3.633
650.29	1.471
650.62	1.812
650.94	2.586
651.27	0.707
651.60	2.273
651.92	2.509
652.25	4.188
652.58	3.960
652.90	3.704
653.23	1.019
653.56	0.496
653.88	0.683
654.21	0.853
654.54	2.824
654.86	3.252
655.19	0.840
655.52	5.351
655.84	4.674
656.17	5.712
656.49	7.334
656.82	7.191
657.15	5.223
657.47	4.012
657.80	2.782
658.13	2.995
658.45	4.303
658.78	4.338
659.10	4.282
659.43	3.838
659.75	3.765
660.08	4.276
660.41	2.028
660.73	2.479
661.06	2.211
661.38	1.550
661.71	3.074
662.03	1.057
662.36	0.442
662.68	3.226
663.01	4.661
663.33	2.160
663.66	-0.887
663.98	2.472
664.31	0.220
664.63	-2.703
664.96	1.751
665.28	1.288
665.61	0.648
665.93	2.570
666.26	2.743
666.58	0.857
666.91	4.036
667.23	0.922
667.56	1.839
667.88	2.570
668.21	2.902
668.53	2.529
668.86	4.556
669.18	2.364
669.50	1.382
669.83	1.432
670.15	-0.714
670.48	1.839
670.80	2.845
671.13	0.686
671.45	1.826
671.77	0.647
672.10	0.195
672.42	1.336
672.75	1.071
673.07	2.000
673.39	1.493
673.72	1.796
674.04	3.279
674.37	3.049
674.69	1.646
675.01	2.778
675.34	3.282
675.66	2.832
675.98	1.770
676.31	1.810
676.63	4.762
676.95	0.471
677.28	0.229
677.60	2.206
677.92	3.326
678.25	1.302
678.57	1.629
678.89	1.066
679.22	0.414
679.54	2.041
679.86	2.930
680.18	2.500
680.51	1.538
680.83	-2.144
681.15	2.554
681.48	2.806
681.80	1.431
682.12	-0.208
682.44	1.408
682.77	-1.053
683.09	1.116
683.41	-0.233
683.73	0.670
684.06	0.885
684.38	-0.214
684.70	0.407
685.02	1.033
685.34	1.370
685.67	3.002
685.99	2.491
686.31	3.448
686.63	1.654
686.96	3.154
687.28	0.599
687.60	2.079
687.92	1.751
688.24	1.400
688.56	0.877
688.89	0.000
689.21	1.570
689.53	-4.054
689.85	2.472
690.17	1.319
690.49	1.932
690.82	3.819
691.14	2.415
691.46	0.928
691.78	3.077
692.10	1.274
692.42	-0.220
692.74	1.957
693.06	0.449
693.39	-1.171
693.71	0.000
694.03	4.318
694.35	5.180
694.67	3.250
694.99	2.577
695.31	2.067
695.63	4.878
695.95	1.018
696.27	-0.274
696.59	-0.269
696.91	-0.838
697.23	-0.254
697.56	1.199
697.88	4.782
698.20	4.104
698.52	-0.467
698.84	3.349
699.16	1.655
699.48	1.235
699.80	2.842
700.12	2.681
700.44	-3.380
700.76	-0.281
701.08	-0.906
701.40	-0.299
701.72	-0.923
702.04	-2.830
702.36	-1.524
702.68	-0.610
703.00	1.754
703.32	0.557
703.64	5.723
703.96	0.587
704.28	1.205
704.60	4.268
704.91	-2.508
705.23	2.532
705.55	-0.690
705.87	-2.113
706.19	1.099
706.51	0.704
706.83	-0.637
707.15	0.000
707.47	1.377
707.79	3.299
708.11	-1.285
708.43	4.061
708.74	1.330
709.06	1.604
709.38	4.611
709.70	-3.003
710.02	-0.935
710.34	-0.667
710.66	3.583
710.98	1.548
711.29	0.649
711.61	-0.968
711.93	-0.323
712.25	-2.797
712.57	-4.211
712.89	-4.762
713.20	6.383
713.52	0.000
713.84	2.258
714.16	-0.647
714.48	1.582
714.80	-2.556
715.11	3.779
715.43	-3.416
715.75	0.311
716.07	4.217
716.39	0.337
716.70	1.439
717.02	0.000
717.34	5.303
717.66	-0.431
717.97	-1.984
718.29	0.000
718.61	-3.863
718.93	-1.550
719.24	1.845
719.56	-4.494
719.88	-4.478
720.20	-3.953
720.51	-1.953
720.83	3.113
721.15	-2.439
721.46	-3.435
721.78	-3.187
722.10	-1.195
722.42	-3.629
722.73	1.158
723.05	0.408
723.37	2.941
723.68	1.200
724.00	-7.660
724.32	0.000
724.63	4.938
724.95	-0.855
725.27	3.376
725.58	5.761
725.90	0.000
726.22	0.362
726.53	-4.706
726.85	3.650
727.16	-0.741
727.48	2.299
727.80	3.125
728.11	-2.049
728.43	-1.953
728.74	-0.397
729.06	-3.200
729.38	0.000
729.69	2.135
730.01	-1.859
730.32	-0.738
730.64	-5.682
730.96	0.350
731.27	-1.003
731.59	5.397
731.90	-2.589
732.22	-3.846
732.53	-1.014
732.85	1.342
733.16	0.330
733.48	1.351
733.80	1.351
734.11	2.703
734.43	1.238
734.74	3.303
735.06	2.882
735.37	0.608
735.69	0.971
736.00	-1.980
736.32	0.709
736.63	1.724
736.95	4.110
737.26	-4.828
737.58	0.347
737.89	3.780
738.21	-1.779
738.52	-1.141
738.83	-0.408
739.15	2.532
739.46	-1.167
739.78	-2.113
740.09	0.000
740.41	-3.214
740.72	0.000
741.04	-4.800
741.35	-1.316
741.66	3.556
741.98	1.442
742.29	2.475
742.61	-3.902
742.92	3.070
743.23	-1.887
743.55	-1.802
743.86	-2.242
744.18	1.471
744.49	-1.523
744.80	-1.020
745.12	3.271
745.43	2.844
745.74	1.351
746.06	0.467
746.37	-5.046
746.68	-2.885
747.00	-0.957
747.31	0.000
747.62	-2.752
747.94	3.930
748.25	0.459
748.56	6.222
748.88	1.408
749.19	2.381
749.50	-9.223
749.82	-6.103
750.13	-4.583
750.44	0.769
750.75	-0.369
751.07	1.779
751.38	4.610
751.69	0.386
752.01	1.953
752.32	-2.308
752.63	-0.373
752.94	-6.800
753.26	0.418
753.57	-1.667
753.88	0.810
754.19	-0.797
754.51	0.376
754.82	0.366
755.13	-3.043
755.44	0.000
755.75	-2.400
756.07	-0.738
756.38	0.000
756.69	0.341
757.00	1.246
757.31	1.618
757.63	-0.926
757.94	-0.282
758.25	1.587
758.56	-1.087
758.87	4.167
759.18	2.208
759.50	-1.684
759.81	3.679
760.12	4.000
760.43	-2.083
760.74	-1.130
761.05	0.000
761.36	-3.152
761.67	-0.302
761.99	0.687
762.30	-1.825
762.61	0.000
762.92	2.991
763.23	1.639
763.54	-2.597
763.85	-3.673
764.16	-0.407
764.47	-2.000
764.78	2.143
765.10	0.984
765.41	0.608
765.72	2.795
766.03	-0.990
766.34	0.769
766.65	-4.184
766.96	-0.939
767.27	-2.970
767.58	-7.303
767.89	-1.852
768.20	-3.867
768.51	2.513
768.82	0.962
769.13	-3.097
769.44	-0.418
769.75	-3.419
770.06	0.448
770.37	-5.392
770.68	-2.427
770.99	-5.825
771.30	4.202
771.61	2.857
771.92	5.394
772.23	-0.901
772.54	-6.630
772.85	-3.488
773.16	1.058
773.47	-8.876
773.78	2.874
774.09	1.250
774.39	2.484
774.70	-3.401
775.01	-2.069
775.32	-0.714
775.63	0.000
775.94	-6.015
776.25	-8.800
776.56	-3.306
776.87	-5.556
777.18	-0.901
777.48	-1.802
777.79	3.150
778.10	1.835
778.41	-11.404
778.72	-16.807
779.03	-5.634
779.34	1.351
779.65	-7.746
779.95	0.000
780.26	-5.755
780.57	2.158
780.88	-4.930
781.19	-13.445
781.50	-1.342
781.80	0.585
782.11	0.000
782.42	1.887
782.73	-0.654
783.04	-6.207
783.34	-8.397
783.65	-6.711
783.96	-6.923
784.27	-0.714
784.57	-0.709
784.88	-19.231
785.19	-0.909
785.50	5.455
785.81	-8.571
786.11	-5.042
786.42	-4.425
786.73	-11.321
787.04	-17.431
787.34	-14.851
787.65	1.667
787.96	-5.785
788.26	-5.072
788.57	-6.349
788.88	-9.756
789.19	-7.200
789.49	-4.580
789.80	6.818
790.11	-12.264
790.41	1.980
790.72	-1.064
791.03	0.000
791.33	-7.059
791.64	-4.938
791.95	-8.696
792.25	-2.273
792.56	-10.256
792.87	-19.231
793.17	-19.231
793.48	-21.429
793.79	-8.750
794.09	1.923
794.40	-5.208
794.70	-3.604
795.01	-9.375
795.32	-10.435
795.62	-23.913
795.93	-7.547
796.23	1.010
796.54	-14.634
796.85	-5.952
797.15	1.515
797.46	-2.899
797.76	2.632
798.07	-3.409
798.37	-15.854
798.68	-25.806
798.99	-14.865
799.29	0.000
799.60	-15.385
799.90	-3.077
800.21	-1.515
800.51	-16.000
800.82	-5.333
801.12	-29.167
801.43	-38.333
801.73	-4.054
802.04	-10.000
802.34	-14.754
802.65	-5.970
802.95	-7.273
803.26	-17.241
803.56	-4.615
803.87	-11.321
804.17	-27.419
804.48	-8.824
804.78	-31.707
805.09	-15.942
805.39	-13.235
805.70	-55.319
806.00	-24.561
806.30	-8.974
806.61	0.000
806.91	-2.703
807.22	-11.842
807.52	5.682
807.83	-35.593
808.13	-21.212
808.43	-25.000
808.74	-43.103
809.04	-11.111
809.35	-26.531
809.65	-10.000
809.95	-16.327
810.26	8.451
810.56	-14.583
810.86	-18.367
811.17	-7.692
811.47	-36.170
811.77	-31.250
812.08	-15.094
812.38	-37.500
812.69	-16.364
812.99	-19.512
813.29	-29.730
813.59	-40.541
813.90	-18.182
814.20	-12.727
814.50	-8.333
814.81	-14.545
815.11	-17.544
815.41	-4.651
815.72	-7.500
816.02	-31.429
816.32	-27.027
816.62	-16.667
816.93	-35.556
817.23	-48.889
817.53	-44.444
817.84	-21.622
818.14	-34.146
818.44	6.000
818.74	-8.163
819.04	-24.390
819.35	0.000
819.65	9.091
819.95	-88.889
820.25	-36.364
820.56	-47.619
820.86	-16.667
821.16	-25.000
821.46	-26.087
821.76	-25.862
822.07	-2.174
822.37	9.091
822.67	17.073
822.97	-18.919
823.27	-48.571
823.57	-10.345
823.88	-29.412
824.18	-8.333
824.48	-20.000
824.78	-76.190
825.08	-25.000
825.38	-62.963
825.69	-16.129
825.99	-9.756
826.29	-29.630
826.59	-25.000
826.89	-41.935
827.19	-95.652
827.49	-30.556
827.79	-100.000
828.09	-22.581
828.39	-18.750
828.70	-78.125
829.00	-62.069
829.30	-27.027
829.60	-75.000
829.90	-33.333
830.20	-6.250
830.50	-13.636
830.80	-170.588
831.10	-77.273
831.40	-5.882
831.70	-11.538
832.00	0.000
832.30	2.941
832.60	-16.216
832.90	2100.000
833.20	10.714
833.50	-80.000
833.80	-39.474
834.10	-66.667
834.40	-72.727
834.70	-120.000
835.00	-150.000
835.30	-50.000
835.60	-57.143
835.90	23.810
836.20	-64.000
836.50	-29.167
836.80	-52.632
837.10	-8.108
837.40	23.333
837.70	-30.435
838.00	37.500
838.30	-47.368
838.60	-70.000
838.90	-120.000
839.19	-75.000
839.49	-61.538
839.79	-26.316
840.09	-300.000
840.39	-280.000
840.69	-77.273
840.99	-85.714
841.29	-79.167
841.59	-84.615
841.88	-113.333
842.18	-64.286
842.48	-10.000
842.78	-300.000
843.08	-92.857
843.38	-175.000
843.68	-125.000
843.97	-14.286
844.27	-144.444
844.57	-172.727
844.87	-126.667
845.17	-9.091
845.47	800.000
845.76	-26.667
846.06	-91.667
846.36	-1100.000
846.66	-57.895
846.96	-81.818
847.25	-66.667
847.55	-66.667
847.85	-33.333
848.15	-61.538
848.44	-250.000
848.74	-66.667
849.04	-138.462
849.34	-325.000
849.63	-145.455
849.93	-135.714
850.23	-60.000
850.53	-287.500
850.82	-44.444
851.12	-53.333
851.42	-35.294
851.71	-125.000
852.01	-64.706
852.31	-23.077
852.61	1200.000
852.90	-5.882
853.20	-26.667
853.50	-56.250
853.79	-142.857
854.09	-300.000
854.39	-50.000
854.68	-22.500
854.98	-28.571
855.28	-28.000
855.57	8.333
855.87	-33.333
856.17	-40.000
856.46	-12.500
856.76	-10.000
857.05	0.000
857.35	-100.000
857.65	-23.529
857.94	-175.000
858.24	-100.000
858.53	-50.000
858.83	-172.727
859.13	4.000
859.42	-114.286
859.72	-212.500
860.01	-29.167
860.31	-200.000
860.60	-56.250
860.90	-416.667
861.20	-83.333
861.49	0.000
861.79	-81.250
862.08	500.000
862.38	-108.333
862.67	400.000
862.97	200.000
863.26	-109.091
863.56	-118.182
863.85	-15.789
864.15	-70.588
864.44	-240.000
864.74	-200.000
865.03	-122.222
865.33	-57.143
865.62	121.429
865.92	-47.368
866.21	-50.000
866.51	-54.545
866.80	-200.000
867.10	-150.000
867.39	43.750
867.69	-80.000
867.98	-160.000
868.27	-29.412
868.57	0.000
868.86	1100.000
869.16	-275.000
869.45	-157.143
869.75	300.000
870.04	-50.000
870.33	-1300.000
870.63	-15.789
870.92	-41.667
871.22	-1100.000
871.51	-185.714
871.80	-244.444
872.10	-400.000
>>>>>End Processed Spectral Data<<<<<
