SpectraSuite Data File
++++++++++++++++++++++++++++++++++++
Date: Wed May 13 21:24:56 PDT 2015
User: schluterlab
Dark Spectrum Present: Yes
Reference Spectrum Present: Yes
Number of Sampled Component Spectra: 1
Spectrometers: USB2E3373
Integration Time (usec): 3000 (USB2E3373)
Spectra Averaged: 3 (USB2E3373)
Boxcar Smoothing: 0 (USB2E3373)
Correct for Electrical Dark: No (USB2E3373)
Strobe/Lamp Enabled: No (USB2E3373)
Correct for Detector Non-linearity: No (USB2E3373)
Correct for Stray Light: No (USB2E3373)
Number of Pixels in Processed Spectrum: 2048
>>>>>Begin Processed Spectral Data<<<<<
178.53	0.000
178.91	700.000
179.29	158.333
179.67	-950.000
180.04	-400.000
180.42	160.000
180.80	1000.000
181.18	316.667
181.56	-500.000
181.94	-150.000
182.31	-36.364
182.69	123.077
183.07	-80.000
183.45	316.667
183.83	155.556
184.20	57.143
184.58	-66.667
184.96	366.667
185.34	200.000
185.72	0.000
186.09	-1100.000
186.47	-140.000
186.85	40.000
187.23	-350.000
187.61	1000.000
187.98	1000.000
188.36	-37.500
188.74	0.000
189.12	-45.455
189.49	-70.000
189.87	50.000
190.25	320.000
190.63	-0.000
191.00	-180.000
191.38	340.000
191.76	300.000
192.14	166.667
192.51	-26.316
192.89	233.333
193.27	250.000
193.65	-320.000
194.02	81.818
194.40	210.000
194.78	-1400.000
195.15	260.000
195.53	-280.000
195.91	12.500
196.29	-300.000
196.66	0.000
197.04	400.000
197.42	-140.000
197.79	-20.000
198.17	-187.500
198.55	-400.000
198.92	300.000
199.30	-366.667
199.68	-110.000
200.05	-0.000
200.43	133.333
200.81	-1900.000
201.18	-140.000
201.56	-33.333
201.94	575.000
202.31	0.000
202.69	-28.571
203.07	-433.333
203.44	-260.000
203.82	-200.000
204.19	-20.000
204.57	0.000
204.95	-183.333
205.32	0.000
205.70	-550.000
206.08	-225.000
206.45	-83.333
206.83	375.000
207.20	-333.333
207.58	-80.000
207.96	-2100.000
208.33	-328.571
208.71	-1300.000
209.08	187.500
209.46	350.000
209.84	0.000
210.21	210.000
210.59	2800.000
210.96	260.000
211.34	1600.000
211.71	-300.000
212.09	-116.667
212.46	-170.000
212.84	66.667
213.22	-325.000
213.59	-1200.000
213.97	-250.000
214.34	-550.000
214.72	-15.385
215.09	212.500
215.47	177.778
215.84	750.000
216.22	-200.000
216.59	-250.000
216.97	566.667
217.34	122.222
217.72	0.000
218.09	366.667
218.47	-700.000
218.84	-228.571
219.22	-75.000
219.59	-466.667
219.97	-225.000
220.34	-25.000
220.72	-200.000
221.09	0.000
221.47	-116.667
221.84	-1300.000
222.22	0.000
222.59	600.000
222.97	-266.667
223.34	-41.667
223.72	-1600.000
224.09	-700.000
224.46	-100.000
224.84	-100.000
225.21	-171.429
225.59	-275.000
225.96	-133.333
226.34	-70.000
226.71	-228.571
227.08	350.000
227.46	-75.000
227.83	-700.000
228.21	12.500
228.58	50.000
228.95	5.882
229.33	12.500
229.70	-200.000
230.08	-53.846
230.45	-137.500
230.82	-83.333
231.20	71.429
231.57	-300.000
231.95	1200.000
232.32	83.333
232.69	-41.176
233.07	-1700.000
233.44	-4.348
233.81	-150.000
234.19	45.833
234.56	-40.000
234.93	-26.667
235.31	47.368
235.68	-61.538
236.05	23.077
236.43	16.667
236.80	-27.273
237.17	-26.667
237.55	-17.647
237.92	-6.897
238.29	-14.815
238.67	13.889
239.04	-9.677
239.41	0.000
239.79	31.915
240.16	23.256
240.53	7.143
240.91	26.786
241.28	26.786
241.65	38.710
242.02	22.368
242.40	33.333
242.77	18.841
243.14	34.615
243.51	34.043
243.89	25.962
244.26	45.283
244.63	23.077
245.00	48.958
245.38	22.689
245.75	29.508
246.12	38.346
246.49	27.642
246.87	21.849
247.24	39.189
247.61	38.411
247.98	40.385
248.36	41.420
248.73	33.146
249.10	35.354
249.47	40.860
249.84	33.158
250.22	38.308
250.59	34.579
250.96	39.091
251.33	33.014
251.70	37.238
252.08	37.238
252.45	35.391
252.82	36.882
253.19	38.132
253.56	38.489
253.94	41.281
254.31	38.732
254.68	38.591
255.05	37.294
255.42	36.014
255.79	38.957
256.16	45.741
256.54	35.873
256.91	37.025
257.28	38.994
257.65	35.032
258.02	39.296
258.39	41.520
258.76	36.628
259.14	36.932
259.51	37.640
259.88	38.211
260.25	39.167
260.62	38.483
260.99	41.645
261.36	42.228
261.73	41.235
262.10	41.221
262.47	39.506
262.85	39.801
263.22	41.282
263.59	38.701
263.96	36.983
264.33	38.462
264.70	37.907
265.07	37.731
265.44	41.839
265.81	40.275
266.18	41.686
266.55	39.738
266.92	40.466
267.29	40.123
267.66	40.977
268.03	40.535
268.40	40.890
268.77	40.083
269.14	40.816
269.51	41.478
269.88	37.475
270.25	42.161
270.62	38.730
270.99	41.142
271.36	39.881
271.73	39.960
272.10	39.429
272.47	38.580
272.84	39.961
273.21	37.573
273.58	39.549
273.95	38.679
274.32	37.687
274.69	39.526
275.06	40.989
275.43	39.548
275.80	39.184
276.17	39.042
276.54	37.300
276.91	37.456
277.28	36.823
277.65	40.035
278.02	39.821
278.39	38.366
278.76	40.803
279.13	36.878
279.50	40.517
279.87	37.862
280.23	40.541
280.60	37.889
280.97	37.987
281.34	39.432
281.71	37.073
282.08	37.778
282.45	39.344
282.82	36.102
283.19	39.177
283.56	37.812
283.92	37.615
284.29	35.881
284.66	38.880
285.03	39.577
285.40	36.103
285.77	38.138
286.14	36.626
286.51	39.580
286.87	36.308
287.24	38.053
287.61	39.157
287.98	37.059
288.35	36.662
288.72	34.864
289.08	36.040
289.45	35.389
289.82	37.065
290.19	34.502
290.56	34.801
290.93	32.735
291.29	37.073
291.66	34.699
292.03	36.921
292.40	32.436
292.77	35.074
293.13	33.473
293.50	33.725
293.87	33.200
294.24	32.540
294.60	34.460
294.97	34.127
295.34	32.190
295.71	32.063
296.08	32.853
296.44	33.163
296.81	29.963
297.18	33.375
297.55	31.958
297.91	30.435
298.28	30.872
298.65	30.542
299.02	33.944
299.38	31.779
299.75	29.928
300.12	30.233
300.48	32.164
300.85	30.370
301.22	30.081
301.59	30.634
301.95	28.339
302.32	28.938
302.69	29.718
303.05	29.568
303.42	30.227
303.79	30.599
304.15	29.244
304.52	30.860
304.89	30.676
305.25	29.528
305.62	28.959
305.99	30.577
306.35	29.781
306.72	29.298
307.09	27.216
307.45	29.499
307.82	28.316
308.19	28.945
308.55	29.171
308.92	30.452
309.29	30.330
309.65	28.971
310.02	29.920
310.38	30.386
310.75	29.783
311.12	30.126
311.48	29.278
311.85	29.921
312.22	28.240
312.58	29.275
312.95	30.249
313.31	29.844
313.68	30.248
314.05	30.057
314.41	29.587
314.78	31.120
315.14	30.370
315.51	30.542
315.87	32.252
316.24	31.405
316.61	31.781
316.97	31.944
317.34	31.194
317.70	33.452
318.07	34.694
318.43	33.424
318.80	33.421
319.16	33.775
319.53	35.484
319.89	33.514
320.26	36.784
320.62	36.701
320.99	38.178
321.35	36.389
321.72	36.670
322.08	39.483
322.45	39.963
322.81	40.388
323.18	39.982
323.54	43.051
323.91	43.180
324.27	43.654
324.64	42.073
325.00	42.870
325.37	43.174
325.73	44.444
326.10	44.323
326.46	44.983
326.83	46.440
327.19	46.016
327.56	47.623
327.92	47.627
328.29	49.499
328.65	48.554
329.01	48.813
329.38	50.957
329.74	49.957
330.11	50.586
330.47	48.698
330.84	50.993
331.20	50.213
331.56	52.536
331.93	52.541
332.29	52.997
332.66	51.017
333.02	50.999
333.38	52.632
333.75	52.645
334.11	53.993
334.48	53.705
334.84	52.650
335.20	52.573
335.57	51.871
335.93	51.804
336.29	51.926
336.66	53.333
337.02	53.043
337.38	51.001
337.75	51.335
338.11	51.153
338.47	50.342
338.84	52.663
339.20	52.293
339.56	52.560
339.93	52.636
340.29	52.434
340.65	52.951
341.02	52.579
341.38	52.196
341.74	52.773
342.11	51.032
342.47	53.640
342.83	52.369
343.20	52.792
343.56	52.984
343.92	51.259
344.28	51.867
344.65	52.408
345.01	50.686
345.37	52.961
345.73	53.595
346.10	51.284
346.46	52.033
346.82	52.247
347.19	50.870
347.55	52.666
347.91	50.351
348.27	51.420
348.63	51.042
349.00	52.123
349.36	51.099
349.72	52.436
350.08	51.638
350.45	51.919
350.81	51.408
351.17	50.269
351.53	52.317
351.89	49.722
352.26	49.266
352.62	50.620
352.98	50.719
353.34	51.127
353.70	50.857
354.07	51.529
354.43	50.700
354.79	52.244
355.15	49.845
355.51	49.962
355.87	50.586
356.24	50.803
356.60	49.805
356.96	50.422
357.32	50.697
357.68	50.038
358.04	50.659
358.40	50.698
358.77	50.076
359.13	51.284
359.49	48.902
359.85	49.962
360.21	50.964
360.57	50.418
360.93	50.152
361.29	50.111
361.66	50.190
362.02	49.222
362.38	49.631
362.74	48.803
363.10	50.470
363.46	49.928
363.82	50.185
364.18	50.761
364.54	50.182
364.90	48.780
365.26	48.620
365.62	50.142
365.98	49.039
366.35	50.213
366.71	49.929
367.07	50.461
367.43	49.965
367.79	50.035
368.15	49.578
368.51	49.297
368.87	50.174
369.23	48.541
369.59	49.190
369.95	49.710
370.31	50.349
370.67	48.371
371.03	50.037
371.39	48.332
371.75	48.357
372.11	48.504
372.47	50.397
372.83	48.474
373.19	48.921
373.55	49.639
373.91	47.808
374.27	48.548
374.63	49.289
374.99	49.164
375.35	48.493
375.71	47.418
376.07	49.212
376.42	48.864
376.78	48.613
377.14	49.695
377.50	49.348
377.86	49.137
378.22	48.357
378.58	49.748
378.94	48.750
379.30	48.595
379.66	48.644
380.02	48.652
380.38	49.518
380.74	49.731
381.09	48.311
381.45	49.335
381.81	48.983
382.17	47.448
382.53	48.431
382.89	47.648
383.25	47.531
383.61	48.123
383.97	48.062
384.32	47.763
384.68	48.365
385.04	46.426
385.40	47.447
385.76	48.479
386.12	48.612
386.48	48.401
386.83	47.184
387.19	49.537
387.55	48.069
387.91	45.818
388.27	46.917
388.62	48.190
388.98	47.434
389.34	48.496
389.70	46.459
390.06	46.688
390.42	48.711
390.77	47.982
391.13	46.654
391.49	47.059
391.85	45.751
392.20	46.992
392.56	46.667
392.92	46.343
393.28	46.659
393.64	49.113
393.99	45.716
394.35	46.235
394.71	45.705
395.07	46.352
395.42	46.191
395.78	45.946
396.14	45.847
396.50	46.607
396.85	46.718
397.21	45.693
397.57	44.161
397.92	45.449
398.28	46.531
398.64	46.448
399.00	45.703
399.35	46.481
399.71	45.661
400.07	45.241
400.42	46.395
400.78	44.894
401.14	45.616
401.49	45.716
401.85	44.902
402.21	45.635
402.57	45.310
402.92	45.494
403.28	45.904
403.63	44.761
403.99	45.425
404.35	45.324
404.70	44.471
405.06	45.449
405.42	44.410
405.77	44.643
406.13	44.057
406.49	44.578
406.84	45.360
407.20	43.398
407.55	44.740
407.91	43.614
408.27	42.857
408.62	44.260
408.98	42.663
409.34	43.874
409.69	45.289
410.05	44.341
410.40	43.092
410.76	44.525
411.11	44.590
411.47	44.326
411.83	43.169
412.18	42.758
412.54	43.734
412.89	42.947
413.25	42.714
413.60	42.947
413.96	42.884
414.31	44.205
414.67	43.175
415.03	42.490
415.38	42.668
415.74	43.990
416.09	44.349
416.45	44.293
416.80	43.356
417.16	43.590
417.51	43.336
417.87	44.577
418.22	42.663
418.58	43.627
418.93	43.628
419.29	44.356
419.64	42.048
420.00	43.429
420.35	43.873
420.71	43.571
421.06	42.620
421.42	43.370
421.77	42.775
422.12	43.897
422.48	42.694
422.83	44.300
423.19	43.473
423.54	44.287
423.90	43.171
424.25	44.079
424.61	43.438
424.96	43.702
425.31	43.466
425.67	45.032
426.02	44.935
426.38	44.154
426.73	44.594
427.09	44.028
427.44	43.453
427.79	44.299
428.15	43.425
428.50	43.021
428.85	43.788
429.21	43.106
429.56	43.836
429.92	44.977
430.27	43.303
430.62	44.281
430.98	43.998
431.33	44.224
431.68	43.930
432.04	44.451
432.39	44.284
432.74	44.206
433.10	44.160
433.45	42.722
433.80	43.966
434.16	43.037
434.51	44.348
434.86	44.994
435.22	43.690
435.57	44.226
435.92	43.969
436.28	43.363
436.63	44.573
436.98	44.888
437.34	44.750
437.69	44.805
438.04	42.784
438.39	44.645
438.75	44.756
439.10	45.691
439.45	44.007
439.81	45.074
440.16	44.870
440.51	43.282
440.86	43.687
441.22	44.521
441.57	44.143
441.92	45.153
442.27	44.048
442.63	44.241
442.98	44.502
443.33	43.397
443.68	44.333
444.03	44.163
444.39	44.175
444.74	44.230
445.09	43.007
445.44	44.394
445.79	44.605
446.15	44.315
446.50	43.888
446.85	45.591
447.20	43.387
447.55	45.663
447.91	44.326
448.26	44.025
448.61	44.649
448.96	45.216
449.31	44.660
449.66	44.824
450.02	43.491
450.37	44.536
450.72	43.341
451.07	44.263
451.42	42.982
451.77	44.918
452.12	43.316
452.47	45.384
452.83	44.340
453.18	43.348
453.53	44.010
453.88	45.120
454.23	45.117
454.58	42.770
454.93	44.195
455.28	43.674
455.63	43.356
455.98	43.092
456.34	42.975
456.69	44.856
457.04	43.467
457.39	43.355
457.74	43.268
458.09	43.661
458.44	43.302
458.79	42.889
459.14	42.921
459.49	44.146
459.84	42.672
460.19	43.277
460.54	43.978
460.89	43.187
461.24	42.910
461.59	43.901
461.94	43.932
462.29	43.137
462.64	42.612
462.99	44.064
463.34	44.751
463.69	43.943
464.04	43.037
464.39	43.014
464.74	42.936
465.09	42.901
465.44	42.424
465.79	44.163
466.14	43.444
466.49	44.223
466.84	43.276
467.19	42.930
467.54	43.487
467.89	44.249
468.24	44.561
468.59	42.957
468.94	43.040
469.29	43.424
469.64	42.608
469.99	43.586
470.34	42.481
470.68	43.717
471.03	42.384
471.38	42.003
471.73	42.593
472.08	43.436
472.43	43.602
472.78	43.340
473.13	42.150
473.48	43.183
473.83	43.252
474.17	43.294
474.52	42.524
474.87	42.823
475.22	42.271
475.57	42.554
475.92	43.075
476.27	42.890
476.61	42.582
476.96	43.061
477.31	43.581
477.66	42.881
478.01	42.308
478.36	41.090
478.70	42.696
479.05	42.786
479.40	42.330
479.75	42.295
480.10	42.478
480.45	41.687
480.79	42.708
481.14	41.895
481.49	42.822
481.84	41.706
482.19	41.640
482.53	41.810
482.88	41.850
483.23	42.348
483.58	41.871
483.92	40.759
484.27	41.034
484.62	41.367
484.97	41.352
485.31	41.491
485.66	39.633
486.01	40.169
486.36	40.523
486.70	41.173
487.05	41.984
487.40	42.512
487.75	42.865
488.09	42.133
488.44	42.201
488.79	42.657
489.13	40.795
489.48	41.556
489.83	41.402
490.17	41.716
490.52	42.029
490.87	40.936
491.22	41.592
491.56	42.166
491.91	41.095
492.26	42.118
492.60	41.991
492.95	41.740
493.30	40.213
493.64	40.288
493.99	41.449
494.34	41.233
494.68	41.527
495.03	41.502
495.37	40.973
495.72	40.902
496.07	41.744
496.41	38.980
496.76	41.362
497.11	41.033
497.45	41.391
497.80	41.646
498.14	41.008
498.49	41.402
498.84	40.992
499.18	41.015
499.53	39.833
499.87	39.495
500.22	42.160
500.56	39.970
500.91	41.751
501.26	39.901
501.60	40.637
501.95	40.776
502.29	41.019
502.64	41.225
502.98	40.703
503.33	40.681
503.67	41.431
504.02	39.657
504.36	40.416
504.71	40.447
505.06	41.467
505.40	40.515
505.75	41.099
506.09	40.317
506.44	40.071
506.78	40.934
507.13	40.696
507.47	40.350
507.82	39.665
508.16	40.422
508.51	40.186
508.85	39.762
509.19	39.524
509.54	40.590
509.88	39.032
510.23	39.474
510.57	40.095
510.92	41.541
511.26	40.979
511.61	40.285
511.95	39.581
512.30	39.645
512.64	41.203
512.98	39.778
513.33	39.606
513.67	40.829
514.02	40.137
514.36	39.438
514.70	40.647
515.05	41.018
515.39	40.035
515.74	39.846
516.08	39.174
516.42	38.825
516.77	39.074
517.11	39.624
517.46	41.297
517.80	41.707
518.14	38.763
518.49	40.084
518.83	40.036
519.17	39.819
519.52	40.048
519.86	38.919
520.20	39.175
520.55	39.739
520.89	39.975
521.23	41.538
521.58	39.633
521.92	38.592
522.26	39.688
522.61	39.819
522.95	38.990
523.29	39.429
523.64	40.432
523.98	40.216
524.32	38.500
524.66	39.740
525.01	39.581
525.35	39.895
525.69	39.563
526.04	38.697
526.38	38.878
526.72	38.462
527.06	38.620
527.41	38.915
527.75	38.318
528.09	40.027
528.43	39.688
528.78	38.953
529.12	38.551
529.46	38.196
529.80	39.223
530.15	38.674
530.49	39.084
530.83	39.607
531.17	39.932
531.51	38.166
531.86	38.889
532.20	39.145
532.54	38.759
532.88	38.462
533.22	38.923
533.57	38.477
533.91	39.290
534.25	39.844
534.59	38.288
534.93	38.457
535.27	37.898
535.62	38.947
535.96	39.232
536.30	38.630
536.64	39.029
536.98	37.281
537.32	39.288
537.66	38.787
538.01	38.904
538.35	36.948
538.69	37.993
539.03	37.450
539.37	37.961
539.71	38.267
540.05	37.112
540.39	38.816
540.73	38.059
541.07	38.095
541.42	37.845
541.76	38.227
542.10	37.779
542.44	37.006
542.78	37.613
543.12	37.332
543.46	38.148
543.80	37.475
544.14	38.472
544.48	36.961
544.82	38.198
545.16	37.255
545.50	38.488
545.84	38.640
546.18	38.149
546.52	37.474
546.86	36.678
547.20	37.241
547.54	38.385
547.88	38.529
548.22	37.134
548.56	38.492
548.90	35.995
549.24	38.125
549.58	36.655
549.92	37.638
550.26	38.524
550.60	37.387
550.94	36.418
551.28	36.260
551.62	36.617
551.96	37.042
552.30	37.263
552.64	37.076
552.98	37.500
553.32	36.482
553.66	37.564
554.00	37.077
554.34	36.996
554.68	37.211
555.02	36.826
555.36	38.427
555.69	36.708
556.03	36.383
556.37	36.558
556.71	36.580
557.05	37.122
557.39	38.659
557.73	36.914
558.07	37.001
558.41	37.774
558.75	37.644
559.08	36.327
559.42	37.215
559.76	36.009
560.10	35.665
560.44	37.509
560.78	36.547
561.12	36.931
561.45	35.578
561.79	36.314
562.13	37.060
562.47	37.500
562.81	36.797
563.15	36.402
563.48	36.820
563.82	36.594
564.16	37.779
564.50	36.906
564.84	36.014
565.17	36.887
565.51	36.832
565.85	35.643
566.19	36.093
566.52	35.976
566.86	35.019
567.20	36.530
567.54	36.500
567.88	35.834
568.21	35.796
568.55	35.159
568.89	35.145
569.23	34.785
569.56	35.378
569.90	35.084
570.24	34.513
570.57	33.913
570.91	34.055
571.25	34.713
571.59	34.065
571.92	34.497
572.26	35.105
572.60	34.493
572.93	35.052
573.27	33.981
573.61	34.984
573.95	34.241
574.28	34.622
574.62	34.189
574.96	34.547
575.29	34.855
575.63	34.405
575.97	35.109
576.30	33.921
576.64	34.425
576.98	34.561
577.31	34.513
577.65	34.460
577.98	34.244
578.32	33.694
578.66	34.426
578.99	34.718
579.33	34.433
579.67	34.572
580.00	34.236
580.34	34.586
580.67	34.297
581.01	34.352
581.35	34.064
581.68	34.034
582.02	33.820
582.35	34.289
582.69	34.338
583.02	33.706
583.36	34.393
583.70	34.847
584.03	34.484
584.37	34.235
584.70	34.221
585.04	34.191
585.37	34.265
585.71	34.178
586.04	34.035
586.38	33.675
586.72	34.673
587.05	34.800
587.39	33.913
587.72	34.255
588.06	34.364
588.39	34.201
588.73	34.717
589.06	34.821
589.40	35.191
589.73	34.280
590.07	35.108
590.40	34.419
590.73	35.292
591.07	35.395
591.40	34.261
591.74	35.394
592.07	34.550
592.41	34.964
592.74	33.179
593.08	34.154
593.41	34.361
593.75	33.430
594.08	33.851
594.41	34.260
594.75	35.045
595.08	34.391
595.42	34.216
595.75	34.201
596.09	34.065
596.42	33.824
596.75	34.533
597.09	34.895
597.42	34.948
597.75	34.889
598.09	34.791
598.42	34.452
598.76	33.795
599.09	34.414
599.42	34.101
599.76	34.172
600.09	33.773
600.42	34.275
600.76	33.962
601.09	34.087
601.42	34.731
601.76	33.822
602.09	34.860
602.42	34.379
602.76	33.851
603.09	34.333
603.42	34.106
603.76	33.866
604.09	33.360
604.42	34.031
604.76	33.959
605.09	34.391
605.42	34.278
605.75	33.191
606.09	33.609
606.42	33.832
606.75	34.242
607.09	34.441
607.42	33.888
607.75	32.954
608.08	34.896
608.42	34.067
608.75	34.353
609.08	34.052
609.41	33.780
609.75	34.039
610.08	33.679
610.41	34.111
610.74	33.494
611.07	35.170
611.41	35.056
611.74	34.679
612.07	33.038
612.40	35.027
612.73	34.742
613.07	33.592
613.40	34.912
613.73	33.640
614.06	34.384
614.39	33.963
614.72	34.758
615.06	34.389
615.39	33.885
615.72	33.585
616.05	34.403
616.38	33.792
616.71	33.833
617.05	34.705
617.38	33.580
617.71	33.395
618.04	34.552
618.37	34.826
618.70	34.217
619.03	33.608
619.36	34.093
619.69	34.649
620.03	33.993
620.36	32.707
620.69	33.904
621.02	33.538
621.35	34.178
621.68	35.045
622.01	34.142
622.34	34.814
622.67	33.908
623.00	34.878
623.33	34.181
623.66	34.424
623.99	33.533
624.32	34.336
624.65	33.531
624.99	33.431
625.32	33.906
625.65	33.411
625.98	34.281
626.31	34.367
626.64	35.426
626.97	34.775
627.30	35.500
627.63	33.651
627.96	32.381
628.29	35.163
628.62	35.590
628.95	35.170
629.28	34.581
629.61	34.545
629.94	33.366
630.26	34.483
630.59	33.666
630.92	33.835
631.25	33.574
631.58	35.011
631.91	33.298
632.24	33.699
632.57	34.111
632.90	34.539
633.23	33.693
633.56	36.091
633.89	33.732
634.22	35.689
634.55	34.836
634.88	33.456
635.20	34.875
635.53	33.075
635.86	32.949
636.19	34.119
636.52	34.024
636.85	34.379
637.18	31.912
637.51	32.959
637.83	34.334
638.16	32.533
638.49	32.577
638.82	32.941
639.15	34.973
639.48	34.759
639.81	34.167
640.13	36.197
640.46	34.322
640.79	34.101
641.12	34.763
641.45	33.770
641.77	35.052
642.10	33.737
642.43	32.390
642.76	35.489
643.09	34.026
643.41	33.971
643.74	35.218
644.07	32.686
644.40	33.831
644.73	33.898
645.05	32.286
645.38	32.060
645.71	33.503
646.04	33.838
646.36	36.285
646.69	33.916
647.02	32.605
647.35	33.090
647.67	34.750
648.00	32.971
648.33	34.746
648.66	32.721
648.98	35.404
649.31	32.822
649.64	31.142
649.96	33.807
650.29	31.209
650.62	31.796
650.94	33.793
651.27	33.039
651.60	33.916
651.92	35.125
652.25	35.176
652.58	33.663
652.90	33.838
653.23	30.730
653.56	33.554
653.88	30.205
654.21	30.887
654.54	33.721
654.86	33.496
655.19	32.213
655.52	31.979
655.84	29.567
656.17	36.099
656.49	48.566
656.82	49.651
657.15	37.916
657.47	28.262
657.80	21.393
658.13	22.939
658.45	33.645
658.78	33.862
659.10	33.976
659.43	33.063
659.75	32.567
660.08	32.621
660.41	31.034
660.73	31.543
661.06	31.973
661.38	31.783
661.71	33.402
662.03	33.827
662.36	30.310
662.68	34.194
663.01	33.686
663.33	33.693
663.66	32.151
663.98	32.809
664.31	33.187
664.63	29.505
664.96	32.166
665.28	32.403
665.61	31.533
665.93	30.193
666.26	35.443
666.58	31.478
666.91	36.099
667.23	33.410
667.56	32.414
667.88	31.776
668.21	29.688
668.53	33.333
668.86	34.293
669.18	30.733
669.50	32.488
669.83	34.129
670.15	34.762
670.48	31.494
670.80	35.667
671.13	33.181
671.45	32.877
671.77	32.543
672.10	30.799
672.42	32.061
672.75	30.000
673.07	30.364
673.39	32.649
673.72	35.329
674.04	30.123
674.37	33.130
674.69	29.012
675.01	31.838
675.34	32.823
675.66	32.680
675.98	31.416
676.31	31.674
676.63	34.694
676.95	32.000
677.28	31.422
677.60	34.069
677.92	29.712
678.25	33.839
678.57	30.143
678.89	29.638
679.22	30.435
679.54	32.449
679.86	31.250
680.18	31.538
680.51	30.000
680.83	30.019
681.15	30.845
681.48	34.068
681.80	31.084
682.12	33.125
682.44	30.382
682.77	30.105
683.09	32.589
683.41	28.140
683.73	29.464
684.06	31.416
684.38	29.701
684.70	29.532
685.02	30.165
685.34	30.137
685.67	30.582
685.99	30.249
686.31	34.828
686.63	30.147
686.96	28.942
687.28	32.136
687.60	34.216
687.92	31.907
688.24	31.800
688.56	31.140
688.89	30.512
689.21	32.063
689.53	29.279
689.85	34.382
690.17	30.110
690.49	28.986
690.82	28.878
691.14	28.502
691.46	30.394
691.78	29.451
692.10	29.724
692.42	29.011
692.74	30.000
693.06	26.742
693.39	28.806
693.71	32.889
694.03	30.682
694.35	29.505
694.67	31.750
694.99	31.443
695.31	32.041
695.63	29.268
695.95	29.262
696.27	29.589
696.59	27.688
696.91	31.285
697.23	26.904
697.56	30.695
697.88	30.353
698.20	30.670
698.52	30.607
698.84	28.469
699.16	26.714
699.48	33.333
699.80	32.558
700.12	28.150
700.44	26.761
700.76	32.584
701.08	31.722
701.40	28.443
701.72	31.692
702.04	31.132
702.36	30.793
702.68	27.134
703.00	32.456
703.32	25.905
703.64	29.819
703.96	27.859
704.28	31.928
704.60	29.268
704.91	28.213
705.23	26.582
705.55	29.655
705.87	25.000
706.19	28.571
706.51	28.521
706.83	29.299
707.15	29.573
707.47	27.824
707.79	26.650
708.11	28.278
708.43	32.487
708.74	31.383
709.06	28.342
709.38	32.853
709.70	29.429
710.02	32.710
710.34	24.333
710.66	29.316
710.98	29.412
711.29	29.870
711.61	25.806
711.93	28.387
712.25	28.671
712.57	29.825
712.89	27.839
713.20	28.014
713.52	25.547
713.84	27.419
714.16	28.479
714.48	26.899
714.80	28.435
715.11	29.651
715.43	25.776
715.75	28.261
716.07	27.108
716.39	28.283
716.70	28.417
717.02	27.059
717.34	27.652
717.66	27.155
717.97	23.016
718.29	31.890
718.61	31.330
718.93	24.806
719.24	26.199
719.56	28.090
719.88	27.239
720.20	24.111
720.51	25.781
720.83	29.572
721.15	25.203
721.46	24.427
721.78	25.100
722.10	24.303
722.42	23.790
722.73	18.533
723.05	25.714
723.37	27.311
723.68	24.800
724.00	28.511
724.32	25.523
724.63	30.041
724.95	28.632
725.27	29.958
725.58	30.864
725.90	28.033
726.22	28.986
726.53	25.098
726.85	27.737
727.16	27.037
727.48	29.885
727.80	28.125
728.11	29.918
728.43	27.734
728.74	25.000
729.06	25.600
729.38	30.435
729.69	28.826
730.01	25.651
730.32	25.830
730.64	23.864
730.96	29.371
731.27	26.756
731.59	25.714
731.90	26.537
732.22	26.923
732.53	25.000
732.85	27.181
733.16	30.033
733.48	28.378
733.80	27.027
734.11	31.081
734.43	25.387
734.74	27.327
735.06	27.089
735.37	25.532
735.69	24.595
736.00	25.413
736.32	27.305
736.63	26.207
736.95	29.795
737.26	27.586
737.58	32.639
737.89	29.210
738.21	23.488
738.52	26.996
738.83	26.939
739.15	27.004
739.46	26.459
739.78	22.887
740.09	26.712
740.41	23.571
740.72	22.695
741.04	29.600
741.35	23.246
741.66	23.111
741.98	26.442
742.29	34.158
742.61	33.171
742.92	25.877
743.23	27.830
743.55	23.874
743.86	20.628
744.18	23.529
744.49	25.381
744.80	26.531
745.12	25.701
745.43	20.379
745.74	21.171
746.06	27.570
746.37	18.349
746.68	27.885
747.00	27.273
747.31	30.288
747.62	23.853
747.94	25.328
748.25	23.394
748.56	30.667
748.88	26.291
749.19	35.714
749.50	20.388
749.82	23.474
750.13	16.667
750.44	25.000
750.75	23.616
751.07	30.605
751.38	29.433
751.69	25.483
752.01	23.047
752.32	25.000
752.63	28.731
752.94	30.400
753.26	25.941
753.57	25.833
753.88	27.530
754.19	25.498
754.51	26.692
754.82	23.077
755.13	17.826
755.44	23.171
755.75	22.400
756.07	23.247
756.38	23.381
756.69	24.573
757.00	24.922
757.31	21.683
757.63	23.148
757.94	26.271
758.25	24.868
758.56	27.989
758.87	24.702
759.18	28.391
759.50	23.906
759.81	26.087
760.12	25.538
760.43	26.190
760.74	21.751
761.05	23.757
761.36	25.501
761.67	25.076
761.99	26.117
762.30	26.277
762.61	22.222
762.92	23.932
763.23	25.000
763.54	28.139
763.85	26.531
764.16	25.610
764.47	25.600
764.78	21.786
765.10	24.918
765.41	25.532
765.72	23.602
766.03	23.432
766.34	22.692
766.65	25.523
766.96	20.657
767.27	26.238
767.58	15.730
767.89	32.716
768.20	25.414
768.51	25.126
768.82	25.481
769.13	24.336
769.44	21.757
769.75	18.376
770.06	27.354
770.37	19.608
770.68	25.728
770.99	20.388
771.30	21.849
771.61	22.041
771.92	25.726
772.23	26.577
772.54	22.652
772.85	22.674
773.16	26.455
773.47	22.485
773.78	22.414
774.09	25.000
774.39	22.360
774.70	23.810
775.01	24.138
775.32	20.000
775.63	25.564
775.94	8.271
776.25	17.600
776.56	23.967
776.87	19.048
777.18	6.306
777.48	21.622
777.79	17.323
778.10	19.266
778.41	6.140
778.72	21.008
779.03	19.718
779.34	18.919
779.65	28.169
779.95	24.503
780.26	16.547
780.57	20.863
780.88	18.310
781.19	12.605
781.50	27.517
781.80	19.298
782.11	19.186
782.42	24.528
782.73	21.569
783.04	20.000
783.34	15.267
783.65	17.450
783.96	16.923
784.27	21.429
784.57	19.149
784.88	17.308
785.19	31.818
785.50	21.818
785.81	7.619
786.11	15.126
786.42	19.469
786.73	22.642
787.04	11.927
787.34	-0.990
787.65	27.500
787.96	19.008
788.26	17.391
788.57	12.698
788.88	16.260
789.19	20.000
789.49	14.504
789.80	22.727
790.11	13.208
790.41	20.792
790.72	11.702
791.03	19.565
791.33	-4.706
791.64	16.049
791.95	13.043
792.25	23.864
792.56	15.385
792.87	14.103
793.17	-1.282
793.48	8.333
793.79	26.250
794.09	24.038
794.40	26.042
794.70	14.414
795.01	21.875
795.32	18.261
795.62	-1.087
795.93	16.038
796.23	24.242
796.54	3.659
796.85	16.667
797.15	1.515
797.46	4.348
797.76	6.579
798.07	17.045
798.37	20.732
798.68	17.742
798.99	9.459
799.29	27.711
799.60	10.256
799.90	4.615
800.21	22.727
800.51	9.333
800.82	17.333
801.12	10.417
801.43	15.000
801.73	18.919
802.04	24.286
802.34	-13.115
802.65	11.940
802.95	-1.818
803.26	-1.724
803.56	6.154
803.87	22.642
804.17	12.903
804.48	8.824
804.78	0.000
805.09	14.493
805.39	10.294
805.70	-2.128
806.00	8.772
806.30	21.795
806.61	21.053
806.91	12.162
807.22	2.632
807.52	32.955
807.83	-3.390
808.13	-9.091
808.43	11.667
808.74	-10.345
809.04	11.111
809.35	-12.245
809.65	10.000
809.95	-10.204
810.26	21.127
810.56	8.333
810.86	4.082
811.17	19.231
811.47	8.511
811.77	-2.083
812.08	20.755
812.38	28.125
812.69	14.545
812.99	-2.439
813.29	-10.811
813.59	-16.216
813.90	14.545
814.20	18.182
814.50	0.000
814.81	12.727
815.11	7.018
815.41	34.884
815.72	-5.000
816.02	14.286
816.32	-5.405
816.62	8.333
816.93	20.000
817.23	-28.889
817.53	22.222
817.84	-24.324
818.14	21.951
818.44	20.000
818.74	20.408
819.04	2.439
819.35	-13.889
819.65	2.273
819.95	-38.889
820.25	3.030
820.56	-40.476
820.86	-25.000
821.16	-6.818
821.46	-17.391
821.76	-1.724
822.07	2.174
822.37	18.182
822.67	2.439
822.97	-13.514
823.27	-48.571
823.57	-10.345
823.88	-5.882
824.18	30.556
824.48	11.429
824.78	-28.571
825.08	-28.571
825.38	-44.444
825.69	16.129
825.99	26.829
826.29	3.704
826.59	-3.125
826.89	-45.161
827.19	-73.913
827.49	11.111
827.79	-65.217
828.09	0.000
828.39	8.333
828.70	-31.250
829.00	-13.793
829.30	0.000
829.60	-16.667
829.90	-25.926
830.20	-43.750
830.50	-13.636
830.80	-135.294
831.10	-45.455
831.40	11.765
831.70	7.692
832.00	21.212
832.30	20.588
832.60	-16.216
832.90	2200.000
833.20	21.429
833.50	-60.000
833.80	-23.684
834.10	-25.000
834.40	-50.000
834.70	-73.333
835.00	-50.000
835.30	-29.167
835.60	-14.286
835.90	-19.048
836.20	-4.000
836.50	-25.000
836.80	-100.000
837.10	-16.216
837.40	20.000
837.70	-4.348
838.00	-8.333
838.30	-5.263
838.60	-90.000
838.90	-220.000
839.19	-83.333
839.49	-30.769
839.79	0.000
840.09	-216.667
840.39	-180.000
840.69	-9.091
840.99	-28.571
841.29	-50.000
841.59	-69.231
841.88	-40.000
842.18	-42.857
842.48	16.667
842.78	-171.429
843.08	-14.286
843.38	-150.000
843.68	-62.500
843.97	14.286
844.27	-133.333
844.57	-100.000
844.87	-73.333
845.17	13.636
845.47	366.667
845.76	-86.667
846.06	-91.667
846.36	-550.000
846.66	-10.526
846.96	-50.000
847.25	-94.444
847.55	-66.667
847.85	-47.619
848.15	-15.385
848.44	-266.667
848.74	-25.000
849.04	-46.154
849.34	-400.000
849.63	-109.091
849.93	-157.143
850.23	25.000
850.53	-112.500
850.82	-77.778
851.12	-93.333
851.42	-64.706
851.71	-12.500
852.01	-5.882
852.31	-7.692
852.61	650.000
852.90	-17.647
853.20	0.000
853.50	-12.500
853.79	-100.000
854.09	25.000
854.39	-10.000
854.68	-12.500
854.98	-80.952
855.28	-24.000
855.57	4.167
855.87	-12.500
856.17	-4.000
856.46	-28.125
856.76	-15.000
857.05	8.000
857.35	-91.667
857.65	-76.471
857.94	-150.000
858.24	-83.333
858.53	-35.000
858.83	-145.455
859.13	-4.000
859.42	-42.857
859.72	-100.000
860.01	-4.167
860.31	-75.000
860.60	-25.000
860.90	-116.667
861.20	-133.333
861.49	13.333
861.79	-50.000
862.08	250.000
862.38	-83.333
862.67	285.714
862.97	475.000
863.26	-9.091
863.56	-18.182
863.85	-21.053
864.15	-64.706
864.44	-260.000
864.74	-120.000
865.03	-166.667
865.33	-28.571
865.62	128.571
865.92	26.316
866.21	-72.222
866.51	-118.182
866.80	-88.889
867.10	-62.500
867.39	-6.250
867.69	-106.667
867.98	-70.000
868.27	29.412
868.57	0.000
868.86	1100.000
869.16	-225.000
869.45	-171.429
869.75	450.000
870.04	-60.000
870.33	-1400.000
870.63	-15.789
870.92	-58.333
871.22	-800.000
871.51	-128.571
871.80	-66.667
872.10	-575.000
>>>>>End Processed Spectral Data<<<<<
