SpectraSuite Data File
++++++++++++++++++++++++++++++++++++
Date: Wed May 13 21:24:52 PDT 2015
User: schluterlab
Dark Spectrum Present: Yes
Reference Spectrum Present: Yes
Number of Sampled Component Spectra: 1
Spectrometers: USB2E3373
Integration Time (usec): 3000 (USB2E3373)
Spectra Averaged: 3 (USB2E3373)
Boxcar Smoothing: 0 (USB2E3373)
Correct for Electrical Dark: No (USB2E3373)
Strobe/Lamp Enabled: No (USB2E3373)
Correct for Detector Non-linearity: No (USB2E3373)
Correct for Stray Light: No (USB2E3373)
Number of Pixels in Processed Spectrum: 2048
>>>>>Begin Processed Spectral Data<<<<<
178.53	0.000
178.91	550.000
179.29	158.333
179.67	-700.000
180.04	-400.000
180.42	140.000
180.80	1900.000
181.18	333.333
181.56	-550.000
181.94	-125.000
182.31	27.273
182.69	107.692
183.07	-260.000
183.45	250.000
183.83	222.222
184.20	257.143
184.58	100.000
184.96	466.667
185.34	271.429
185.72	0.000
186.09	-1500.000
186.47	-300.000
186.85	380.000
187.23	-50.000
187.61	700.000
187.98	1200.000
188.36	-150.000
188.74	0.000
189.12	-154.545
189.49	20.000
189.87	141.667
190.25	420.000
190.63	500.000
191.00	-180.000
191.38	340.000
191.76	600.000
192.14	150.000
192.51	0.000
192.89	666.667
193.27	400.000
193.65	-340.000
194.02	200.000
194.40	230.000
194.78	-300.000
195.15	260.000
195.53	-120.000
195.91	0.000
196.29	-533.333
196.66	0.000
197.04	900.000
197.42	-60.000
197.79	0.000
198.17	-100.000
198.55	-100.000
198.92	100.000
199.30	-400.000
199.68	-90.000
200.05	250.000
200.43	333.333
200.81	-2100.000
201.18	-240.000
201.56	-83.333
201.94	625.000
202.31	-34.783
202.69	-257.143
203.07	-533.333
203.44	-200.000
203.82	-566.667
204.19	-80.000
204.57	0.000
204.95	-233.333
205.32	0.000
205.70	-150.000
206.08	-425.000
206.45	-133.333
206.83	250.000
207.20	-33.333
207.58	-50.000
207.96	-1500.000
208.33	-242.857
208.71	-1300.000
209.08	237.500
209.46	250.000
209.84	0.000
210.21	240.000
210.59	1100.000
210.96	120.000
211.34	1200.000
211.71	-1050.000
212.09	-233.333
212.46	-220.000
212.84	-166.667
213.22	150.000
213.59	-400.000
213.97	-600.000
214.34	-700.000
214.72	0.000
215.09	300.000
215.47	211.111
215.84	700.000
216.22	-50.000
216.59	-450.000
216.97	733.333
217.34	233.333
217.72	0.000
218.09	166.667
218.47	-1400.000
218.84	-214.286
219.22	-187.500
219.59	0.000
219.97	-150.000
220.34	-100.000
220.72	-200.000
221.09	0.000
221.47	-116.667
221.84	-1800.000
222.22	0.000
222.59	1100.000
222.97	-200.000
223.34	-25.000
223.72	-1300.000
224.09	-900.000
224.46	-9.091
224.84	-137.500
225.21	-257.143
225.59	-475.000
225.96	-216.667
226.34	-90.000
226.71	-342.857
227.08	350.000
227.46	-75.000
227.83	-200.000
228.21	-68.750
228.58	-300.000
228.95	-64.706
229.33	-6.250
229.70	-112.500
230.08	-61.538
230.45	-262.500
230.82	-108.333
231.20	285.714
231.57	-250.000
231.95	700.000
232.32	-100.000
232.69	0.000
233.07	-1200.000
233.44	-39.130
233.81	-700.000
234.19	8.333
234.56	-73.333
234.93	20.000
235.31	-26.316
235.68	-146.154
236.05	-84.615
236.43	-38.889
236.80	-33.333
237.17	-146.667
237.55	-76.471
237.92	-41.379
238.29	-74.074
238.67	-25.000
239.04	-70.968
239.41	-51.064
239.79	-12.766
240.16	-39.535
240.53	-14.286
240.91	-1.786
241.28	-5.357
241.65	-16.129
242.02	-18.421
242.40	14.493
242.77	-13.043
243.14	-23.077
243.51	-11.702
243.89	-4.808
244.26	3.774
244.63	-20.192
245.00	-9.375
245.38	-10.084
245.75	-4.918
246.12	-3.759
246.49	-14.634
246.87	-17.647
247.24	3.378
247.61	-8.609
247.98	-5.128
248.36	-4.734
248.73	-7.865
249.10	-5.556
249.47	-5.914
249.84	-6.842
250.22	-3.980
250.59	-3.738
250.96	0.455
251.33	-11.005
251.70	1.674
252.08	-2.929
252.45	-3.704
252.82	2.281
253.19	-2.335
253.56	-6.475
253.94	-2.847
254.31	-4.930
254.68	2.013
255.05	0.660
255.42	0.000
255.79	-0.920
256.16	-1.577
256.54	-3.810
256.91	-8.228
257.28	-1.258
257.65	-5.414
258.02	-1.173
258.39	-3.509
258.76	-1.744
259.14	-4.545
259.51	-1.685
259.88	0.813
260.25	-3.056
260.62	-3.371
260.99	-0.265
261.36	-0.777
261.73	-1.728
262.10	-4.835
262.47	-3.951
262.85	-3.483
263.22	-5.128
263.59	-3.377
263.96	-2.433
264.33	-2.163
264.70	-1.163
265.07	-0.926
265.44	0.000
265.81	-0.915
266.18	-2.278
266.55	-3.712
266.92	-2.331
267.29	-1.029
267.66	-0.425
268.03	-0.823
268.40	-3.390
268.77	-2.066
269.14	-1.020
269.51	1.848
269.88	-2.240
270.25	-1.271
270.62	-2.254
270.99	1.772
271.36	0.397
271.73	-1.606
272.10	0.000
272.47	-1.152
272.84	0.984
273.21	0.000
273.58	-2.459
273.95	-0.566
274.32	0.746
274.69	-0.911
275.06	0.883
275.43	1.318
275.80	-0.532
276.17	-1.842
276.54	-0.888
276.91	-2.091
277.28	-3.069
277.65	-1.224
278.02	-0.357
278.39	-2.842
278.76	-0.167
279.13	-0.515
279.50	-1.207
279.87	-2.174
280.23	-0.541
280.60	-2.768
280.97	-1.461
281.34	1.735
281.71	0.325
282.08	-0.855
282.45	0.164
282.82	-1.278
283.19	0.457
283.56	2.969
283.92	-0.612
284.29	-0.780
284.66	0.494
285.03	-1.140
285.40	-1.208
285.77	0.751
286.14	0.152
286.51	1.499
286.87	-2.308
287.24	-1.770
287.61	-0.452
287.98	0.441
288.35	0.298
288.72	1.291
289.08	0.427
289.45	-2.349
289.82	0.908
290.19	0.140
290.56	-1.847
290.93	-1.381
291.29	-0.137
291.66	0.000
292.03	0.545
292.40	-0.135
292.77	1.071
293.13	0.837
293.50	0.392
293.87	0.533
294.24	0.794
294.60	0.780
294.97	2.249
295.34	-0.132
295.71	-0.394
296.08	-1.047
296.44	-0.893
296.81	-1.096
297.18	-0.500
297.55	0.943
297.91	0.248
298.28	0.000
298.65	0.616
299.02	0.733
299.38	-0.368
299.75	1.202
300.12	-0.116
300.48	-0.351
300.85	0.231
301.22	0.813
301.59	-0.235
301.95	-0.232
302.32	0.000
302.69	-1.130
303.05	-0.111
303.42	0.568
303.79	1.262
304.15	0.657
304.52	2.473
304.89	1.550
305.25	-0.110
305.62	0.868
305.99	0.218
306.35	1.567
306.72	1.628
307.09	1.251
307.45	1.278
307.82	1.579
308.19	0.000
308.55	1.331
308.92	2.259
309.29	2.503
309.65	1.199
310.02	2.783
310.38	3.354
310.75	2.465
311.12	3.887
311.48	3.561
311.85	2.657
312.22	4.062
312.58	2.609
312.95	4.378
313.31	5.418
313.68	4.294
314.05	6.805
314.41	6.628
314.78	5.882
315.14	5.648
315.51	5.994
315.87	7.229
316.24	7.622
316.61	8.219
316.97	8.148
317.34	8.200
317.70	9.188
318.07	9.583
318.43	10.208
318.80	9.424
319.16	10.080
319.53	10.842
319.89	9.575
320.26	12.292
320.62	11.214
320.99	12.112
321.35	12.816
321.72	12.320
322.08	14.114
322.45	15.634
322.81	14.233
323.18	15.206
323.54	15.162
323.91	16.712
324.27	16.112
324.64	15.244
325.00	15.836
325.37	16.553
325.73	16.330
326.10	17.494
326.46	17.809
326.83	18.608
327.19	18.130
327.56	19.742
327.92	18.745
328.29	19.366
328.65	19.720
329.01	20.317
329.38	21.826
329.74	20.000
330.11	20.469
330.47	19.271
330.84	21.029
331.20	20.325
331.56	20.924
331.93	20.758
332.29	21.807
332.66	21.441
333.02	20.938
333.38	21.316
333.75	21.843
334.11	21.788
334.48	21.534
334.84	20.495
335.20	20.583
335.57	21.410
335.93	20.619
336.29	21.629
336.66	20.769
337.02	21.913
337.38	22.019
337.75	21.533
338.11	20.922
338.47	22.003
338.84	20.361
339.20	21.252
339.56	21.587
339.93	21.694
340.29	19.641
340.65	21.386
341.02	21.048
341.38	21.791
341.74	20.252
342.11	20.892
342.47	20.418
342.83	20.507
343.20	20.897
343.56	20.769
343.92	20.877
344.28	20.779
344.65	20.163
345.01	21.227
345.37	20.806
345.73	21.732
346.10	20.867
346.46	20.081
346.82	19.743
347.19	19.620
347.55	21.405
347.91	19.174
348.27	20.347
348.63	20.994
349.00	19.261
349.36	20.016
349.72	19.954
350.08	18.955
350.45	20.047
350.81	19.797
351.17	19.861
351.53	20.660
351.89	18.824
352.26	17.915
352.62	18.992
352.98	18.131
353.34	20.531
353.70	19.159
354.07	19.451
354.43	19.673
354.79	20.112
355.15	19.643
355.51	19.742
355.87	19.703
356.24	18.860
356.60	19.077
356.96	19.954
357.32	19.195
357.68	20.092
358.04	20.248
358.40	19.612
358.77	19.190
359.13	19.844
359.49	18.698
359.85	19.030
360.21	20.200
360.57	20.380
360.93	19.044
361.29	19.467
361.66	18.907
362.02	18.606
362.38	18.685
362.74	18.492
363.10	19.595
363.46	19.020
363.82	19.143
364.18	18.999
364.54	20.058
364.90	18.676
365.26	18.825
365.62	18.537
365.98	18.434
366.35	19.504
366.71	17.689
367.07	18.710
367.43	18.885
367.79	19.180
368.15	19.620
368.51	16.667
368.87	19.609
369.23	19.502
369.59	18.111
369.95	19.086
370.31	18.689
370.67	18.610
371.03	18.708
371.39	18.027
371.75	18.071
372.11	19.444
372.47	18.890
372.83	18.655
373.19	18.849
373.55	19.725
373.91	19.165
374.27	18.672
374.63	18.208
374.99	17.897
375.35	19.521
375.71	17.120
376.07	18.849
376.42	18.316
376.78	19.089
377.14	17.695
377.50	18.840
377.86	18.393
378.22	18.837
378.58	17.970
378.94	19.312
379.30	18.426
379.66	17.941
380.02	18.199
380.38	17.892
380.74	18.888
381.09	18.577
381.45	18.984
381.81	18.176
382.17	18.336
382.53	17.723
382.89	18.758
383.25	17.593
383.61	18.826
383.97	17.188
384.32	17.580
384.68	18.137
385.04	17.960
385.40	18.804
385.76	18.491
386.12	17.624
386.48	17.931
386.83	18.586
387.19	18.322
387.55	18.700
387.91	17.712
388.27	18.187
388.62	17.978
388.98	17.897
389.34	17.544
389.70	18.010
390.06	18.063
390.42	18.943
390.77	17.745
391.13	16.982
391.49	17.331
391.85	16.869
392.20	17.481
392.56	17.079
392.92	17.262
393.28	17.374
393.64	17.003
393.99	16.646
394.35	16.790
394.71	16.795
395.07	15.786
395.42	16.880
395.78	17.375
396.14	16.804
396.50	17.185
396.85	17.208
397.21	16.105
397.57	16.584
397.92	16.886
398.28	17.146
398.64	16.576
399.00	17.076
399.35	17.991
399.71	16.366
400.07	17.289
400.42	16.614
400.78	16.012
401.14	15.635
401.49	16.896
401.85	16.216
402.21	15.913
402.57	17.045
402.92	18.023
403.28	16.698
403.63	16.243
403.99	15.227
404.35	16.022
404.70	15.468
405.06	16.383
405.42	15.578
405.77	15.841
406.13	15.657
406.49	16.117
406.84	15.934
407.20	16.045
407.55	16.039
407.91	15.023
408.27	15.721
408.62	16.268
408.98	15.228
409.34	14.913
409.69	16.179
410.05	16.169
410.40	15.094
410.76	15.584
411.11	16.294
411.47	15.528
411.83	15.783
412.18	15.176
412.54	15.727
412.89	14.357
413.25	14.631
413.60	15.235
413.96	15.356
414.31	16.091
414.67	14.540
415.03	15.088
415.38	14.333
415.74	15.140
416.09	14.937
416.45	15.721
416.80	15.570
417.16	16.059
417.51	14.601
417.87	15.013
418.22	14.092
418.58	15.112
418.93	14.501
419.29	15.050
419.64	15.076
420.00	14.921
420.35	14.943
420.71	15.052
421.06	15.191
421.42	15.389
421.77	14.855
422.12	15.072
422.48	14.885
422.83	15.298
423.19	14.031
423.54	15.724
423.90	14.430
424.25	14.327
424.61	15.034
424.96	15.730
425.31	14.302
425.67	14.697
426.02	15.724
426.38	14.614
426.73	14.478
427.09	14.259
427.44	15.502
427.79	14.905
428.15	14.801
428.50	14.441
428.85	15.314
429.21	15.588
429.56	15.675
429.92	14.940
430.27	14.571
430.62	14.848
430.98	14.754
431.33	15.744
431.68	15.282
432.04	14.930
432.39	14.261
432.74	15.205
433.10	15.340
433.45	14.852
433.80	14.598
434.16	15.674
434.51	15.163
434.86	14.664
435.22	15.054
435.57	14.066
435.92	15.561
436.28	14.414
436.63	14.896
436.98	14.982
437.34	14.835
437.69	14.699
438.04	14.601
438.39	15.193
438.75	14.601
439.10	16.368
439.45	15.436
439.81	15.579
440.16	16.290
440.51	14.923
440.86	14.997
441.22	15.318
441.57	15.184
441.92	14.930
442.27	14.935
442.63	15.231
442.98	14.699
443.33	15.350
443.68	14.918
444.03	15.301
444.39	15.320
444.74	15.075
445.09	14.648
445.44	16.113
445.79	14.352
446.15	15.696
446.50	15.143
446.85	16.248
447.20	15.212
447.55	15.557
447.91	14.775
448.26	15.037
448.61	15.823
448.96	15.205
449.31	15.705
449.66	15.847
450.02	15.748
450.37	15.041
450.72	15.098
451.07	15.110
451.42	15.533
451.77	15.581
452.12	15.211
452.47	15.107
452.83	14.564
453.18	14.831
453.53	14.754
453.88	15.060
454.23	14.710
454.58	14.767
454.93	15.523
455.28	15.286
455.63	14.348
455.98	14.973
456.34	14.240
456.69	14.441
457.04	14.241
457.39	15.574
457.74	14.423
458.09	14.218
458.44	14.512
458.79	15.321
459.14	14.663
459.49	15.610
459.84	14.318
460.19	15.486
460.54	14.781
460.89	15.034
461.24	14.858
461.59	15.036
461.94	14.855
462.29	14.706
462.64	15.172
462.99	14.755
463.34	15.331
463.69	15.271
464.04	14.286
464.39	14.704
464.74	14.803
465.09	14.631
465.44	15.152
465.79	14.894
466.14	14.766
466.49	14.135
466.84	14.525
467.19	14.395
467.54	14.452
467.89	14.331
468.24	15.120
468.59	14.213
468.94	15.134
469.29	14.541
469.64	14.923
469.99	15.655
470.34	14.363
470.68	13.903
471.03	14.386
471.38	14.673
471.73	15.158
472.08	13.952
472.43	14.116
472.78	15.145
473.13	13.522
473.48	13.307
473.83	14.752
474.17	13.542
474.52	14.434
474.87	14.053
475.22	14.553
475.57	14.724
475.92	14.177
476.27	13.928
476.61	14.666
476.96	13.878
477.31	14.186
477.66	14.576
478.01	13.462
478.36	14.278
478.70	13.695
479.05	14.317
479.40	14.041
479.75	13.815
480.10	15.043
480.45	13.732
480.79	13.937
481.14	13.728
481.49	14.554
481.84	13.902
482.19	13.386
482.53	13.762
482.88	13.758
483.23	12.897
483.58	14.367
483.92	13.181
484.27	14.090
484.62	13.493
484.97	14.475
485.31	13.664
485.66	13.571
486.01	13.609
486.36	13.656
486.70	13.282
487.05	13.666
487.40	13.636
487.75	14.183
488.09	14.076
488.44	14.161
488.79	13.626
489.13	13.638
489.48	13.254
489.83	13.801
490.17	13.300
490.52	14.212
490.87	12.842
491.22	13.519
491.56	13.273
491.91	12.962
492.26	13.636
492.60	13.179
492.95	13.800
493.30	14.438
493.64	12.566
493.99	14.010
494.34	13.343
494.68	12.601
495.03	13.192
495.37	12.993
495.72	13.835
496.07	12.518
496.41	12.260
496.76	13.026
497.11	12.723
497.45	12.792
497.80	13.377
498.14	13.098
498.49	12.859
498.84	13.107
499.18	13.390
499.53	12.506
499.87	12.179
500.22	13.041
500.56	12.939
500.91	12.777
501.26	13.202
501.60	12.892
501.95	13.416
502.29	12.718
502.64	13.549
502.98	12.572
503.33	13.041
503.67	12.707
504.02	12.353
504.36	13.026
504.71	12.449
505.06	12.532
505.40	12.474
505.75	13.581
506.09	12.264
506.44	13.155
506.78	12.494
507.13	12.890
507.47	12.195
507.82	13.605
508.16	13.298
508.51	12.810
508.85	12.131
509.19	12.116
509.54	12.708
509.88	12.312
510.23	11.895
510.57	12.235
510.92	12.608
511.26	13.036
511.61	12.020
511.95	12.238
512.30	12.549
512.64	12.543
512.98	11.911
513.33	11.831
513.67	12.663
514.02	12.600
514.36	12.360
514.70	11.836
515.05	12.639
515.39	11.910
515.74	12.966
516.08	11.327
516.42	12.673
516.77	11.131
517.11	12.228
517.46	12.665
517.80	12.954
518.14	12.492
518.49	11.875
518.83	12.351
519.17	11.446
519.52	11.701
519.86	12.022
520.20	11.158
520.55	11.940
520.89	12.081
521.23	12.500
521.58	12.200
521.92	11.502
522.26	11.971
522.61	11.377
522.95	12.047
523.29	12.000
523.64	12.524
523.98	11.245
524.32	11.846
524.66	11.234
525.01	11.730
525.35	11.587
525.69	11.995
526.04	11.987
526.38	11.663
526.72	12.097
527.06	11.863
527.41	11.780
527.75	11.482
528.09	11.368
528.43	11.669
528.78	12.080
529.12	11.449
529.46	12.732
529.80	11.262
530.15	11.197
530.49	10.984
530.83	11.645
531.17	11.096
531.51	10.991
531.86	11.450
532.20	11.440
532.54	12.276
532.88	11.572
533.22	11.380
533.57	11.523
533.91	12.710
534.25	11.523
534.59	10.746
534.93	11.416
535.27	11.783
535.62	10.592
535.96	11.646
536.30	11.902
536.64	11.483
536.98	10.652
537.32	11.530
537.66	12.764
538.01	11.789
538.35	11.878
538.69	11.037
539.03	11.141
539.37	11.335
539.71	10.709
540.05	11.336
540.39	11.356
540.73	11.522
541.07	11.156
541.42	10.976
541.76	11.705
542.10	11.578
542.44	11.157
542.78	11.381
543.12	12.466
543.46	10.366
543.80	11.473
544.14	10.874
544.48	9.887
544.82	11.567
545.16	10.615
545.50	10.939
545.84	11.150
546.18	10.519
546.52	11.433
546.86	11.025
547.20	9.864
547.54	10.936
547.88	11.673
548.22	11.726
548.56	10.007
548.90	10.419
549.24	11.875
549.58	10.747
549.92	10.638
550.26	11.587
550.60	10.736
550.94	9.627
551.28	10.749
551.62	11.429
551.96	11.201
552.30	9.825
552.64	10.240
552.98	11.151
553.32	10.959
553.66	10.565
554.00	10.295
554.34	10.183
554.68	10.589
555.02	10.105
555.36	10.212
555.69	9.905
556.03	10.508
556.37	10.313
556.71	10.021
557.05	9.963
557.39	10.550
557.73	10.363
558.07	10.399
558.41	10.749
558.75	11.470
559.08	8.901
559.42	10.386
559.76	10.398
560.10	9.839
560.44	10.538
560.78	9.928
561.12	10.792
561.45	9.320
561.79	9.766
562.13	10.056
562.47	10.571
562.81	10.101
563.15	10.552
563.48	10.117
563.82	10.465
564.16	10.223
564.50	10.041
564.84	10.068
565.17	10.861
565.51	9.158
565.85	8.794
566.19	10.397
566.52	10.616
566.86	9.355
567.20	9.530
567.54	10.190
567.88	8.735
568.21	9.288
568.55	10.016
568.89	9.472
569.23	10.037
569.56	10.513
569.90	9.816
570.24	9.567
570.57	9.894
570.91	9.321
571.25	9.650
571.59	9.711
571.92	9.944
572.26	9.920
572.60	9.516
572.93	9.653
573.27	9.596
573.61	10.135
573.95	9.889
574.28	9.848
574.62	9.504
574.96	9.966
575.29	9.453
575.63	9.694
575.97	9.837
576.30	9.058
576.64	9.510
576.98	9.612
577.31	9.601
577.65	9.101
577.98	9.166
578.32	9.665
578.66	9.593
578.99	9.789
579.33	9.920
579.67	9.598
580.00	9.342
580.34	9.573
580.67	9.505
581.01	9.328
581.35	9.539
581.68	9.597
582.02	9.477
582.35	9.574
582.69	9.662
583.02	9.471
583.36	9.635
583.70	8.904
584.03	9.517
584.37	9.208
584.70	9.268
585.04	9.648
585.37	9.162
585.71	9.527
586.04	9.298
586.38	9.234
586.72	9.076
587.05	9.701
587.39	9.422
587.72	9.016
588.06	9.001
588.39	9.712
588.73	9.176
589.06	9.053
589.40	9.391
589.73	8.983
590.07	8.932
590.40	9.353
590.73	9.238
591.07	9.402
591.40	8.913
591.74	9.426
592.07	9.402
592.41	9.352
592.74	9.182
593.08	8.718
593.41	9.281
593.75	8.947
594.08	8.981
594.41	9.068
594.75	9.558
595.08	9.223
595.42	8.697
595.75	9.074
596.09	9.353
596.42	9.109
596.75	8.995
597.09	9.463
597.42	8.973
597.75	8.756
598.09	8.834
598.42	9.530
598.76	8.858
599.09	9.204
599.42	8.459
599.76	8.825
600.09	8.735
600.42	9.190
600.76	9.276
601.09	8.964
601.42	8.742
601.76	8.842
602.09	9.566
602.42	9.492
602.76	8.641
603.09	9.281
603.42	8.277
603.76	8.885
604.09	8.775
604.42	8.707
604.76	8.468
605.09	9.742
605.42	9.177
605.75	8.651
606.09	8.444
606.42	9.061
606.75	8.485
607.09	8.511
607.42	8.581
607.75	8.315
608.08	8.611
608.42	8.294
608.75	8.839
609.08	8.035
609.41	8.942
609.75	7.968
610.08	8.185
610.41	8.941
610.74	8.807
611.07	8.567
611.41	9.110
611.74	8.592
612.07	8.598
612.40	9.514
612.73	8.178
613.07	7.927
613.40	9.306
613.73	8.722
614.06	8.458
614.39	7.838
614.72	9.051
615.06	7.611
615.39	8.996
615.72	7.667
616.05	8.727
616.38	8.706
616.71	7.858
617.05	8.047
617.38	8.195
617.71	7.169
618.04	8.470
618.37	8.139
618.70	8.538
619.03	7.766
619.36	8.114
619.69	8.187
620.03	7.915
620.36	8.838
620.69	7.352
621.02	7.692
621.35	6.950
621.68	8.394
622.01	8.495
622.34	7.772
622.67	9.162
623.00	8.663
623.33	7.629
623.66	8.253
623.99	8.927
624.32	7.263
624.65	6.973
624.99	8.082
625.32	7.767
625.65	8.140
625.98	7.346
626.31	8.980
626.64	7.739
626.97	7.526
627.30	8.896
627.63	9.083
627.96	6.407
628.29	8.465
628.62	8.704
628.95	7.816
629.28	8.079
629.61	7.560
629.94	7.350
630.26	8.276
630.59	7.493
630.92	6.627
631.25	7.003
631.58	8.030
631.91	7.741
632.24	6.367
632.57	6.778
632.90	8.051
633.23	6.715
633.56	7.434
633.89	8.014
634.22	8.952
634.55	9.013
634.88	7.353
635.20	9.250
635.53	6.977
635.86	7.051
636.19	6.328
636.52	5.976
636.85	7.841
637.18	5.116
637.51	6.617
637.83	7.572
638.16	7.733
638.49	6.275
638.82	6.536
639.15	7.447
639.48	9.225
639.81	7.083
640.13	7.465
640.46	8.192
640.79	5.755
641.12	6.657
641.45	6.259
641.77	5.891
642.10	6.505
642.43	6.604
642.76	4.732
643.09	6.550
643.41	6.380
643.74	7.270
644.07	7.605
644.40	7.131
644.73	5.254
645.05	5.410
645.38	5.648
645.71	5.952
646.04	3.030
646.36	7.118
646.69	6.993
647.02	7.650
647.35	7.495
647.67	6.839
648.00	4.710
648.33	7.966
648.66	5.509
648.98	6.522
649.31	7.515
649.64	7.668
649.96	8.531
650.29	6.699
650.62	6.260
650.94	6.379
651.27	5.124
651.60	5.594
651.92	8.781
652.25	6.868
652.58	6.436
652.90	5.556
653.23	4.754
653.56	5.289
653.88	3.072
654.21	5.631
654.54	7.309
654.86	5.691
655.19	5.742
655.52	7.737
655.84	6.517
656.17	7.990
656.49	10.704
656.82	10.477
657.15	7.963
657.47	5.984
657.80	4.457
658.13	4.947
658.45	7.251
658.78	6.856
659.10	7.005
659.43	6.900
659.75	6.748
660.08	6.552
660.41	5.984
660.73	6.749
661.06	5.102
661.38	2.519
661.71	6.557
662.03	4.651
662.36	6.195
662.68	4.946
663.01	8.898
663.33	6.911
663.66	2.439
663.98	4.494
664.31	4.615
664.63	2.027
664.96	6.127
665.28	5.579
665.61	3.024
665.93	3.854
666.26	6.962
666.58	5.567
666.91	7.175
667.23	5.069
667.56	5.977
667.88	7.243
668.21	6.696
668.53	4.138
668.86	1.679
669.18	6.147
669.50	5.991
669.83	5.967
670.15	3.333
670.48	5.517
670.80	8.096
671.13	3.432
671.45	5.023
671.77	3.233
672.10	4.873
672.42	4.389
672.75	5.357
673.07	3.091
673.39	5.597
673.72	6.188
674.04	4.303
674.37	5.894
674.69	6.379
675.01	7.265
675.34	7.440
675.66	5.447
675.98	1.991
676.31	2.941
676.63	4.762
676.95	4.941
677.28	3.440
677.60	5.147
677.92	3.326
678.25	4.338
678.57	5.703
678.89	3.838
679.22	3.106
679.54	4.490
679.86	6.445
680.18	3.654
680.51	2.885
680.83	4.288
681.15	3.733
681.48	2.806
681.80	5.930
682.12	3.958
682.44	4.024
682.77	1.053
683.09	2.679
683.41	3.256
683.73	4.241
684.06	2.434
684.38	2.778
684.70	3.870
685.02	4.959
685.34	4.305
685.67	3.940
685.99	4.093
686.31	5.172
686.63	4.596
686.96	4.824
687.28	2.595
687.60	7.561
687.92	3.696
688.24	4.200
688.56	5.263
688.89	2.004
689.21	2.018
689.53	-0.225
689.85	4.270
690.17	5.714
690.49	4.831
690.82	3.819
691.14	5.072
691.46	3.248
691.78	3.516
692.10	5.308
692.42	2.418
692.74	5.217
693.06	3.371
693.39	1.639
693.71	4.222
694.03	5.682
694.35	3.829
694.67	4.500
694.99	3.608
695.31	5.168
695.63	3.902
695.95	1.781
696.27	1.644
696.59	5.376
696.91	0.838
697.23	1.015
697.56	4.556
697.88	5.821
698.20	6.695
698.52	1.168
698.84	3.828
699.16	6.383
699.48	4.691
699.80	5.943
700.12	3.753
700.44	1.972
700.76	1.966
701.08	6.344
701.40	5.988
701.72	4.000
702.04	0.943
702.36	0.000
702.68	0.915
703.00	2.339
703.32	4.178
703.64	4.518
703.96	3.226
704.28	5.120
704.60	5.183
704.91	-0.940
705.23	3.481
705.55	2.759
705.87	4.577
706.19	0.000
706.51	-0.352
706.83	0.955
707.15	5.488
707.47	3.030
707.79	0.508
708.11	1.028
708.43	1.523
708.74	1.862
709.06	3.476
709.38	4.323
709.70	5.105
710.02	4.361
710.34	-0.333
710.66	1.303
710.98	2.477
711.29	3.571
711.61	3.226
711.93	1.290
712.25	-0.699
712.57	0.702
712.89	0.733
713.20	4.255
713.52	-0.365
713.84	2.903
714.16	4.854
714.48	0.633
714.80	0.958
715.11	5.814
715.43	0.000
715.75	4.348
716.07	5.723
716.39	4.714
716.70	4.676
717.02	1.176
717.34	9.091
717.66	-5.172
717.97	-0.397
718.29	5.512
718.61	-1.717
718.93	-3.101
719.24	4.059
719.56	0.749
719.88	0.000
720.20	3.557
720.51	1.953
720.83	1.946
721.15	-6.504
721.46	0.382
721.78	-1.594
722.10	-2.789
722.42	-2.016
722.73	4.633
723.05	1.224
723.37	6.303
723.68	2.000
724.00	-3.830
724.32	2.092
724.63	8.230
724.95	0.000
725.27	5.485
725.58	4.115
725.90	0.837
726.22	3.261
726.53	-1.961
726.85	4.015
727.16	0.370
727.48	3.448
727.80	4.297
728.11	3.279
728.43	3.516
728.74	-1.587
729.06	-4.000
729.38	0.791
729.69	2.847
730.01	1.115
730.32	4.428
730.64	0.379
730.96	4.196
731.27	1.672
731.59	-0.635
731.90	-1.942
732.22	1.282
732.53	-4.054
732.85	1.678
733.16	0.990
733.48	2.365
733.80	1.351
734.11	2.365
734.43	3.406
734.74	4.505
735.06	4.899
735.37	3.951
735.69	-1.294
736.00	3.960
736.32	-0.709
736.63	3.793
736.95	2.397
737.26	0.345
737.58	-1.736
737.89	-4.124
738.21	4.982
738.52	-1.521
738.83	0.816
739.15	1.688
739.46	-1.167
739.78	-0.704
740.09	1.027
740.41	-3.214
740.72	1.418
741.04	-0.400
741.35	-3.509
741.66	6.667
741.98	1.923
742.29	6.436
742.61	-5.854
742.92	3.070
743.23	-3.302
743.55	3.153
743.86	-0.897
744.18	-2.451
744.49	-1.015
744.80	-0.510
745.12	-1.402
745.43	-2.844
745.74	0.000
746.06	3.738
746.37	-2.752
746.68	-1.442
747.00	0.957
747.31	1.923
747.62	0.459
747.94	1.310
748.25	1.376
748.56	6.667
748.88	2.817
749.19	5.238
749.50	1.942
749.82	-1.878
750.13	-2.917
750.44	-3.077
750.75	1.476
751.07	8.541
751.38	3.191
751.69	0.386
752.01	2.344
752.32	-0.769
752.63	1.866
752.94	0.000
753.26	0.418
753.57	1.250
753.88	0.405
754.19	2.789
754.51	-2.256
754.82	0.366
755.13	-1.739
755.44	-2.846
755.75	-4.000
756.07	-2.214
756.38	0.719
756.69	4.778
757.00	0.623
757.31	-0.324
757.63	-1.543
757.94	3.107
758.25	3.968
758.56	1.087
758.87	3.274
759.18	3.785
759.50	2.357
759.81	-1.672
760.12	1.538
760.43	-0.595
760.74	0.565
761.05	3.039
761.36	0.860
761.67	0.906
761.99	-1.031
762.30	-2.555
762.61	-0.823
762.92	5.983
763.23	1.639
763.54	0.866
763.85	-2.041
764.16	-0.813
764.47	0.000
764.78	-3.571
765.10	0.984
765.41	0.608
765.72	2.484
766.03	1.320
766.34	0.385
766.65	-2.092
766.96	-2.817
767.27	2.970
767.58	-10.674
767.89	0.000
768.20	-3.867
768.51	-1.005
768.82	1.923
769.13	3.540
769.44	1.674
769.75	-4.701
770.06	0.000
770.37	-4.412
770.68	-0.971
770.99	1.456
771.30	0.420
771.61	0.816
771.92	4.564
772.23	-2.703
772.54	-6.630
772.85	-5.233
773.16	1.058
773.47	-4.734
773.78	4.598
774.09	1.875
774.39	1.242
774.70	2.041
775.01	8.276
775.32	-5.714
775.63	-6.015
775.94	-10.526
776.25	-8.800
776.56	-7.438
776.87	3.968
777.18	-11.712
777.48	-13.514
777.79	7.087
778.10	2.752
778.41	-3.509
778.72	-9.244
779.03	-14.789
779.34	-2.703
779.65	-0.704
779.95	-5.298
780.26	-5.036
780.57	0.719
780.88	-4.930
781.19	-15.966
781.50	-2.013
781.80	1.170
782.11	-3.488
782.42	3.774
782.73	1.961
783.04	-1.379
783.34	-8.397
783.65	-4.698
783.96	-8.462
784.27	5.000
784.57	-2.128
784.88	-18.269
785.19	-1.818
785.50	-4.545
785.81	-7.619
786.11	-3.361
786.42	2.655
786.73	-4.717
787.04	-18.349
787.34	-18.812
787.65	3.333
787.96	-4.959
788.26	0.725
788.57	2.381
788.88	-2.439
789.19	-10.400
789.49	-9.160
789.80	4.545
790.11	-6.604
790.41	-1.980
790.72	-4.255
791.03	-9.783
791.33	-3.529
791.64	-14.815
791.95	-14.130
792.25	-6.818
792.56	0.000
792.87	-17.949
793.17	-33.333
793.48	-14.286
793.79	-18.750
794.09	-9.615
794.40	-7.292
794.70	-0.901
795.01	-7.813
795.32	-4.348
795.62	-19.565
795.93	-5.660
796.23	-6.061
796.54	-10.976
796.85	1.190
797.15	-16.667
797.46	-18.841
797.76	-11.842
798.07	-9.091
798.37	-14.634
798.68	-8.065
798.99	-5.405
799.29	0.000
799.60	-1.282
799.90	-10.769
800.21	-12.121
800.51	-14.667
800.82	-12.000
801.12	-35.417
801.43	-41.667
801.73	-16.216
802.04	-4.286
802.34	-31.148
802.65	14.925
802.95	3.636
803.26	-31.034
803.56	-16.923
803.87	1.887
804.17	-20.968
804.48	-11.765
804.78	-36.585
805.09	-15.942
805.39	-20.588
805.70	-38.298
806.00	-29.825
806.30	2.564
806.61	-5.263
806.91	-1.351
807.22	-21.053
807.52	-1.136
807.83	-32.203
808.13	-16.667
808.43	-10.000
808.74	-39.655
809.04	-6.349
809.35	-40.816
809.65	-15.000
809.95	-22.449
810.26	12.676
810.56	-10.417
810.86	-10.204
811.17	-15.385
811.47	-27.660
811.77	-25.000
812.08	-16.981
812.38	-37.500
812.69	-10.909
812.99	-4.878
813.29	-24.324
813.59	-51.351
813.90	-12.727
814.20	-7.273
814.50	-18.333
814.81	-14.545
815.11	7.018
815.41	11.628
815.72	-5.000
816.02	-48.571
816.32	-13.514
816.62	6.250
816.93	-13.333
817.23	-40.000
817.53	-69.444
817.84	-29.730
818.14	-14.634
818.44	-8.000
818.74	-18.367
819.04	-31.707
819.35	-27.778
819.65	-4.545
819.95	-127.778
820.25	-42.424
820.56	-33.333
820.86	-27.778
821.16	-29.545
821.46	-32.609
821.76	-18.966
822.07	-4.348
822.37	-21.212
822.67	12.195
822.97	-24.324
823.27	-20.000
823.57	-3.448
823.88	-32.353
824.18	-16.667
824.48	-2.857
824.78	-38.095
825.08	-21.429
825.38	-33.333
825.69	-61.290
825.99	0.000
826.29	-51.852
826.59	-43.750
826.89	-19.355
827.19	-43.478
827.49	-47.222
827.79	-47.826
828.09	-38.710
828.39	-22.917
828.70	-71.875
829.00	-13.793
829.30	-13.514
829.60	-75.000
829.90	0.000
830.20	-25.000
830.50	-40.909
830.80	-147.059
831.10	-54.545
831.40	-26.471
831.70	-15.385
832.00	-24.242
832.30	-11.765
832.60	-13.514
832.90	1400.000
833.20	-46.429
833.50	-85.000
833.80	-18.421
834.10	-129.167
834.40	-54.545
834.70	-140.000
835.00	-190.000
835.30	-54.167
835.60	-71.429
835.90	-76.190
836.20	-24.000
836.50	-25.000
836.80	-26.316
837.10	0.000
837.40	-13.333
837.70	-39.130
838.00	-8.333
838.30	-21.053
838.60	-240.000
838.90	-260.000
839.19	-150.000
839.49	-130.769
839.79	10.526
840.09	-216.667
840.39	-140.000
840.69	-40.909
840.99	-19.048
841.29	-91.667
841.59	-130.769
841.88	-126.667
842.18	-92.857
842.48	0.000
842.78	-285.714
843.08	-14.286
843.38	-162.500
843.68	-125.000
843.97	-57.143
844.27	-200.000
844.57	-118.182
844.87	-126.667
845.17	-45.455
845.47	633.333
845.76	-86.667
846.06	-66.667
846.36	-1100.000
846.66	-73.684
846.96	-68.182
847.25	-61.111
847.55	-233.333
847.85	-71.429
848.15	-30.769
848.44	-266.667
848.74	-158.333
849.04	-76.923
849.34	-425.000
849.63	-163.636
849.93	-200.000
850.23	15.000
850.53	-312.500
850.82	11.111
851.12	-73.333
851.42	-76.471
851.71	-112.500
852.01	23.529
852.31	-15.385
852.61	1100.000
852.90	5.882
853.20	-33.333
853.50	-62.500
853.79	-135.714
854.09	-500.000
854.39	-55.000
854.68	-22.500
854.98	-80.952
855.28	-32.000
855.57	-45.833
855.87	-62.500
856.17	-24.000
856.46	-43.750
856.76	-35.000
857.05	8.000
857.35	-91.667
857.65	-88.235
857.94	-200.000
858.24	-66.667
858.53	0.000
858.83	-154.545
859.13	-12.000
859.42	-35.714
859.72	-300.000
860.01	-12.500
860.31	-212.500
860.60	-31.250
860.90	-250.000
861.20	-150.000
861.49	6.667
861.79	-50.000
862.08	350.000
862.38	-125.000
862.67	314.286
862.97	425.000
863.26	-72.727
863.56	-36.364
863.85	21.053
864.15	-70.588
864.44	-340.000
864.74	-90.000
865.03	-133.333
865.33	-28.571
865.62	178.571
865.92	-52.632
866.21	-16.667
866.51	-90.909
866.80	-144.444
867.10	-187.500
867.39	-25.000
867.69	-126.667
867.98	-140.000
868.27	-11.765
868.57	0.000
868.86	1650.000
869.16	-475.000
869.45	-214.286
869.75	800.000
870.04	-50.000
870.33	-1600.000
870.63	-21.053
870.92	-33.333
871.22	-1900.000
871.51	-171.429
871.80	-133.333
872.10	-600.000
>>>>>End Processed Spectral Data<<<<<
