SpectraSuite Data File
++++++++++++++++++++++++++++++++++++
Date: Wed May 13 21:28:55 PDT 2015
User: schluterlab
Dark Spectrum Present: Yes
Reference Spectrum Present: Yes
Number of Sampled Component Spectra: 1
Spectrometers: USB2E3373
Integration Time (usec): 3000 (USB2E3373)
Spectra Averaged: 3 (USB2E3373)
Boxcar Smoothing: 0 (USB2E3373)
Correct for Electrical Dark: No (USB2E3373)
Strobe/Lamp Enabled: No (USB2E3373)
Correct for Detector Non-linearity: No (USB2E3373)
Correct for Stray Light: No (USB2E3373)
Number of Pixels in Processed Spectrum: 2048
>>>>>Begin Processed Spectral Data<<<<<
178.53	0.000
178.91	750.000
179.29	116.667
179.67	-650.000
180.04	-500.000
180.42	100.000
180.80	1900.000
181.18	200.000
181.56	-350.000
181.94	-225.000
182.31	-100.000
182.69	200.000
183.07	-140.000
183.45	233.333
183.83	33.333
184.20	-71.429
184.58	-133.333
184.96	500.000
185.34	257.143
185.72	0.000
186.09	-1100.000
186.47	-320.000
186.85	240.000
187.23	-450.000
187.61	750.000
187.98	400.000
188.36	12.500
188.74	0.000
189.12	0.000
189.49	60.000
189.87	191.667
190.25	280.000
190.63	600.000
191.00	-320.000
191.38	160.000
191.76	100.000
192.14	83.333
192.51	-57.895
192.89	533.333
193.27	300.000
193.65	-140.000
194.02	145.455
194.40	140.000
194.78	-500.000
195.15	140.000
195.53	-320.000
195.91	-12.500
196.29	-100.000
196.66	0.000
197.04	250.000
197.42	20.000
197.79	50.000
198.17	-87.500
198.55	-366.667
198.92	275.000
199.30	-300.000
199.68	20.000
200.05	250.000
200.43	133.333
200.81	-1500.000
201.18	-160.000
201.56	-83.333
201.94	575.000
202.31	21.739
202.69	-100.000
203.07	-166.667
203.44	-80.000
203.82	-333.333
204.19	-110.000
204.57	0.000
204.95	-100.000
205.32	0.000
205.70	-600.000
206.08	-150.000
206.45	-100.000
206.83	300.000
207.20	-300.000
207.58	-40.000
207.96	-1500.000
208.33	-142.857
208.71	-1000.000
209.08	250.000
209.46	375.000
209.84	0.000
210.21	120.000
210.59	1700.000
210.96	360.000
211.34	900.000
211.71	50.000
212.09	-233.333
212.46	-80.000
212.84	-200.000
213.22	-100.000
213.59	-600.000
213.97	-600.000
214.34	-150.000
214.72	0.000
215.09	262.500
215.47	255.556
215.84	800.000
216.22	50.000
216.59	-500.000
216.97	333.333
217.34	111.111
217.72	0.000
218.09	633.333
218.47	-500.000
218.84	-114.286
219.22	-100.000
219.59	-266.667
219.97	-425.000
220.34	-162.500
220.72	-100.000
221.09	0.000
221.47	-166.667
221.84	-800.000
222.22	0.000
222.59	1600.000
222.97	-200.000
223.34	41.667
223.72	-1600.000
224.09	-800.000
224.46	-72.727
224.84	-87.500
225.21	-157.143
225.59	-450.000
225.96	-66.667
226.34	40.000
226.71	-185.714
227.08	800.000
227.46	-137.500
227.83	-1400.000
228.21	-18.750
228.58	-200.000
228.95	-23.529
229.33	0.000
229.70	-50.000
230.08	-61.538
230.45	-200.000
230.82	-141.667
231.20	200.000
231.57	-225.000
231.95	1300.000
232.32	8.333
232.69	11.765
233.07	-1700.000
233.44	13.043
233.81	-900.000
234.19	12.500
234.56	-66.667
234.93	-66.667
235.31	63.158
235.68	-92.308
236.05	-38.462
236.43	-11.111
236.80	-30.303
237.17	-106.667
237.55	-64.706
237.92	-20.690
238.29	-25.926
238.67	11.111
239.04	-12.903
239.41	-10.638
239.79	6.383
240.16	27.907
240.53	21.429
240.91	16.071
241.28	7.143
241.65	19.355
242.02	21.053
242.40	30.435
242.77	8.696
243.14	11.538
243.51	27.660
243.89	20.192
244.26	26.415
244.63	16.346
245.00	19.792
245.38	19.328
245.75	20.492
246.12	15.789
246.49	12.195
246.87	8.403
247.24	26.351
247.61	23.841
247.98	19.872
248.36	26.036
248.73	24.719
249.10	21.717
249.47	24.194
249.84	27.368
250.22	25.373
250.59	24.766
250.96	27.273
251.33	15.311
251.70	26.778
252.08	26.778
252.45	24.691
252.82	23.194
253.19	21.401
253.56	21.223
253.94	25.267
254.31	22.887
254.68	25.503
255.05	21.122
255.42	20.629
255.79	23.006
256.16	25.552
256.54	23.810
256.91	23.101
257.28	22.956
257.65	17.834
258.02	24.340
258.39	24.561
258.76	21.802
259.14	21.875
259.51	21.629
259.88	24.119
260.25	24.444
260.62	21.629
260.99	25.464
261.36	25.130
261.73	21.728
262.10	21.120
262.47	20.741
262.85	24.627
263.22	19.744
263.59	20.519
263.96	22.628
264.33	19.231
264.70	23.256
265.07	23.611
265.44	25.747
265.81	23.570
266.18	21.640
266.55	21.179
266.92	20.975
267.29	22.016
267.66	22.081
268.03	23.457
268.40	20.551
268.77	20.868
269.14	22.041
269.51	23.409
269.88	18.737
270.25	22.458
270.62	19.467
270.99	21.850
271.36	21.825
271.73	20.884
272.10	19.238
272.47	19.002
272.84	22.047
273.21	20.352
273.58	20.287
273.95	20.000
274.32	21.828
274.69	18.033
275.06	21.025
275.43	20.904
275.80	22.163
276.17	21.363
276.54	18.650
276.91	20.383
277.28	18.953
277.65	21.329
278.02	21.071
278.39	19.538
278.76	19.732
279.13	19.726
279.50	23.276
279.87	17.935
280.23	20.180
280.60	18.512
280.97	21.429
281.34	21.293
281.71	19.350
282.08	18.462
282.45	21.148
282.82	20.447
283.19	21.799
283.56	18.438
283.92	21.407
284.29	19.345
284.66	19.769
285.03	18.730
285.40	19.184
285.77	20.270
286.14	20.365
286.51	21.589
286.87	18.615
287.24	21.091
287.61	20.934
287.98	19.706
288.35	19.672
288.72	19.082
289.08	21.937
289.45	19.971
289.82	22.239
290.19	19.215
290.56	17.187
290.93	19.613
291.29	18.194
291.66	19.536
292.03	17.984
292.40	18.573
292.77	19.143
293.13	19.805
293.50	20.000
293.87	19.600
294.24	18.254
294.60	17.945
294.97	19.974
295.34	16.227
295.71	17.214
296.08	17.539
296.44	17.474
296.81	17.296
297.18	17.375
297.55	18.514
297.91	18.758
298.28	17.070
298.65	18.842
299.02	19.292
299.38	17.055
299.75	18.389
300.12	15.581
300.48	17.193
300.85	15.935
301.22	15.331
301.59	17.136
301.95	17.538
302.32	18.203
302.69	15.028
303.05	18.383
303.42	19.091
303.79	16.719
304.15	17.853
304.52	18.710
304.89	17.608
305.25	15.477
305.62	15.510
305.99	17.084
306.35	17.868
306.72	17.701
307.09	17.518
307.45	17.785
307.82	16.526
308.19	16.510
308.55	16.274
308.92	17.289
309.29	17.918
309.65	17.483
310.02	18.887
310.38	17.683
310.75	17.653
311.12	18.270
311.48	17.705
311.85	17.618
312.22	19.342
312.58	18.357
312.95	18.408
313.31	17.815
313.68	18.607
314.05	18.998
314.41	19.404
314.78	18.406
315.14	19.907
315.51	18.934
315.87	19.462
316.24	21.120
316.61	20.548
316.97	21.296
317.34	21.034
317.70	21.142
318.07	21.029
318.43	22.042
318.80	21.291
319.16	21.132
319.53	21.237
319.89	21.861
320.26	22.458
320.62	22.892
320.99	22.190
321.35	23.106
321.72	22.907
322.08	23.524
322.45	25.809
322.81	25.878
323.18	25.045
323.54	26.986
323.91	25.294
324.27	26.193
324.64	26.655
325.00	25.722
325.37	28.157
325.73	27.525
326.10	27.250
326.46	28.177
326.83	28.641
327.19	28.293
327.56	29.492
327.92	28.882
328.29	30.968
328.65	30.938
329.01	28.584
329.38	31.043
329.74	30.472
330.11	31.921
330.47	30.035
330.84	30.957
331.20	32.109
331.56	32.428
331.93	31.697
332.29	31.972
332.66	31.271
333.02	31.625
333.38	32.807
333.75	31.485
334.11	33.420
334.48	33.217
334.84	32.951
335.20	32.247
335.57	33.072
335.93	31.787
336.29	34.326
336.66	32.393
337.02	33.304
337.38	31.854
337.75	32.817
338.11	32.451
338.47	32.021
338.84	33.333
339.20	34.215
339.56	32.338
339.93	33.708
340.29	33.134
340.65	32.934
341.02	33.860
341.38	33.024
341.74	33.109
342.11	33.278
342.47	33.473
342.83	33.333
343.20	33.418
343.56	34.669
343.92	33.306
344.28	34.010
344.65	34.694
345.01	33.979
345.37	36.102
345.73	35.458
346.10	34.671
346.46	33.821
346.82	33.868
347.19	34.256
347.55	34.410
347.91	34.139
348.27	34.779
348.63	34.856
349.00	33.569
349.36	34.772
349.72	34.107
350.08	35.257
350.45	35.552
350.81	34.977
351.17	34.873
351.53	35.035
351.89	35.028
352.26	33.668
352.62	35.659
352.98	35.383
353.34	35.990
353.70	36.293
354.07	36.627
354.43	36.314
354.79	38.462
355.15	37.112
355.51	36.295
355.87	35.731
356.24	37.560
356.60	37.764
356.96	36.378
357.32	36.610
357.68	37.510
358.04	37.316
358.40	37.984
358.77	36.850
359.13	37.665
359.49	37.472
359.85	37.225
360.21	38.011
360.57	38.555
360.93	38.695
361.29	39.082
361.66	38.041
362.02	37.954
362.38	39.513
362.74	38.796
363.10	39.190
363.46	38.401
363.82	39.024
364.18	38.434
364.54	39.533
364.90	39.791
365.26	40.269
365.62	40.128
365.98	39.858
366.35	40.426
366.71	40.514
367.07	40.397
367.43	41.324
367.79	40.792
368.15	40.366
368.51	40.225
368.87	42.080
369.23	42.206
369.59	42.142
369.95	41.437
370.31	42.329
370.67	41.926
371.03	42.836
371.39	44.855
371.75	42.929
372.11	43.376
372.47	43.980
372.83	44.591
373.19	44.101
373.55	45.520
373.91	45.050
374.27	45.643
374.63	45.164
374.99	44.081
375.35	45.137
375.71	44.769
376.07	47.087
376.42	45.455
376.78	46.962
377.14	48.000
377.50	46.936
377.86	47.145
378.22	47.914
378.58	47.730
378.94	48.688
379.30	48.470
379.66	49.014
380.02	49.081
380.38	48.795
380.74	49.253
381.09	49.397
381.45	49.335
381.81	50.647
382.17	51.355
382.53	50.708
382.89	50.121
383.25	50.617
383.61	51.755
383.97	51.437
384.32	51.292
384.68	52.313
385.04	51.741
385.40	53.549
385.76	53.163
386.12	54.939
386.48	54.483
386.83	54.380
387.19	55.028
387.55	54.016
387.91	55.597
388.27	55.055
388.62	55.743
388.98	55.632
389.34	56.140
389.70	56.166
390.06	56.188
390.42	57.925
390.77	55.926
391.13	56.566
391.49	56.546
391.85	59.105
392.20	58.960
392.56	59.238
392.92	57.109
393.28	58.687
393.64	59.450
393.99	59.058
394.35	60.370
394.71	61.026
395.07	59.623
395.42	61.670
395.78	60.618
396.14	61.826
396.50	62.651
396.85	62.588
397.21	61.610
397.57	61.863
397.92	60.898
398.28	61.027
398.64	64.056
399.00	62.333
399.35	63.110
399.71	63.483
400.07	64.217
400.42	63.762
400.78	64.411
401.14	63.581
401.49	65.428
401.85	66.462
402.21	66.440
402.57	65.175
402.92	66.333
403.28	67.542
403.63	65.778
403.99	66.859
404.35	66.895
404.70	66.526
405.06	67.998
405.42	67.651
405.77	67.224
406.13	66.400
406.49	67.945
406.84	68.376
407.20	67.200
407.55	69.481
407.91	67.439
408.27	66.750
408.62	69.552
408.98	68.742
409.34	69.802
409.69	70.630
410.05	69.838
410.40	68.533
410.76	70.397
411.11	69.527
411.47	70.139
411.83	71.491
412.18	70.025
412.54	71.366
412.89	70.533
413.25	70.501
413.60	71.724
413.96	70.662
414.31	71.270
414.67	70.222
415.03	72.260
415.38	71.070
415.74	71.540
416.09	72.769
416.45	74.710
416.80	72.349
417.16	73.684
417.51	73.476
417.87	73.479
418.22	73.174
418.58	72.865
418.93	73.007
419.29	74.587
419.64	71.692
420.00	74.667
420.35	73.282
420.71	72.578
421.06	73.124
421.42	73.783
421.77	74.277
422.12	74.097
422.48	72.683
422.83	75.074
423.19	74.928
423.54	73.616
423.90	74.287
424.25	75.563
424.61	76.094
424.96	74.571
425.31	74.089
425.67	75.426
426.02	76.914
426.38	75.684
426.73	76.970
427.09	76.360
427.44	75.220
427.79	76.544
428.15	76.391
428.50	75.650
428.85	76.015
429.21	75.577
429.56	77.046
429.92	76.002
430.27	75.818
430.62	75.918
430.98	75.780
431.33	76.787
431.68	76.997
432.04	76.507
432.39	76.097
432.74	76.640
433.10	76.525
433.45	76.154
433.80	76.494
434.16	74.386
434.51	76.793
434.86	78.269
435.22	77.872
435.57	74.939
435.92	76.659
436.28	75.916
436.63	77.021
436.98	77.203
437.34	77.961
437.69	76.033
438.04	74.307
438.39	77.024
438.75	77.414
439.10	78.138
439.45	76.695
439.81	77.894
440.16	77.217
440.51	76.516
440.86	75.993
441.22	77.223
441.57	76.356
441.92	76.413
442.27	76.840
442.63	76.319
442.98	76.910
443.33	77.709
443.68	76.542
444.03	76.105
444.39	77.690
444.74	76.256
445.09	76.542
445.44	77.521
445.79	77.233
446.15	77.981
446.50	76.046
446.85	78.140
447.20	76.268
447.55	75.713
447.91	75.281
448.26	79.588
448.61	76.640
448.96	76.651
449.31	77.213
449.66	76.981
450.02	77.089
450.37	76.498
450.72	75.488
451.07	77.680
451.42	75.920
451.77	76.811
452.12	75.639
452.47	76.695
452.83	76.651
453.18	77.276
453.53	77.743
453.88	78.554
454.23	77.689
454.58	76.042
454.93	77.550
455.28	76.557
455.63	76.794
455.98	76.872
456.34	75.270
456.69	76.230
457.04	74.303
457.39	75.105
457.74	75.284
458.09	75.889
458.44	76.498
458.79	74.849
459.14	73.258
459.49	75.488
459.84	75.479
460.19	74.790
460.54	75.365
460.89	75.394
461.24	75.031
461.59	76.449
461.94	75.853
462.29	75.674
462.64	76.319
462.99	74.715
463.34	77.417
463.69	76.224
464.04	74.490
464.39	74.985
464.74	75.430
465.09	75.325
465.44	73.962
465.79	75.676
466.14	74.686
466.49	76.540
466.84	75.194
467.19	75.096
467.54	75.243
467.89	76.304
468.24	75.907
468.59	75.717
468.94	75.351
469.29	76.801
469.64	75.732
469.99	76.345
470.34	76.399
470.68	75.093
471.03	75.670
471.38	74.131
471.73	75.171
472.08	74.983
472.43	76.649
472.78	74.780
473.13	72.361
473.48	74.038
473.83	75.267
474.17	76.302
474.52	76.246
474.87	74.910
475.22	74.879
475.57	75.014
475.92	74.864
476.27	75.524
476.61	74.689
476.96	75.728
477.31	74.919
477.66	75.819
478.01	74.780
478.36	75.204
478.70	74.866
479.05	76.138
479.40	72.647
479.75	74.283
480.10	73.738
480.45	73.026
480.79	75.212
481.14	74.772
481.49	75.432
481.84	72.762
482.19	73.923
482.53	73.190
482.88	74.113
483.23	73.628
483.58	74.716
483.92	74.660
484.27	73.285
484.62	72.392
484.97	73.455
485.31	72.351
485.66	66.700
486.01	66.071
486.36	67.654
486.70	69.932
487.05	71.245
487.40	71.387
487.75	73.844
488.09	74.539
488.44	75.149
488.79	74.905
489.13	73.638
489.48	73.835
489.83	72.264
490.17	73.899
490.52	74.427
490.87	73.204
491.22	72.539
491.56	72.784
491.91	73.548
492.26	73.694
492.60	71.669
492.95	72.789
493.30	71.269
493.64	71.079
493.99	72.609
494.34	73.025
494.68	72.936
495.03	74.209
495.37	72.165
495.72	73.835
496.07	72.528
496.41	72.157
496.76	71.938
497.11	73.286
497.45	74.319
497.80	73.296
498.14	74.358
498.49	73.071
498.84	71.913
499.18	73.469
499.53	71.689
499.87	71.519
500.22	73.619
500.56	73.170
500.91	73.793
501.26	73.005
501.60	72.206
501.95	71.778
502.29	73.058
502.64	73.144
502.98	71.291
503.33	72.165
503.67	73.320
504.02	71.814
504.36	71.768
504.71	73.272
505.06	73.459
505.40	74.433
505.75	72.991
506.09	73.684
506.44	71.573
506.78	72.727
507.13	72.869
507.47	73.277
507.82	73.155
508.16	75.251
508.51	72.107
508.85	73.561
509.19	74.180
509.54	73.887
509.88	72.527
510.23	72.895
510.57	73.623
510.92	73.330
511.26	75.578
511.61	74.918
511.95	74.311
512.30	73.348
512.64	75.085
512.98	74.958
513.33	75.155
513.67	75.185
514.02	74.686
514.36	74.101
514.70	74.827
515.05	77.121
515.39	74.882
515.74	76.673
516.08	75.044
516.42	75.461
516.77	75.747
517.11	76.249
517.46	76.471
517.80	75.484
518.14	75.566
518.49	75.407
518.83	74.463
519.17	76.265
519.52	76.236
519.86	77.049
520.20	75.197
520.55	76.119
520.89	74.953
521.23	77.115
521.58	77.118
521.92	74.859
522.26	76.968
522.61	76.341
522.95	77.526
523.29	76.127
523.64	75.969
523.98	75.731
524.32	75.299
524.66	77.857
525.01	78.309
525.35	78.012
525.69	75.613
526.04	75.765
526.38	75.335
526.72	76.200
527.06	75.048
527.41	75.844
527.75	75.968
528.09	77.468
528.43	77.205
528.78	74.806
529.12	76.067
529.46	75.560
529.80	75.469
530.15	74.260
530.49	77.291
530.83	78.334
531.17	76.233
531.51	75.657
531.86	75.339
532.20	76.430
532.54	77.379
532.88	77.059
533.22	75.892
533.57	76.093
533.91	75.032
534.25	76.432
534.59	74.517
534.93	74.809
535.27	74.777
535.62	75.066
535.96	75.277
536.30	75.399
536.64	75.393
536.98	73.791
537.32	73.950
537.66	75.811
538.01	74.202
538.35	73.619
538.69	74.114
539.03	73.490
539.37	73.441
539.71	75.102
540.05	73.279
540.39	71.783
540.73	73.534
541.07	72.925
541.42	72.660
541.76	72.801
542.10	73.053
542.44	72.765
542.78	72.866
543.12	72.978
543.46	72.357
543.80	72.505
544.14	73.297
544.48	70.537
544.82	72.562
545.16	72.279
545.50	72.789
545.84	72.090
546.18	71.879
546.52	71.418
546.86	72.085
547.20	73.338
547.54	70.979
547.88	71.323
548.22	70.489
548.56	71.648
548.90	71.854
549.24	70.833
549.58	70.747
549.92	73.368
550.26	72.915
550.60	71.922
550.94	72.761
551.28	71.310
551.62	71.805
551.96	69.985
552.30	70.233
552.64	71.186
552.98	71.591
553.32	70.224
553.66	71.607
554.00	71.202
554.34	70.549
554.68	71.290
555.02	70.135
555.36	71.180
555.69	70.794
556.03	70.407
556.37	69.630
556.71	68.325
557.05	70.037
557.39	69.405
557.73	71.029
558.07	70.008
558.41	70.553
558.75	70.516
559.08	71.692
559.42	71.676
559.76	68.807
560.10	70.100
560.44	69.123
560.78	70.144
561.12	69.446
561.45	67.687
561.79	68.363
562.13	67.229
562.47	68.429
562.81	68.543
563.15	68.059
563.48	66.414
563.82	69.562
564.16	66.892
564.50	66.825
564.84	67.230
565.17	66.821
565.51	67.313
565.85	66.289
566.19	67.086
566.52	66.579
566.86	65.992
567.20	66.402
567.54	64.537
567.88	63.774
568.21	63.172
568.55	63.380
568.89	62.463
569.23	62.236
569.56	59.741
569.90	60.890
570.24	59.567
570.57	59.331
570.91	59.654
571.25	59.873
571.59	58.539
571.92	58.844
572.26	60.588
572.60	60.055
572.93	60.200
573.27	58.731
573.61	58.710
573.95	58.937
574.28	58.830
574.62	57.023
574.96	58.612
575.29	58.651
575.63	58.272
575.97	58.478
576.30	57.874
576.64	58.763
576.98	58.300
577.31	57.183
577.65	56.572
577.98	56.735
578.32	56.988
578.66	57.426
578.99	57.535
579.33	58.096
579.67	58.529
580.00	57.491
580.34	57.101
580.67	57.398
581.01	57.649
581.35	56.502
581.68	55.480
582.02	55.766
582.35	55.935
582.69	56.329
583.02	56.507
583.36	57.809
583.70	58.096
584.03	58.830
584.37	57.678
584.70	57.310
585.04	57.319
585.37	55.820
585.71	55.089
586.04	56.566
586.38	56.196
586.72	56.701
587.05	56.740
587.39	56.829
587.72	56.383
588.06	57.428
588.39	55.695
588.73	56.919
589.06	57.743
589.40	57.000
589.73	57.097
590.07	56.617
590.40	56.494
590.73	58.347
591.07	58.880
591.40	57.087
591.74	57.492
592.07	58.101
592.41	56.156
592.74	55.594
593.08	53.744
593.41	54.721
593.75	54.360
594.08	55.233
594.41	55.649
594.75	55.697
595.08	57.020
595.42	55.404
595.75	55.025
596.09	56.159
596.42	56.373
596.75	56.121
597.09	56.915
597.42	56.393
597.75	56.044
598.09	56.011
598.42	55.749
598.76	54.996
599.09	54.582
599.42	53.890
599.76	54.900
600.09	54.367
600.42	53.145
600.76	54.028
601.09	54.689
601.42	54.880
601.76	53.977
602.09	54.803
602.42	54.973
602.76	55.034
603.09	54.908
603.42	53.739
603.76	53.274
604.09	53.715
604.42	53.495
604.76	53.688
605.09	55.188
605.42	54.116
605.75	53.961
606.09	52.566
606.42	53.533
606.75	53.074
607.09	54.610
607.42	53.546
607.75	52.691
608.08	54.644
608.42	53.515
608.75	54.276
609.08	55.218
609.41	54.049
609.75	54.614
610.08	54.241
610.41	54.130
610.74	53.176
611.07	53.657
611.41	54.555
611.74	53.209
612.07	52.684
612.40	54.108
612.73	53.568
613.07	54.047
613.40	54.075
613.73	52.654
614.06	53.566
614.39	53.363
614.72	53.526
615.06	53.778
615.39	51.876
615.72	52.592
616.05	53.097
616.38	53.436
616.71	53.029
617.05	53.010
617.38	53.173
617.71	52.696
618.04	53.016
618.37	54.953
618.70	54.463
619.03	53.402
619.36	54.591
619.69	54.532
620.03	53.428
620.36	54.210
620.69	53.319
621.02	54.154
621.35	54.702
621.68	54.116
622.01	55.016
622.34	53.688
622.67	54.190
623.00	53.723
623.33	52.431
623.66	52.937
623.99	52.588
624.32	53.191
624.65	53.116
624.99	52.976
625.32	54.145
625.65	53.953
625.98	52.686
626.31	55.102
626.64	51.763
626.97	53.633
627.30	53.978
627.63	52.422
627.96	52.554
628.29	55.070
628.62	53.965
628.95	54.008
629.28	53.596
629.61	54.258
629.94	54.545
630.26	54.187
630.59	54.046
630.92	54.317
631.25	52.935
631.58	55.460
631.91	53.977
632.24	54.007
632.57	53.111
632.90	55.076
633.23	54.556
633.56	55.995
633.89	55.024
634.22	55.124
634.55	55.177
634.88	53.431
635.20	56.375
635.53	55.168
635.86	55.256
636.19	54.218
636.52	51.220
636.85	53.076
637.18	51.888
637.51	53.683
637.83	54.047
638.16	53.333
638.49	52.603
638.82	53.595
639.15	53.324
639.48	52.674
639.81	53.056
640.13	55.070
640.46	53.955
640.79	53.669
641.12	51.923
641.45	53.421
641.77	54.345
642.10	54.766
642.43	54.403
642.76	52.208
643.09	55.272
643.41	55.981
643.74	56.058
644.07	55.502
644.40	55.224
644.73	56.780
645.05	55.497
645.38	52.824
645.71	53.401
646.04	52.020
646.36	53.646
646.69	56.119
647.02	56.284
647.35	54.662
647.67	52.311
648.00	54.891
648.33	52.373
648.66	54.257
648.98	55.124
649.31	51.994
649.64	50.861
649.96	53.239
650.29	49.673
650.62	51.071
650.94	51.207
651.27	51.590
651.60	53.671
651.92	55.018
652.25	52.596
652.58	51.320
652.90	52.525
653.23	52.122
653.56	51.405
653.88	49.829
654.21	48.123
654.54	52.492
654.86	50.894
655.19	48.179
655.52	46.099
655.84	38.755
656.17	45.814
656.49	61.533
656.82	63.566
657.15	49.843
657.47	38.275
657.80	29.151
658.13	31.655
658.45	48.386
658.78	50.023
659.10	50.794
659.43	51.808
659.75	52.078
660.08	52.069
660.41	53.043
660.73	51.377
661.06	54.592
661.38	50.000
661.71	50.205
662.03	53.488
662.36	51.991
662.68	51.398
663.01	54.025
663.33	51.836
663.66	49.667
663.98	53.708
664.31	54.286
664.63	47.297
664.96	54.705
665.28	53.433
665.61	52.916
665.93	51.392
666.26	54.008
666.58	49.036
666.91	54.260
667.23	50.461
667.56	51.494
667.88	51.636
668.21	48.214
668.53	53.103
668.86	51.559
669.18	48.936
669.50	51.152
669.83	53.461
670.15	49.286
670.48	51.724
670.80	48.359
671.13	47.597
671.45	51.826
671.77	50.647
672.10	46.394
672.42	45.802
672.75	48.214
673.07	46.909
673.39	49.813
673.72	49.301
674.04	49.795
674.37	49.390
674.69	47.119
675.01	49.573
675.34	50.109
675.66	50.109
675.98	48.230
676.31	50.905
676.63	52.154
676.95	48.235
677.28	47.477
677.60	50.245
677.92	46.563
678.25	48.373
678.57	48.880
678.89	48.401
679.22	46.998
679.54	47.347
679.86	48.437
680.18	46.731
680.51	47.115
680.83	42.690
681.15	44.008
681.48	44.289
681.80	47.035
682.12	45.833
682.44	43.863
682.77	48.000
683.09	48.661
683.41	44.186
683.73	44.196
684.06	49.115
684.38	47.009
684.70	44.807
685.02	45.868
685.34	44.227
685.67	45.216
685.99	43.594
686.31	42.069
686.63	43.199
686.96	46.011
687.28	44.511
687.60	46.503
687.92	44.553
688.24	44.000
688.56	46.053
688.89	44.989
689.21	42.152
689.53	46.396
689.85	46.292
690.17	44.176
690.49	45.894
690.82	44.391
691.14	42.754
691.46	44.548
691.78	44.615
692.10	44.798
692.42	42.418
692.74	44.783
693.06	39.551
693.39	42.857
693.71	43.333
694.03	46.364
694.35	42.793
694.67	46.000
694.99	45.361
695.31	46.512
695.63	44.390
695.95	43.766
696.27	45.479
696.59	39.516
696.91	42.458
697.23	40.609
697.56	39.568
697.88	42.204
698.20	39.741
698.52	43.224
698.84	41.627
699.16	40.898
699.48	42.222
699.80	47.028
700.12	42.091
700.44	41.690
700.76	41.573
701.08	45.921
701.40	47.904
701.72	45.538
702.04	40.252
702.36	42.073
702.68	42.073
703.00	42.982
703.32	40.390
703.64	44.880
703.96	41.349
704.28	41.867
704.60	43.293
704.91	38.558
705.23	42.405
705.55	45.172
705.87	39.437
706.19	41.026
706.51	42.606
706.83	39.490
707.15	41.159
707.47	39.118
707.79	39.848
708.11	42.674
708.43	38.579
708.74	40.957
709.06	40.374
709.38	42.939
709.70	39.039
710.02	38.941
710.34	37.667
710.66	41.368
710.98	38.080
711.29	40.584
711.61	40.645
711.93	39.677
712.25	40.909
712.57	35.789
712.89	39.194
713.20	41.489
713.52	42.336
713.84	35.484
714.16	41.424
714.48	38.924
714.80	37.061
715.11	42.442
715.43	37.888
715.75	39.441
716.07	37.952
716.39	41.414
716.70	43.525
717.02	41.176
717.34	38.258
717.66	38.362
717.97	36.508
718.29	39.764
718.61	36.910
718.93	40.310
719.24	39.114
719.56	37.079
719.88	35.821
720.20	38.735
720.51	37.109
720.83	40.856
721.15	36.179
721.46	36.641
721.78	39.841
722.10	35.458
722.42	36.694
722.73	37.838
723.05	37.551
723.37	36.555
723.68	32.400
724.00	37.447
724.32	41.423
724.63	31.687
724.95	33.333
725.27	38.819
725.58	36.626
725.90	36.820
726.22	35.145
726.53	32.549
726.85	37.956
727.16	32.593
727.48	38.314
727.80	38.281
728.11	34.836
728.43	32.812
728.74	39.286
729.06	33.600
729.38	38.340
729.69	36.655
730.01	35.688
730.32	31.734
730.64	33.712
730.96	36.713
731.27	32.776
731.59	34.286
731.90	34.304
732.22	34.295
732.53	30.405
732.85	30.201
733.16	33.993
733.48	35.473
733.80	31.081
734.11	34.797
734.43	33.437
734.74	34.535
735.06	30.548
735.37	35.258
735.69	34.951
736.00	33.993
736.32	35.106
736.63	29.310
736.95	35.274
737.26	31.379
737.58	34.375
737.89	34.708
738.21	32.028
738.52	36.502
738.83	35.918
739.15	33.333
739.46	29.961
739.78	32.042
740.09	31.164
740.41	33.929
740.72	31.915
741.04	30.000
741.35	33.333
741.66	39.556
741.98	33.173
742.29	35.149
742.61	32.195
742.92	38.158
743.23	30.660
743.55	32.883
743.86	37.220
744.18	33.824
744.49	31.472
744.80	34.694
745.12	28.505
745.43	35.545
745.74	36.036
746.06	29.439
746.37	29.358
746.68	35.096
747.00	27.751
747.31	40.865
747.62	32.569
747.94	31.878
748.25	30.734
748.56	39.111
748.88	36.620
749.19	33.810
749.50	31.553
749.82	35.681
750.13	25.833
750.44	31.154
750.75	32.841
751.07	36.299
751.38	31.206
751.69	28.958
752.01	35.156
752.32	35.000
752.63	30.597
752.94	34.800
753.26	29.707
753.57	33.750
753.88	34.413
754.19	31.873
754.51	30.827
754.82	31.502
755.13	29.565
755.44	27.642
755.75	29.200
756.07	26.568
756.38	30.216
756.69	32.423
757.00	30.218
757.31	32.039
757.63	28.704
757.94	29.661
758.25	33.069
758.56	29.348
758.87	30.952
759.18	29.968
759.50	26.599
759.81	31.104
760.12	30.462
760.43	30.655
760.74	28.814
761.05	29.006
761.36	28.367
761.67	29.607
761.99	30.241
762.30	30.292
762.61	29.218
762.92	32.479
763.23	29.098
763.54	29.004
763.85	31.020
764.16	32.520
764.47	26.800
764.78	25.357
765.10	30.164
765.41	31.307
765.72	30.745
766.03	30.693
766.34	30.000
766.65	28.452
766.96	28.169
767.27	33.168
767.58	24.719
767.89	35.185
768.20	23.204
768.51	29.146
768.82	29.808
769.13	32.301
769.44	26.360
769.75	26.496
770.06	31.390
770.37	27.451
770.68	30.097
770.99	30.097
771.30	28.151
771.61	31.837
771.92	33.195
772.23	29.279
772.54	29.282
772.85	25.000
773.16	27.513
773.47	20.710
773.78	29.885
774.09	26.875
774.39	26.708
774.70	27.891
775.01	31.034
775.32	26.429
775.63	19.549
775.94	17.293
776.25	19.200
776.56	23.967
776.87	26.984
777.18	15.315
777.48	20.721
777.79	18.110
778.10	37.615
778.41	18.421
778.72	21.849
779.03	14.789
779.34	39.189
779.65	23.239
779.95	25.166
780.26	23.741
780.57	27.338
780.88	22.535
781.19	26.050
781.50	34.228
781.80	21.637
782.11	16.860
782.42	29.560
782.73	34.641
783.04	17.931
783.34	24.427
783.65	29.530
783.96	19.231
784.27	24.286
784.57	30.496
784.88	16.346
785.19	38.182
785.50	32.727
785.81	23.810
786.11	20.168
786.42	23.009
786.73	19.811
787.04	13.761
787.34	15.842
787.65	20.833
787.96	18.182
788.26	25.362
788.57	28.571
788.88	14.634
789.19	20.800
789.49	22.901
789.80	25.758
790.11	14.151
790.41	33.663
790.72	32.979
791.03	16.304
791.33	15.294
791.64	25.926
791.95	20.652
792.25	29.545
792.56	26.923
792.87	14.103
793.17	2.564
793.48	0.000
793.79	23.750
794.09	29.808
794.40	21.875
794.70	23.423
795.01	15.625
795.32	16.522
795.62	10.870
795.93	14.151
796.23	29.293
796.54	24.390
796.85	22.619
797.15	28.788
797.46	26.087
797.76	18.421
798.07	28.409
798.37	18.293
798.68	12.903
798.99	14.865
799.29	28.916
799.60	23.077
799.90	36.923
800.21	16.667
800.51	12.000
800.82	29.333
801.12	4.167
801.43	5.000
801.73	21.622
802.04	40.000
802.34	1.639
802.65	14.925
802.95	14.545
803.26	12.069
803.56	20.000
803.87	30.189
804.17	12.903
804.48	-4.412
804.78	9.756
805.09	18.841
805.39	22.059
805.70	-12.766
806.00	3.509
806.30	17.949
806.61	25.000
806.91	8.108
807.22	11.842
807.52	29.545
807.83	13.559
808.13	-1.515
808.43	10.000
808.74	-3.448
809.04	3.175
809.35	10.204
809.65	26.667
809.95	-14.286
810.26	19.718
810.56	18.750
810.86	8.163
811.17	34.615
811.47	-12.766
811.77	6.250
812.08	20.755
812.38	-9.375
812.69	10.909
812.99	4.878
813.29	-16.216
813.59	-16.216
813.90	23.636
814.20	-1.818
814.50	10.000
814.81	25.455
815.11	15.789
815.41	44.186
815.72	2.500
816.02	11.429
816.32	-18.919
816.62	6.250
816.93	0.000
817.23	-22.222
817.53	-22.222
817.84	10.811
818.14	7.317
818.44	10.000
818.74	30.612
819.04	17.073
819.35	22.222
819.65	13.636
819.95	-33.333
820.25	-27.273
820.56	-16.667
820.86	13.889
821.16	-2.273
821.46	-6.522
821.76	-12.069
822.07	26.087
822.37	36.364
822.67	41.463
822.97	18.919
823.27	-11.429
823.57	20.690
823.88	-5.882
824.18	5.556
824.48	-11.429
824.78	19.048
825.08	0.000
825.38	11.111
825.69	-6.452
825.99	9.756
826.29	22.222
826.59	-43.750
826.89	-9.677
827.19	8.696
827.49	-25.000
827.79	-17.391
828.09	-16.129
828.39	0.000
828.70	-21.875
829.00	-34.483
829.30	2.703
829.60	-66.667
829.90	37.037
830.20	25.000
830.50	18.182
830.80	-35.294
831.10	-50.000
831.40	-23.529
831.70	-30.769
832.00	-15.152
832.30	41.176
832.60	0.000
832.90	600.000
833.20	-21.429
833.50	-60.000
833.80	0.000
834.10	-20.833
834.40	-31.818
834.70	-100.000
835.00	-20.000
835.30	-12.500
835.60	-4.762
835.90	33.333
836.20	-16.000
836.50	-4.167
836.80	-10.526
837.10	18.919
837.40	33.333
837.70	-30.435
838.00	41.667
838.30	-5.263
838.60	-90.000
838.90	-150.000
839.19	-8.333
839.49	-46.154
839.79	-36.842
840.09	-216.667
840.39	-180.000
840.69	-40.909
840.99	0.000
841.29	-37.500
841.59	-69.231
841.88	13.333
842.18	-7.143
842.48	-3.333
842.78	-142.857
843.08	-64.286
843.38	-125.000
843.68	-81.250
843.97	78.571
844.27	-133.333
844.57	-81.818
844.87	-100.000
845.17	22.727
845.47	500.000
845.76	-6.667
846.06	-125.000
846.36	-950.000
846.66	-26.316
846.96	-4.545
847.25	-94.444
847.55	-144.444
847.85	-33.333
848.15	15.385
848.44	-200.000
848.74	-100.000
849.04	-15.385
849.34	-175.000
849.63	-72.727
849.93	-114.286
850.23	15.000
850.53	-350.000
850.82	-27.778
851.12	-80.000
851.42	-5.882
851.71	-37.500
852.01	70.588
852.31	-61.538
852.61	900.000
852.90	-47.059
853.20	-26.667
853.50	-37.500
853.79	-121.429
854.09	-250.000
854.39	-30.000
854.68	12.500
854.98	-28.571
855.28	-20.000
855.57	-16.667
855.87	-33.333
856.17	-36.000
856.46	31.250
856.76	5.000
857.05	-16.000
857.35	-33.333
857.65	-29.412
857.94	-158.333
858.24	-58.333
858.53	20.000
858.83	-100.000
859.13	44.000
859.42	-42.857
859.72	12.500
860.01	16.667
860.31	-162.500
860.60	-75.000
860.90	-233.333
861.20	-33.333
861.49	-13.333
861.79	-106.250
862.08	350.000
862.38	-150.000
862.67	300.000
862.97	525.000
863.26	-172.727
863.56	-27.273
863.85	0.000
864.15	0.000
864.44	-180.000
864.74	-40.000
865.03	0.000
865.33	0.000
865.62	164.286
865.92	15.789
866.21	-5.556
866.51	27.273
866.80	-100.000
867.10	-100.000
867.39	-50.000
867.69	-46.667
867.98	20.000
868.27	-41.176
868.57	0.000
868.86	850.000
869.16	-400.000
869.45	-285.714
869.75	650.000
870.04	0.000
870.33	-1600.000
870.63	-42.105
870.92	-33.333
871.22	-500.000
871.51	-71.429
871.80	-144.444
872.10	-225.000
>>>>>End Processed Spectral Data<<<<<
