SpectraSuite Data File
++++++++++++++++++++++++++++++++++++
Date: Wed May 13 21:35:40 PDT 2015
User: schluterlab
Dark Spectrum Present: Yes
Reference Spectrum Present: Yes
Number of Sampled Component Spectra: 1
Spectrometers: USB2E3373
Integration Time (usec): 3000 (USB2E3373)
Spectra Averaged: 3 (USB2E3373)
Boxcar Smoothing: 0 (USB2E3373)
Correct for Electrical Dark: No (USB2E3373)
Strobe/Lamp Enabled: No (USB2E3373)
Correct for Detector Non-linearity: No (USB2E3373)
Correct for Stray Light: No (USB2E3373)
Number of Pixels in Processed Spectrum: 2048
>>>>>Begin Processed Spectral Data<<<<<
178.53	0.000
178.91	1050.000
179.29	225.000
179.67	-1200.000
180.04	-466.667
180.42	360.000
180.80	2500.000
181.18	450.000
181.56	-450.000
181.94	-325.000
182.31	-63.636
182.69	138.462
183.07	-420.000
183.45	400.000
183.83	188.889
184.20	214.286
184.58	-333.333
184.96	766.667
185.34	242.857
185.72	0.000
186.09	-1200.000
186.47	-260.000
186.85	240.000
187.23	-250.000
187.61	800.000
187.98	1200.000
188.36	-162.500
188.74	0.000
189.12	-118.182
189.49	-40.000
189.87	200.000
190.25	440.000
190.63	1100.000
191.00	-180.000
191.38	420.000
191.76	250.000
192.14	133.333
192.51	-42.105
192.89	566.667
193.27	300.000
193.65	-420.000
194.02	200.000
194.40	180.000
194.78	-1200.000
195.15	340.000
195.53	-280.000
195.91	-75.000
196.29	-700.000
196.66	0.000
197.04	800.000
197.42	-300.000
197.79	-100.000
198.17	-250.000
198.55	-766.667
198.92	175.000
199.30	-333.333
199.68	-120.000
200.05	550.000
200.43	350.000
200.81	-1500.000
201.18	-300.000
201.56	-283.333
201.94	700.000
202.31	17.391
202.69	-257.143
203.07	-466.667
203.44	-260.000
203.82	-333.333
204.19	-60.000
204.57	0.000
204.95	-150.000
205.32	0.000
205.70	-400.000
206.08	-275.000
206.45	-266.667
206.83	350.000
207.20	-400.000
207.58	-120.000
207.96	-1200.000
208.33	-242.857
208.71	-2000.000
209.08	262.500
209.46	450.000
209.84	0.000
210.21	270.000
210.59	1600.000
210.96	160.000
211.34	1300.000
211.71	-850.000
212.09	-216.667
212.46	-60.000
212.84	-333.333
213.22	75.000
213.59	-1800.000
213.97	-850.000
214.34	-800.000
214.72	-46.154
215.09	337.500
215.47	188.889
215.84	1300.000
216.22	-112.500
216.59	-850.000
216.97	966.667
217.34	211.111
217.72	0.000
218.09	333.333
218.47	-700.000
218.84	-71.429
219.22	-100.000
219.59	-933.333
219.97	-400.000
220.34	-250.000
220.72	-180.000
221.09	0.000
221.47	-216.667
221.84	-100.000
222.22	0.000
222.59	1500.000
222.97	-333.333
223.34	-66.667
223.72	-1500.000
224.09	-900.000
224.46	-81.818
224.84	-137.500
225.21	-42.857
225.59	-475.000
225.96	-133.333
226.34	-80.000
226.71	-271.429
227.08	850.000
227.46	-175.000
227.83	-500.000
228.21	-112.500
228.58	-450.000
228.95	-47.059
229.33	-62.500
229.70	-125.000
230.08	7.692
230.45	-187.500
230.82	-116.667
231.20	200.000
231.57	-475.000
231.95	1400.000
232.32	8.333
232.69	47.059
233.07	-1800.000
233.44	-52.174
233.81	-900.000
234.19	-4.167
234.56	-80.000
234.93	-106.667
235.31	-5.263
235.68	-138.462
236.05	-53.846
236.43	0.000
236.80	-12.121
237.17	-80.000
237.55	-117.647
237.92	-17.241
238.29	-62.963
238.67	11.111
239.04	-12.903
239.41	-6.383
239.79	29.787
240.16	2.326
240.53	10.714
240.91	8.929
241.28	7.143
241.65	12.903
242.02	-1.316
242.40	14.493
242.77	2.899
243.14	-1.282
243.51	15.957
243.89	20.192
244.26	14.151
244.63	5.769
245.00	15.625
245.38	3.361
245.75	7.377
246.12	17.293
246.49	6.504
246.87	10.084
247.24	25.000
247.61	13.245
247.98	21.154
248.36	13.018
248.73	11.236
249.10	12.121
249.47	6.452
249.84	22.105
250.22	16.418
250.59	15.421
250.96	17.273
251.33	5.742
251.70	20.502
252.08	18.828
252.45	18.107
252.82	23.194
253.19	14.786
253.56	16.187
253.94	23.132
254.31	23.239
254.68	20.134
255.05	23.432
255.42	20.280
255.79	19.325
256.16	18.612
256.54	19.683
256.91	17.089
257.28	17.925
257.65	12.739
258.02	19.941
258.39	18.713
258.76	17.151
259.14	16.761
259.51	19.101
259.88	19.512
260.25	20.000
260.62	16.854
260.99	20.690
261.36	21.244
261.73	18.025
262.10	18.575
262.47	21.235
262.85	18.408
263.22	19.487
263.59	17.922
263.96	18.491
264.33	20.433
264.70	18.140
265.07	20.833
265.44	22.299
265.81	21.968
266.18	20.273
266.55	18.559
266.92	16.949
267.29	18.930
267.66	21.231
268.03	21.399
268.40	18.008
268.77	20.455
269.14	20.204
269.51	21.766
269.88	20.163
270.25	20.339
270.62	18.238
270.99	20.276
271.36	20.040
271.73	21.486
272.10	20.952
272.47	20.345
272.84	19.488
273.21	18.395
273.58	21.107
273.95	18.491
274.32	18.097
274.69	18.761
275.06	20.318
275.43	20.339
275.80	18.262
276.17	20.258
276.54	19.183
276.91	18.641
277.28	19.675
277.65	19.580
278.02	21.429
278.39	17.229
278.76	20.903
279.13	18.182
279.50	18.103
279.87	17.935
280.23	20.360
280.60	18.512
280.97	18.344
281.34	20.505
281.71	18.862
282.08	19.145
282.45	20.164
282.82	18.690
283.19	20.274
283.56	20.000
283.92	19.572
284.29	19.813
284.66	19.934
285.03	17.101
285.40	18.580
285.77	19.369
286.14	19.301
286.51	20.240
286.87	16.923
287.24	19.027
287.61	20.482
287.98	18.235
288.35	17.884
288.72	18.508
289.08	19.373
289.45	17.768
289.82	18.306
290.19	18.513
290.56	18.750
290.93	16.436
291.29	17.510
291.66	18.306
292.03	18.801
292.40	16.958
292.77	18.206
293.13	16.736
293.50	18.954
293.87	18.267
294.24	17.593
294.60	17.295
294.97	19.444
295.34	16.755
295.71	17.083
296.08	16.230
296.44	17.092
296.81	16.565
297.18	17.500
297.55	16.745
297.91	16.522
298.28	15.981
298.65	16.995
299.02	17.460
299.38	18.037
299.75	16.346
300.12	15.581
300.48	15.673
300.85	15.935
301.22	15.679
301.59	15.728
301.95	16.609
302.32	15.519
302.69	17.740
303.05	16.722
303.42	16.705
303.79	16.509
304.15	16.867
304.52	16.882
304.89	16.944
305.25	17.234
305.62	16.811
305.99	16.975
306.35	17.659
306.72	17.091
307.09	16.475
307.45	17.252
307.82	16.526
308.19	14.734
308.55	16.070
308.92	18.271
309.29	16.316
309.65	16.883
310.02	18.191
310.38	17.276
310.75	17.850
311.12	17.590
311.48	19.189
311.85	17.815
312.22	19.632
312.58	18.357
312.95	18.607
313.31	18.365
313.68	18.989
314.05	20.510
314.41	20.077
314.78	19.260
315.14	20.093
315.51	21.694
315.87	20.760
316.24	23.049
316.61	23.105
316.97	21.574
317.34	21.925
317.70	23.640
318.07	23.957
318.43	23.126
318.80	22.862
319.16	22.635
319.53	24.104
319.89	24.752
320.26	25.693
320.62	25.487
320.99	26.841
321.35	25.164
321.72	27.430
322.08	28.229
322.45	27.012
322.81	27.911
323.18	28.265
323.54	28.430
323.91	29.268
324.27	30.153
324.64	28.920
325.00	30.184
325.37	30.546
325.73	30.135
326.10	30.193
326.46	31.355
326.83	31.553
327.19	31.707
327.56	33.844
327.92	32.904
328.29	33.389
328.65	34.093
329.01	33.685
329.38	35.130
329.74	32.532
330.11	34.626
330.47	33.160
330.84	33.484
331.20	34.927
331.56	35.779
331.93	35.487
332.29	35.969
332.66	32.966
333.02	36.403
333.38	35.702
333.75	36.348
334.11	36.632
334.48	36.356
334.84	36.131
335.20	36.535
335.57	36.554
335.93	35.739
336.29	37.303
336.66	36.581
337.02	36.957
337.38	36.292
337.75	35.831
338.11	35.696
338.47	36.216
338.84	36.512
339.20	36.684
339.56	36.689
339.93	36.733
340.29	35.611
340.65	37.382
341.02	36.689
341.38	36.486
341.74	35.546
342.11	36.086
342.47	36.820
342.83	36.275
343.20	36.717
343.56	36.795
343.92	34.606
344.28	37.906
344.65	36.571
345.01	35.432
345.37	36.760
345.73	37.418
346.10	36.276
346.46	34.797
346.82	35.634
347.19	35.443
347.55	36.834
347.91	34.996
348.27	35.174
348.63	34.455
349.00	34.434
349.36	34.694
349.72	34.648
350.08	35.569
350.45	35.630
350.81	35.915
351.17	35.643
351.53	34.250
351.89	34.790
352.26	33.745
352.62	34.186
352.98	35.064
353.34	35.749
353.70	34.190
354.07	34.039
354.43	34.914
354.79	35.417
355.15	34.394
355.51	34.472
355.87	33.620
356.24	33.868
356.60	34.480
356.96	34.612
357.32	34.211
357.68	35.065
358.04	35.376
358.40	34.264
358.77	33.257
359.13	33.852
359.49	34.822
359.85	33.889
360.21	34.773
360.57	33.308
360.93	34.522
361.29	34.937
361.66	34.169
362.02	33.210
362.38	33.309
362.74	33.140
363.10	33.984
363.46	32.781
363.82	35.477
364.18	33.648
364.54	34.354
364.90	32.753
365.26	33.758
365.62	33.168
365.98	33.808
366.35	33.759
366.71	32.382
367.07	33.026
367.43	33.101
367.79	33.009
368.15	33.052
368.51	32.208
368.87	33.636
369.23	32.740
369.59	34.179
369.95	32.801
370.31	32.706
370.67	32.657
371.03	33.779
371.39	32.434
371.75	33.714
372.11	32.336
372.47	33.093
372.83	31.553
373.19	33.094
373.55	32.876
373.91	31.683
374.27	31.328
374.63	32.717
374.99	32.451
375.35	32.740
375.71	32.677
376.07	32.419
376.42	32.219
376.78	33.091
377.14	33.220
377.50	32.855
377.86	32.736
378.22	32.933
378.58	32.156
378.94	32.438
379.30	32.230
379.66	33.107
380.02	33.333
380.38	31.988
380.74	32.636
381.09	31.846
381.45	32.406
381.81	32.348
382.17	31.443
382.53	31.754
382.89	31.665
383.25	32.346
383.61	32.748
383.97	31.375
384.32	32.766
384.68	32.511
385.04	31.155
385.40	31.943
385.76	32.968
386.12	32.537
386.48	31.223
386.83	31.352
387.19	32.079
387.55	32.189
387.91	32.903
388.27	32.121
388.62	31.211
388.98	31.727
389.34	32.456
389.70	31.380
390.06	31.188
390.42	32.345
390.77	30.878
391.13	31.692
391.49	31.626
391.85	31.885
392.20	31.516
392.56	30.984
392.92	30.954
393.28	31.435
393.64	31.560
393.99	30.355
394.35	31.358
394.71	30.897
395.07	29.937
395.42	31.566
395.78	31.081
396.14	31.262
396.50	31.516
396.85	32.250
397.21	30.400
397.57	30.559
397.92	30.659
398.28	31.077
398.64	30.419
399.00	31.362
399.35	30.533
399.71	30.810
400.07	31.084
400.42	30.345
400.78	30.332
401.14	30.043
401.49	30.437
401.85	30.344
402.21	30.217
402.57	30.043
402.92	31.164
403.28	30.206
403.63	30.998
403.99	30.390
404.35	30.549
404.70	30.151
405.06	30.476
405.42	30.653
405.77	30.012
406.13	29.257
406.49	30.258
406.84	31.319
407.20	30.018
407.55	30.260
407.91	28.987
408.27	28.322
408.62	30.264
408.98	29.470
409.34	29.022
409.69	29.890
410.05	29.726
410.40	28.850
410.76	29.422
411.11	28.980
411.47	30.060
411.83	28.821
412.18	28.967
412.54	30.013
412.89	28.840
413.25	28.555
413.60	28.903
413.96	28.901
414.31	28.915
414.67	29.270
415.03	29.905
415.38	29.458
415.74	29.305
416.09	29.610
416.45	29.323
416.80	29.195
417.16	29.082
417.51	29.069
417.87	29.497
418.22	29.412
418.58	29.238
418.93	27.872
419.29	29.307
419.64	29.517
420.00	29.651
420.35	28.990
420.71	28.824
421.06	28.598
421.42	29.927
421.77	28.555
422.12	29.054
422.48	28.790
422.83	28.884
423.19	29.787
423.54	29.682
423.90	28.860
424.25	28.307
424.61	28.774
424.96	28.386
425.31	28.155
425.67	29.159
426.02	29.388
426.38	29.975
426.73	29.994
427.09	28.956
427.44	29.301
427.79	29.038
428.15	28.746
428.50	27.674
428.85	29.028
429.21	28.869
429.56	29.968
429.92	29.151
430.27	29.448
430.62	28.069
430.98	29.032
431.33	29.017
431.68	29.819
432.04	29.127
432.39	28.868
432.74	28.020
433.10	29.169
433.45	29.112
433.80	28.851
434.16	28.891
434.51	29.348
434.86	29.918
435.22	29.485
435.57	29.300
435.92	30.097
436.28	29.249
436.63	29.908
436.98	30.259
437.34	30.037
437.69	30.047
438.04	29.598
438.39	29.888
438.75	29.082
439.10	30.769
439.45	30.206
439.81	31.096
440.16	30.609
440.51	29.429
440.86	30.113
441.22	30.350
441.57	30.803
441.92	30.845
442.27	30.844
442.63	29.333
442.98	30.556
443.33	31.433
443.68	30.416
444.03	30.800
444.39	30.887
444.74	31.253
445.09	31.663
445.44	32.394
445.79	30.614
446.15	31.337
446.50	32.269
446.85	31.855
447.20	32.044
447.55	33.128
447.91	31.180
448.26	31.447
448.61	32.451
448.96	33.371
449.31	32.610
449.66	32.157
450.02	32.973
450.37	32.902
450.72	31.860
451.07	32.790
451.42	33.437
451.77	33.354
452.12	32.858
452.47	33.764
452.83	33.019
453.18	34.246
453.53	32.661
453.88	33.976
454.23	33.498
454.58	32.414
454.93	33.932
455.28	34.554
455.63	33.063
455.98	34.875
456.34	33.694
456.69	34.696
457.04	34.056
457.39	34.396
457.74	33.573
458.09	34.123
458.44	34.841
458.79	34.322
459.14	34.157
459.49	34.146
459.84	34.724
460.19	33.673
460.54	33.577
460.89	34.741
461.24	34.155
461.59	34.481
461.94	35.398
462.29	35.417
462.64	34.631
462.99	35.412
463.34	35.497
463.69	36.018
464.04	34.694
464.39	34.106
464.74	34.705
465.09	35.648
465.44	33.558
465.79	35.998
466.14	35.747
466.49	35.601
466.84	34.489
467.19	34.650
467.54	36.163
467.89	35.512
468.24	35.341
468.59	35.309
468.94	36.079
469.29	35.691
469.64	36.681
469.99	37.793
470.34	35.873
470.68	35.985
471.03	36.601
471.38	36.857
471.73	36.968
472.08	36.770
472.43	38.588
472.78	37.052
473.13	34.960
473.48	36.725
473.83	36.911
474.17	37.695
474.52	37.346
474.87	36.912
475.22	36.836
475.57	36.419
475.92	36.914
476.27	36.131
476.61	37.259
476.96	37.636
477.31	36.084
477.66	37.797
478.01	36.484
478.36	36.730
478.70	37.325
479.05	37.347
479.40	37.337
479.75	37.832
480.10	37.532
480.45	36.881
480.79	37.830
481.14	38.652
481.49	38.777
481.84	37.182
482.19	36.962
482.53	38.476
482.88	38.207
483.23	37.873
483.58	37.429
483.92	38.132
484.27	37.740
484.62	37.284
484.97	38.117
485.31	36.889
485.66	35.310
486.01	35.808
486.36	36.476
486.70	36.838
487.05	36.449
487.40	37.572
487.75	37.209
488.09	37.003
488.44	37.469
488.79	38.872
489.13	38.449
489.48	38.221
489.83	38.946
490.17	38.947
490.52	39.224
490.87	38.618
491.22	39.331
491.56	39.291
491.91	39.030
492.26	39.507
492.60	39.586
492.95	39.942
493.30	38.808
493.64	39.664
493.99	40.097
494.34	40.318
494.68	39.284
495.03	39.822
495.37	39.075
495.72	39.850
496.07	40.916
496.41	39.588
496.76	39.945
497.11	40.423
497.45	40.029
497.80	40.586
498.14	40.202
498.49	39.536
498.84	40.385
499.18	40.169
499.53	39.636
499.87	40.126
500.22	41.115
500.56	40.873
500.91	40.996
501.26	40.197
501.60	40.294
501.95	40.345
502.29	39.951
502.64	41.466
502.98	40.125
503.33	41.168
503.67	41.237
504.02	40.392
504.36	40.713
504.71	40.193
505.06	41.620
505.40	41.649
505.75	41.099
506.09	41.134
506.44	40.726
506.78	41.544
507.13	41.008
507.47	42.153
507.82	41.235
508.16	42.427
508.51	41.839
508.85	41.680
509.19	41.693
509.54	42.306
509.88	40.968
510.23	41.158
510.57	42.426
510.92	42.942
511.26	43.069
511.61	41.383
511.95	43.054
512.30	41.477
512.64	43.417
512.98	41.496
513.33	42.028
513.67	42.533
514.02	42.930
514.36	42.753
514.70	43.129
515.05	44.178
515.39	43.337
515.74	43.280
516.08	43.186
516.42	42.857
516.77	43.234
517.11	44.268
517.46	44.118
517.80	45.460
518.14	43.601
518.49	42.797
518.83	42.482
519.17	43.012
519.52	44.632
519.86	44.080
520.20	44.391
520.55	45.087
520.89	44.908
521.23	45.833
521.58	44.817
521.92	43.558
522.26	43.917
522.61	43.633
522.95	44.430
523.29	44.317
523.64	44.374
523.98	44.155
524.32	44.549
524.66	44.156
525.01	44.364
525.35	44.964
525.69	45.394
526.04	45.016
526.38	44.678
526.72	44.707
527.06	44.358
527.41	45.069
527.75	44.126
528.09	46.154
528.43	47.151
528.78	43.863
529.12	46.184
529.46	44.594
529.80	46.214
530.15	44.530
530.49	46.429
530.83	46.242
531.17	46.644
531.51	45.448
531.86	44.851
532.20	46.037
532.54	45.655
532.88	45.677
533.22	45.926
533.57	45.563
533.91	44.516
534.25	45.378
534.59	45.624
534.93	45.344
535.27	45.732
535.62	45.724
535.96	45.869
536.30	45.346
536.64	44.703
536.98	45.690
537.32	46.263
537.66	46.544
538.01	45.631
538.35	45.925
538.69	45.017
539.03	43.758
539.37	45.003
539.71	44.816
540.05	44.669
540.39	44.942
540.73	45.880
541.07	45.918
541.42	45.589
541.76	45.873
542.10	44.279
542.44	45.253
542.78	46.426
543.12	45.148
543.46	46.510
543.80	44.807
544.14	46.937
544.48	44.526
544.82	46.537
545.16	46.045
545.50	47.333
545.84	47.265
546.18	46.564
546.52	46.436
546.86	45.159
547.20	46.319
547.54	46.319
547.88	46.356
548.22	44.756
548.56	46.164
548.90	45.129
549.24	45.903
549.58	46.121
549.92	46.662
550.26	46.421
550.60	45.946
550.94	47.910
551.28	46.101
551.62	46.617
551.96	46.266
552.30	44.760
552.64	45.268
552.98	46.094
553.32	46.647
553.66	47.542
554.00	45.140
554.34	45.641
554.68	47.353
555.02	46.856
555.36	47.050
555.69	45.448
556.03	45.818
556.37	45.377
556.71	47.232
557.05	46.790
557.39	47.325
557.73	47.731
558.07	47.249
558.41	47.691
558.75	48.037
559.08	47.073
559.42	49.253
559.76	46.101
560.10	47.579
560.44	48.416
560.78	46.978
561.12	46.111
561.45	45.646
561.79	46.905
562.13	48.031
562.47	48.000
562.81	47.403
563.15	46.671
563.48	45.148
563.82	47.196
564.16	46.919
564.50	46.879
564.84	46.757
565.17	46.954
565.51	48.463
565.85	47.235
566.19	46.755
566.52	47.117
566.86	45.196
567.20	46.487
567.54	45.769
567.88	45.633
568.21	45.410
568.55	45.018
568.89	45.563
569.23	45.646
569.56	44.723
569.90	44.594
570.24	44.332
570.57	44.149
570.91	43.442
571.25	43.503
571.59	43.385
571.92	43.649
572.26	43.867
572.60	43.579
572.93	44.705
573.27	43.243
573.61	43.824
573.95	43.416
574.28	43.852
574.62	42.631
574.96	42.889
575.29	43.581
575.63	43.994
575.97	44.212
576.30	43.282
576.64	44.014
576.98	43.668
577.31	43.784
577.65	42.721
577.98	43.803
578.32	43.339
578.66	43.371
578.99	43.638
579.33	43.428
579.67	43.432
580.00	43.578
580.34	43.214
580.67	43.582
581.01	43.703
581.35	43.081
581.68	43.309
582.02	43.676
582.35	43.881
582.69	44.058
583.02	43.598
583.36	43.369
583.70	43.546
584.03	43.839
584.37	44.372
584.70	44.234
585.04	44.096
585.37	44.107
585.71	44.260
586.04	44.311
586.38	43.962
586.72	44.057
587.05	44.867
587.39	44.719
587.72	44.149
588.06	44.706
588.39	43.857
588.73	45.187
589.06	45.490
589.40	45.648
589.73	44.772
590.07	44.878
590.40	45.665
590.73	46.475
591.07	46.427
591.40	45.739
591.74	46.287
592.07	46.737
592.41	45.860
592.74	45.872
593.08	45.094
593.41	45.633
593.75	45.704
594.08	45.838
594.41	46.252
594.75	46.514
595.08	46.341
595.42	46.385
595.75	45.842
596.09	46.151
596.42	45.792
596.75	46.512
597.09	47.179
597.42	48.318
597.75	46.400
598.09	46.311
598.42	46.488
598.76	46.767
599.09	46.979
599.42	45.808
599.76	46.339
600.09	47.101
600.42	46.365
600.76	45.676
601.09	46.478
601.42	46.296
601.76	45.676
602.09	46.372
602.42	46.636
602.76	46.477
603.09	46.817
603.42	46.901
603.76	46.532
604.09	46.996
604.42	46.463
604.76	47.228
605.09	46.670
605.42	48.043
605.75	46.809
606.09	46.813
606.42	47.506
606.75	46.320
607.09	47.163
607.42	47.855
607.75	46.565
608.08	47.610
608.42	48.172
608.75	47.922
609.08	48.065
609.41	47.591
609.75	48.764
610.08	48.866
610.41	47.765
610.74	48.364
611.07	48.547
611.41	48.669
611.74	48.292
612.07	47.785
612.40	49.892
612.73	49.177
613.07	48.670
613.40	48.623
613.73	48.375
614.06	48.314
614.39	48.138
614.72	49.584
615.06	48.556
615.39	49.448
615.72	48.164
616.05	49.099
616.38	49.599
616.71	48.590
617.05	49.386
617.38	48.367
617.71	49.387
618.04	49.665
618.37	50.726
618.70	49.741
619.03	48.935
619.36	51.388
619.69	50.073
620.03	51.095
620.36	51.079
620.69	50.178
621.02	51.231
621.35	50.041
621.68	51.100
622.01	51.780
622.34	50.753
622.67	51.057
623.00	51.520
623.33	50.711
623.66	50.335
623.99	51.688
624.32	49.596
624.65	50.371
624.99	50.992
625.32	50.560
625.65	51.163
625.98	51.027
626.31	52.653
626.64	51.677
626.97	51.384
627.30	52.181
627.63	53.114
627.96	51.775
628.29	53.581
628.62	53.675
628.95	54.309
629.28	53.695
629.61	53.589
629.94	52.901
630.26	54.384
630.59	52.647
630.92	53.514
631.25	52.317
631.58	54.069
631.91	51.856
632.24	53.787
632.57	53.222
632.90	56.359
633.23	55.516
633.56	54.796
633.89	56.220
634.22	55.124
634.55	57.004
634.88	53.186
635.20	55.875
635.53	56.460
635.86	56.282
636.19	55.211
636.52	54.512
636.85	55.247
637.18	51.766
637.51	55.056
637.83	54.700
638.16	54.400
638.49	54.873
638.82	53.856
639.15	54.787
639.48	55.348
639.81	56.250
640.13	54.789
640.46	55.650
640.79	56.403
641.12	55.917
641.45	56.186
641.77	57.437
642.10	55.522
642.43	55.346
642.76	56.625
643.09	55.591
643.41	55.981
643.74	55.089
644.07	56.796
644.40	56.053
644.73	57.797
645.05	58.290
645.38	56.977
645.71	57.313
646.04	53.872
646.36	58.333
646.69	57.168
647.02	58.652
647.35	60.512
647.67	56.932
648.00	58.333
648.33	54.915
648.66	58.765
648.98	56.522
649.31	57.669
649.64	54.773
649.96	57.030
650.29	53.595
650.62	55.684
650.94	55.690
651.27	56.714
651.60	54.371
651.92	57.168
652.25	57.789
652.58	55.941
652.90	55.724
653.23	53.990
653.56	52.397
653.88	54.096
654.21	56.997
654.54	55.814
654.86	54.309
655.19	54.622
655.52	54.030
655.84	48.998
656.17	56.949
656.49	73.964
656.82	72.119
657.15	53.824
657.47	39.907
657.80	30.104
658.13	31.385
658.45	46.394
658.78	45.896
659.10	45.916
659.43	45.978
659.75	47.628
660.08	47.517
660.41	49.696
660.73	52.617
661.06	52.551
661.38	52.907
661.71	57.377
662.03	56.871
662.36	58.186
662.68	59.140
663.01	61.653
663.33	58.099
663.66	55.876
663.98	60.000
664.31	58.242
664.63	52.928
664.96	59.081
665.28	58.798
665.61	58.963
665.93	57.173
666.26	59.916
666.58	54.604
666.91	60.538
667.23	55.530
667.56	57.011
667.88	59.346
668.21	58.036
668.53	55.402
668.86	60.432
669.18	61.702
669.50	60.829
669.83	60.621
670.15	56.905
670.48	59.540
670.80	58.425
671.13	59.954
671.45	58.676
671.77	55.819
672.10	55.166
672.42	56.107
672.75	55.536
673.07	57.091
673.39	54.664
673.72	58.483
674.04	56.557
674.37	54.065
674.69	53.498
675.01	57.906
675.34	56.893
675.66	56.427
675.98	55.752
676.31	57.014
676.63	59.410
676.95	56.706
677.28	56.651
677.60	57.598
677.92	57.650
678.25	55.098
678.57	56.212
678.89	57.783
679.22	57.971
679.54	55.102
679.86	57.422
680.18	54.038
680.51	53.846
680.83	51.852
681.15	56.385
681.48	54.509
681.80	54.806
682.12	55.208
682.44	52.113
682.77	51.579
683.09	57.589
683.41	53.953
683.73	56.250
684.06	57.522
684.38	56.197
684.70	53.768
685.02	57.231
685.34	54.990
685.67	55.910
685.99	54.270
686.31	54.655
686.63	54.596
686.96	54.545
687.28	58.283
687.60	54.631
687.92	54.280
688.24	53.400
688.56	56.579
688.89	53.229
689.21	56.951
689.53	53.829
689.85	54.382
690.17	55.604
690.49	56.522
690.82	54.893
691.14	58.454
691.46	56.845
691.78	54.066
692.10	56.051
692.42	53.626
692.74	53.261
693.06	53.034
693.39	54.801
693.71	57.556
694.03	56.818
694.35	54.955
694.67	58.500
694.99	57.474
695.31	56.589
695.63	57.317
695.95	54.453
696.27	54.795
696.59	53.495
696.91	55.866
697.23	53.299
697.56	57.314
697.88	55.925
698.20	54.428
698.52	52.570
698.84	55.502
699.16	54.137
699.48	54.815
699.80	57.106
700.12	54.424
700.44	52.113
700.76	56.180
701.08	57.402
701.40	52.994
701.72	54.769
702.04	56.918
702.36	53.963
702.68	55.793
703.00	53.216
703.32	52.089
703.64	58.133
703.96	52.493
704.28	53.614
704.60	53.049
704.91	52.665
705.23	55.696
705.55	56.552
705.87	55.634
706.19	59.341
706.51	54.225
706.83	55.732
707.15	54.878
707.47	60.055
707.79	52.538
708.11	50.900
708.43	54.569
708.74	52.660
709.06	51.070
709.38	55.043
709.70	53.153
710.02	51.713
710.34	55.667
710.66	55.375
710.98	51.084
711.29	54.221
711.61	55.161
711.93	51.935
712.25	53.846
712.57	52.982
712.89	57.509
713.20	55.674
713.52	59.124
713.84	55.161
714.16	55.016
714.48	53.165
714.80	52.716
715.11	56.686
715.43	50.621
715.75	53.416
716.07	51.807
716.39	58.923
716.70	54.676
717.02	55.686
717.34	51.894
717.66	61.207
717.97	50.794
718.29	51.969
718.61	59.227
718.93	56.977
719.24	54.244
719.56	52.809
719.88	51.493
720.20	53.360
720.51	50.781
720.83	54.086
721.15	47.561
721.46	51.145
721.78	50.598
722.10	52.590
722.42	53.629
722.73	49.421
723.05	55.510
723.37	59.244
723.68	48.000
724.00	55.319
724.32	54.393
724.63	50.206
724.95	52.137
725.27	54.008
725.58	55.967
725.90	53.138
726.22	52.174
726.53	49.804
726.85	51.095
727.16	47.407
727.48	49.042
727.80	53.906
728.11	55.738
728.43	47.266
728.74	56.349
729.06	53.600
729.38	51.779
729.69	51.601
730.01	44.981
730.32	56.089
730.64	51.894
730.96	54.196
731.27	47.157
731.59	52.063
731.90	51.780
732.22	48.077
732.53	48.311
732.85	50.000
733.16	48.845
733.48	50.000
733.80	49.324
734.11	46.622
734.43	47.988
734.74	53.754
735.06	46.974
735.37	48.632
735.69	48.544
736.00	48.185
736.32	51.064
736.63	47.931
736.95	47.945
737.26	49.655
737.58	52.083
737.89	48.797
738.21	53.025
738.52	51.331
738.83	48.163
739.15	56.540
739.46	50.973
739.78	48.592
740.09	45.548
740.41	45.357
740.72	43.972
741.04	48.800
741.35	45.614
741.66	47.111
741.98	51.923
742.29	50.495
742.61	52.683
742.92	51.754
743.23	51.887
743.55	50.450
743.86	47.982
744.18	53.922
744.49	48.223
744.80	55.612
745.12	51.402
745.43	52.607
745.74	50.000
746.06	52.804
746.37	43.119
746.68	48.077
747.00	47.847
747.31	51.923
747.62	55.046
747.94	53.275
748.25	55.046
748.56	52.444
748.88	54.930
749.19	54.286
749.50	48.058
749.82	51.174
750.13	46.667
750.44	50.385
750.75	49.815
751.07	47.331
751.38	49.291
751.69	45.560
752.01	45.703
752.32	49.231
752.63	49.254
752.94	47.200
753.26	49.372
753.57	49.583
753.88	50.202
754.19	46.614
754.51	50.752
754.82	46.520
755.13	50.000
755.44	52.033
755.75	47.600
756.07	47.970
756.38	48.921
756.69	46.075
757.00	43.925
757.31	47.249
757.63	48.765
757.94	49.718
758.25	46.032
758.56	50.543
758.87	50.893
759.18	46.057
759.50	45.455
759.81	45.485
760.12	48.923
760.43	47.619
760.74	47.175
761.05	45.856
761.36	46.991
761.67	49.245
761.99	47.766
762.30	47.445
762.61	46.914
762.92	45.299
763.23	57.377
763.54	50.216
763.85	46.939
764.16	47.154
764.47	50.400
764.78	48.214
765.10	47.541
765.41	46.505
765.72	46.584
766.03	46.205
766.34	49.231
766.65	44.770
766.96	46.009
767.27	49.505
767.58	40.449
767.89	59.259
768.20	45.304
768.51	47.236
768.82	52.885
769.13	52.212
769.44	47.280
769.75	40.598
770.06	38.117
770.37	44.608
770.68	48.544
770.99	44.175
771.30	47.479
771.61	41.633
771.92	48.963
772.23	39.640
772.54	46.409
772.85	40.116
773.16	52.381
773.47	46.154
773.78	52.299
774.09	52.500
774.39	45.342
774.70	42.857
775.01	43.448
775.32	50.714
775.63	49.624
775.94	39.850
776.25	37.600
776.56	52.893
776.87	49.206
777.18	48.649
777.48	53.153
777.79	44.882
778.10	40.367
778.41	36.842
778.72	33.613
779.03	38.732
779.34	41.892
779.65	48.592
779.95	35.762
780.26	38.129
780.57	42.446
780.88	35.211
781.19	37.815
781.50	43.624
781.80	39.766
782.11	42.442
782.42	43.396
782.73	43.791
783.04	43.448
783.34	43.511
783.65	35.570
783.96	48.462
784.27	39.286
784.57	45.390
784.88	33.654
785.19	50.000
785.50	50.000
785.81	30.476
786.11	38.655
786.42	36.283
786.73	45.283
787.04	37.615
787.34	40.594
787.65	54.167
787.96	41.322
788.26	37.681
788.57	30.159
788.88	47.154
789.19	43.200
789.49	32.061
789.80	43.182
790.11	44.340
790.41	52.475
790.72	56.383
791.03	45.652
791.33	30.588
791.64	46.914
791.95	54.348
792.25	40.909
792.56	43.590
792.87	32.051
793.17	28.205
793.48	42.857
793.79	33.750
794.09	43.269
794.40	35.417
794.70	37.838
795.01	40.625
795.32	41.739
795.62	26.087
795.93	27.358
796.23	36.364
796.54	41.463
796.85	28.571
797.15	31.818
797.46	23.188
797.76	32.895
798.07	35.227
798.37	30.488
798.68	56.452
798.99	33.784
799.29	48.193
799.60	44.872
799.90	38.462
800.21	33.333
800.51	40.000
800.82	41.333
801.12	18.750
801.43	28.333
801.73	18.919
802.04	25.714
802.34	34.426
802.65	34.328
802.95	20.000
803.26	41.379
803.56	40.000
803.87	45.283
804.17	22.581
804.48	13.235
804.78	39.024
805.09	31.884
805.39	19.118
805.70	8.511
806.00	40.351
806.30	46.154
806.61	31.579
806.91	37.838
807.22	26.316
807.52	26.136
807.83	30.508
808.13	25.758
808.43	30.000
808.74	3.448
809.04	39.683
809.35	30.612
809.65	26.667
809.95	30.612
810.26	60.563
810.56	12.500
810.86	30.612
811.17	38.462
811.47	10.638
811.77	6.250
812.08	28.302
812.38	37.500
812.69	23.636
812.99	24.390
813.29	2.703
813.59	10.811
813.90	32.727
814.20	30.909
814.50	16.667
814.81	14.545
815.11	22.807
815.41	53.488
815.72	50.000
816.02	45.714
816.32	0.000
816.62	14.583
816.93	24.444
817.23	15.556
817.53	-11.111
817.84	43.243
818.14	34.146
818.44	28.000
818.74	20.408
819.04	21.951
819.35	33.333
819.65	18.182
819.95	-16.667
820.25	3.030
820.56	-7.143
820.86	16.667
821.16	4.545
821.46	13.043
821.76	25.862
822.07	21.739
822.37	45.455
822.67	48.780
822.97	40.541
823.27	-28.571
823.57	31.034
823.88	2.941
824.18	8.333
824.48	-2.857
824.78	-66.667
825.08	0.000
825.38	-11.111
825.69	35.484
825.99	12.195
826.29	22.222
826.59	-3.125
826.89	16.129
827.19	0.000
827.49	-30.556
827.79	17.391
828.09	25.806
828.39	10.417
828.70	21.875
829.00	24.138
829.30	13.514
829.60	20.833
829.90	29.630
830.20	-6.250
830.50	-9.091
830.80	-58.824
831.10	18.182
831.40	-2.941
831.70	3.846
832.00	3.030
832.30	23.529
832.60	2.703
832.90	1100.000
833.20	10.714
833.50	-70.000
833.80	13.158
834.10	-62.500
834.40	-40.909
834.70	-66.667
835.00	-80.000
835.30	-4.167
835.60	-14.286
835.90	23.810
836.20	-4.000
836.50	-8.333
836.80	31.579
837.10	8.108
837.40	20.000
837.70	0.000
838.00	20.833
838.30	10.526
838.60	-40.000
838.90	-170.000
839.19	-33.333
839.49	-46.154
839.79	-36.842
840.09	-133.333
840.39	-140.000
840.69	-13.636
840.99	-33.333
841.29	-12.500
841.59	-53.846
841.88	-60.000
842.18	-14.286
842.48	20.000
842.78	-185.714
843.08	-42.857
843.38	-275.000
843.68	0.000
843.97	35.714
844.27	-155.556
844.57	-136.364
844.87	-53.333
845.17	22.727
845.47	233.333
845.76	-20.000
846.06	-133.333
846.36	-400.000
846.66	-36.842
846.96	-50.000
847.25	-77.778
847.55	-222.222
847.85	-14.286
848.15	23.077
848.44	-116.667
848.74	-133.333
849.04	-76.923
849.34	-375.000
849.63	-136.364
849.93	-100.000
850.23	20.000
850.53	-150.000
850.82	-38.889
851.12	-80.000
851.42	-47.059
851.71	-50.000
852.01	29.412
852.31	-92.308
852.61	300.000
852.90	41.176
853.20	6.667
853.50	-50.000
853.79	-71.429
854.09	-125.000
854.39	-70.000
854.68	7.500
854.98	-38.095
855.28	8.000
855.57	-4.167
855.87	-29.167
856.17	-24.000
856.46	-6.250
856.76	45.000
857.05	-4.000
857.35	-100.000
857.65	0.000
857.94	-75.000
858.24	-33.333
858.53	20.000
858.83	-127.273
859.13	-24.000
859.42	-85.714
859.72	-162.500
860.01	4.167
860.31	-400.000
860.60	-12.500
860.90	-83.333
861.20	-16.667
861.49	-40.000
861.79	-31.250
862.08	350.000
862.38	-133.333
862.67	371.429
862.97	300.000
863.26	-63.636
863.56	-100.000
863.85	15.789
864.15	-41.176
864.44	-120.000
864.74	-80.000
865.03	-100.000
865.33	-57.143
865.62	128.571
865.92	-57.895
866.21	-61.111
866.51	-45.455
866.80	-55.556
867.10	-212.500
867.39	0.000
867.69	-80.000
867.98	-20.000
868.27	-11.765
868.57	0.000
868.86	1100.000
869.16	-525.000
869.45	-100.000
869.75	500.000
870.04	-30.000
870.33	-1400.000
870.63	10.526
870.92	-58.333
871.22	0.000
871.51	-228.571
871.80	-155.556
872.10	-250.000
>>>>>End Processed Spectral Data<<<<<
