SpectraSuite Data File
++++++++++++++++++++++++++++++++++++
Date: Wed May 13 21:30:48 PDT 2015
User: schluterlab
Dark Spectrum Present: Yes
Reference Spectrum Present: Yes
Number of Sampled Component Spectra: 1
Spectrometers: USB2E3373
Integration Time (usec): 3000 (USB2E3373)
Spectra Averaged: 3 (USB2E3373)
Boxcar Smoothing: 0 (USB2E3373)
Correct for Electrical Dark: No (USB2E3373)
Strobe/Lamp Enabled: No (USB2E3373)
Correct for Detector Non-linearity: No (USB2E3373)
Correct for Stray Light: No (USB2E3373)
Number of Pixels in Processed Spectrum: 2048
>>>>>Begin Processed Spectral Data<<<<<
178.53	0.000
178.91	800.000
179.29	175.000
179.67	-1050.000
180.04	-700.000
180.42	180.000
180.80	1100.000
181.18	216.667
181.56	-525.000
181.94	-225.000
182.31	-36.364
182.69	107.692
183.07	-320.000
183.45	283.333
183.83	244.444
184.20	157.143
184.58	-166.667
184.96	100.000
185.34	71.429
185.72	0.000
186.09	-1000.000
186.47	-300.000
186.85	220.000
187.23	-400.000
187.61	750.000
187.98	1200.000
188.36	-50.000
188.74	0.000
189.12	-109.091
189.49	20.000
189.87	191.667
190.25	380.000
190.63	1100.000
191.00	-200.000
191.38	220.000
191.76	575.000
192.14	125.000
192.51	-15.789
192.89	866.667
193.27	275.000
193.65	-120.000
194.02	181.818
194.40	240.000
194.78	-700.000
195.15	240.000
195.53	-400.000
195.91	-162.500
196.29	0.000
196.66	0.000
197.04	300.000
197.42	-120.000
197.79	-40.000
198.17	-162.500
198.55	-433.333
198.92	425.000
199.30	-433.333
199.68	-70.000
200.05	600.000
200.43	200.000
200.81	-1400.000
201.18	-240.000
201.56	-50.000
201.94	575.000
202.31	-34.783
202.69	-100.000
203.07	-566.667
203.44	-100.000
203.82	-266.667
204.19	-80.000
204.57	0.000
204.95	-283.333
205.32	0.000
205.70	-100.000
206.08	-425.000
206.45	-150.000
206.83	225.000
207.20	-400.000
207.58	50.000
207.96	-2200.000
208.33	-142.857
208.71	-1600.000
209.08	187.500
209.46	350.000
209.84	0.000
210.21	200.000
210.59	2200.000
210.96	460.000
211.34	1400.000
211.71	-750.000
212.09	-166.667
212.46	-130.000
212.84	-66.667
213.22	250.000
213.59	-300.000
213.97	-400.000
214.34	-850.000
214.72	-76.923
215.09	300.000
215.47	244.444
215.84	500.000
216.22	-175.000
216.59	-600.000
216.97	766.667
217.34	200.000
217.72	0.000
218.09	133.333
218.47	-700.000
218.84	-100.000
219.22	-62.500
219.59	-566.667
219.97	-50.000
220.34	-125.000
220.72	-180.000
221.09	0.000
221.47	-100.000
221.84	-100.000
222.22	0.000
222.59	1200.000
222.97	-500.000
223.34	-116.667
223.72	-1600.000
224.09	-750.000
224.46	-81.818
224.84	-25.000
225.21	-157.143
225.59	-500.000
225.96	-266.667
226.34	-140.000
226.71	-171.429
227.08	850.000
227.46	-162.500
227.83	-500.000
228.21	-56.250
228.58	-250.000
228.95	-52.941
229.33	-25.000
229.70	-112.500
230.08	-53.846
230.45	-175.000
230.82	-116.667
231.20	271.429
231.57	-200.000
231.95	1700.000
232.32	-33.333
232.69	-70.588
233.07	-1900.000
233.44	-78.261
233.81	-950.000
234.19	12.500
234.56	-93.333
234.93	-13.333
235.31	-52.632
235.68	-161.538
236.05	-92.308
236.43	-38.889
236.80	-21.212
237.17	-113.333
237.55	-82.353
237.92	-58.621
238.29	-40.741
238.67	-22.222
239.04	-29.032
239.41	-6.383
239.79	0.000
240.16	-20.930
240.53	-14.286
240.91	-12.500
241.28	-21.429
241.65	-6.452
242.02	-13.158
242.40	-30.435
242.77	-4.348
243.14	-20.513
243.51	-9.574
243.89	-9.615
244.26	-3.774
244.63	-8.654
245.00	-1.042
245.38	-13.445
245.75	-4.918
246.12	-8.271
246.49	-12.195
246.87	-26.891
247.24	1.351
247.61	-1.325
247.98	-4.487
248.36	-1.775
248.73	-11.798
249.10	-5.051
249.47	-6.989
249.84	-1.579
250.22	-6.468
250.59	-0.467
250.96	0.000
251.33	-11.483
251.70	1.255
252.08	-3.347
252.45	-0.823
252.82	-1.141
253.19	-8.560
253.56	-1.799
253.94	4.626
254.31	-1.408
254.68	-1.007
255.05	1.320
255.42	-3.846
255.79	-1.534
256.16	-0.631
256.54	-3.175
256.91	-3.165
257.28	-3.459
257.65	-3.822
258.02	-4.692
258.39	-0.877
258.76	-4.070
259.14	-4.545
259.51	-2.247
259.88	-1.626
260.25	-0.833
260.62	-2.247
260.99	-0.265
261.36	1.813
261.73	-1.728
262.10	-1.018
262.47	-3.951
262.85	0.249
263.22	-3.333
263.59	-3.377
263.96	-0.973
264.33	-0.721
264.70	-1.163
265.07	-1.620
265.44	-1.379
265.81	0.458
266.18	-4.100
266.55	-3.712
266.92	-1.483
267.29	-3.292
267.66	-1.911
268.03	0.823
268.40	-3.814
268.77	-0.826
269.14	0.000
269.51	1.027
269.88	-2.648
270.25	-2.542
270.62	-1.844
270.99	0.394
271.36	-0.198
271.73	-0.201
272.10	-0.762
272.47	1.344
272.84	0.591
273.21	-0.783
273.58	-3.484
273.95	-3.396
274.32	-1.306
274.69	0.182
275.06	1.237
275.43	-0.753
275.80	-1.773
276.17	-0.921
276.54	-0.355
276.91	-2.265
277.28	-3.430
277.65	1.224
278.02	-0.357
278.39	-3.197
278.76	-1.003
279.13	-1.029
279.50	-2.241
279.87	-2.355
280.23	-2.162
280.60	-0.519
280.97	-1.136
281.34	1.735
281.71	-1.951
282.08	-3.248
282.45	0.164
282.82	-2.716
283.19	0.915
283.56	0.000
283.92	-0.153
284.29	-0.624
284.66	-1.977
285.03	-1.792
285.40	0.604
285.77	-0.150
286.14	0.152
286.51	1.049
286.87	-0.308
287.24	-0.737
287.61	-0.151
287.98	0.882
288.35	-1.937
288.72	0.574
289.08	1.282
289.45	-0.147
289.82	-0.908
290.19	-1.403
290.56	-0.710
290.93	-0.967
291.29	-1.642
291.66	-1.230
292.03	0.272
292.40	0.000
292.77	-0.134
293.13	0.000
293.50	0.000
293.87	0.533
294.24	-1.190
294.60	0.130
294.97	0.661
295.34	-2.111
295.71	-1.577
296.08	-1.832
296.44	-0.893
296.81	-0.122
297.18	-1.000
297.55	0.825
297.91	-1.863
298.28	0.726
298.65	0.862
299.02	0.366
299.38	-2.086
299.75	-0.120
300.12	-2.093
300.48	-1.287
300.85	-0.115
301.22	0.929
301.59	-1.408
301.95	-1.858
302.32	0.233
302.69	-2.034
303.05	0.000
303.42	-0.227
303.79	-0.210
304.15	-1.314
304.52	0.968
304.89	-0.997
305.25	-1.427
305.62	-0.217
305.99	0.544
306.35	1.045
306.72	0.203
307.09	0.626
307.45	-0.426
307.82	-0.105
308.19	-1.463
308.55	-0.102
308.92	0.982
309.29	1.201
309.65	0.500
310.02	0.795
310.38	0.305
310.75	-0.099
311.12	1.944
311.48	-0.297
311.85	0.492
312.22	1.838
312.58	0.870
312.95	0.796
313.31	1.745
313.68	0.668
314.05	1.607
314.41	2.017
314.78	2.751
315.14	2.500
315.51	1.903
315.87	2.039
316.24	3.398
316.61	2.922
316.97	1.852
317.34	2.139
317.70	3.568
318.07	4.170
318.43	3.523
318.80	3.665
319.16	3.360
319.53	4.211
319.89	4.878
320.26	4.621
320.62	5.375
320.99	4.748
321.35	5.051
321.72	5.871
322.08	7.657
322.45	8.048
322.81	7.579
323.18	7.424
323.54	9.477
323.91	7.769
324.27	8.731
324.64	8.798
325.00	10.061
325.37	10.751
325.73	10.101
326.10	10.261
326.46	11.371
326.83	13.026
327.19	12.683
327.56	13.537
327.92	13.113
328.29	15.109
328.65	15.337
329.01	14.512
329.38	17.043
329.74	17.167
330.11	15.059
330.47	15.451
330.84	16.968
331.20	16.140
331.56	16.304
331.93	18.002
332.29	17.724
332.66	18.136
333.02	18.245
333.38	18.246
333.75	17.577
334.11	19.358
334.48	18.396
334.84	18.110
335.20	19.297
335.57	19.408
335.93	18.471
336.29	19.790
336.66	19.487
337.02	20.261
337.38	20.017
337.75	19.208
338.11	17.933
338.47	18.408
338.84	18.814
339.20	19.841
339.56	19.198
339.93	18.842
340.29	19.556
340.65	19.932
341.02	20.632
341.38	19.679
341.74	18.403
342.11	18.580
342.47	18.494
342.83	19.608
343.20	19.459
343.56	19.542
343.92	19.090
344.28	19.724
344.65	18.286
345.01	18.160
345.37	19.408
345.73	18.954
346.10	18.700
346.46	18.374
346.82	18.941
347.19	18.908
347.55	20.679
347.91	19.641
348.27	19.322
348.63	19.151
349.00	18.947
349.36	19.231
349.72	19.258
350.08	18.955
350.45	19.421
350.81	18.779
351.17	19.861
351.53	18.617
351.89	18.110
352.26	18.224
352.62	18.605
352.98	18.131
353.34	18.760
353.70	19.626
354.07	19.216
354.43	18.040
354.79	18.830
355.15	18.401
355.51	18.907
355.87	18.217
356.24	18.700
356.60	17.592
356.96	17.882
357.32	18.034
357.68	19.328
358.04	17.533
358.40	18.062
358.77	20.031
359.13	18.288
359.49	18.471
359.85	18.954
360.21	18.813
360.57	18.859
360.93	17.906
361.29	18.875
361.66	18.907
362.02	17.939
362.38	19.129
362.74	17.839
363.10	19.234
363.46	18.588
363.82	18.182
364.18	17.766
364.54	18.308
364.90	18.606
365.26	18.401
365.62	17.756
365.98	19.431
366.35	18.865
366.71	18.117
367.07	18.214
367.43	19.024
367.79	18.207
368.15	18.776
368.51	18.706
368.87	18.423
369.23	18.790
369.59	19.098
369.95	17.417
370.31	17.992
370.67	18.827
371.03	19.154
371.39	18.240
371.75	18.000
372.11	18.519
372.47	18.818
372.83	19.764
373.19	17.770
373.55	17.919
373.91	18.600
374.27	17.981
374.63	18.492
374.99	17.688
375.35	19.247
375.71	17.595
376.07	19.328
376.42	18.115
376.78	18.626
377.14	18.780
377.50	18.579
377.86	18.393
378.22	18.584
378.58	17.907
378.94	19.250
379.30	18.738
379.66	18.927
380.02	18.627
380.38	18.253
380.74	19.127
381.09	18.577
381.45	19.166
381.81	18.115
382.17	18.021
382.53	18.892
382.89	19.059
383.25	18.580
383.61	18.281
383.97	18.250
384.32	18.147
384.68	18.137
385.04	17.838
385.40	18.493
385.76	18.187
386.12	18.528
386.48	18.746
386.83	18.335
387.19	18.877
387.55	18.945
387.91	18.819
388.27	18.989
388.62	18.290
388.98	18.461
389.34	17.669
389.70	18.803
390.06	19.938
390.42	19.265
390.77	18.065
391.13	19.066
391.49	18.216
391.85	18.914
392.20	17.920
392.56	19.048
392.92	18.315
393.28	19.349
393.64	18.777
393.99	18.727
394.35	18.889
394.71	18.910
395.07	17.987
395.42	19.074
395.78	18.597
396.14	18.706
396.50	19.150
396.85	19.057
397.21	18.851
397.57	18.509
397.92	18.683
398.28	18.669
398.64	18.276
399.00	18.583
399.35	18.672
399.71	18.812
400.07	18.916
400.42	18.182
400.78	18.066
401.14	17.903
401.49	18.454
401.85	18.612
402.21	18.390
402.57	18.700
402.92	18.836
403.28	18.199
403.63	18.723
403.99	17.658
404.35	17.955
404.70	17.281
405.06	18.262
405.42	18.593
405.77	18.145
406.13	17.257
406.49	18.095
406.84	18.376
407.20	18.117
407.55	18.506
407.91	17.803
408.27	17.155
408.62	18.600
408.98	17.694
409.34	18.193
409.69	17.999
410.05	17.910
410.40	17.529
410.76	18.592
411.11	18.470
411.47	19.244
411.83	18.153
412.18	18.199
412.54	18.358
412.89	17.429
413.25	17.699
413.60	18.119
413.96	17.353
414.31	17.756
414.67	18.349
415.03	17.930
415.38	17.768
415.74	17.609
416.09	18.308
416.45	18.592
416.80	18.322
417.16	18.219
417.51	17.749
417.87	18.122
418.22	17.906
418.58	18.068
418.93	18.456
419.29	19.406
419.64	17.748
420.00	17.714
420.35	18.350
420.71	17.855
421.06	18.143
421.42	18.552
421.77	19.075
422.12	19.255
422.48	18.048
422.83	18.901
423.19	18.804
423.54	19.552
423.90	17.577
424.25	18.718
424.61	17.683
424.96	18.332
425.31	19.125
425.67	18.695
426.02	19.199
426.38	19.279
426.73	18.754
427.09	18.887
427.44	18.555
427.79	18.527
428.15	18.960
428.50	19.154
428.85	18.635
429.21	19.190
429.56	19.129
429.92	18.532
430.27	18.354
430.62	18.730
430.98	19.408
431.33	19.936
431.68	19.915
432.04	19.775
432.39	18.764
432.74	18.271
433.10	20.395
433.45	19.172
433.80	19.483
434.16	19.498
434.51	19.728
434.86	19.435
435.22	19.411
435.57	19.349
435.92	19.180
436.28	18.979
436.63	19.111
436.98	20.153
437.34	19.170
437.69	19.481
438.04	18.902
438.39	20.299
438.75	19.607
439.10	19.838
439.45	20.339
439.81	20.320
440.16	20.580
440.51	19.798
440.86	20.747
441.22	20.023
441.57	20.174
441.92	20.321
442.27	20.022
442.63	20.829
442.98	19.676
443.33	20.542
443.68	20.875
444.03	20.616
444.39	20.228
444.74	20.541
445.09	20.595
445.44	22.254
445.79	20.754
446.15	21.852
446.50	21.256
446.85	20.417
447.20	21.328
447.55	21.265
447.91	21.236
448.26	20.755
448.61	20.713
448.96	20.900
449.31	21.645
449.66	22.556
450.02	21.035
450.37	21.093
450.72	21.068
451.07	20.063
451.42	21.085
451.77	21.059
452.12	20.974
452.47	21.691
452.83	21.462
453.18	21.324
453.53	21.059
453.88	22.470
454.23	21.199
454.58	21.814
454.93	21.745
455.28	21.708
455.63	21.585
455.98	21.729
456.34	21.996
456.69	22.364
457.04	21.858
457.39	21.888
457.74	21.843
458.09	22.393
458.44	21.328
458.79	22.186
459.14	21.629
459.49	22.317
459.84	21.421
460.19	20.948
460.54	22.567
460.89	22.241
461.24	21.578
461.59	21.618
461.94	21.555
462.29	21.201
462.64	21.174
462.99	22.401
463.34	22.859
463.69	21.972
464.04	22.029
464.39	22.453
464.74	22.543
465.09	22.133
465.44	22.166
465.79	23.059
466.14	21.950
466.49	23.109
466.84	22.953
467.19	21.975
467.54	23.396
467.89	22.376
468.24	22.250
468.59	21.925
468.94	21.967
469.29	22.472
469.64	22.106
469.99	23.034
470.34	22.252
470.68	23.123
471.03	22.496
471.38	22.045
471.73	22.016
472.08	21.787
472.43	21.966
472.78	22.042
473.13	21.570
473.48	22.244
473.83	22.662
474.17	22.005
474.52	23.689
474.87	21.954
475.22	22.464
475.57	22.309
475.92	22.137
476.27	22.669
476.61	21.631
476.96	23.015
477.31	22.168
477.66	23.729
478.01	21.923
478.36	22.125
478.70	22.718
479.05	22.808
479.40	22.881
479.75	22.051
480.10	21.877
480.45	22.021
480.79	22.748
481.14	22.999
481.49	22.644
481.84	22.243
482.19	22.788
482.53	22.571
482.88	22.435
483.23	21.896
483.58	22.353
483.92	22.568
484.27	22.324
484.62	22.281
484.97	22.480
485.31	22.083
485.66	21.739
486.01	22.575
486.36	22.326
486.70	22.782
487.05	22.715
487.40	22.412
487.75	22.308
488.09	22.928
488.44	22.818
488.79	22.483
489.13	22.505
489.48	22.317
489.83	22.644
490.17	22.015
490.52	22.908
490.87	21.511
491.22	22.374
491.56	22.856
491.91	22.564
492.26	22.437
492.60	22.078
492.95	22.595
493.30	21.609
493.64	21.871
493.99	22.995
494.34	22.206
494.68	22.816
495.03	22.628
495.37	22.044
495.72	22.556
496.07	22.991
496.41	22.461
496.76	23.218
497.11	22.300
497.45	22.665
497.80	22.766
498.14	22.821
498.49	22.239
498.84	22.470
499.18	22.101
499.53	22.255
499.87	21.834
500.22	22.797
500.56	22.568
500.91	22.586
501.26	22.562
501.60	22.010
501.95	22.233
502.29	22.427
502.64	23.337
502.98	22.062
503.33	22.433
503.67	22.103
504.02	22.598
504.36	22.387
504.71	22.002
505.06	22.567
505.40	22.423
505.75	23.398
506.09	22.024
506.44	22.631
506.78	21.788
507.13	22.037
507.47	21.580
507.82	21.455
508.16	22.533
508.51	21.229
508.85	21.773
509.19	22.487
509.54	22.681
509.88	22.473
510.23	22.526
510.57	22.087
510.92	22.845
511.26	22.772
511.61	21.625
511.95	22.381
512.30	21.155
512.64	22.872
512.98	21.274
513.33	20.958
513.67	22.090
514.02	22.406
514.36	22.191
514.70	21.709
515.05	22.060
515.39	22.583
515.74	21.374
516.08	22.065
516.42	22.120
516.77	21.265
517.11	22.399
517.46	22.569
517.80	22.579
518.14	21.800
518.49	22.483
518.83	21.957
519.17	21.687
519.52	21.954
519.86	21.919
520.20	21.286
520.55	22.015
520.89	21.885
521.23	22.436
521.58	22.566
521.92	20.930
522.26	20.755
522.61	21.590
522.95	22.215
523.29	21.397
523.64	21.615
523.98	21.665
524.32	21.424
524.66	21.558
525.01	22.346
525.35	21.725
525.69	22.797
526.04	22.215
526.38	22.243
526.72	21.565
527.06	21.470
527.41	21.575
527.75	20.961
528.09	22.396
528.43	22.524
528.78	21.253
529.12	21.410
529.46	21.369
529.80	21.553
530.15	21.042
530.49	22.102
530.83	21.192
531.17	21.370
531.51	20.904
531.86	20.257
532.20	21.158
532.54	20.690
532.88	20.422
533.22	21.145
533.57	21.656
533.91	21.742
534.25	22.266
534.59	21.815
534.93	20.918
535.27	20.764
535.62	20.855
535.96	21.601
536.30	20.678
536.64	22.283
536.98	21.093
537.32	20.712
537.66	20.945
538.01	20.458
538.35	21.340
538.69	21.204
539.03	20.067
539.37	19.920
539.71	21.419
540.05	20.783
540.39	20.509
540.73	21.020
541.07	20.476
541.42	21.549
541.76	20.636
542.10	20.379
542.44	22.176
542.78	20.541
543.12	21.563
543.46	20.249
543.80	20.706
544.14	20.509
544.48	20.106
544.82	21.587
545.16	20.892
545.50	21.877
545.84	19.986
546.18	20.266
546.52	21.030
546.86	20.495
547.20	20.157
547.54	20.515
547.88	20.648
548.22	20.651
548.56	19.546
548.90	20.636
549.24	20.694
549.58	19.786
549.92	20.616
550.26	21.181
550.60	20.120
550.94	20.522
551.28	20.666
551.62	21.203
551.96	21.010
552.30	19.068
552.64	20.480
552.98	21.307
553.32	19.611
553.66	20.690
554.00	19.870
554.34	19.927
554.68	19.612
555.02	20.135
555.36	19.743
555.69	19.665
556.03	19.371
556.37	20.057
556.71	20.322
557.05	20.148
557.39	19.518
557.73	20.726
558.07	20.723
558.41	19.001
558.75	19.784
559.08	18.204
559.42	20.692
559.76	20.031
560.10	19.523
560.44	20.192
560.78	20.216
561.12	19.902
561.45	20.136
561.79	19.326
562.13	19.902
562.47	20.500
562.81	19.192
563.15	19.688
563.48	19.821
563.82	19.904
564.16	18.957
564.50	20.014
564.84	19.189
565.17	20.066
565.51	19.051
565.85	18.055
566.19	19.470
566.52	19.790
566.86	18.900
567.20	19.059
567.54	19.286
567.88	18.813
568.21	19.229
568.55	18.936
568.89	18.794
569.23	19.203
569.56	19.733
569.90	19.133
570.24	18.773
570.57	18.901
570.91	19.241
571.25	18.439
571.59	18.461
571.92	19.126
572.26	19.364
572.60	18.386
572.93	19.025
573.27	19.131
573.61	19.292
573.95	19.170
574.28	18.897
574.62	18.835
574.96	19.267
575.29	18.606
575.63	18.572
575.97	19.266
576.30	18.640
576.64	18.260
576.98	18.693
577.31	18.519
577.65	18.423
577.98	19.222
578.32	18.819
578.66	18.711
578.99	19.225
579.33	18.441
579.67	18.254
580.00	18.012
580.34	18.250
580.67	19.010
581.01	18.260
581.35	18.535
581.68	18.550
582.02	18.577
582.35	19.000
582.69	18.686
583.02	18.308
583.36	18.587
583.70	18.578
584.03	18.954
584.37	17.978
584.70	18.429
585.04	18.395
585.37	18.032
585.71	18.500
586.04	18.471
586.38	18.443
586.72	18.404
587.05	19.036
587.39	18.300
587.72	18.404
588.06	18.550
588.39	18.416
588.73	18.712
589.06	17.750
589.40	18.369
589.73	17.822
590.07	18.265
590.40	18.781
590.73	18.760
591.07	18.471
591.40	17.913
591.74	18.764
592.07	18.257
592.41	18.104
592.74	18.441
593.08	17.846
593.41	18.112
593.75	17.991
594.08	18.031
594.41	17.879
594.75	18.141
595.08	18.297
595.42	17.931
595.75	17.968
596.09	17.783
596.42	17.729
596.75	18.078
597.09	18.426
597.42	18.349
597.75	18.622
598.09	18.078
598.42	18.121
598.76	17.800
599.09	18.007
599.42	17.523
599.76	18.213
600.09	17.583
600.42	17.853
600.76	17.960
601.09	17.363
601.42	17.679
601.76	17.143
602.09	18.160
602.42	18.201
602.76	17.240
603.09	17.577
603.42	17.913
603.76	17.225
604.09	17.984
604.42	16.995
604.76	17.940
605.09	17.354
605.42	17.814
605.75	17.559
606.09	17.260
606.42	17.539
606.75	16.623
607.09	16.933
607.42	17.601
607.75	16.455
608.08	17.944
608.42	17.479
608.75	17.487
609.08	17.148
609.41	17.437
609.75	16.793
610.08	17.357
610.41	17.104
610.74	17.276
611.07	17.685
611.41	17.554
611.74	16.977
612.07	17.301
612.40	17.351
612.73	16.411
613.07	17.073
613.40	17.015
613.73	17.443
614.06	16.694
614.39	17.343
614.72	17.601
615.06	16.278
615.39	17.219
615.72	16.361
616.05	17.511
616.38	17.468
616.71	15.837
617.05	17.445
617.38	17.252
617.71	16.176
618.04	16.332
618.37	16.719
618.70	17.076
619.03	16.082
619.36	17.438
619.69	16.374
620.03	16.749
620.36	15.866
620.69	16.060
621.02	16.385
621.35	15.617
621.68	16.218
622.01	17.233
622.34	16.416
622.67	16.288
623.00	16.185
623.33	16.978
623.66	16.654
623.99	17.404
624.32	16.581
624.65	16.766
624.99	16.018
625.32	17.102
625.65	16.512
625.98	16.351
626.31	16.653
626.64	16.509
626.97	16.609
627.30	16.168
627.63	17.215
627.96	15.238
628.29	16.000
628.62	16.731
628.95	15.431
629.28	15.271
629.61	16.842
629.94	15.957
630.26	16.158
630.59	15.884
630.92	15.361
631.25	15.654
631.58	17.559
631.91	15.164
632.24	15.368
632.57	14.778
632.90	16.686
633.23	15.108
633.56	17.626
633.89	15.191
634.22	16.726
634.55	14.860
634.88	15.074
635.20	15.750
635.53	17.442
635.86	14.872
636.19	15.136
636.52	14.146
636.85	15.078
637.18	14.007
637.51	14.357
637.83	15.927
638.16	14.267
638.49	17.490
638.82	15.163
639.15	15.824
639.48	14.439
639.81	14.444
640.13	17.465
640.46	15.678
640.79	15.252
641.12	15.385
641.45	13.974
641.77	14.728
642.10	16.036
642.43	16.352
642.76	13.249
643.09	14.856
643.41	15.152
643.74	14.701
644.07	14.239
644.40	13.930
644.73	15.085
645.05	15.183
645.38	13.621
645.71	14.116
646.04	12.626
646.36	14.583
646.69	15.035
647.02	16.029
647.35	12.980
647.67	12.939
648.00	13.949
648.33	15.932
648.66	13.523
648.98	14.286
649.31	15.951
649.64	14.397
649.96	13.428
650.29	13.889
650.62	15.321
650.94	13.448
651.27	14.134
651.60	14.161
651.92	15.054
652.25	15.410
652.58	15.677
652.90	13.636
653.23	13.752
653.56	13.554
653.88	11.433
654.21	10.751
654.54	13.953
654.86	13.659
655.19	14.286
655.52	16.570
655.84	14.824
656.17	18.028
656.49	23.849
656.82	23.379
657.15	17.431
657.47	12.801
657.80	9.536
658.13	9.905
658.45	14.243
658.78	13.829
659.10	14.209
659.43	13.875
659.75	13.839
660.08	13.793
660.41	12.982
660.73	12.810
661.06	13.946
661.38	13.178
661.71	13.934
662.03	15.222
662.36	11.947
662.68	12.043
663.01	15.466
663.33	13.391
663.66	11.530
663.98	13.708
664.31	12.527
664.63	10.135
664.96	13.567
665.28	16.094
665.61	9.503
665.93	10.064
666.26	10.970
666.58	12.206
666.91	17.489
667.23	10.138
667.56	12.644
667.88	11.449
668.21	11.607
668.53	11.264
668.86	10.312
669.18	13.002
669.50	14.055
669.83	11.217
670.15	12.619
670.48	12.874
670.80	16.411
671.13	10.069
671.45	13.699
671.77	12.500
672.10	10.331
672.42	13.740
672.75	12.500
673.07	11.818
673.39	12.127
673.72	14.371
674.04	13.525
674.37	14.024
674.69	13.992
675.01	11.966
675.34	12.910
675.66	12.418
675.98	12.168
676.31	11.991
676.63	15.873
676.95	8.706
677.28	9.174
677.60	11.029
677.92	14.191
678.25	13.015
678.57	13.646
678.89	11.940
679.22	10.559
679.54	11.429
679.86	11.523
680.18	14.038
680.51	12.115
680.83	9.747
681.15	9.823
681.48	12.024
681.80	11.861
682.12	10.208
682.44	12.475
682.77	9.053
683.09	13.393
683.41	11.395
683.73	10.045
684.06	12.832
684.38	13.034
684.70	9.776
685.02	15.496
685.34	11.546
685.67	12.946
685.99	11.744
686.31	13.448
686.63	11.397
686.96	13.173
687.28	9.581
687.60	14.178
687.92	10.700
688.24	11.400
688.56	12.939
688.89	11.359
689.21	13.229
689.53	9.009
689.85	11.461
690.17	11.209
690.49	8.937
690.82	10.740
691.14	10.145
691.46	10.441
691.78	12.967
692.10	12.102
692.42	7.253
692.74	10.870
693.06	10.787
693.39	9.836
693.71	13.111
694.03	13.636
694.35	11.712
694.67	13.500
694.99	8.505
695.31	10.078
695.63	12.439
695.95	8.142
696.27	7.945
696.59	9.946
696.91	10.056
697.23	8.376
697.56	12.470
697.88	12.058
698.20	13.823
698.52	10.981
698.84	10.766
699.16	10.402
699.48	11.111
699.80	12.403
700.12	11.796
700.44	12.394
700.76	9.270
701.08	7.855
701.40	8.084
701.72	11.385
702.04	6.918
702.36	7.317
702.68	6.707
703.00	10.819
703.32	9.749
703.64	11.145
703.96	9.971
704.28	6.024
704.60	11.585
704.91	10.031
705.23	12.025
705.55	10.000
705.87	10.915
706.19	6.960
706.51	6.338
706.83	8.280
707.15	8.841
707.47	12.397
707.79	8.376
708.11	7.455
708.43	10.406
708.74	11.436
709.06	9.626
709.38	10.375
709.70	10.210
710.02	9.969
710.34	6.000
710.66	6.189
710.98	8.669
711.29	9.091
711.61	6.129
711.93	10.645
712.25	0.699
712.57	6.667
712.89	7.326
713.20	6.738
713.52	6.934
713.84	10.323
714.16	6.796
714.48	9.494
714.80	7.668
715.11	10.756
715.43	8.696
715.75	10.559
716.07	9.940
716.39	7.744
716.70	9.353
717.02	5.490
717.34	11.364
717.66	5.172
717.97	2.778
718.29	7.087
718.61	7.296
718.93	5.814
719.24	7.380
719.56	9.738
719.88	8.209
720.20	6.324
720.51	7.031
720.83	8.949
721.15	5.285
721.46	6.489
721.78	9.960
722.10	6.375
722.42	5.242
722.73	6.564
723.05	9.796
723.37	12.185
723.68	6.400
724.00	2.553
724.32	9.205
724.63	9.053
724.95	2.991
725.27	14.346
725.58	9.465
725.90	2.929
726.22	7.246
726.53	8.627
726.85	7.664
727.16	9.630
727.48	8.812
727.80	10.156
728.11	9.836
728.43	5.859
728.74	8.730
729.06	4.000
729.38	8.696
729.69	11.388
730.01	12.268
730.32	10.701
730.64	5.682
730.96	11.189
731.27	9.699
731.59	5.714
731.90	5.502
732.22	7.051
732.53	6.757
732.85	8.054
733.16	9.901
733.48	7.095
733.80	4.392
734.11	8.446
734.43	12.693
734.74	9.610
735.06	8.934
735.37	6.991
735.69	8.738
736.00	4.620
736.32	6.028
736.63	8.966
736.95	8.562
737.26	8.621
737.58	5.903
737.89	7.560
738.21	7.829
738.52	6.084
738.83	7.347
739.15	8.017
739.46	2.724
739.78	6.690
740.09	8.562
740.41	7.500
740.72	4.965
741.04	4.800
741.35	0.439
741.66	7.556
741.98	11.058
742.29	11.881
742.61	11.220
742.92	7.456
743.23	6.132
743.55	11.712
743.86	4.933
744.18	9.314
744.49	5.076
744.80	16.327
745.12	5.140
745.43	12.796
745.74	9.910
746.06	7.944
746.37	4.587
746.68	7.692
747.00	6.699
747.31	8.173
747.62	9.633
747.94	11.354
748.25	9.174
748.56	12.000
748.88	8.451
749.19	10.476
749.50	4.854
749.82	3.286
750.13	2.500
750.44	4.231
750.75	7.011
751.07	11.388
751.38	11.348
751.69	7.336
752.01	6.250
752.32	4.615
752.63	8.582
752.94	4.800
753.26	8.787
753.57	5.833
753.88	6.478
754.19	9.163
754.51	6.767
754.82	5.861
755.13	4.348
755.44	6.098
755.75	2.400
756.07	4.059
756.38	9.712
756.69	6.485
757.00	7.788
757.31	7.120
757.63	5.556
757.94	9.605
758.25	8.730
758.56	8.424
758.87	6.845
759.18	8.833
759.50	4.040
759.81	7.692
760.12	9.231
760.43	6.548
760.74	9.322
761.05	6.354
761.36	6.877
761.67	7.855
761.99	4.811
762.30	8.759
762.61	7.819
762.92	11.111
763.23	10.246
763.54	6.926
763.85	7.755
764.16	0.813
764.47	8.000
764.78	5.714
765.10	6.557
765.41	5.775
765.72	5.901
766.03	4.620
766.34	8.077
766.65	7.531
766.96	4.225
767.27	6.931
767.58	-6.742
767.89	7.407
768.20	6.077
768.51	7.538
768.82	7.692
769.13	7.080
769.44	10.042
769.75	-2.564
770.06	4.036
770.37	-0.980
770.68	3.883
770.99	9.709
771.30	6.723
771.61	4.490
771.92	8.299
772.23	0.901
772.54	4.972
772.85	0.581
773.16	10.053
773.47	-0.592
773.78	11.494
774.09	3.125
774.39	4.348
774.70	0.000
775.01	0.690
775.32	5.714
775.63	-0.752
775.94	0.000
776.25	-10.400
776.56	4.132
776.87	5.556
777.18	-9.009
777.48	-1.802
777.79	-3.150
778.10	5.505
778.41	-1.754
778.72	-2.521
779.03	-2.113
779.34	12.838
779.65	0.000
779.95	-3.311
780.26	-0.719
780.57	2.158
780.88	3.521
781.19	-8.403
781.50	13.423
781.80	2.924
782.11	1.744
782.42	5.660
782.73	0.000
783.04	7.586
783.34	3.053
783.65	-3.356
783.96	2.308
784.27	2.857
784.57	0.709
784.88	-13.462
785.19	10.000
785.50	7.273
785.81	-5.714
786.11	-5.882
786.42	12.389
786.73	-4.717
787.04	-4.587
787.34	-9.901
787.65	14.167
787.96	-9.917
788.26	4.348
788.57	-3.175
788.88	4.878
789.19	-1.600
789.49	-5.344
789.80	3.788
790.11	-6.604
790.41	-1.980
790.72	5.319
791.03	2.174
791.33	-7.059
791.64	2.469
791.95	13.043
792.25	-13.636
792.56	7.692
792.87	-7.692
793.17	-20.513
793.48	-15.476
793.79	-1.250
794.09	16.346
794.40	6.250
794.70	5.405
795.01	-3.906
795.32	-0.870
795.62	-8.696
795.93	-5.660
796.23	-7.071
796.54	-6.098
796.85	-5.952
797.15	-18.182
797.46	1.449
797.76	-1.316
798.07	-4.545
798.37	-9.756
798.68	-20.968
798.99	-9.459
799.29	-2.410
799.60	-3.846
799.90	-13.846
800.21	-10.606
800.51	0.000
800.82	-1.333
801.12	-33.333
801.43	-23.333
801.73	-2.703
802.04	-1.429
802.34	-4.918
802.65	-5.970
802.95	-14.545
803.26	-6.897
803.56	-15.385
803.87	1.887
804.17	-8.065
804.48	-1.471
804.78	-41.463
805.09	-1.449
805.39	-5.882
805.70	-40.426
806.00	-22.807
806.30	0.000
806.61	10.526
806.91	-2.703
807.22	-18.421
807.52	2.273
807.83	-11.864
808.13	-30.303
808.43	-16.667
808.74	-41.379
809.04	-6.349
809.35	-10.204
809.65	-11.667
809.95	-22.449
810.26	-2.817
810.56	-14.583
810.86	-26.531
811.17	3.846
811.47	-19.149
811.77	-8.333
812.08	-1.887
812.38	-28.125
812.69	-3.636
812.99	-14.634
813.29	-8.108
813.59	-24.324
813.90	5.455
814.20	3.636
814.50	-13.333
814.81	-21.818
815.11	-10.526
815.41	6.977
815.72	-30.000
816.02	-22.857
816.32	-18.919
816.62	2.083
816.93	-22.222
817.23	-17.778
817.53	-58.333
817.84	-29.730
818.14	-17.073
818.44	-6.000
818.74	12.245
819.04	-2.439
819.35	-11.111
819.65	-18.182
819.95	-94.444
820.25	-63.636
820.56	-33.333
820.86	-13.889
821.16	-27.273
821.46	-26.087
821.76	-17.241
822.07	-15.217
822.37	-12.121
822.67	17.073
822.97	-24.324
823.27	-40.000
823.57	10.345
823.88	-29.412
824.18	-13.889
824.48	-8.571
824.78	-66.667
825.08	-3.571
825.38	-33.333
825.69	-9.677
825.99	-12.195
826.29	-37.037
826.59	-37.500
826.89	-45.161
827.19	-47.826
827.49	-13.889
827.79	-56.522
828.09	-22.581
828.39	-20.833
828.70	-56.250
829.00	-27.586
829.30	-21.622
829.60	-70.833
829.90	-33.333
830.20	-31.250
830.50	-36.364
830.80	-111.765
831.10	-27.273
831.40	-14.706
831.70	-34.615
832.00	3.030
832.30	8.824
832.60	-16.216
832.90	900.000
833.20	-10.714
833.50	-65.000
833.80	-10.526
834.10	-29.167
834.40	-72.727
834.70	-120.000
835.00	-120.000
835.30	-45.833
835.60	-66.667
835.90	-42.857
836.20	8.000
836.50	-29.167
836.80	-100.000
837.10	-24.324
837.40	13.333
837.70	-21.739
838.00	12.500
838.30	-68.421
838.60	-180.000
838.90	-210.000
839.19	-108.333
839.49	-76.923
839.79	-63.158
840.09	-100.000
840.39	-130.000
840.69	-54.545
840.99	-4.762
841.29	-45.833
841.59	-92.308
841.88	-106.667
842.18	-42.857
842.48	3.333
842.78	-214.286
843.08	-35.714
843.38	-175.000
843.68	-100.000
843.97	28.571
844.27	-22.222
844.57	-90.909
844.87	-113.333
845.17	13.636
845.47	833.333
845.76	40.000
846.06	-141.667
846.36	-1000.000
846.66	-68.421
846.96	-40.909
847.25	-72.222
847.55	-166.667
847.85	-38.095
848.15	-38.462
848.44	-316.667
848.74	-141.667
849.04	-92.308
849.34	-475.000
849.63	-154.545
849.93	-121.429
850.23	-20.000
850.53	-100.000
850.82	-16.667
851.12	-13.333
851.42	-58.824
851.71	-25.000
852.01	-23.529
852.31	-92.308
852.61	500.000
852.90	0.000
853.20	-80.000
853.50	-68.750
853.79	-150.000
854.09	-400.000
854.39	-80.000
854.68	27.500
854.98	-42.857
855.28	-32.000
855.57	-8.333
855.87	-50.000
856.17	-36.000
856.46	-6.250
856.76	-40.000
857.05	-8.000
857.35	-91.667
857.65	-35.294
857.94	-183.333
858.24	-91.667
858.53	-40.000
858.83	-81.818
859.13	-8.000
859.42	-157.143
859.72	-237.500
860.01	-45.833
860.31	-150.000
860.60	-81.250
860.90	-150.000
861.20	-100.000
861.49	-26.667
861.79	-62.500
862.08	250.000
862.38	-200.000
862.67	314.286
862.97	550.000
863.26	-100.000
863.56	-127.273
863.85	-52.632
864.15	-29.412
864.44	-400.000
864.74	-80.000
865.03	-177.778
865.33	-28.571
865.62	214.286
865.92	-15.789
866.21	-44.444
866.51	-154.545
866.80	-200.000
867.10	-175.000
867.39	-18.750
867.69	-86.667
867.98	-140.000
868.27	29.412
868.57	0.000
868.86	700.000
869.16	-300.000
869.45	-200.000
869.75	300.000
870.04	-80.000
870.33	-1400.000
870.63	-31.579
870.92	-116.667
871.22	-1100.000
871.51	-142.857
871.80	-211.111
872.10	-450.000
>>>>>End Processed Spectral Data<<<<<
