SpectraSuite Data File
++++++++++++++++++++++++++++++++++++
Date: Wed May 13 21:07:10 PDT 2015
User: schluterlab
Dark Spectrum Present: Yes
Reference Spectrum Present: Yes
Number of Sampled Component Spectra: 1
Spectrometers: USB2E3373
Integration Time (usec): 3000 (USB2E3373)
Spectra Averaged: 3 (USB2E3373)
Boxcar Smoothing: 0 (USB2E3373)
Correct for Electrical Dark: No (USB2E3373)
Strobe/Lamp Enabled: No (USB2E3373)
Correct for Detector Non-linearity: No (USB2E3373)
Correct for Stray Light: No (USB2E3373)
Number of Pixels in Processed Spectrum: 2048
>>>>>Begin Processed Spectral Data<<<<<
178.53	0.000
178.91	600.000
179.29	166.667
179.67	-650.000
180.04	-266.667
180.42	280.000
180.80	1400.000
181.18	133.333
181.56	-150.000
181.94	-150.000
182.31	54.545
182.69	138.462
183.07	-60.000
183.45	283.333
183.83	200.000
184.20	14.286
184.58	100.000
184.96	466.667
185.34	228.571
185.72	0.000
186.09	-400.000
186.47	-300.000
186.85	120.000
187.23	400.000
187.61	650.000
187.98	1700.000
188.36	37.500
188.74	0.000
189.12	-63.636
189.49	10.000
189.87	91.667
190.25	200.000
190.63	1500.000
191.00	60.000
191.38	140.000
191.76	250.000
192.14	125.000
192.51	-10.526
192.89	433.333
193.27	225.000
193.65	-260.000
194.02	154.545
194.40	140.000
194.78	-400.000
195.15	-60.000
195.53	-80.000
195.91	25.000
196.29	-66.667
196.66	0.000
197.04	400.000
197.42	-40.000
197.79	-50.000
198.17	-212.500
198.55	-233.333
198.92	150.000
199.30	-333.333
199.68	20.000
200.05	200.000
200.43	116.667
200.81	-900.000
201.18	-420.000
201.56	-16.667
201.94	350.000
202.31	0.000
202.69	-171.429
203.07	-66.667
203.44	20.000
203.82	-200.000
204.19	-50.000
204.57	0.000
204.95	-116.667
205.32	0.000
205.70	-300.000
206.08	-75.000
206.45	-50.000
206.83	275.000
207.20	-200.000
207.58	30.000
207.96	-400.000
208.33	-42.857
208.71	-1700.000
209.08	75.000
209.46	425.000
209.84	0.000
210.21	90.000
210.59	1900.000
210.96	160.000
211.34	800.000
211.71	-950.000
212.09	-150.000
212.46	-170.000
212.84	133.333
213.22	-75.000
213.59	-800.000
213.97	-550.000
214.34	-400.000
214.72	30.769
215.09	262.500
215.47	66.667
215.84	700.000
216.22	-12.500
216.59	-350.000
216.97	300.000
217.34	-11.111
217.72	0.000
218.09	400.000
218.47	-300.000
218.84	-114.286
219.22	-62.500
219.59	-133.333
219.97	-225.000
220.34	-75.000
220.72	-160.000
221.09	0.000
221.47	-116.667
221.84	-300.000
222.22	0.000
222.59	300.000
222.97	-166.667
223.34	-58.333
223.72	-1100.000
224.09	0.000
224.46	-54.545
224.84	-87.500
225.21	-85.714
225.59	-275.000
225.96	-116.667
226.34	-160.000
226.71	-171.429
227.08	850.000
227.46	-150.000
227.83	-500.000
228.21	-43.750
228.58	-125.000
228.95	-35.294
229.33	-6.250
229.70	-50.000
230.08	7.692
230.45	-87.500
230.82	-50.000
231.20	114.286
231.57	-225.000
231.95	600.000
232.32	91.667
232.69	-5.882
233.07	-400.000
233.44	13.043
233.81	-350.000
234.19	45.833
234.56	-26.667
234.93	6.667
235.31	15.789
235.68	-53.846
236.05	-38.462
236.43	33.333
236.80	12.121
237.17	20.000
237.55	-35.294
237.92	-3.448
238.29	-37.037
238.67	30.556
239.04	3.226
239.41	0.000
239.79	31.915
240.16	0.000
240.53	32.143
240.91	23.214
241.28	7.143
241.65	35.484
242.02	17.105
242.40	34.783
242.77	27.536
243.14	7.692
243.51	15.957
243.89	15.385
244.26	31.132
244.63	19.231
245.00	28.125
245.38	22.689
245.75	27.049
246.12	24.812
246.49	8.943
246.87	18.487
247.24	29.730
247.61	21.192
247.98	23.718
248.36	19.527
248.73	25.281
249.10	20.707
249.47	24.194
249.84	27.368
250.22	24.876
250.59	23.832
250.96	24.545
251.33	14.833
251.70	28.033
252.08	21.339
252.45	28.395
252.82	22.814
253.19	22.568
253.56	22.302
253.94	29.181
254.31	24.296
254.68	27.852
255.05	24.092
255.42	20.979
255.79	26.074
256.16	27.129
256.54	26.032
256.91	22.152
257.28	24.843
257.65	21.656
258.02	26.393
258.39	20.468
258.76	20.349
259.14	26.136
259.51	24.438
259.88	26.558
260.25	25.000
260.62	25.000
260.99	27.056
261.36	26.943
261.73	22.716
262.10	23.664
262.47	24.938
262.85	23.383
263.22	23.590
263.59	27.273
263.96	21.655
264.33	24.760
264.70	24.651
265.07	25.231
265.44	27.586
265.81	24.027
266.18	27.790
266.55	24.454
266.92	23.941
267.29	25.103
267.66	25.053
268.03	26.337
268.40	23.093
268.77	23.554
269.14	25.714
269.51	27.721
269.88	24.236
270.25	23.093
270.62	23.156
270.99	25.984
271.36	25.595
271.73	28.514
272.10	25.714
272.47	27.255
272.84	26.772
273.21	26.223
273.58	24.385
273.95	22.642
274.32	26.493
274.69	24.590
275.06	24.735
275.43	24.105
275.80	22.872
276.17	23.020
276.54	23.801
276.91	25.087
277.28	23.827
277.65	26.748
278.02	25.000
278.39	24.334
278.76	25.084
279.13	24.357
279.50	25.000
279.87	23.370
280.23	24.505
280.60	23.356
280.97	24.513
281.34	23.659
281.71	21.951
282.08	22.051
282.45	26.066
282.82	23.482
283.19	25.915
283.56	25.312
283.92	25.535
284.29	24.025
284.66	22.900
285.03	22.313
285.40	22.054
285.77	24.024
286.14	23.708
286.51	24.588
286.87	22.308
287.24	23.599
287.61	23.193
287.98	23.382
288.35	22.057
288.72	21.951
289.08	22.650
289.45	24.229
289.82	23.147
290.19	22.440
290.56	22.727
290.93	20.304
291.29	22.025
291.66	23.497
292.03	23.569
292.40	21.938
292.77	22.356
293.13	22.455
293.50	21.699
293.87	22.667
294.24	20.899
294.60	20.936
294.97	22.354
295.34	18.338
295.71	21.025
296.08	20.550
296.44	19.133
296.81	19.245
297.18	21.875
297.55	21.462
297.91	20.870
298.28	20.581
298.65	18.966
299.02	21.856
299.38	19.387
299.75	18.990
300.12	18.721
300.48	19.181
300.85	18.129
301.22	18.699
301.59	18.075
301.95	18.815
302.32	18.086
302.69	19.096
303.05	19.712
303.42	21.136
303.79	18.191
304.15	19.058
304.52	19.785
304.89	18.162
305.25	17.563
305.62	17.245
305.99	18.063
306.35	19.122
306.72	19.430
307.09	19.604
307.45	18.956
307.82	18.105
308.19	17.032
308.55	19.345
308.92	17.485
309.29	18.719
309.65	17.882
310.02	18.688
310.38	18.089
310.75	18.343
311.12	18.465
311.48	16.716
311.85	18.209
312.22	19.246
312.58	18.841
312.95	18.308
313.31	18.549
313.68	17.557
314.05	17.958
314.41	17.867
314.78	17.837
315.14	17.778
315.51	18.744
315.87	19.926
316.24	18.090
316.61	20.731
316.97	18.889
317.34	17.023
317.70	18.376
318.07	18.811
318.43	18.699
318.80	18.325
319.16	18.302
319.53	17.921
319.89	17.886
320.26	20.148
320.62	18.350
320.99	18.411
321.35	17.680
321.72	18.383
322.08	20.941
322.45	20.259
322.81	21.534
323.18	20.572
323.54	20.397
323.91	20.145
324.27	19.262
324.64	19.599
325.00	19.948
325.37	20.392
325.73	19.444
326.10	18.923
326.46	20.652
326.83	19.741
327.19	21.138
327.56	21.354
327.92	20.756
328.29	21.786
328.65	20.245
329.01	20.668
329.38	22.087
329.74	20.944
330.11	21.280
330.47	21.094
330.84	22.202
331.20	21.008
331.56	21.739
331.93	21.189
332.29	22.328
332.66	20.678
333.02	22.589
333.38	22.456
333.75	22.270
334.11	22.569
334.48	21.796
334.84	20.936
335.20	22.384
335.57	22.454
335.93	22.595
336.29	20.753
336.66	21.795
337.02	21.739
337.38	21.236
337.75	22.911
338.11	22.032
338.47	21.747
338.84	22.251
339.20	22.575
339.56	23.464
339.93	21.694
340.29	23.399
340.65	22.754
341.02	23.378
341.38	23.395
341.74	22.353
342.11	23.865
342.47	21.841
342.83	22.059
343.20	23.773
343.56	24.039
343.92	22.827
344.28	23.945
344.65	23.510
345.01	23.164
345.37	24.260
345.73	23.448
346.10	23.997
346.46	24.553
346.82	25.361
347.19	24.446
347.55	23.829
347.91	23.539
348.27	23.107
348.63	24.359
349.00	24.528
349.36	24.176
349.72	24.671
350.08	25.117
350.45	24.980
350.81	25.196
351.17	25.558
351.53	25.216
351.89	24.702
352.26	23.784
352.62	25.116
352.98	25.240
353.34	24.879
353.70	25.701
354.07	25.961
354.43	25.816
354.79	26.763
355.15	24.845
355.51	25.361
355.87	25.567
356.24	26.726
356.60	25.723
356.96	23.945
357.32	25.232
357.68	25.057
358.04	24.748
358.40	25.504
358.77	25.917
359.13	24.903
359.49	25.511
359.85	25.853
360.21	26.214
360.57	26.692
360.93	26.176
361.29	25.981
361.66	26.348
362.02	25.574
362.38	25.702
362.74	25.163
363.10	26.247
363.46	24.928
363.82	25.573
364.18	25.743
364.54	26.477
364.90	25.784
365.26	25.548
365.62	26.278
365.98	26.406
366.35	26.879
366.71	26.034
367.07	26.010
367.43	26.620
367.79	26.894
368.15	26.723
368.51	26.160
368.87	26.867
369.23	26.263
369.59	26.004
369.95	25.689
370.31	25.941
370.67	25.344
371.03	26.132
371.39	26.473
371.75	25.643
372.11	25.997
372.47	25.667
372.83	26.699
373.19	27.554
373.55	27.384
373.91	27.581
374.27	26.487
374.63	26.743
374.99	25.836
375.35	26.233
375.71	26.563
376.07	26.594
376.42	27.273
376.78	26.486
377.14	27.729
377.50	26.141
377.86	27.623
378.22	26.485
378.58	27.049
378.94	28.375
379.30	27.795
379.66	27.620
380.02	27.819
380.38	27.229
380.74	27.675
381.09	27.443
381.45	27.509
381.81	26.741
382.17	27.536
382.53	26.708
382.89	27.322
383.25	27.222
383.61	27.966
383.97	27.562
384.32	27.662
384.68	28.378
385.04	27.184
385.40	28.705
385.76	27.433
386.12	27.889
386.48	26.520
386.83	28.723
387.19	28.439
387.55	27.836
387.91	28.167
388.27	28.915
388.62	27.653
388.98	28.348
389.34	28.070
389.70	28.449
390.06	28.188
390.42	28.093
390.77	28.251
391.13	27.904
391.49	28.210
391.85	29.329
392.20	27.381
392.56	29.206
392.92	29.374
393.28	28.181
393.64	28.135
393.99	27.173
394.35	28.889
394.71	29.679
395.07	26.541
395.42	29.007
395.78	28.764
396.14	29.296
396.50	28.789
396.85	29.382
397.21	28.090
397.57	27.640
397.92	28.323
398.28	28.088
398.64	28.051
399.00	28.571
399.35	29.625
399.71	28.771
400.07	28.735
400.42	29.906
400.78	28.157
401.14	28.020
401.49	27.621
401.85	28.563
402.21	28.978
402.57	27.836
402.92	30.100
403.28	28.330
403.63	28.952
403.99	28.855
404.35	29.302
404.70	29.124
405.06	28.949
405.42	28.580
405.77	27.765
406.13	28.114
406.49	27.921
406.84	29.731
407.20	28.715
407.55	29.091
407.91	28.789
408.27	28.571
408.62	28.484
408.98	28.730
409.34	28.713
409.69	30.019
410.05	28.669
410.40	28.424
410.76	29.242
411.11	28.794
411.47	29.463
411.83	28.135
412.18	28.904
412.54	28.822
412.89	29.091
413.25	28.496
413.60	29.467
413.96	28.652
414.31	29.038
414.67	28.444
415.03	29.296
415.38	29.326
415.74	29.500
416.09	28.354
416.45	30.212
416.80	29.128
417.16	29.352
417.51	29.270
417.87	29.762
418.22	29.476
418.58	29.829
418.93	28.876
419.29	29.769
419.64	28.817
420.00	29.651
420.35	29.468
420.71	29.555
421.06	30.012
421.42	29.562
421.77	30.116
422.12	29.685
422.48	29.226
422.83	30.656
423.19	29.385
423.54	29.505
423.90	29.869
424.25	29.578
424.61	30.191
424.96	29.746
425.31	28.772
425.67	30.335
426.02	30.978
426.38	30.410
426.73	30.116
427.09	29.393
427.44	30.299
427.79	29.751
428.15	29.786
428.50	29.668
428.85	30.258
429.21	30.051
429.56	30.287
429.92	29.620
430.27	29.192
430.62	30.483
430.98	30.936
431.33	29.930
431.68	30.405
432.04	30.197
432.39	30.312
432.74	29.430
433.10	31.028
433.45	30.592
433.80	30.632
434.16	30.202
434.51	30.543
434.86	31.390
435.22	32.258
435.57	30.590
435.92	30.700
436.28	30.871
436.63	31.351
436.98	31.257
437.34	31.258
437.69	31.641
438.04	31.239
438.39	31.445
438.75	30.453
439.10	32.562
439.45	32.022
439.81	32.328
440.16	32.580
440.51	31.570
440.86	32.780
441.22	31.555
441.57	31.453
441.92	32.659
442.27	31.277
442.63	31.432
442.98	32.523
443.33	31.941
443.68	31.787
444.03	32.091
444.39	32.722
444.74	32.910
445.09	31.993
445.44	32.056
445.79	32.886
446.15	32.224
446.50	30.837
446.85	32.710
447.20	32.985
447.55	32.680
447.91	32.022
448.26	32.361
448.61	32.394
448.96	32.289
449.31	33.467
449.66	33.835
450.02	32.803
450.37	33.255
450.72	33.352
451.07	33.229
451.42	32.314
451.77	34.023
452.12	33.274
452.47	33.570
452.83	33.903
453.18	33.355
453.53	33.228
453.88	32.590
454.23	32.880
454.58	33.088
454.93	33.483
455.28	32.884
455.63	32.065
455.98	32.684
456.34	32.486
456.69	33.227
457.04	33.560
457.39	33.193
457.74	33.633
458.09	33.886
458.44	32.961
458.79	33.498
459.14	32.809
459.49	33.232
459.84	33.202
460.19	32.233
460.54	33.029
460.89	34.347
461.24	33.970
461.59	34.420
461.94	35.082
462.29	33.885
462.64	33.575
462.99	33.736
463.34	34.876
463.69	34.214
464.04	32.713
464.39	33.557
464.74	33.722
465.09	33.044
465.44	34.119
465.79	34.330
466.14	34.835
466.49	35.132
466.84	34.369
467.19	33.885
467.54	34.867
467.89	33.941
468.24	34.542
468.59	34.098
468.94	34.163
469.29	34.303
469.64	34.031
469.99	34.552
470.34	33.783
470.68	34.647
471.03	34.062
471.38	34.145
471.73	35.597
472.08	35.876
472.43	35.620
472.78	35.227
473.13	33.773
473.48	35.356
473.83	34.965
474.17	33.789
474.52	34.304
474.87	34.138
475.22	35.266
475.57	34.635
475.92	35.442
476.27	34.732
476.61	34.541
476.96	35.351
477.31	35.167
477.66	34.689
478.01	33.901
478.36	35.259
478.70	35.070
479.05	35.350
479.40	35.153
479.75	34.113
480.10	35.135
480.45	34.919
480.79	34.545
481.14	35.917
481.49	35.175
481.84	33.365
482.19	33.905
482.53	35.762
482.88	34.708
483.23	34.601
483.58	35.208
483.92	34.630
484.27	34.492
484.62	35.109
484.97	35.131
485.31	33.928
485.66	32.973
486.01	33.365
486.36	34.238
486.70	34.551
487.05	35.599
487.40	35.786
487.75	36.721
488.09	35.940
488.44	36.243
488.79	36.298
489.13	35.865
489.48	35.913
489.83	34.971
490.17	35.134
490.52	35.811
490.87	34.771
491.22	35.233
491.56	35.649
491.91	35.190
492.26	35.928
492.60	35.594
492.95	35.909
493.30	35.223
493.64	34.724
493.99	35.845
494.34	35.356
494.68	34.845
495.03	35.919
495.37	35.474
495.72	35.539
496.07	36.483
496.41	35.002
496.76	34.826
497.11	36.432
497.45	35.409
497.80	36.446
498.14	36.373
498.49	35.300
498.84	35.577
499.18	34.744
499.53	34.909
499.87	35.565
500.22	35.789
500.56	36.108
500.91	37.022
501.26	35.665
501.60	35.735
501.95	36.416
502.29	35.777
502.64	37.078
502.98	37.091
503.33	36.594
503.67	36.027
504.02	35.784
504.36	36.256
504.71	35.976
505.06	37.443
505.40	36.856
505.75	36.623
506.09	37.762
506.44	37.198
506.78	36.922
507.13	37.474
507.47	36.214
507.82	37.467
508.16	37.414
508.51	36.829
508.85	36.547
509.19	37.778
509.54	38.338
509.88	38.118
510.23	37.263
510.57	37.394
510.92	37.500
511.26	38.284
511.61	37.431
511.95	37.321
512.30	37.313
512.64	38.365
512.98	37.729
513.33	37.577
513.67	38.501
514.02	37.685
514.36	37.360
514.70	39.723
515.05	38.853
515.39	38.561
515.74	38.129
516.08	38.820
516.42	38.364
516.77	38.957
517.11	39.447
517.46	40.276
517.80	39.407
518.14	38.518
518.49	38.517
518.83	39.200
519.17	38.313
519.52	39.083
519.86	39.284
520.20	38.690
520.55	39.490
520.89	40.354
521.23	40.192
521.58	40.013
521.92	39.221
522.26	40.208
522.61	39.754
522.95	39.896
523.29	39.937
523.64	40.051
523.98	40.025
524.32	38.500
524.66	40.519
525.01	40.170
525.35	40.026
525.69	40.027
526.04	39.218
526.38	40.153
526.72	40.039
527.06	39.265
527.41	40.106
527.75	39.853
528.09	41.116
528.43	40.706
528.78	39.793
529.12	41.074
529.46	39.987
529.80	40.129
530.15	40.347
530.49	40.364
530.83	39.269
531.17	42.123
531.51	40.526
531.86	39.702
532.20	39.835
532.54	41.172
532.88	39.823
533.22	40.067
533.57	39.934
533.91	40.968
534.25	41.276
534.59	39.575
534.93	39.732
535.27	40.318
535.62	40.329
535.96	40.729
536.30	40.691
536.64	40.396
536.98	40.364
537.32	41.210
537.66	39.422
538.01	40.291
538.35	40.608
538.69	39.732
539.03	39.262
539.37	38.431
539.71	39.700
540.05	38.664
540.39	39.917
540.73	40.363
541.07	39.796
541.42	40.067
541.76	39.919
542.10	40.081
542.44	40.333
542.78	40.736
543.12	40.566
543.46	40.359
543.80	39.579
544.14	40.262
544.48	37.691
544.82	39.543
545.16	38.878
545.50	40.851
545.84	39.832
546.18	39.762
546.52	40.085
546.86	39.647
547.20	39.385
547.54	39.242
547.88	39.271
548.22	39.544
548.56	39.093
548.90	38.092
549.24	38.958
549.58	39.786
549.92	39.765
550.26	40.664
550.60	39.489
550.94	38.881
551.28	39.288
551.62	39.173
551.96	38.580
552.30	38.064
552.64	38.771
552.98	39.844
553.32	38.789
553.66	39.325
554.00	39.309
554.34	40.073
554.68	39.299
555.02	39.671
555.36	40.620
555.69	38.893
556.03	38.670
556.37	38.976
556.71	38.753
557.05	39.336
557.39	39.563
557.73	40.469
558.07	39.412
558.41	39.667
558.75	39.261
559.08	39.134
559.42	38.946
559.76	38.150
560.10	38.970
560.44	39.204
560.78	38.489
561.12	39.103
561.45	37.755
561.79	38.239
562.13	38.537
562.47	38.857
562.81	38.384
563.15	37.465
563.48	38.610
563.82	39.124
564.16	38.592
564.50	38.602
564.84	38.851
565.17	38.344
565.51	37.166
565.85	36.975
566.19	38.742
566.52	37.680
566.86	37.927
567.20	37.141
567.54	36.557
567.88	37.010
568.21	36.991
568.55	37.402
568.89	36.540
569.23	36.893
569.56	36.629
569.90	36.656
570.24	36.245
570.57	36.097
570.91	36.052
571.25	36.178
571.59	36.049
571.92	35.582
572.26	36.828
572.60	36.187
572.93	36.395
573.27	36.380
573.61	36.222
573.95	36.224
574.28	35.757
574.62	35.571
574.96	36.245
575.29	35.582
575.63	36.275
575.97	36.332
576.30	36.041
576.64	35.866
576.98	35.848
577.31	35.740
577.65	34.858
577.98	36.023
578.32	35.309
578.66	35.719
578.99	36.009
579.33	36.207
579.67	35.973
580.00	35.379
580.34	35.652
580.67	36.183
581.01	35.541
581.35	34.565
581.68	34.450
582.02	35.477
582.35	35.759
582.69	35.575
583.02	35.668
583.36	35.948
583.70	36.310
584.03	36.748
584.37	35.710
584.70	35.979
585.04	35.657
585.37	35.358
585.71	35.384
586.04	35.163
586.38	35.017
586.72	34.926
587.05	35.674
587.39	35.677
587.72	35.824
588.06	35.677
588.39	35.600
588.73	35.379
589.06	36.146
589.40	35.501
589.73	35.753
590.07	35.399
590.40	36.009
590.73	36.305
591.07	35.311
591.40	34.783
591.74	35.660
592.07	35.828
592.41	34.964
592.74	34.799
593.08	34.017
593.41	34.168
593.75	34.173
594.08	35.199
594.41	34.516
594.75	35.532
595.08	35.474
595.42	34.860
595.75	35.141
596.09	35.142
596.42	35.335
596.75	34.708
597.09	35.532
597.42	35.846
597.75	34.311
598.09	35.291
598.42	34.720
598.76	34.383
599.09	34.334
599.42	34.215
599.76	34.885
600.09	34.111
600.42	34.237
600.76	34.072
601.09	34.463
601.42	34.614
601.76	33.861
602.09	34.739
602.42	35.080
602.76	34.690
603.09	35.400
603.42	33.786
603.76	33.009
604.09	33.162
604.42	33.571
604.76	34.614
605.09	34.753
605.42	35.043
605.75	33.747
606.09	33.361
606.42	34.331
606.75	33.896
607.09	33.998
607.42	34.413
607.75	33.217
608.08	34.536
608.42	34.536
608.75	35.022
609.08	33.170
609.41	34.526
609.75	33.384
610.08	33.284
610.41	33.916
610.74	33.109
611.07	34.419
611.41	33.930
611.74	33.954
612.07	33.246
612.40	33.946
612.73	34.413
613.07	33.370
613.40	34.912
613.73	34.670
614.06	32.504
614.39	33.130
614.72	34.203
615.06	33.111
615.39	34.051
615.72	32.829
616.05	34.122
616.38	33.162
616.71	32.873
617.05	33.968
617.38	32.840
617.71	33.027
618.04	32.907
618.37	34.511
618.70	33.571
619.03	33.471
619.36	33.737
619.69	33.480
620.03	32.226
620.36	32.359
620.69	31.335
621.02	32.462
621.35	31.643
621.68	32.518
622.01	32.929
622.34	32.435
622.67	33.438
623.00	32.143
623.33	31.488
623.66	31.970
623.99	32.633
624.32	32.649
624.65	32.196
624.99	33.725
625.32	33.607
625.65	32.946
625.98	33.412
626.31	32.163
626.64	32.072
626.97	33.910
627.30	31.908
627.63	32.612
627.96	32.208
628.29	33.953
628.62	33.946
628.95	33.367
629.28	32.611
629.61	31.196
629.94	31.818
630.26	32.217
630.59	30.669
630.92	32.028
631.25	32.029
631.58	32.334
631.91	31.601
632.24	30.626
632.57	31.556
632.90	34.189
633.23	32.494
633.56	31.894
633.89	32.656
634.22	32.744
634.55	31.790
634.88	31.740
635.20	31.875
635.53	31.525
635.86	31.026
636.19	32.258
636.52	30.610
636.85	29.795
637.18	31.060
637.51	31.336
637.83	32.898
638.16	29.333
638.49	28.838
638.82	29.673
639.15	31.915
639.48	31.818
639.81	31.806
640.13	31.127
640.46	32.203
640.79	31.367
641.12	29.882
641.45	29.403
641.77	29.897
642.10	29.803
642.43	31.289
642.76	31.230
643.09	30.192
643.41	31.738
643.74	31.018
644.07	30.421
644.40	30.514
644.73	30.000
645.05	32.286
645.38	28.405
645.71	32.143
646.04	28.283
646.36	29.861
646.69	30.944
647.02	29.690
647.35	29.982
647.67	30.129
648.00	28.986
648.33	30.339
648.66	29.883
648.98	29.193
649.31	31.135
649.64	30.673
649.96	30.806
650.29	27.451
650.62	29.489
650.94	29.138
651.27	29.505
651.60	30.769
651.92	29.032
652.25	28.811
652.58	31.188
652.90	29.630
653.23	27.504
653.56	27.273
653.88	29.010
654.21	27.645
654.54	29.402
654.86	29.593
655.19	29.972
655.52	29.465
655.84	26.976
656.17	32.937
656.49	44.397
656.82	45.532
657.15	35.849
657.47	27.029
657.80	20.381
658.13	21.941
658.45	33.167
658.78	33.349
659.10	33.522
659.43	33.579
659.75	33.888
660.08	33.310
660.41	29.817
660.73	28.926
661.06	28.231
661.38	28.488
661.71	29.508
662.03	31.501
662.36	29.204
662.68	27.527
663.01	29.661
663.33	27.862
663.66	26.386
663.98	25.169
664.31	29.670
664.63	25.000
664.96	29.978
665.28	28.541
665.61	30.454
665.93	29.550
666.26	31.013
666.58	26.338
666.91	28.475
667.23	27.419
667.56	28.966
667.88	28.037
668.21	27.009
668.53	28.276
668.86	31.655
669.18	28.842
669.50	26.267
669.83	25.537
670.15	26.190
670.48	27.586
670.80	29.759
671.13	28.833
671.45	30.365
671.77	29.957
672.10	25.731
672.42	28.244
672.75	26.429
673.07	26.000
673.39	28.731
673.72	30.140
674.04	27.254
674.37	28.049
674.69	25.720
675.01	27.778
675.34	29.322
675.66	29.630
675.98	27.212
676.31	29.186
676.63	28.345
676.95	25.882
677.28	26.835
677.60	28.431
677.92	27.938
678.25	27.983
678.57	28.717
678.89	27.932
679.22	25.880
679.54	27.959
679.86	26.758
680.18	26.923
680.51	25.769
680.83	23.977
681.15	27.505
681.48	27.054
681.80	25.562
682.12	27.083
682.44	24.748
682.77	26.947
683.09	26.339
683.41	26.744
683.73	26.563
684.06	26.770
684.38	25.641
684.70	23.218
685.02	27.066
685.34	27.006
685.67	28.518
685.99	25.267
686.31	28.103
686.63	25.368
686.96	28.757
687.28	25.549
687.60	30.057
687.92	26.265
688.24	25.200
688.56	28.289
688.89	24.722
689.21	26.682
689.53	21.622
689.85	28.539
690.17	25.714
690.49	29.227
690.82	25.298
691.14	25.604
691.46	25.986
691.78	26.593
692.10	26.752
692.42	27.473
692.74	28.261
693.06	26.292
693.39	25.761
693.71	27.778
694.03	28.864
694.35	25.676
694.67	27.500
694.99	29.124
695.31	27.390
695.63	28.049
695.95	22.901
696.27	25.205
696.59	22.581
696.91	24.581
697.23	25.635
697.56	25.899
697.88	25.572
698.20	26.998
698.52	25.935
698.84	26.794
699.16	26.714
699.48	25.185
699.80	28.941
700.12	25.201
700.44	24.507
700.76	24.157
701.08	24.471
701.40	23.952
701.72	27.385
702.04	22.013
702.36	23.476
702.68	24.695
703.00	23.099
703.32	26.462
703.64	25.602
703.96	22.287
704.28	27.108
704.60	22.561
704.91	20.063
705.23	20.886
705.55	24.828
705.87	22.535
706.19	24.908
706.51	23.944
706.83	24.841
707.15	23.476
707.47	26.722
707.79	25.381
708.11	23.136
708.43	24.619
708.74	25.000
709.06	23.262
709.38	28.530
709.70	28.228
710.02	23.364
710.34	24.000
710.66	24.430
710.98	22.910
711.29	25.974
711.61	22.258
711.93	23.871
712.25	22.028
712.57	20.000
712.89	22.711
713.20	25.532
713.52	29.197
713.84	20.000
714.16	22.330
714.48	23.418
714.80	25.240
715.11	25.581
715.43	20.807
715.75	24.845
716.07	24.398
716.39	24.916
716.70	24.820
717.02	25.490
717.34	22.727
717.66	21.121
717.97	15.476
718.29	26.772
718.61	18.455
718.93	22.868
719.24	23.985
719.56	20.225
719.88	21.269
720.20	23.320
720.51	23.437
720.83	26.459
721.15	20.325
721.46	21.374
721.78	25.498
722.10	19.920
722.42	23.790
722.73	20.463
723.05	25.714
723.37	22.689
723.68	22.800
724.00	21.277
724.32	18.828
724.63	22.634
724.95	19.231
725.27	20.675
725.58	28.807
725.90	23.849
726.22	21.014
726.53	18.824
726.85	22.628
727.16	20.370
727.48	26.437
727.80	19.141
728.11	21.721
728.43	26.563
728.74	23.810
729.06	22.000
729.38	26.877
729.69	24.199
730.01	19.331
730.32	24.723
730.64	21.591
730.96	27.972
731.27	23.746
731.59	22.857
731.90	21.683
732.22	18.590
732.53	20.270
732.85	22.819
733.16	20.132
733.48	24.662
733.80	24.662
734.11	25.338
734.43	22.601
734.74	24.925
735.06	24.496
735.37	24.316
735.69	24.272
736.00	21.782
736.32	26.950
736.63	22.414
736.95	19.521
737.26	17.586
737.58	26.389
737.89	22.680
738.21	20.996
738.52	23.574
738.83	23.673
739.15	18.565
739.46	26.459
739.78	19.014
740.09	23.288
740.41	20.000
740.72	16.667
741.04	18.000
741.35	21.930
741.66	20.444
741.98	24.519
742.29	28.218
742.61	25.854
742.92	25.877
743.23	22.642
743.55	23.874
743.86	22.870
744.18	16.667
744.49	16.244
744.80	23.469
745.12	21.963
745.43	23.697
745.74	22.973
746.06	21.963
746.37	20.183
746.68	16.346
747.00	21.053
747.31	20.673
747.62	20.642
747.94	28.384
748.25	25.229
748.56	24.889
748.88	23.944
749.19	25.238
749.50	18.447
749.82	18.779
750.13	15.833
750.44	19.615
750.75	18.819
751.07	24.555
751.38	24.468
751.69	22.008
752.01	19.922
752.32	19.231
752.63	18.284
752.94	19.200
753.26	22.594
753.57	18.333
753.88	19.433
754.19	17.530
754.51	21.429
754.82	24.908
755.13	14.783
755.44	22.358
755.75	18.400
756.07	15.867
756.38	19.784
756.69	24.915
757.00	20.249
757.31	22.006
757.63	20.062
757.94	24.576
758.25	23.545
758.56	20.380
758.87	19.643
759.18	22.082
759.50	20.202
759.81	24.415
760.12	20.308
760.43	15.476
760.74	20.904
761.05	20.166
761.36	20.917
761.67	20.242
761.99	17.526
762.30	21.533
762.61	19.342
762.92	25.641
763.23	19.262
763.54	25.974
763.85	21.224
764.16	19.106
764.47	17.600
764.78	22.143
765.10	21.639
765.41	21.581
765.72	22.050
766.03	19.472
766.34	20.000
766.65	19.247
766.96	22.535
767.27	19.802
767.58	13.483
767.89	22.840
768.20	20.994
768.51	23.618
768.82	25.481
769.13	26.106
769.44	22.176
769.75	14.103
770.06	17.040
770.37	20.588
770.68	19.903
770.99	19.417
771.30	18.908
771.61	20.000
771.92	26.556
772.23	22.523
772.54	16.575
772.85	16.860
773.16	22.751
773.47	21.893
773.78	20.115
774.09	18.750
774.39	13.665
774.70	20.408
775.01	15.862
775.32	17.143
775.63	16.541
775.94	15.038
776.25	12.000
776.56	23.967
776.87	17.460
777.18	5.405
777.48	7.207
777.79	18.110
778.10	23.853
778.41	19.298
778.72	20.168
779.03	12.676
779.34	22.973
779.65	18.310
779.95	17.881
780.26	13.669
780.57	20.863
780.88	15.493
781.19	17.647
781.50	21.477
781.80	21.053
782.11	12.209
782.42	23.899
782.73	18.954
783.04	12.414
783.34	6.870
783.65	12.081
783.96	18.462
784.27	18.571
784.57	16.312
784.88	8.654
785.19	23.636
785.50	11.818
785.81	21.905
786.11	15.966
786.42	23.894
786.73	9.434
787.04	9.174
787.34	8.911
787.65	21.667
787.96	23.140
788.26	21.014
788.57	15.873
788.88	15.447
789.19	12.800
789.49	9.924
789.80	26.515
790.11	16.981
790.41	11.881
790.72	12.766
791.03	16.304
791.33	12.941
791.64	9.877
791.95	8.696
792.25	14.773
792.56	32.051
792.87	3.846
793.17	8.974
793.48	10.714
793.79	12.500
794.09	19.231
794.40	14.583
794.70	21.622
795.01	8.594
795.32	9.565
795.62	7.609
795.93	13.208
796.23	23.232
796.54	8.537
796.85	10.714
797.15	12.121
797.46	15.942
797.76	6.579
798.07	31.818
798.37	13.415
798.68	11.290
798.99	8.108
799.29	16.867
799.60	20.513
799.90	12.308
800.21	12.121
800.51	17.333
800.82	24.000
801.12	-14.583
801.43	11.667
801.73	-1.351
802.04	21.429
802.34	8.197
802.65	2.985
802.95	30.909
803.26	12.069
803.56	12.308
803.87	15.094
804.17	9.677
804.48	8.824
804.78	-2.439
805.09	13.043
805.39	10.294
805.70	6.383
806.00	24.561
806.30	12.821
806.61	7.895
806.91	5.405
807.22	-3.947
807.52	20.455
807.83	-16.949
808.13	-15.152
808.43	8.333
808.74	-24.138
809.04	1.587
809.35	16.327
809.65	-1.667
809.95	-18.367
810.26	21.127
810.56	-2.083
810.86	2.041
811.17	13.462
811.47	-12.766
811.77	14.583
812.08	9.434
812.38	34.375
812.69	1.818
812.99	9.756
813.29	-16.216
813.59	-13.514
813.90	-1.818
814.20	21.818
814.50	-3.333
814.81	5.455
815.11	17.544
815.41	37.209
815.72	30.000
816.02	34.286
816.32	5.405
816.62	-4.167
816.93	4.444
817.23	2.222
817.53	-25.000
817.84	-2.703
818.14	19.512
818.44	12.000
818.74	12.245
819.04	12.195
819.35	-33.333
819.65	18.182
819.95	-50.000
820.25	6.061
820.56	-30.952
820.86	19.444
821.16	4.545
821.46	17.391
821.76	3.448
822.07	17.391
822.37	48.485
822.67	48.780
822.97	16.216
823.27	2.857
823.57	3.448
823.88	8.824
824.18	2.778
824.48	-22.857
824.78	-33.333
825.08	-14.286
825.38	-29.630
825.69	9.677
825.99	31.707
826.29	18.519
826.59	-31.250
826.89	9.677
827.19	-4.348
827.49	-13.889
827.79	-60.870
828.09	12.903
828.39	10.417
828.70	-6.250
829.00	-13.793
829.30	13.514
829.60	-54.167
829.90	29.630
830.20	0.000
830.50	-27.273
830.80	-88.235
831.10	-40.909
831.40	-17.647
831.70	-19.231
832.00	18.182
832.30	41.176
832.60	40.541
832.90	1800.000
833.20	-21.429
833.50	-70.000
833.80	13.158
834.10	-29.167
834.40	-40.909
834.70	-80.000
835.00	-70.000
835.30	54.167
835.60	-14.286
835.90	0.000
836.20	-32.000
836.50	-29.167
836.80	-78.947
837.10	-10.811
837.40	30.000
837.70	-4.348
838.00	29.167
838.30	15.789
838.60	-110.000
838.90	-90.000
839.19	-41.667
839.49	-100.000
839.79	-15.789
840.09	-233.333
840.39	-50.000
840.69	-36.364
840.99	33.333
841.29	-29.167
841.59	-138.462
841.88	-126.667
842.18	-14.286
842.48	6.667
842.78	-200.000
843.08	-50.000
843.38	-12.500
843.68	-75.000
843.97	21.429
844.27	-88.889
844.57	-27.273
844.87	-33.333
845.17	31.818
845.47	833.333
845.76	-60.000
846.06	-125.000
846.36	-600.000
846.66	-73.684
846.96	0.000
847.25	-44.444
847.55	-55.556
847.85	19.048
848.15	30.769
848.44	-266.667
848.74	-100.000
849.04	-61.538
849.34	-150.000
849.63	-54.545
849.93	-107.143
850.23	45.000
850.53	-262.500
850.82	-11.111
851.12	-6.667
851.42	-58.824
851.71	-37.500
852.01	-76.471
852.31	-61.538
852.61	250.000
852.90	0.000
853.20	-26.667
853.50	-25.000
853.79	-128.571
854.09	-25.000
854.39	-50.000
854.68	-7.500
854.98	-33.333
855.28	28.000
855.57	-16.667
855.87	-16.667
856.17	4.000
856.46	-12.500
856.76	-20.000
857.05	-16.000
857.35	-83.333
857.65	-23.529
857.94	-50.000
858.24	-50.000
858.53	15.000
858.83	-145.455
859.13	4.000
859.42	-107.143
859.72	-162.500
860.01	25.000
860.31	-87.500
860.60	-75.000
860.90	-100.000
861.20	-66.667
861.49	-13.333
861.79	-18.750
862.08	325.000
862.38	-75.000
862.67	142.857
862.97	375.000
863.26	-118.182
863.56	0.000
863.85	5.263
864.15	-41.176
864.44	-160.000
864.74	-40.000
865.03	-111.111
865.33	-21.429
865.62	78.571
865.92	10.526
866.21	-38.889
866.51	27.273
866.80	-22.222
867.10	-50.000
867.39	-6.250
867.69	-60.000
867.98	-80.000
868.27	-17.647
868.57	0.000
868.86	650.000
869.16	-250.000
869.45	-228.571
869.75	400.000
870.04	0.000
870.33	-700.000
870.63	26.316
870.92	-100.000
871.22	-1200.000
871.51	-242.857
871.80	-44.444
872.10	-200.000
>>>>>End Processed Spectral Data<<<<<
