SpectraSuite Data File
++++++++++++++++++++++++++++++++++++
Date: Wed May 13 21:13:10 PDT 2015
User: schluterlab
Dark Spectrum Present: Yes
Reference Spectrum Present: Yes
Number of Sampled Component Spectra: 1
Spectrometers: USB2E3373
Integration Time (usec): 3000 (USB2E3373)
Spectra Averaged: 3 (USB2E3373)
Boxcar Smoothing: 0 (USB2E3373)
Correct for Electrical Dark: No (USB2E3373)
Strobe/Lamp Enabled: No (USB2E3373)
Correct for Detector Non-linearity: No (USB2E3373)
Correct for Stray Light: No (USB2E3373)
Number of Pixels in Processed Spectrum: 2048
>>>>>Begin Processed Spectral Data<<<<<
178.53	0.000
178.91	400.000
179.29	208.333
179.67	-450.000
180.04	-166.667
180.42	140.000
180.80	2000.000
181.18	316.667
181.56	-275.000
181.94	-275.000
182.31	-9.091
182.69	123.077
183.07	-260.000
183.45	216.667
183.83	144.444
184.20	114.286
184.58	-133.333
184.96	466.667
185.34	200.000
185.72	0.000
186.09	-800.000
186.47	-220.000
186.85	400.000
187.23	-250.000
187.61	950.000
187.98	1500.000
188.36	-62.500
188.74	0.000
189.12	18.182
189.49	-20.000
189.87	108.333
190.25	360.000
190.63	1700.000
191.00	-240.000
191.38	340.000
191.76	275.000
192.14	141.667
192.51	-42.105
192.89	500.000
193.27	325.000
193.65	-320.000
194.02	236.364
194.40	250.000
194.78	-600.000
195.15	380.000
195.53	-80.000
195.91	-100.000
196.29	-200.000
196.66	0.000
197.04	550.000
197.42	-160.000
197.79	10.000
198.17	-75.000
198.55	-200.000
198.92	150.000
199.30	-466.667
199.68	-20.000
200.05	400.000
200.43	316.667
200.81	-1800.000
201.18	-120.000
201.56	-83.333
201.94	625.000
202.31	21.739
202.69	0.000
203.07	-600.000
203.44	-140.000
203.82	-433.333
204.19	-80.000
204.57	0.000
204.95	-183.333
205.32	0.000
205.70	-300.000
206.08	-350.000
206.45	-150.000
206.83	425.000
207.20	-500.000
207.58	-130.000
207.96	-1100.000
208.33	-328.571
208.71	-1500.000
209.08	225.000
209.46	400.000
209.84	0.000
210.21	200.000
210.59	2200.000
210.96	320.000
211.34	800.000
211.71	-850.000
212.09	-166.667
212.46	-110.000
212.84	-233.333
213.22	25.000
213.59	-400.000
213.97	-450.000
214.34	-750.000
214.72	-61.538
215.09	137.500
215.47	166.667
215.84	400.000
216.22	-50.000
216.59	-150.000
216.97	666.667
217.34	211.111
217.72	0.000
218.09	400.000
218.47	200.000
218.84	-57.143
219.22	-225.000
219.59	-433.333
219.97	-225.000
220.34	-150.000
220.72	-140.000
221.09	0.000
221.47	-183.333
221.84	-1100.000
222.22	0.000
222.59	500.000
222.97	-333.333
223.34	-58.333
223.72	-700.000
224.09	-500.000
224.46	-81.818
224.84	-112.500
225.21	-71.429
225.59	-650.000
225.96	-300.000
226.34	-10.000
226.71	-128.571
227.08	450.000
227.46	-112.500
227.83	-800.000
228.21	-62.500
228.58	-300.000
228.95	-29.412
229.33	-56.250
229.70	-100.000
230.08	-115.385
230.45	-225.000
230.82	-83.333
231.20	171.429
231.57	-500.000
231.95	1900.000
232.32	-75.000
232.69	-17.647
233.07	-1000.000
233.44	-39.130
233.81	-400.000
234.19	-8.333
234.56	-80.000
234.93	-6.667
235.31	-57.895
235.68	-184.615
236.05	-76.923
236.43	-27.778
236.80	3.030
237.17	-73.333
237.55	-82.353
237.92	-41.379
238.29	-48.148
238.67	-8.333
239.04	-29.032
239.41	6.383
239.79	12.766
240.16	-2.326
240.53	5.357
240.91	-5.357
241.28	12.500
241.65	1.613
242.02	5.263
242.40	17.391
242.77	-4.348
243.14	10.256
243.51	7.447
243.89	7.692
244.26	24.528
244.63	-1.923
245.00	9.375
245.38	5.882
245.75	9.016
246.12	7.519
246.49	13.008
246.87	4.202
247.24	9.459
247.61	5.298
247.98	7.051
248.36	18.343
248.73	6.180
249.10	12.626
249.47	5.376
249.84	14.737
250.22	13.433
250.59	11.215
250.96	11.364
251.33	5.263
251.70	17.992
252.08	12.971
252.45	14.815
252.82	15.589
253.19	11.284
253.56	11.871
253.94	17.082
254.31	14.085
254.68	15.772
255.05	12.871
255.42	9.790
255.79	15.951
256.16	14.826
256.54	11.429
256.91	12.658
257.28	13.208
257.65	11.783
258.02	14.370
258.39	15.497
258.76	12.209
259.14	11.648
259.51	13.483
259.88	15.718
260.25	13.056
260.62	14.326
260.99	12.997
261.36	13.990
261.73	14.321
262.10	13.486
262.47	13.086
262.85	15.174
263.22	12.308
263.59	13.766
263.96	12.165
264.33	14.423
264.70	12.791
265.07	15.509
265.44	16.552
265.81	14.188
266.18	13.212
266.55	13.537
266.92	14.619
267.29	12.963
267.66	16.561
268.03	15.844
268.40	13.983
268.77	14.256
269.14	15.510
269.51	18.070
269.88	14.257
270.25	15.890
270.62	12.295
270.99	13.583
271.36	15.278
271.73	12.651
272.10	15.048
272.47	14.012
272.84	15.551
273.21	15.264
273.58	15.779
273.95	13.962
274.32	13.619
274.69	16.758
275.06	16.254
275.43	13.371
275.80	13.830
276.17	14.549
276.54	14.920
276.91	15.505
277.28	13.899
277.65	12.937
278.02	15.714
278.39	13.321
278.76	15.385
279.13	13.551
279.50	12.241
279.87	12.500
280.23	14.955
280.60	12.976
280.97	14.935
281.34	15.300
281.71	12.195
282.08	14.188
282.45	13.770
282.82	13.898
283.19	14.177
283.56	14.844
283.92	13.914
284.29	12.949
284.66	13.180
285.03	12.378
285.40	13.293
285.77	12.763
286.14	13.526
286.51	14.093
286.87	14.462
287.24	13.569
287.61	14.307
287.98	14.706
288.35	14.158
288.72	16.356
289.08	15.100
289.45	12.335
289.82	14.070
290.19	15.288
290.56	11.364
290.93	11.326
291.29	12.996
291.66	12.705
292.03	13.624
292.40	12.921
292.77	12.851
293.13	13.250
293.50	12.941
293.87	13.067
294.24	13.757
294.60	12.354
294.97	15.344
295.34	11.214
295.71	10.644
296.08	12.958
296.44	11.097
296.81	11.937
297.18	11.250
297.55	11.675
297.91	12.298
298.28	12.349
298.65	12.438
299.02	13.309
299.38	11.902
299.75	12.019
300.12	10.000
300.48	11.696
300.85	10.970
301.22	11.731
301.59	8.803
301.95	9.756
302.32	11.785
302.69	9.718
303.05	10.853
303.42	11.705
303.79	9.884
304.15	10.296
304.52	10.753
304.89	9.302
305.25	10.428
305.62	10.846
305.99	10.664
306.35	12.121
306.72	10.987
307.09	10.636
307.45	10.543
307.82	10.000
308.19	9.613
308.55	10.133
308.92	10.413
309.29	11.011
309.65	9.491
310.02	11.133
310.38	10.874
310.75	10.750
311.12	11.273
311.48	10.188
311.85	11.122
312.22	10.735
312.58	10.338
312.95	10.249
313.31	9.826
313.68	10.592
314.05	10.491
314.41	11.239
314.78	11.385
315.14	10.463
315.51	11.798
315.87	10.658
316.24	11.019
316.61	10.959
316.97	11.944
317.34	10.873
317.70	11.329
318.07	10.914
318.43	11.563
318.80	10.995
319.16	10.698
319.53	10.663
319.89	10.117
320.26	11.091
320.62	11.492
320.99	10.950
321.35	9.542
321.72	11.453
322.08	10.517
322.45	11.286
322.81	10.444
323.18	10.644
323.54	11.191
323.91	10.930
324.27	11.071
324.64	11.150
325.00	10.149
325.37	11.433
325.73	10.522
326.10	11.102
326.46	11.288
326.83	11.812
327.19	10.244
327.56	11.765
327.92	10.700
328.29	13.272
328.65	12.095
329.01	11.346
329.38	12.087
329.74	10.472
330.11	11.091
330.47	11.458
330.84	11.282
331.20	10.845
331.56	11.594
331.93	10.594
332.29	11.468
332.66	10.678
333.02	12.945
333.38	11.053
333.75	12.116
334.11	12.587
334.48	10.898
334.84	10.247
335.20	11.149
335.57	10.618
335.93	11.168
336.29	10.858
336.66	10.342
337.02	11.652
337.38	11.140
337.75	11.197
338.11	10.931
338.47	8.990
338.84	10.997
339.20	11.817
339.56	10.324
339.93	11.668
340.29	10.931
340.65	11.035
341.02	11.148
341.38	11.064
341.74	9.664
342.11	11.230
342.47	10.293
342.83	11.275
343.20	11.506
343.56	11.365
343.92	11.454
344.28	11.282
344.65	9.878
345.01	11.057
345.37	11.266
345.73	10.866
346.10	12.360
346.46	10.650
346.82	9.952
347.19	10.522
347.55	11.712
347.91	10.990
348.27	10.726
348.63	10.978
349.00	10.849
349.36	11.068
349.72	10.596
350.08	11.154
350.45	11.355
350.81	11.502
351.17	12.471
351.53	10.448
351.89	10.802
352.26	10.502
352.62	10.543
352.98	9.665
353.34	11.111
353.70	10.514
354.07	11.059
354.43	10.420
354.79	10.417
355.15	11.491
355.51	10.175
355.87	11.806
356.24	10.754
356.60	10.164
356.96	10.898
357.32	10.217
357.68	11.688
358.04	11.327
358.40	10.853
358.77	10.092
359.13	11.362
359.49	10.674
359.85	10.538
360.21	11.025
360.57	10.342
360.93	10.774
361.29	11.103
361.66	11.617
362.02	10.304
362.38	11.374
362.74	10.442
363.10	10.774
363.46	10.303
363.82	11.604
364.18	9.355
364.54	10.722
364.90	10.035
365.26	10.191
365.62	10.440
365.98	9.893
366.35	10.071
366.71	11.056
367.07	9.426
367.43	10.453
367.79	10.771
368.15	10.900
368.51	9.986
368.87	10.886
369.23	10.391
369.59	10.994
369.95	9.652
370.31	10.739
370.67	10.355
371.03	10.245
371.39	11.143
371.75	10.357
372.11	11.182
372.47	10.454
372.83	10.957
373.19	10.647
373.55	10.405
373.91	9.830
374.27	10.028
374.63	10.526
374.99	10.376
375.35	10.616
375.71	10.054
376.07	10.144
376.42	10.294
376.78	10.898
377.14	10.644
377.50	10.169
377.86	10.691
378.22	10.936
378.58	10.467
378.94	11.188
379.30	10.244
379.66	11.282
380.02	10.110
380.38	10.542
380.74	10.879
381.09	10.314
381.45	10.399
381.81	10.290
382.17	9.956
382.53	10.769
382.89	10.012
383.25	10.123
383.61	10.109
383.97	10.188
384.32	9.767
384.68	10.179
385.04	10.202
385.40	11.208
385.76	10.706
386.12	10.200
386.48	10.972
386.83	10.451
387.19	9.685
387.55	10.423
387.91	11.009
388.27	10.481
388.62	9.551
388.98	9.449
389.34	9.712
389.70	9.890
390.06	10.438
390.42	11.018
390.77	10.634
391.13	10.985
391.49	9.614
391.85	10.479
392.20	9.774
392.56	11.365
392.92	10.532
393.28	10.459
393.64	10.092
393.99	9.792
394.35	10.679
394.71	9.872
395.07	9.497
395.42	10.725
395.78	9.717
396.14	10.336
396.50	10.209
396.85	11.281
397.21	9.613
397.57	10.311
397.92	9.760
398.28	10.603
398.64	10.200
399.00	9.989
399.35	10.102
399.71	9.843
400.07	9.157
400.42	9.781
400.78	10.151
401.14	9.749
401.49	9.766
401.85	10.258
402.21	10.836
402.57	10.362
402.92	10.951
403.28	10.069
403.63	10.043
403.99	9.917
404.35	10.349
404.70	9.607
405.06	10.511
405.42	9.548
405.77	9.447
406.13	9.714
406.49	10.066
406.84	10.012
407.20	10.243
407.55	10.649
407.91	9.795
408.27	9.794
408.62	11.172
408.98	9.309
409.34	9.901
409.69	10.006
410.05	10.448
410.40	9.556
410.76	9.747
411.11	10.634
411.47	10.949
411.83	9.794
412.18	9.320
412.54	11.216
412.89	9.279
413.25	10.383
413.60	10.533
413.96	10.050
414.31	9.803
414.67	9.968
415.03	9.675
415.38	9.313
415.74	10.331
416.09	10.178
416.45	9.228
416.80	10.000
417.16	9.649
417.51	9.980
417.87	9.987
418.22	10.278
418.58	10.250
418.93	10.044
419.29	9.571
419.64	9.860
420.00	10.286
420.35	10.341
420.71	9.689
421.06	9.717
421.42	10.706
421.77	9.653
422.12	10.086
422.48	10.360
422.83	10.159
423.19	10.638
423.54	10.247
423.90	10.273
424.25	9.359
424.61	9.612
424.96	9.166
425.31	9.871
425.67	10.347
426.02	10.306
426.38	9.391
426.73	9.469
427.09	9.443
427.44	10.335
427.79	9.798
428.15	10.642
428.50	9.184
428.85	10.517
429.21	10.467
429.56	10.521
429.92	10.411
430.27	9.663
430.62	10.388
430.98	9.995
431.33	10.210
431.68	10.596
432.04	10.366
432.39	9.469
432.74	10.239
433.10	11.098
433.45	10.118
433.80	9.943
434.16	9.776
434.51	10.435
434.86	10.542
435.22	10.243
435.57	10.627
435.92	9.469
436.28	9.790
436.63	9.700
436.98	10.693
437.34	9.585
437.69	9.445
438.04	9.960
438.39	10.149
438.75	9.833
439.10	10.411
439.45	10.169
439.81	10.406
440.16	10.377
440.51	10.404
440.86	10.136
441.22	10.614
441.57	10.358
441.92	10.264
442.27	10.227
442.63	10.118
442.98	10.127
443.33	11.117
443.68	10.121
444.03	10.184
444.39	10.461
444.74	9.994
445.09	10.518
445.44	10.648
445.79	10.274
446.15	10.538
446.50	10.683
446.85	10.102
447.20	10.403
447.55	10.073
447.91	10.562
448.26	10.749
448.61	10.127
448.96	10.194
449.31	10.908
449.66	10.931
450.02	10.460
450.37	10.576
450.72	10.046
451.07	10.909
451.42	9.919
451.77	10.773
452.12	10.517
452.47	10.717
452.83	10.731
453.18	10.312
453.53	10.782
453.88	10.964
454.23	10.692
454.58	11.152
454.93	10.071
455.28	11.111
455.63	10.231
455.98	10.347
456.34	10.490
456.69	10.799
457.04	10.712
457.39	10.463
457.74	10.114
458.09	10.486
458.44	10.693
458.79	10.434
459.14	10.337
459.49	10.244
459.84	10.598
460.19	9.724
460.54	10.462
460.89	10.586
461.24	10.543
461.59	9.903
461.94	10.240
462.29	10.172
462.64	10.224
462.99	10.798
463.34	10.843
463.69	10.825
464.04	9.724
464.39	10.799
464.74	10.319
465.09	10.601
465.44	10.831
465.79	10.523
466.14	10.547
466.49	10.557
466.84	10.640
467.19	10.127
467.54	11.082
467.89	10.371
468.24	10.756
468.59	10.516
468.94	10.089
469.29	10.377
469.64	11.367
469.99	12.207
470.34	10.722
470.68	9.963
471.03	10.649
471.38	10.848
471.73	10.562
472.08	10.722
472.43	10.488
472.78	11.224
473.13	10.422
473.48	9.785
473.83	10.546
474.17	10.352
474.52	10.744
474.87	10.314
475.22	10.507
475.57	11.433
475.92	10.687
476.27	9.848
476.61	10.589
476.96	10.109
477.31	10.464
477.66	10.339
478.01	10.275
478.36	10.790
478.70	11.010
479.05	10.988
479.40	11.284
479.75	10.255
480.10	10.964
480.45	10.250
480.79	10.951
481.14	10.385
481.49	11.001
481.84	9.991
482.19	10.283
482.53	10.810
482.88	10.642
483.23	9.865
483.58	11.720
483.92	10.263
484.27	10.659
484.62	10.386
484.97	11.282
485.31	10.881
485.66	10.656
486.01	10.865
486.36	10.892
486.70	10.681
487.05	11.369
487.40	10.536
487.75	10.680
488.09	10.479
488.44	10.480
488.79	10.863
489.13	10.815
489.48	11.159
489.83	10.808
490.17	10.213
490.52	11.127
490.87	10.292
491.22	10.787
491.56	11.260
491.91	10.898
492.26	10.542
492.60	11.015
492.95	10.447
493.30	10.804
493.64	10.552
493.99	11.401
494.34	11.031
494.68	10.788
495.03	10.721
495.37	11.144
495.72	10.927
496.07	10.278
496.41	10.482
496.76	11.015
497.11	10.610
497.45	10.798
497.80	11.762
498.14	11.184
498.49	10.842
498.84	10.678
499.18	10.801
499.53	10.734
499.87	10.432
500.22	11.299
500.56	10.983
500.91	10.915
501.26	10.887
501.60	10.833
501.95	10.494
502.29	10.922
502.64	10.897
502.98	11.031
503.33	11.241
503.67	10.808
504.02	11.324
504.36	10.748
504.71	10.925
505.06	11.360
505.40	10.619
505.75	11.597
506.09	10.782
506.44	11.341
506.78	11.275
507.13	11.227
507.47	11.400
507.82	10.884
508.16	11.135
508.51	11.054
508.85	10.575
509.19	11.164
509.54	11.099
509.88	10.054
510.23	10.579
510.57	11.388
510.92	11.261
511.26	11.166
511.61	10.757
511.95	10.364
512.30	10.328
512.64	11.464
512.98	11.247
513.33	11.155
513.67	10.392
514.02	10.889
514.36	10.562
514.70	12.182
515.05	10.532
515.39	11.026
515.74	10.835
516.08	10.796
516.42	10.829
516.77	10.545
517.11	10.288
517.46	11.164
517.80	11.622
518.14	10.227
518.49	10.850
518.83	11.396
519.17	10.301
519.52	10.736
519.86	11.050
520.20	10.916
520.55	10.945
520.89	11.006
521.23	10.962
521.58	11.125
521.92	11.314
522.26	10.865
522.61	10.989
522.95	10.946
523.29	10.159
523.64	12.333
523.98	11.563
524.32	11.027
524.66	11.623
525.01	11.664
525.35	11.652
525.69	11.199
526.04	10.423
526.38	11.409
526.72	10.848
527.06	11.283
527.41	10.390
527.75	11.348
528.09	11.572
528.43	11.262
528.78	10.401
529.12	11.384
529.46	10.940
529.80	11.197
530.15	11.068
530.49	11.119
530.83	12.187
531.17	10.753
531.51	10.452
531.86	11.247
532.20	10.958
532.54	10.828
532.88	11.096
533.22	11.785
533.57	10.795
533.91	11.419
534.25	11.849
534.59	10.489
534.93	11.671
535.27	11.401
535.62	11.118
535.96	11.581
536.30	11.769
536.64	11.688
536.98	10.582
537.32	11.886
537.66	11.495
538.01	11.026
538.35	11.326
538.69	10.769
539.03	10.940
539.37	10.731
539.71	11.528
540.05	10.594
540.39	10.805
540.73	10.824
541.07	11.769
541.42	10.842
541.76	10.758
542.10	11.239
542.44	10.949
542.78	11.797
543.12	12.062
543.46	11.057
543.80	11.405
544.14	11.631
544.48	10.484
544.82	11.836
545.16	10.683
545.50	12.289
545.84	10.449
546.18	11.150
546.52	11.503
546.86	10.530
547.20	11.437
547.54	11.723
547.88	10.796
548.22	10.228
548.56	10.340
548.90	11.164
549.24	11.944
549.58	10.890
549.92	11.665
550.26	12.103
550.60	11.261
550.94	11.119
551.28	10.825
551.62	11.654
551.96	10.835
552.30	9.607
552.64	10.734
552.98	11.435
553.32	11.464
553.66	11.445
554.00	10.727
554.34	9.963
554.68	11.037
555.02	11.153
555.36	12.027
555.69	11.143
556.03	10.293
556.37	10.740
556.71	11.282
557.05	11.144
557.39	10.852
557.73	11.195
558.07	11.454
558.41	11.128
558.75	10.701
559.08	9.944
559.42	11.408
559.76	11.544
560.10	10.607
560.44	11.864
560.78	10.288
561.12	10.722
561.45	11.701
561.79	11.967
562.13	10.549
562.47	11.143
562.81	11.328
563.15	11.119
563.48	11.149
563.82	11.628
564.16	11.848
564.50	11.737
564.84	11.486
565.17	12.053
565.51	10.896
565.85	10.060
566.19	10.861
566.52	10.288
566.86	11.062
567.20	11.057
567.54	11.054
567.88	10.806
568.21	10.809
568.55	11.163
568.89	10.319
569.23	10.862
569.56	11.890
569.90	11.081
570.24	10.614
570.57	10.986
570.91	11.618
571.25	10.764
571.59	10.854
571.92	11.558
572.26	10.930
572.60	11.026
572.93	10.684
573.27	10.963
573.61	11.546
573.95	11.158
574.28	10.647
574.62	10.615
574.96	11.442
575.29	10.908
575.63	11.170
575.97	10.951
576.30	10.655
576.64	11.187
576.98	10.898
577.31	11.300
577.65	10.934
577.98	10.987
578.32	10.666
578.66	10.886
578.99	10.915
579.33	10.945
579.67	10.998
580.00	10.932
580.34	11.125
580.67	11.244
581.01	10.588
581.35	11.104
581.68	10.998
582.02	11.405
582.35	11.191
582.69	10.879
583.02	11.031
583.36	10.978
583.70	11.137
584.03	10.892
584.37	10.710
584.70	11.158
585.04	10.857
585.37	10.984
585.71	11.240
586.04	11.103
586.38	10.681
586.72	10.733
587.05	11.280
587.39	11.214
587.72	11.223
588.06	10.889
588.39	11.111
588.73	11.071
589.06	11.251
589.40	10.630
589.73	11.103
590.07	11.301
590.40	10.754
590.73	10.859
591.07	10.990
591.40	11.565
591.74	10.671
592.07	10.817
592.41	11.497
592.74	11.265
593.08	10.838
593.41	11.336
593.75	10.853
594.08	10.915
594.41	11.042
594.75	11.132
595.08	10.941
595.42	10.809
595.75	10.954
596.09	11.393
596.42	10.784
596.75	11.716
597.09	10.874
597.42	11.620
597.75	10.889
598.09	10.929
598.42	11.275
598.76	10.789
599.09	11.685
599.42	10.725
599.76	11.040
600.09	11.709
600.42	11.111
600.76	10.791
601.09	10.960
601.42	10.819
601.76	10.811
602.09	11.066
602.42	11.267
602.76	10.906
603.09	11.129
603.42	11.236
603.76	10.951
604.09	11.146
604.42	10.716
604.76	11.087
605.09	10.965
605.42	11.516
605.75	11.049
606.09	11.382
606.42	11.097
606.75	10.260
607.09	10.771
607.42	11.208
607.75	9.628
608.08	11.542
608.42	10.497
608.75	10.368
609.08	11.220
609.41	11.724
609.75	10.893
610.08	11.391
610.41	11.273
610.74	11.357
611.07	10.772
611.41	11.464
611.74	11.698
612.07	10.891
612.40	11.730
612.73	10.648
613.07	11.031
613.40	11.289
613.73	11.701
614.06	10.337
614.39	10.117
614.72	11.938
615.06	11.056
615.39	10.817
615.72	10.691
616.05	10.304
616.38	10.882
616.71	10.438
617.05	11.425
617.38	10.967
617.71	10.539
618.04	10.847
618.37	10.032
618.70	11.384
619.03	10.515
619.36	10.605
619.69	9.795
620.03	11.307
620.36	11.552
620.69	10.278
621.02	10.231
621.35	10.630
621.68	10.839
622.01	11.408
622.34	11.023
622.67	11.981
623.00	12.006
623.33	10.546
623.66	9.740
623.99	11.178
624.32	11.299
624.65	11.573
624.99	11.168
625.32	11.128
625.65	10.543
625.98	10.506
626.31	10.286
626.64	10.060
626.97	11.246
627.30	11.634
627.63	11.159
627.96	10.390
628.29	11.070
628.62	11.412
628.95	10.020
629.28	10.739
629.61	11.866
629.94	9.961
630.26	12.217
630.59	10.589
630.92	11.145
631.25	9.063
631.58	12.206
631.91	10.498
632.24	8.452
632.57	12.111
632.90	10.968
633.23	9.832
633.56	10.911
633.89	11.483
634.22	10.365
634.55	9.744
634.88	10.539
635.20	11.000
635.53	10.594
635.86	9.103
636.19	10.670
636.52	11.098
636.85	9.650
637.18	9.622
637.51	11.486
637.83	12.533
638.16	10.267
638.49	8.945
638.82	10.327
639.15	9.973
639.48	10.428
639.81	11.806
640.13	11.690
640.46	11.582
640.79	10.935
641.12	10.355
641.45	9.607
641.77	11.046
642.10	10.741
642.43	11.478
642.76	10.095
643.09	9.744
643.41	11.483
643.74	10.824
644.07	9.061
644.40	10.116
644.73	9.661
645.05	8.202
645.38	11.296
645.71	10.544
646.04	9.259
646.36	10.243
646.69	9.790
647.02	8.743
647.35	11.700
647.67	8.872
648.00	9.783
648.33	10.339
648.66	9.850
648.98	9.938
649.31	8.436
649.64	8.607
649.96	10.900
650.29	9.967
650.62	8.731
650.94	9.655
651.27	9.717
651.60	12.238
651.92	7.885
652.25	10.218
652.58	10.726
652.90	10.774
653.23	11.205
653.56	9.752
653.88	9.556
654.21	9.898
654.54	9.468
654.86	9.268
655.19	10.224
655.52	13.282
655.84	11.993
656.17	14.229
656.49	18.693
656.82	18.094
657.15	13.279
657.47	9.732
657.80	7.213
658.13	7.213
658.45	10.757
658.78	10.494
659.10	9.983
659.43	9.594
659.75	10.807
660.08	9.793
660.41	8.316
660.73	10.468
661.06	10.884
661.38	7.946
661.71	10.451
662.03	9.937
662.36	8.850
662.68	11.183
663.01	12.288
663.33	10.583
663.66	9.978
663.98	10.112
664.31	10.769
664.63	7.883
664.96	11.816
665.28	10.730
665.61	8.855
665.93	7.923
666.26	12.658
666.58	8.351
666.91	12.108
667.23	10.138
667.56	11.954
667.88	5.607
668.21	10.938
668.53	10.115
668.86	9.832
669.18	6.856
669.50	9.908
669.83	8.831
670.15	8.810
670.48	7.586
670.80	14.004
671.13	8.467
671.45	12.100
671.77	9.914
672.10	9.552
672.42	9.351
672.75	9.464
673.07	9.273
673.39	9.515
673.72	10.778
674.04	9.631
674.37	11.992
674.69	6.790
675.01	8.120
675.34	10.066
675.66	11.329
675.98	8.407
676.31	9.050
676.63	10.431
676.95	11.294
677.28	9.174
677.60	9.559
677.92	10.643
678.25	9.111
678.57	14.868
678.89	7.249
679.22	9.317
679.54	10.204
679.86	9.961
680.18	10.385
680.51	8.077
680.83	6.433
681.15	9.234
681.48	10.020
681.80	9.202
682.12	9.792
682.44	7.445
682.77	8.842
683.09	7.143
683.41	6.744
683.73	9.821
684.06	9.071
684.38	8.333
684.70	6.925
685.02	11.570
685.34	12.133
685.67	10.131
685.99	9.786
686.31	9.655
686.63	11.029
686.96	10.575
687.28	7.385
687.60	11.342
687.92	12.646
688.24	9.200
688.56	11.404
688.89	8.241
689.21	8.969
689.53	5.180
689.85	8.764
690.17	9.890
690.49	11.111
690.82	9.069
691.14	9.903
691.46	9.745
691.78	10.989
692.10	8.068
692.42	7.473
692.74	12.609
693.06	6.966
693.39	7.728
693.71	10.444
694.03	10.682
694.35	10.135
694.67	13.250
694.99	8.505
695.31	10.853
695.63	11.463
695.95	9.415
696.27	6.301
696.59	6.452
696.91	6.145
697.23	6.599
697.56	10.552
697.88	12.474
698.20	10.799
698.52	8.411
698.84	7.416
699.16	9.693
699.48	10.370
699.80	12.403
700.12	8.579
700.44	6.761
700.76	8.989
701.08	8.157
701.40	8.683
701.72	7.077
702.04	7.233
702.36	6.098
702.68	3.963
703.00	9.357
703.32	9.471
703.64	9.639
703.96	12.317
704.28	11.747
704.60	7.317
704.91	3.448
705.23	8.544
705.55	6.897
705.87	13.028
706.19	3.663
706.51	7.746
706.83	7.962
707.15	10.061
707.47	11.846
707.79	8.629
708.11	10.026
708.43	10.152
708.74	11.170
709.06	9.358
709.38	8.646
709.70	9.309
710.02	9.346
710.34	8.333
710.66	5.537
710.98	8.359
711.29	9.091
711.61	7.419
711.93	7.742
712.25	6.294
712.57	4.211
712.89	5.495
713.20	9.929
713.52	5.474
713.84	11.935
714.16	7.443
714.48	6.013
714.80	4.473
715.11	11.919
715.43	6.211
715.75	13.043
716.07	8.735
716.39	8.081
716.70	9.353
717.02	5.490
717.34	11.364
717.66	3.448
717.97	9.921
718.29	9.449
718.61	6.867
718.93	6.589
719.24	8.487
719.56	4.120
719.88	7.463
720.20	5.138
720.51	8.203
720.83	9.728
721.15	2.439
721.46	5.725
721.78	8.765
722.10	5.578
722.42	3.629
722.73	11.969
723.05	9.796
723.37	9.244
723.68	7.200
724.00	4.255
724.32	9.623
724.63	9.877
724.95	2.564
725.27	13.080
725.58	7.407
725.90	4.184
726.22	5.072
726.53	3.922
726.85	10.949
727.16	10.000
727.48	8.429
727.80	8.203
728.11	5.738
728.43	8.984
728.74	7.143
729.06	5.600
729.38	11.067
729.69	13.879
730.01	5.204
730.32	14.022
730.64	7.197
730.96	11.538
731.27	7.692
731.59	6.349
731.90	6.149
732.22	8.654
732.53	5.068
732.85	8.389
733.16	8.581
733.48	7.095
733.80	6.081
734.11	13.514
734.43	10.217
734.74	12.613
735.06	10.375
735.37	11.246
735.69	10.032
736.00	8.581
736.32	6.383
736.63	8.966
736.95	6.164
737.26	7.931
737.58	6.597
737.89	10.309
738.21	6.762
738.52	9.886
738.83	7.755
739.15	7.595
739.46	5.447
739.78	7.746
740.09	9.247
740.41	3.571
740.72	7.447
741.04	12.400
741.35	1.754
741.66	9.778
741.98	13.942
742.29	8.416
742.61	6.341
742.92	14.035
743.23	3.774
743.55	8.559
743.86	10.762
744.18	9.804
744.49	4.061
744.80	5.612
745.12	6.542
745.43	8.057
745.74	10.360
746.06	9.346
746.37	4.587
746.68	9.135
747.00	9.091
747.31	7.692
747.62	4.587
747.94	8.297
748.25	9.174
748.56	11.111
748.88	10.798
749.19	10.952
749.50	5.340
749.82	6.573
750.13	4.167
750.44	4.231
750.75	5.535
751.07	8.897
751.38	9.220
751.69	8.880
752.01	5.859
752.32	7.692
752.63	12.313
752.94	8.800
753.26	9.205
753.57	7.500
753.88	7.692
754.19	6.773
754.51	9.398
754.82	6.960
755.13	2.174
755.44	5.285
755.75	6.800
756.07	8.856
756.38	10.072
756.69	7.167
757.00	8.100
757.31	7.767
757.63	6.481
757.94	8.757
758.25	8.201
758.56	7.609
758.87	10.714
759.18	9.779
759.50	8.081
759.81	5.017
760.12	9.538
760.43	5.060
760.74	6.497
761.05	8.564
761.36	6.017
761.67	9.063
761.99	5.842
762.30	5.839
762.61	10.700
762.92	8.120
763.23	9.836
763.54	9.524
763.85	4.898
764.16	5.691
764.47	7.600
764.78	8.571
765.10	7.541
765.41	10.334
765.72	8.385
766.03	8.911
766.34	6.154
766.65	7.531
766.96	4.225
767.27	12.871
767.58	-4.494
767.89	6.790
768.20	6.630
768.51	13.065
768.82	10.577
769.13	8.407
769.44	10.460
769.75	5.983
770.06	9.417
770.37	2.451
770.68	9.709
770.99	7.767
771.30	5.462
771.61	7.755
771.92	7.054
772.23	7.207
772.54	5.525
772.85	2.907
773.16	7.407
773.47	1.183
773.78	13.793
774.09	0.625
774.39	7.453
774.70	4.082
775.01	2.069
775.32	12.857
775.63	6.015
775.94	-1.504
776.25	-0.800
776.56	3.306
776.87	12.698
777.18	7.207
777.48	7.207
777.79	7.874
778.10	7.339
778.41	-4.386
778.72	0.000
779.03	0.704
779.34	14.189
779.65	1.408
779.95	2.649
780.26	9.353
780.57	10.791
780.88	3.521
781.19	-4.202
781.50	8.054
781.80	7.602
782.11	6.395
782.42	13.208
782.73	15.686
783.04	11.034
783.34	-1.527
783.65	4.027
783.96	3.077
784.27	7.143
784.57	3.546
784.88	-10.577
785.19	12.727
785.50	5.455
785.81	-3.810
786.11	-0.840
786.42	0.885
786.73	-2.830
787.04	-10.092
787.34	-11.881
787.65	7.500
787.96	7.438
788.26	3.623
788.57	5.556
788.88	8.943
789.19	8.800
789.49	-0.763
789.80	11.364
790.11	-0.943
790.41	8.911
790.72	2.128
791.03	8.696
791.33	-4.706
791.64	-7.407
791.95	17.391
792.25	4.545
792.56	10.256
792.87	5.128
793.17	-5.128
793.48	0.000
793.79	-2.500
794.09	13.462
794.40	-6.250
794.70	7.207
795.01	6.250
795.32	5.217
795.62	-9.783
795.93	-3.774
796.23	0.000
796.54	2.439
796.85	-3.571
797.15	-1.515
797.46	-13.043
797.76	-2.632
798.07	6.818
798.37	-6.098
798.68	-4.839
798.99	1.351
799.29	8.434
799.60	-1.282
799.90	7.692
800.21	6.061
800.51	-6.667
800.82	13.333
801.12	-25.000
801.43	-26.667
801.73	-5.405
802.04	-2.857
802.34	-18.033
802.65	0.000
802.95	-5.455
803.26	-1.724
803.56	-10.769
803.87	-3.774
804.17	11.290
804.48	0.000
804.78	-14.634
805.09	7.246
805.39	7.353
805.70	-34.043
806.00	-12.281
806.30	17.949
806.61	1.316
806.91	0.000
807.22	-2.632
807.52	6.818
807.83	-22.034
808.13	-28.788
808.43	-11.667
808.74	-31.034
809.04	-4.762
809.35	-32.653
809.65	-11.667
809.95	-24.490
810.26	15.493
810.56	-12.500
810.86	-20.408
811.17	9.615
811.47	-14.894
811.77	-29.167
812.08	-5.660
812.38	-43.750
812.69	-3.636
812.99	-4.878
813.29	-32.432
813.59	-40.541
813.90	1.818
814.20	-18.182
814.50	-18.333
814.81	0.000
815.11	-3.509
815.41	-11.628
815.72	-20.000
816.02	-31.429
816.32	-45.946
816.62	8.333
816.93	-11.111
817.23	-13.333
817.53	-47.222
817.84	-29.730
818.14	-12.195
818.44	0.000
818.74	-6.122
819.04	-12.195
819.35	-16.667
819.65	-4.545
819.95	-72.222
820.25	-42.424
820.56	-23.810
820.86	-30.556
821.16	-40.909
821.46	-19.565
821.76	-10.345
822.07	-2.174
822.37	6.061
822.67	17.073
822.97	-8.108
823.27	-45.714
823.57	3.448
823.88	-44.118
824.18	-13.889
824.48	-11.429
824.78	-33.333
825.08	-7.143
825.38	-29.630
825.69	-29.032
825.99	-2.439
826.29	-3.704
826.59	-6.250
826.89	-38.710
827.19	-39.130
827.49	-19.444
827.79	-47.826
828.09	-38.710
828.39	6.250
828.70	-18.750
829.00	-20.690
829.30	10.811
829.60	-62.500
829.90	-3.704
830.20	-15.625
830.50	-50.000
830.80	-182.353
831.10	-90.909
831.40	-32.353
831.70	-50.000
832.00	-21.212
832.30	-2.941
832.60	-13.514
832.90	1200.000
833.20	-7.143
833.50	-80.000
833.80	-2.632
834.10	-75.000
834.40	-54.545
834.70	-100.000
835.00	-100.000
835.30	-66.667
835.60	-28.571
835.90	9.524
836.20	-24.000
836.50	-54.167
836.80	-131.579
837.10	2.703
837.40	20.000
837.70	-47.826
838.00	4.167
838.30	-31.579
838.60	-150.000
838.90	-160.000
839.19	-100.000
839.49	-7.692
839.79	-57.895
840.09	-283.333
840.39	-130.000
840.69	-40.909
840.99	-9.524
841.29	-45.833
841.59	-115.385
841.88	-133.333
842.18	-71.429
842.48	16.667
842.78	-271.429
843.08	-135.714
843.38	-175.000
843.68	-43.750
843.97	28.571
844.27	-211.111
844.57	-90.909
844.87	-73.333
845.17	9.091
845.47	833.333
845.76	-93.333
846.06	-166.667
846.36	-1050.000
846.66	-52.632
846.96	-50.000
847.25	-116.667
847.55	-177.778
847.85	-61.905
848.15	-46.154
848.44	-366.667
848.74	-150.000
849.04	-146.154
849.34	-425.000
849.63	-54.545
849.93	-128.571
850.23	55.000
850.53	-212.500
850.82	-61.111
851.12	-53.333
851.42	-129.412
851.71	-75.000
852.01	-58.824
852.31	-92.308
852.61	450.000
852.90	-17.647
853.20	-6.667
853.50	-50.000
853.79	-114.286
854.09	-300.000
854.39	-65.000
854.68	-10.000
854.98	-52.381
855.28	-32.000
855.57	-37.500
855.87	-12.500
856.17	-56.000
856.46	-25.000
856.76	-50.000
857.05	8.000
857.35	-150.000
857.65	-35.294
857.94	-108.333
858.24	-150.000
858.53	30.000
858.83	-136.364
859.13	-4.000
859.42	-100.000
859.72	-125.000
860.01	-8.333
860.31	-237.500
860.60	0.000
860.90	-166.667
861.20	-83.333
861.49	-20.000
861.79	-93.750
862.08	550.000
862.38	-183.333
862.67	371.429
862.97	475.000
863.26	-109.091
863.56	-63.636
863.85	-21.053
864.15	11.765
864.44	-260.000
864.74	-130.000
865.03	-155.556
865.33	-57.143
865.62	214.286
865.92	-42.105
866.21	-77.778
866.51	-36.364
866.80	-133.333
867.10	-137.500
867.39	-43.750
867.69	-113.333
867.98	-170.000
868.27	11.765
868.57	0.000
868.86	850.000
869.16	-325.000
869.45	-242.857
869.75	-50.000
870.04	20.000
870.33	-1500.000
870.63	-21.053
870.92	-166.667
871.22	-1400.000
871.51	-114.286
871.80	-200.000
872.10	-350.000
>>>>>End Processed Spectral Data<<<<<
