SpectraSuite Data File
++++++++++++++++++++++++++++++++++++
Date: Wed May 13 21:29:07 PDT 2015
User: schluterlab
Dark Spectrum Present: Yes
Reference Spectrum Present: Yes
Number of Sampled Component Spectra: 1
Spectrometers: USB2E3373
Integration Time (usec): 3000 (USB2E3373)
Spectra Averaged: 3 (USB2E3373)
Boxcar Smoothing: 0 (USB2E3373)
Correct for Electrical Dark: No (USB2E3373)
Strobe/Lamp Enabled: No (USB2E3373)
Correct for Detector Non-linearity: No (USB2E3373)
Correct for Stray Light: No (USB2E3373)
Number of Pixels in Processed Spectrum: 2048
>>>>>Begin Processed Spectral Data<<<<<
178.53	0.000
178.91	250.000
179.29	175.000
179.67	-700.000
180.04	-266.667
180.42	140.000
180.80	800.000
181.18	233.333
181.56	-400.000
181.94	-200.000
182.31	0.000
182.69	153.846
183.07	-120.000
183.45	383.333
183.83	177.778
184.20	185.714
184.58	-233.333
184.96	700.000
185.34	200.000
185.72	0.000
186.09	-1100.000
186.47	-180.000
186.85	180.000
187.23	-400.000
187.61	450.000
187.98	1300.000
188.36	-125.000
188.74	0.000
189.12	-54.545
189.49	-10.000
189.87	116.667
190.25	320.000
190.63	1300.000
191.00	-120.000
191.38	420.000
191.76	675.000
192.14	166.667
192.51	5.263
192.89	666.667
193.27	200.000
193.65	-220.000
194.02	145.455
194.40	180.000
194.78	-1100.000
195.15	320.000
195.53	-160.000
195.91	-50.000
196.29	-100.000
196.66	0.000
197.04	550.000
197.42	-40.000
197.79	20.000
198.17	-150.000
198.55	-233.333
198.92	375.000
199.30	-133.333
199.68	-60.000
200.05	-100.000
200.43	216.667
200.81	-1300.000
201.18	-140.000
201.56	-233.333
201.94	625.000
202.31	-8.696
202.69	-142.857
203.07	-633.333
203.44	-200.000
203.82	-300.000
204.19	-30.000
204.57	0.000
204.95	-200.000
205.32	0.000
205.70	-200.000
206.08	-125.000
206.45	-350.000
206.83	375.000
207.20	-500.000
207.58	-110.000
207.96	-1400.000
208.33	-71.429
208.71	-1100.000
209.08	262.500
209.46	525.000
209.84	0.000
210.21	180.000
210.59	2100.000
210.96	360.000
211.34	1700.000
211.71	-700.000
212.09	-200.000
212.46	-90.000
212.84	-433.333
213.22	-50.000
213.59	-1100.000
213.97	-200.000
214.34	-250.000
214.72	-7.692
215.09	62.500
215.47	133.333
215.84	350.000
216.22	-75.000
216.59	-300.000
216.97	566.667
217.34	211.111
217.72	0.000
218.09	466.667
218.47	-700.000
218.84	-242.857
219.22	-175.000
219.59	-366.667
219.97	-200.000
220.34	-87.500
220.72	-160.000
221.09	0.000
221.47	-133.333
221.84	-1100.000
222.22	0.000
222.59	600.000
222.97	-266.667
223.34	-58.333
223.72	-1100.000
224.09	-850.000
224.46	-100.000
224.84	-100.000
225.21	-114.286
225.59	-550.000
225.96	-50.000
226.34	-50.000
226.71	-71.429
227.08	500.000
227.46	-62.500
227.83	-600.000
228.21	-81.250
228.58	-225.000
228.95	-41.176
229.33	12.500
229.70	25.000
230.08	-69.231
230.45	-75.000
230.82	-33.333
231.20	257.143
231.57	-200.000
231.95	2200.000
232.32	-33.333
232.69	-29.412
233.07	-1200.000
233.44	13.043
233.81	-700.000
234.19	4.167
234.56	-73.333
234.93	-33.333
235.31	-10.526
235.68	-38.462
236.05	-46.154
236.43	-16.667
236.80	-33.333
237.17	-93.333
237.55	-47.059
237.92	-27.586
238.29	-40.741
238.67	0.000
239.04	-12.903
239.41	-12.766
239.79	10.638
240.16	-6.977
240.53	-8.929
240.91	10.714
241.28	-1.786
241.65	6.452
242.02	5.263
242.40	10.145
242.77	1.449
243.14	0.000
243.51	-3.191
243.89	9.615
244.26	15.094
244.63	0.000
245.00	8.333
245.38	10.084
245.75	10.656
246.12	13.534
246.49	4.878
246.87	-4.202
247.24	14.865
247.61	11.921
247.98	9.615
248.36	3.550
248.73	12.921
249.10	6.061
249.47	9.140
249.84	12.632
250.22	8.955
250.59	12.150
250.96	15.455
251.33	4.785
251.70	14.644
252.08	13.389
252.45	13.992
252.82	12.548
253.19	13.619
253.56	12.590
253.94	15.658
254.31	10.563
254.68	10.067
255.05	16.502
255.42	13.287
255.79	14.724
256.16	15.142
256.54	12.381
256.91	12.975
257.28	15.409
257.65	12.739
258.02	12.903
258.39	14.035
258.76	10.756
259.14	12.784
259.51	12.640
259.88	15.176
260.25	15.278
260.62	14.607
260.99	14.058
261.36	13.212
261.73	13.333
262.10	12.977
262.47	13.580
262.85	11.692
263.22	13.846
263.59	11.948
263.96	13.382
264.33	12.981
264.70	13.721
265.07	15.278
265.44	14.253
265.81	14.188
266.18	12.756
266.55	12.882
266.92	15.466
267.29	13.169
267.66	14.862
268.03	16.255
268.40	12.076
268.77	14.463
269.14	14.490
269.51	15.811
269.88	14.460
270.25	15.466
270.62	14.344
270.99	15.157
271.36	14.881
271.73	14.257
272.10	15.619
272.47	14.587
272.84	14.961
273.21	13.503
273.58	14.754
273.95	13.962
274.32	14.366
274.69	14.390
275.06	16.431
275.43	14.878
275.80	13.121
276.17	14.733
276.54	13.854
276.91	15.331
277.28	12.816
277.65	17.133
278.02	16.607
278.39	13.677
278.76	13.545
279.13	15.437
279.50	12.414
279.87	15.217
280.23	11.892
280.60	13.841
280.97	14.286
281.34	13.722
281.71	12.683
282.08	14.017
282.45	14.590
282.82	13.898
283.19	14.329
283.56	14.375
283.92	15.138
284.29	13.261
284.66	13.344
285.03	12.215
285.40	14.502
285.77	13.063
286.14	14.590
286.51	14.993
286.87	12.615
287.24	13.274
287.61	14.458
287.98	13.382
288.35	11.923
288.72	15.495
289.08	15.100
289.45	12.628
289.82	14.523
290.19	13.184
290.56	13.210
290.93	13.398
291.29	13.406
291.66	12.978
292.03	15.123
292.40	13.728
292.77	12.316
293.13	12.831
293.50	13.333
293.87	13.333
294.24	13.492
294.60	13.004
294.97	13.757
295.34	11.082
295.71	9.724
296.08	10.209
296.44	12.372
296.81	12.302
297.18	12.625
297.55	12.854
297.91	11.801
298.28	12.954
298.65	12.069
299.02	12.332
299.38	10.307
299.75	10.817
300.12	11.395
300.48	11.345
300.85	11.778
301.22	10.685
301.59	11.620
301.95	10.685
302.32	9.568
302.69	9.944
303.05	11.406
303.42	11.364
303.79	12.093
304.15	11.610
304.52	13.333
304.89	10.078
305.25	10.757
305.62	11.063
305.99	11.861
306.35	12.435
306.72	11.597
307.09	12.513
307.45	12.247
307.82	10.211
308.19	10.136
308.55	11.157
308.92	12.967
309.29	11.211
309.65	10.989
310.02	11.928
310.38	11.484
310.75	11.538
311.12	11.662
311.48	11.672
311.85	11.909
312.22	12.476
312.58	11.594
312.95	11.443
313.31	12.397
313.68	12.214
314.05	13.138
314.41	12.392
314.78	13.283
315.14	14.074
315.51	13.321
315.87	14.365
316.24	14.050
316.61	14.703
316.97	13.148
317.34	14.260
317.70	15.076
318.07	16.060
318.43	16.441
318.80	15.183
319.16	14.766
319.53	14.875
319.89	14.544
320.26	15.527
320.62	17.424
320.99	16.570
321.35	16.464
321.72	16.169
322.08	19.096
322.45	18.224
322.81	19.409
323.18	19.767
323.54	18.953
323.91	20.235
324.27	19.532
324.64	20.296
325.00	19.948
325.37	21.075
325.73	20.118
326.10	20.690
326.46	22.659
326.83	21.359
327.19	22.358
327.56	23.691
327.92	24.537
328.29	24.457
328.65	24.628
329.01	24.099
329.38	25.826
329.74	25.064
330.11	25.699
330.47	25.868
330.84	25.632
331.20	24.594
331.56	26.087
331.93	27.304
332.29	28.236
332.66	25.932
333.02	27.628
333.38	27.193
333.75	26.024
334.11	28.385
334.48	27.114
334.84	26.678
335.20	27.530
335.57	27.676
335.93	27.320
336.29	27.758
336.66	28.632
337.02	27.652
337.38	27.328
337.75	27.649
338.11	27.071
338.47	26.969
338.84	26.890
339.20	27.778
339.56	28.242
339.93	27.917
340.29	27.754
340.65	26.518
341.02	28.286
341.38	28.041
341.74	27.395
342.11	27.663
342.47	27.866
342.83	27.533
343.20	27.496
343.56	28.209
343.92	27.620
344.28	27.435
344.65	27.510
345.01	27.684
345.37	28.536
345.73	29.085
346.10	28.250
346.46	27.398
346.82	26.966
347.19	26.582
347.55	27.383
347.91	27.514
348.27	27.445
348.63	27.003
349.00	27.830
349.36	27.551
349.72	26.837
350.08	26.911
350.45	28.034
350.81	28.482
351.17	28.253
351.53	27.416
351.89	26.608
352.26	27.181
352.62	27.597
352.98	26.757
353.34	27.053
353.70	27.570
354.07	28.078
354.43	26.361
354.79	28.526
355.15	27.174
355.51	27.031
355.87	27.991
356.24	27.207
356.60	27.365
356.96	27.475
357.32	26.858
357.68	27.502
358.04	27.463
358.40	27.907
358.77	27.905
359.13	28.171
359.49	26.419
359.85	26.459
360.21	27.833
360.57	27.529
360.93	27.011
361.29	27.831
361.66	26.576
362.02	26.316
362.38	25.997
362.74	26.323
363.10	25.597
363.46	27.017
363.82	26.755
364.18	26.033
364.54	26.477
364.90	25.714
365.26	26.752
365.62	26.491
365.98	26.762
366.35	26.241
366.71	26.106
367.07	26.081
367.43	26.551
367.79	26.407
368.15	27.567
368.51	26.231
368.87	27.076
369.23	26.619
369.59	26.568
369.95	26.633
370.31	25.732
370.67	26.937
371.03	26.652
371.39	26.047
371.75	26.643
372.11	27.422
372.47	27.830
372.83	26.491
373.19	25.108
373.55	26.084
373.91	26.096
374.27	25.450
374.63	26.102
374.99	26.114
375.35	26.644
375.71	26.223
376.07	26.182
376.42	25.067
376.78	26.156
377.14	26.915
377.50	26.858
377.86	26.760
378.22	25.980
378.58	25.221
378.94	25.938
379.30	27.108
379.66	26.757
380.02	25.735
380.38	25.904
380.74	26.360
381.09	25.633
381.45	25.937
381.81	26.494
382.17	26.276
382.53	25.969
382.89	27.262
383.25	26.605
383.61	27.119
383.97	26.375
384.32	26.402
384.68	26.280
385.04	25.840
385.40	26.961
385.76	26.582
386.12	26.791
386.48	26.395
386.83	26.345
387.19	25.293
387.55	26.487
387.91	26.261
388.27	26.202
388.62	25.968
388.98	25.469
389.34	25.063
389.70	26.007
390.06	25.812
390.42	25.322
390.77	25.625
391.13	26.515
391.49	25.047
391.85	25.240
392.20	26.003
392.56	26.032
392.92	25.746
393.28	25.625
393.64	26.422
393.99	24.725
394.35	25.062
394.71	25.513
395.07	23.459
395.42	26.935
395.78	26.126
396.14	25.745
396.50	25.682
396.85	25.940
397.21	26.217
397.57	25.342
397.92	24.731
398.28	25.945
398.64	25.683
399.00	25.614
399.35	25.709
399.71	25.044
400.07	25.783
400.42	25.517
400.78	25.378
401.14	24.525
401.49	25.644
401.85	24.939
402.21	25.573
402.57	25.874
402.92	26.345
403.28	24.891
403.63	25.232
403.99	25.400
404.35	25.062
404.70	24.894
405.06	25.015
405.42	24.246
405.77	24.194
406.13	25.200
406.49	25.045
406.84	24.603
407.20	24.630
407.55	25.195
407.91	24.818
408.27	24.454
408.62	25.783
408.98	24.106
409.34	23.948
409.69	24.821
410.05	24.565
410.40	23.920
410.76	24.248
411.11	24.876
411.47	24.552
411.83	24.080
412.18	24.685
412.54	25.752
412.89	24.263
413.25	24.307
413.60	24.514
413.96	23.845
414.31	24.661
414.67	24.317
415.03	24.493
415.38	23.712
415.74	24.301
416.09	25.446
416.45	25.632
416.80	24.698
417.16	24.359
417.51	24.916
417.87	23.810
418.22	24.305
418.58	23.850
418.93	24.294
419.29	24.686
419.64	23.855
420.00	24.698
420.35	24.029
420.71	24.254
421.06	24.846
421.42	24.148
421.77	24.104
422.12	24.470
422.48	23.610
422.83	24.040
423.19	23.749
423.54	24.146
423.90	24.703
424.25	24.841
424.61	24.892
424.96	23.773
425.31	24.341
425.67	24.868
426.02	24.264
426.38	24.813
426.73	23.213
427.09	23.952
427.44	24.662
427.79	24.169
428.15	23.853
428.50	24.350
428.85	25.031
429.21	23.410
429.56	24.442
429.92	23.373
430.27	22.699
430.62	23.820
430.98	24.114
431.33	24.181
431.68	25.399
432.04	24.789
432.39	24.307
432.74	23.666
433.10	25.218
433.45	24.556
433.80	24.368
434.16	23.812
434.51	23.967
434.86	25.147
435.22	24.901
435.57	24.447
435.92	24.306
436.28	23.664
436.63	24.827
436.98	24.559
437.34	25.153
437.69	23.554
438.04	24.222
438.39	25.093
438.75	24.195
439.10	24.928
439.45	23.729
439.81	25.000
440.16	25.043
440.51	25.505
440.86	24.481
441.22	25.014
441.57	25.380
441.92	24.987
442.27	24.513
442.63	24.865
442.98	24.595
443.33	24.944
443.68	24.407
444.03	25.683
444.39	25.384
444.74	25.456
445.09	24.449
445.44	25.690
445.79	24.987
446.15	25.568
446.50	25.661
446.85	26.029
447.20	25.719
447.55	25.406
447.91	25.112
448.26	25.500
448.61	26.237
448.96	25.854
449.31	26.099
449.66	25.737
450.02	25.924
450.37	25.911
450.72	25.316
451.07	25.768
451.42	24.766
451.77	26.476
452.12	27.094
452.47	26.081
452.83	25.531
453.18	26.544
453.53	26.230
453.88	26.747
454.23	26.576
454.58	26.532
454.93	26.106
455.28	26.076
455.63	25.639
455.98	25.867
456.34	25.811
456.69	25.879
457.04	26.254
457.39	26.037
457.74	26.511
458.09	26.600
458.44	26.675
458.79	25.261
459.14	24.607
459.49	26.768
459.84	25.310
460.19	25.630
460.54	26.277
460.89	25.957
461.24	26.141
461.59	26.449
461.94	25.790
462.29	26.164
462.64	25.858
462.99	26.895
463.34	25.691
463.69	26.804
464.04	25.330
464.39	25.747
464.74	25.860
465.09	25.914
465.44	25.814
465.79	26.567
466.14	26.112
466.49	26.979
466.84	26.539
467.19	26.943
467.54	26.636
467.89	27.027
468.24	26.368
468.59	26.832
468.94	26.054
469.29	25.975
469.64	26.011
469.99	27.241
470.34	27.310
470.68	26.691
471.03	26.939
471.38	27.191
471.73	26.406
472.08	27.079
472.43	26.979
472.78	26.504
473.13	26.187
473.48	26.419
473.83	26.365
474.17	26.172
474.52	26.990
474.87	25.694
475.22	27.295
475.57	26.771
475.92	26.336
476.27	26.399
476.61	25.764
476.96	26.271
477.31	26.699
477.66	27.062
478.01	26.648
478.36	26.104
478.70	27.712
479.05	27.192
479.40	26.677
479.75	26.461
480.10	26.160
480.45	25.993
480.79	26.630
481.14	26.596
481.49	25.851
481.84	26.437
482.19	26.031
482.53	26.762
482.88	26.079
483.23	26.035
483.58	26.560
483.92	26.508
484.27	25.984
484.62	25.300
484.97	26.586
485.31	25.116
485.66	23.725
486.01	23.365
486.36	23.050
486.70	23.759
487.05	25.333
487.40	25.302
487.75	25.983
488.09	26.150
488.44	26.463
488.79	27.176
489.13	26.600
489.48	26.422
489.83	26.932
490.17	26.192
490.52	27.583
490.87	25.962
491.22	26.849
491.56	26.497
491.91	26.740
492.26	26.692
492.60	26.070
492.95	26.919
493.30	26.405
493.64	25.995
493.99	26.667
494.34	27.360
494.68	26.921
495.03	26.383
495.37	27.105
495.72	27.068
496.07	26.985
496.41	26.439
496.76	26.874
497.11	26.620
497.45	27.189
497.80	27.713
498.14	26.851
498.49	26.475
498.84	26.822
499.18	26.779
499.53	26.145
499.87	26.152
500.22	26.481
500.56	26.881
500.91	26.911
501.26	27.241
501.60	27.059
501.95	26.066
502.29	26.505
502.64	26.808
502.98	26.927
503.33	26.764
503.67	25.706
504.02	26.176
504.36	26.647
504.71	27.033
505.06	26.643
505.40	26.804
505.75	27.060
506.09	27.184
506.44	26.260
506.78	26.511
507.13	27.339
507.47	26.776
507.82	26.426
508.16	27.230
508.51	26.756
508.85	26.698
509.19	26.085
509.54	28.150
509.88	26.613
510.23	26.368
510.57	27.225
510.92	26.940
511.26	28.548
511.61	26.400
511.95	26.736
512.30	27.374
512.64	27.696
512.98	26.593
513.33	27.268
513.67	27.371
514.02	27.708
514.36	27.528
514.70	27.425
515.05	27.911
515.39	28.361
515.74	28.360
516.08	27.434
516.42	26.613
516.77	27.065
517.11	26.867
517.46	28.752
517.80	28.329
518.14	27.740
518.49	28.210
518.83	27.506
519.17	27.470
519.52	27.563
519.86	27.262
520.20	27.289
520.55	28.047
520.89	27.388
521.23	28.590
521.58	28.635
521.92	28.221
522.26	28.953
522.61	26.955
522.95	28.238
523.29	27.492
523.64	27.400
523.98	28.463
524.32	28.292
524.66	28.117
525.01	27.982
525.35	28.308
525.69	27.568
526.04	28.860
526.38	28.362
526.72	27.942
527.06	27.789
527.41	27.929
527.75	27.570
528.09	28.999
528.43	28.765
528.78	28.359
529.12	28.719
529.46	27.383
529.80	28.350
530.15	27.156
530.49	27.561
530.83	27.420
531.17	27.603
531.51	27.714
531.86	28.184
532.20	28.601
532.54	27.517
532.88	28.182
533.22	27.542
533.57	27.219
533.91	27.226
534.25	28.255
534.59	26.963
534.93	27.168
535.27	27.261
535.62	26.316
535.96	28.042
536.30	28.856
536.64	26.999
536.98	27.961
537.32	27.758
537.66	28.491
538.01	27.670
538.35	26.105
538.69	26.823
539.03	26.980
539.37	25.687
539.71	27.217
540.05	26.653
540.39	26.841
540.73	26.536
541.07	27.075
541.42	28.215
541.76	26.725
542.10	26.202
542.44	26.542
542.78	28.383
543.12	26.954
543.46	26.883
543.80	26.205
544.14	27.460
544.48	27.007
544.82	27.841
545.16	26.640
545.50	27.211
545.84	26.788
546.18	26.648
546.52	27.241
546.86	25.936
547.20	26.305
547.54	27.377
547.88	27.395
548.22	26.645
548.56	26.017
548.90	25.643
549.24	26.875
549.58	27.616
549.92	27.293
550.26	27.675
550.60	26.802
550.94	26.567
551.28	28.236
551.62	27.519
551.96	27.892
552.30	24.964
552.64	26.624
552.98	27.344
553.32	27.181
553.66	25.605
554.00	25.918
554.34	26.447
554.68	26.696
555.02	26.347
555.36	26.702
555.69	26.730
556.03	26.948
556.37	26.600
556.71	26.699
557.05	26.716
557.39	27.506
557.73	26.929
558.07	27.807
558.41	26.949
558.75	27.637
559.08	26.784
559.42	27.459
559.76	26.911
560.10	26.211
560.44	27.045
560.78	26.115
561.12	25.999
561.45	25.850
561.79	25.791
562.13	26.934
562.47	26.500
562.81	26.768
563.15	26.771
563.48	25.946
563.82	26.881
564.16	25.931
564.50	26.323
564.84	25.270
565.17	25.894
565.51	25.000
565.85	25.450
566.19	25.762
566.52	26.016
566.86	25.032
567.20	25.535
567.54	24.928
567.88	24.300
568.21	23.683
568.55	24.361
568.89	23.729
569.23	23.281
569.56	23.404
569.90	22.201
570.24	22.599
570.57	22.313
570.91	22.137
571.25	22.357
571.59	21.828
571.92	21.590
572.26	21.919
572.60	21.836
572.93	22.118
573.27	21.956
573.61	22.113
573.95	21.787
574.28	21.449
574.62	21.155
574.96	21.260
575.29	21.640
575.63	21.628
575.97	21.984
576.30	21.200
576.64	21.378
576.98	21.569
577.31	21.184
577.65	21.162
577.98	20.650
578.32	20.842
578.66	20.996
578.99	21.526
579.33	21.664
579.67	21.309
580.00	21.441
580.34	22.007
580.67	21.705
581.01	21.222
581.35	20.643
581.68	20.292
582.02	20.378
582.35	20.599
582.69	21.275
583.02	20.755
583.36	21.366
583.70	21.786
584.03	22.162
584.37	21.530
584.70	21.651
585.04	21.456
585.37	21.337
585.71	20.839
586.04	21.629
586.38	21.126
586.72	21.354
587.05	21.968
587.39	21.124
587.72	21.144
588.06	21.149
588.39	21.551
588.73	21.691
589.06	21.500
589.40	21.741
589.73	21.847
590.07	22.712
590.40	22.794
590.73	22.245
591.07	22.440
591.40	22.522
591.74	23.210
592.07	23.460
592.41	22.608
592.74	21.991
593.08	21.504
593.41	21.259
593.75	20.833
594.08	21.416
594.41	22.267
594.75	21.852
595.08	22.181
595.42	21.904
595.75	21.692
596.09	21.940
596.42	22.181
596.75	22.554
597.09	23.066
597.42	23.060
597.75	22.356
598.09	23.315
598.42	23.624
598.76	22.208
599.09	22.249
599.42	21.601
599.76	21.893
600.09	21.498
600.42	21.582
600.76	21.434
601.09	22.109
601.42	22.266
601.76	21.892
602.09	22.619
602.42	21.998
602.76	22.148
603.09	22.423
603.42	21.751
603.76	21.824
604.09	22.174
604.42	22.269
604.76	22.610
605.09	22.700
605.42	23.482
605.75	21.199
606.09	21.233
606.42	22.319
606.75	22.165
607.09	22.606
607.42	22.198
607.75	21.619
608.08	22.227
608.42	22.493
608.75	22.934
609.08	22.391
609.41	22.901
609.75	22.895
610.08	22.781
610.41	22.449
610.74	21.896
611.07	22.896
611.41	23.234
611.74	23.188
612.07	22.303
612.40	23.135
612.73	23.161
613.07	22.672
613.40	22.687
613.73	24.052
614.06	22.609
614.39	22.790
614.72	23.320
615.06	23.278
615.39	22.627
615.72	22.840
616.05	23.480
616.38	23.139
616.71	23.575
617.05	22.789
617.38	24.276
617.71	23.713
618.04	23.218
618.37	23.155
618.70	24.580
619.03	23.780
619.36	25.125
619.69	23.319
620.03	22.898
620.36	23.034
620.69	23.412
621.02	24.538
621.35	24.530
621.68	25.509
622.01	24.272
622.34	24.029
622.67	24.119
623.00	24.620
623.33	24.757
623.66	23.197
623.99	24.981
624.32	24.798
624.65	24.926
624.99	23.292
625.32	24.048
625.65	24.496
625.98	23.855
626.31	24.571
626.64	24.592
626.97	25.519
627.30	25.577
627.63	26.211
627.96	23.983
628.29	26.884
628.62	27.853
628.95	27.756
629.28	25.419
629.61	26.699
629.94	26.789
630.26	26.601
630.59	25.774
630.92	26.104
631.25	26.880
631.58	27.730
631.91	24.602
632.24	26.564
632.57	26.000
632.90	27.305
633.23	26.978
633.56	26.739
633.89	27.153
634.22	27.091
634.55	28.015
634.88	28.186
635.20	29.625
635.53	27.261
635.86	29.359
636.19	27.047
636.52	24.146
636.85	28.951
637.18	25.457
637.51	26.966
637.83	28.982
638.16	27.600
638.49	25.768
638.82	26.928
639.15	27.527
639.48	26.337
639.81	26.389
640.13	29.014
640.46	28.249
640.79	27.626
641.12	27.811
641.45	28.530
641.77	28.866
642.10	28.139
642.43	29.403
642.76	29.338
643.09	27.636
643.41	29.825
643.74	29.887
644.07	26.537
644.40	30.680
644.73	29.661
645.05	27.749
645.38	28.904
645.71	30.442
646.04	24.579
646.36	29.167
646.69	28.497
647.02	29.144
647.35	32.541
647.67	30.684
648.00	28.261
648.33	29.322
648.66	25.876
648.98	26.398
649.31	27.761
649.64	26.917
649.96	26.698
650.29	24.510
650.62	29.489
650.94	29.138
651.27	27.739
651.60	28.846
651.92	29.032
652.25	28.308
652.58	29.703
652.90	27.273
653.23	25.976
653.56	26.612
653.88	25.256
654.21	28.157
654.54	28.073
654.86	24.715
655.19	23.810
655.52	22.760
655.84	17.428
656.17	20.680
656.49	27.678
656.82	27.881
657.15	22.288
657.47	16.753
657.80	12.913
658.13	13.819
658.45	21.016
658.78	21.549
659.10	21.611
659.43	22.066
659.75	22.787
660.08	24.207
660.41	22.008
660.73	25.620
661.06	26.020
661.38	26.938
661.71	29.713
662.03	31.501
662.36	27.876
662.68	30.108
663.01	32.203
663.33	27.646
663.66	28.381
663.98	30.112
664.31	27.912
664.63	27.703
664.96	30.197
665.28	29.828
665.61	29.158
665.93	26.124
666.26	33.755
666.58	26.124
666.91	31.390
667.23	27.650
667.56	28.736
667.88	29.673
668.21	27.679
668.53	28.966
668.86	31.415
669.18	32.624
669.50	27.419
669.83	29.117
670.15	27.143
670.48	28.736
670.80	29.103
671.13	27.460
671.45	29.224
671.77	28.233
672.10	27.680
672.42	26.718
672.75	27.143
673.07	24.909
673.39	26.306
673.72	27.944
674.04	28.074
674.37	29.472
674.69	26.337
675.01	25.214
675.34	29.759
675.66	29.412
675.98	26.770
676.31	28.733
676.63	30.385
676.95	28.941
677.28	28.899
677.60	30.147
677.92	30.377
678.25	28.850
678.57	29.124
678.89	26.226
679.22	27.536
679.54	26.531
679.86	28.320
680.18	25.962
680.51	24.615
680.83	25.536
681.15	25.540
681.48	24.449
681.80	28.221
682.12	27.917
682.44	25.956
682.77	24.421
683.09	25.446
683.41	27.674
683.73	24.554
684.06	26.991
684.38	27.778
684.70	23.829
685.02	26.860
685.34	27.593
685.67	26.266
685.99	23.488
686.31	25.345
686.63	25.368
686.96	26.345
687.28	23.353
687.60	27.032
687.92	24.514
688.24	22.800
688.56	27.632
688.89	26.058
689.21	26.457
689.53	24.099
689.85	27.865
690.17	25.934
690.49	24.879
690.82	26.969
691.14	25.604
691.46	25.290
691.78	27.473
692.10	27.389
692.42	25.055
692.74	26.739
693.06	24.045
693.39	24.356
693.71	26.222
694.03	27.273
694.35	27.252
694.67	28.000
694.99	29.124
695.31	28.682
695.63	27.317
695.95	25.954
696.27	24.658
696.59	26.344
696.91	24.581
697.23	24.873
697.56	25.899
697.88	25.780
698.20	23.110
698.52	23.832
698.84	24.880
699.16	23.641
699.48	27.654
699.80	27.907
700.12	27.882
700.44	24.507
700.76	26.404
701.08	28.399
701.40	29.042
701.72	23.692
702.04	26.415
702.36	23.476
702.68	25.000
703.00	27.193
703.32	23.398
703.64	25.602
703.96	28.152
704.28	23.494
704.60	27.439
704.91	25.078
705.23	26.582
705.55	26.207
705.87	25.352
706.19	29.670
706.51	25.352
706.83	23.885
707.15	28.963
707.47	26.446
707.79	23.096
708.11	24.679
708.43	27.157
708.74	24.734
709.06	22.193
709.38	25.648
709.70	27.027
710.02	25.545
710.34	20.333
710.66	25.407
710.98	23.839
711.29	25.000
711.61	24.194
711.93	24.839
712.25	22.028
712.57	27.368
712.89	27.473
713.20	23.759
713.52	27.737
713.84	19.677
714.16	26.214
714.48	25.316
714.80	24.920
715.11	24.709
715.43	24.224
715.75	24.224
716.07	24.699
716.39	24.579
716.70	26.619
717.02	19.608
717.34	23.864
717.66	22.845
717.97	21.429
718.29	30.315
718.61	22.318
718.93	18.605
719.24	21.771
719.56	25.468
719.88	23.507
720.20	26.877
720.51	26.953
720.83	26.848
721.15	19.919
721.46	23.664
721.78	23.904
722.10	24.303
722.42	22.984
722.73	28.185
723.05	22.041
723.37	23.950
723.68	19.200
724.00	21.702
724.32	25.523
724.63	22.634
724.95	23.504
725.27	30.380
725.58	27.572
725.90	27.615
726.22	28.623
726.53	20.000
726.85	25.547
727.16	24.815
727.48	26.054
727.80	21.875
728.11	25.410
728.43	25.781
728.74	23.810
729.06	20.000
729.38	27.273
729.69	22.776
730.01	20.818
730.32	26.937
730.64	20.833
730.96	20.979
731.27	22.408
731.59	24.444
731.90	22.654
732.22	20.833
732.53	17.230
732.85	20.470
733.16	19.472
733.48	20.946
733.80	19.932
734.11	23.986
734.43	21.053
734.74	23.724
735.06	18.732
735.37	23.708
735.69	22.977
736.00	21.782
736.32	21.277
736.63	22.759
736.95	23.288
737.26	20.000
737.58	20.139
737.89	18.557
738.21	21.708
738.52	17.871
738.83	22.857
739.15	20.253
739.46	18.677
739.78	22.887
740.09	19.863
740.41	18.214
740.72	20.922
741.04	21.200
741.35	21.930
741.66	24.000
741.98	25.000
742.29	27.723
742.61	19.024
742.92	29.825
743.23	19.340
743.55	20.721
743.86	21.525
744.18	20.588
744.49	20.305
744.80	17.857
745.12	21.495
745.43	24.171
745.74	22.523
746.06	20.093
746.37	24.312
746.68	17.308
747.00	22.967
747.31	22.596
747.62	18.807
747.94	20.961
748.25	26.606
748.56	28.000
748.88	23.474
749.19	27.619
749.50	27.184
749.82	19.249
750.13	16.667
750.44	18.846
750.75	21.033
751.07	22.776
751.38	24.113
751.69	20.849
752.01	18.750
752.32	20.769
752.63	24.254
752.94	23.600
753.26	18.410
753.57	21.667
753.88	23.887
754.19	19.522
754.51	23.308
754.82	20.513
755.13	15.652
755.44	23.577
755.75	22.400
756.07	16.974
756.38	20.144
756.69	20.137
757.00	19.315
757.31	19.417
757.63	17.901
757.94	20.056
758.25	17.725
758.56	18.750
758.87	19.048
759.18	19.874
759.50	13.805
759.81	20.401
760.12	18.462
760.43	16.667
760.74	18.079
761.05	15.746
761.36	16.619
761.67	16.314
761.99	15.120
762.30	17.883
762.61	18.519
762.92	23.077
763.23	22.541
763.54	22.511
763.85	18.367
764.16	14.634
764.47	18.800
764.78	18.571
765.10	17.705
765.41	18.845
765.72	18.634
766.03	17.822
766.34	21.923
766.65	16.736
766.96	14.085
767.27	22.277
767.58	18.539
767.89	20.370
768.20	20.442
768.51	19.598
768.82	18.269
769.13	20.796
769.44	16.318
769.75	15.385
770.06	20.179
770.37	19.608
770.68	20.388
770.99	19.903
771.30	20.588
771.61	20.000
771.92	20.747
772.23	18.919
772.54	16.575
772.85	19.767
773.16	20.106
773.47	13.609
773.78	21.264
774.09	17.500
774.39	17.391
774.70	19.728
775.01	20.000
775.32	26.429
775.63	14.286
775.94	25.564
776.25	11.200
776.56	23.140
776.87	29.365
777.18	14.414
777.48	14.414
777.79	11.024
778.10	21.101
778.41	15.789
778.72	6.723
779.03	11.268
779.34	22.973
779.65	24.648
779.95	13.907
780.26	17.986
780.57	15.827
780.88	19.718
781.19	11.765
781.50	20.805
781.80	15.789
782.11	12.209
782.42	20.755
782.73	15.686
783.04	8.966
783.34	14.504
783.65	12.081
783.96	11.538
784.27	22.143
784.57	17.730
784.88	3.846
785.19	27.273
785.50	13.636
785.81	8.571
786.11	17.647
786.42	20.354
786.73	12.264
787.04	5.505
787.34	8.911
787.65	11.667
787.96	14.876
788.26	18.116
788.57	8.730
788.88	15.447
789.19	16.800
789.49	12.214
789.80	25.000
790.11	13.208
790.41	12.871
790.72	17.021
791.03	7.609
791.33	14.118
791.64	13.580
791.95	15.217
792.25	22.727
792.56	12.821
792.87	17.949
793.17	3.846
793.48	7.143
793.79	8.750
794.09	18.269
794.40	11.458
794.70	9.910
795.01	12.500
795.32	15.652
795.62	5.435
795.93	9.434
796.23	17.172
796.54	7.317
796.85	17.857
797.15	13.636
797.46	18.841
797.76	-5.263
798.07	10.227
798.37	-1.220
798.68	12.903
798.99	9.459
799.29	20.482
799.60	15.385
799.90	4.615
800.21	13.636
800.51	0.000
800.82	12.000
801.12	-6.250
801.43	-28.333
801.73	17.568
802.04	11.429
802.34	11.475
802.65	20.896
802.95	10.909
803.26	22.414
803.56	20.000
803.87	24.528
804.17	4.839
804.48	14.706
804.78	-14.634
805.09	18.841
805.39	5.882
805.70	-23.404
806.00	-8.772
806.30	14.103
806.61	26.316
806.91	13.514
807.22	11.842
807.52	17.045
807.83	-18.644
808.13	-4.545
808.43	-6.667
808.74	-18.966
809.04	17.460
809.35	6.122
809.65	3.333
809.95	-22.449
810.26	25.352
810.56	0.000
810.86	14.286
811.17	5.769
811.47	12.766
811.77	-4.167
812.08	13.208
812.38	0.000
812.69	23.636
812.99	-9.756
813.29	-35.135
813.59	-8.108
813.90	5.455
814.20	12.727
814.50	5.000
814.81	14.545
815.11	22.807
815.41	18.605
815.72	5.000
816.02	-28.571
816.32	-24.324
816.62	18.750
816.93	8.889
817.23	-2.222
817.53	-16.667
817.84	-24.324
818.14	-17.073
818.44	28.000
818.74	8.163
819.04	24.390
819.35	13.889
819.65	13.636
819.95	-38.889
820.25	-33.333
820.56	-21.429
820.86	-16.667
821.16	-11.364
821.46	2.174
821.76	1.724
822.07	2.174
822.37	42.424
822.67	31.707
822.97	21.622
823.27	-8.571
823.57	-10.345
823.88	2.941
824.18	16.667
824.48	8.571
824.78	-4.762
825.08	-25.000
825.38	3.704
825.69	-3.226
825.99	2.439
826.29	0.000
826.59	6.250
826.89	-9.677
827.19	-30.435
827.49	-36.111
827.79	0.000
828.09	-9.677
828.39	-4.167
828.70	-46.875
829.00	-34.483
829.30	29.730
829.60	-12.500
829.90	0.000
830.20	3.125
830.50	-27.273
830.80	-29.412
831.10	-13.636
831.40	-32.353
831.70	-26.923
832.00	42.424
832.30	2.941
832.60	-13.514
832.90	400.000
833.20	-35.714
833.50	-65.000
833.80	-2.632
834.10	-50.000
834.40	0.000
834.70	-40.000
835.00	-80.000
835.30	-29.167
835.60	-33.333
835.90	4.762
836.20	-8.000
836.50	-16.667
836.80	-21.053
837.10	-13.514
837.40	10.000
837.70	-39.130
838.00	45.833
838.30	21.053
838.60	-130.000
838.90	-150.000
839.19	-108.333
839.49	-30.769
839.79	10.526
840.09	-250.000
840.39	-150.000
840.69	-59.091
840.99	-57.143
841.29	-25.000
841.59	-38.462
841.88	-86.667
842.18	-28.571
842.48	6.667
842.78	-342.857
843.08	-64.286
843.38	-75.000
843.68	-56.250
843.97	35.714
844.27	-166.667
844.57	-18.182
844.87	-120.000
845.17	40.909
845.47	400.000
845.76	-33.333
846.06	-66.667
846.36	-1150.000
846.66	-47.368
846.96	9.091
847.25	-111.111
847.55	-211.111
847.85	-71.429
848.15	-46.154
848.44	-300.000
848.74	-16.667
849.04	-76.923
849.34	-275.000
849.63	-90.909
849.93	-121.429
850.23	25.000
850.53	-187.500
850.82	-16.667
851.12	-26.667
851.42	-76.471
851.71	-37.500
852.01	-41.176
852.31	-61.538
852.61	400.000
852.90	-23.529
853.20	-6.667
853.50	-37.500
853.79	-121.429
854.09	-175.000
854.39	-55.000
854.68	-20.000
854.98	-57.143
855.28	-12.000
855.57	-16.667
855.87	-50.000
856.17	-44.000
856.46	6.250
856.76	-15.000
857.05	24.000
857.35	-58.333
857.65	-35.294
857.94	-75.000
858.24	-50.000
858.53	-25.000
858.83	-100.000
859.13	-20.000
859.42	-64.286
859.72	-100.000
860.01	50.000
860.31	-212.500
860.60	-37.500
860.90	-66.667
861.20	-50.000
861.49	-13.333
861.79	-43.750
862.08	375.000
862.38	-75.000
862.67	285.714
862.97	300.000
863.26	-90.909
863.56	-81.818
863.85	15.789
864.15	0.000
864.44	-120.000
864.74	-130.000
865.03	-44.444
865.33	28.571
865.62	178.571
865.92	31.579
866.21	-50.000
866.51	-54.545
866.80	-155.556
867.10	-225.000
867.39	-18.750
867.69	-20.000
867.98	-60.000
868.27	29.412
868.57	0.000
868.86	250.000
869.16	0.000
869.45	-128.571
869.75	300.000
870.04	-20.000
870.33	-1100.000
870.63	-47.368
870.92	-75.000
871.22	-1800.000
871.51	-185.714
871.80	-144.444
872.10	-300.000
>>>>>End Processed Spectral Data<<<<<
