SpectraSuite Data File
++++++++++++++++++++++++++++++++++++
Date: Wed May 13 21:33:31 PDT 2015
User: schluterlab
Dark Spectrum Present: Yes
Reference Spectrum Present: Yes
Number of Sampled Component Spectra: 1
Spectrometers: USB2E3373
Integration Time (usec): 3000 (USB2E3373)
Spectra Averaged: 3 (USB2E3373)
Boxcar Smoothing: 0 (USB2E3373)
Correct for Electrical Dark: No (USB2E3373)
Strobe/Lamp Enabled: No (USB2E3373)
Correct for Detector Non-linearity: No (USB2E3373)
Correct for Stray Light: No (USB2E3373)
Number of Pixels in Processed Spectrum: 2048
>>>>>Begin Processed Spectral Data<<<<<
178.53	0.000
178.91	900.000
179.29	241.667
179.67	-900.000
180.04	-500.000
180.42	280.000
180.80	2000.000
181.18	350.000
181.56	-400.000
181.94	-250.000
182.31	36.364
182.69	100.000
183.07	-240.000
183.45	266.667
183.83	266.667
184.20	100.000
184.58	0.000
184.96	266.667
185.34	242.857
185.72	0.000
186.09	-1100.000
186.47	-320.000
186.85	120.000
187.23	-500.000
187.61	550.000
187.98	1200.000
188.36	-87.500
188.74	0.000
189.12	-36.364
189.49	-20.000
189.87	83.333
190.25	260.000
190.63	800.000
191.00	-120.000
191.38	160.000
191.76	400.000
192.14	116.667
192.51	-84.211
192.89	333.333
193.27	650.000
193.65	-280.000
194.02	172.727
194.40	210.000
194.78	-200.000
195.15	360.000
195.53	-280.000
195.91	0.000
196.29	-133.333
196.66	0.000
197.04	700.000
197.42	-80.000
197.79	40.000
198.17	-137.500
198.55	-200.000
198.92	325.000
199.30	-466.667
199.68	-60.000
200.05	200.000
200.43	183.333
200.81	-1700.000
201.18	-220.000
201.56	-150.000
201.94	525.000
202.31	-30.435
202.69	-214.286
203.07	-433.333
203.44	-60.000
203.82	-333.333
204.19	-80.000
204.57	0.000
204.95	-216.667
205.32	0.000
205.70	-550.000
206.08	-300.000
206.45	-183.333
206.83	725.000
207.20	-33.333
207.58	-60.000
207.96	-1900.000
208.33	-200.000
208.71	-1300.000
209.08	337.500
209.46	375.000
209.84	0.000
210.21	210.000
210.59	1900.000
210.96	260.000
211.34	900.000
211.71	-750.000
212.09	-233.333
212.46	-180.000
212.84	-166.667
213.22	-225.000
213.59	-1600.000
213.97	-350.000
214.34	-750.000
214.72	-23.077
215.09	250.000
215.47	188.889
215.84	700.000
216.22	-112.500
216.59	-550.000
216.97	766.667
217.34	166.667
217.72	0.000
218.09	200.000
218.47	-300.000
218.84	-242.857
219.22	-187.500
219.59	-266.667
219.97	-350.000
220.34	-200.000
220.72	-220.000
221.09	0.000
221.47	-83.333
221.84	-800.000
222.22	0.000
222.59	1500.000
222.97	-500.000
223.34	8.333
223.72	-1600.000
224.09	-300.000
224.46	-100.000
224.84	-150.000
225.21	-100.000
225.59	-275.000
225.96	-66.667
226.34	-60.000
226.71	-171.429
227.08	450.000
227.46	-150.000
227.83	-1200.000
228.21	-75.000
228.58	-275.000
228.95	-58.824
229.33	6.250
229.70	-100.000
230.08	-38.462
230.45	-137.500
230.82	-41.667
231.20	314.286
231.57	-500.000
231.95	400.000
232.32	8.333
232.69	-17.647
233.07	-2100.000
233.44	-39.130
233.81	-800.000
234.19	-12.500
234.56	-60.000
234.93	0.000
235.31	-21.053
235.68	-138.462
236.05	-84.615
236.43	-38.889
236.80	-3.030
237.17	-113.333
237.55	-88.235
237.92	-55.172
238.29	-85.185
238.67	-33.333
239.04	-45.161
239.41	-14.894
239.79	-2.128
240.16	-20.930
240.53	-1.786
240.91	3.571
241.28	3.571
241.65	0.000
242.02	11.842
242.40	-4.348
242.77	-5.797
243.14	0.000
243.51	6.383
243.89	0.962
244.26	19.811
244.63	-4.808
245.00	-13.542
245.38	6.723
245.75	6.557
246.12	0.752
246.49	-10.569
246.87	-12.605
247.24	8.784
247.61	4.636
247.98	8.974
248.36	9.467
248.73	0.000
249.10	3.535
249.47	0.538
249.84	2.105
250.22	2.985
250.59	7.944
250.96	10.455
251.33	2.392
251.70	11.297
252.08	9.205
252.45	5.761
252.82	9.506
253.19	6.615
253.56	6.475
253.94	11.032
254.31	7.746
254.68	10.738
255.05	10.561
255.42	8.741
255.79	8.282
256.16	8.833
256.54	5.397
256.91	4.747
257.28	7.862
257.65	6.051
258.02	10.264
258.39	9.064
258.76	5.233
259.14	7.670
259.51	6.461
259.88	7.588
260.25	6.944
260.62	8.427
260.99	7.958
261.36	7.254
261.73	6.173
262.10	7.888
262.47	7.407
262.85	5.970
263.22	7.949
263.59	10.909
263.96	7.543
264.33	5.529
264.70	6.977
265.07	9.259
265.44	7.586
265.81	7.551
266.18	6.834
266.55	8.079
266.92	8.475
267.29	9.671
267.66	6.582
268.03	7.613
268.40	6.356
268.77	9.091
269.14	9.388
269.51	11.088
269.88	6.721
270.25	9.322
270.62	7.787
270.99	7.283
271.36	8.333
271.73	7.831
272.10	8.381
272.47	8.637
272.84	9.252
273.21	8.806
273.58	7.992
273.95	8.113
274.32	9.515
274.69	8.015
275.06	11.131
275.43	7.533
275.80	9.929
276.17	6.077
276.54	7.815
276.91	9.233
277.28	8.303
277.65	9.091
278.02	9.821
278.39	7.282
278.76	10.201
279.13	8.576
279.50	7.759
279.87	7.246
280.23	9.189
280.60	8.131
280.97	7.143
281.34	10.568
281.71	8.293
282.08	8.376
282.45	10.328
282.82	9.904
283.19	10.518
283.56	10.625
283.92	8.104
284.29	8.424
284.66	7.578
285.03	7.166
285.40	8.761
285.77	9.459
286.14	7.143
286.51	9.745
286.87	8.923
287.24	8.997
287.61	7.831
287.98	9.265
288.35	7.154
288.72	6.743
289.08	7.977
289.45	8.223
289.82	7.262
290.19	8.836
290.56	8.097
290.93	7.735
291.29	7.524
291.66	8.197
292.03	10.082
292.40	9.287
292.77	8.032
293.13	7.950
293.50	9.412
293.87	8.267
294.24	8.069
294.60	7.412
294.97	8.333
295.34	6.069
295.71	7.096
296.08	6.545
296.44	8.929
296.81	7.186
297.18	8.125
297.55	5.778
297.91	8.820
298.28	7.385
298.65	8.251
299.02	8.059
299.38	8.098
299.75	8.654
300.12	6.744
300.48	6.199
300.85	7.390
301.22	7.549
301.59	6.925
301.95	5.110
302.32	5.834
302.69	4.972
303.05	7.087
303.42	7.955
303.79	7.150
304.15	5.148
304.52	8.172
304.89	5.980
305.25	6.257
305.62	7.592
305.99	8.379
306.35	7.732
306.72	7.528
307.09	7.821
307.45	7.987
307.82	5.684
308.19	6.479
308.55	7.062
308.92	8.055
309.29	6.306
309.65	7.093
310.02	6.461
310.38	6.707
310.75	6.410
311.12	6.608
311.48	7.418
311.85	5.512
312.22	6.770
312.58	6.860
312.95	6.070
313.31	6.336
313.68	7.634
314.05	7.278
314.41	6.532
314.78	6.926
315.14	6.944
315.51	8.658
315.87	7.414
316.24	7.805
316.61	7.854
316.97	7.037
317.34	7.843
317.70	7.761
318.07	7.365
318.43	7.407
318.80	8.028
319.16	6.454
319.53	6.900
319.89	7.498
320.26	9.612
320.62	7.692
320.99	7.171
321.35	7.951
321.72	7.988
322.08	8.487
322.45	8.696
322.81	9.335
323.18	8.676
323.54	8.484
323.91	9.214
324.27	9.271
324.64	8.885
325.00	9.011
325.37	10.580
325.73	9.343
326.10	9.420
326.46	9.699
326.83	10.275
327.19	10.000
327.56	11.281
327.92	11.344
328.29	11.853
328.65	11.218
329.01	10.202
329.38	12.261
329.74	11.245
330.11	11.452
330.47	11.372
330.84	10.740
331.20	12.297
331.56	11.957
331.93	11.370
332.29	12.598
332.66	12.034
333.02	12.772
333.38	12.018
333.75	12.201
334.11	12.587
334.48	11.683
334.84	12.102
335.20	13.551
335.57	12.533
335.93	12.027
336.29	11.296
336.66	13.077
337.02	11.826
337.38	12.272
337.75	12.317
338.11	11.870
338.47	12.842
338.84	12.973
339.20	13.580
339.56	13.055
339.93	11.841
340.29	12.383
340.65	13.003
341.02	13.062
341.38	12.669
341.74	11.429
342.11	12.221
342.47	11.799
342.83	13.154
343.20	12.606
343.56	12.837
343.92	11.942
344.28	12.906
344.65	12.490
345.01	11.380
345.37	13.076
345.73	14.134
346.10	12.681
346.46	12.114
346.82	12.681
347.19	12.579
347.55	12.278
347.91	13.094
348.27	12.934
348.63	12.821
349.00	12.500
349.36	12.009
349.72	13.225
350.08	13.105
350.45	12.843
350.81	12.598
351.17	13.241
351.53	11.862
351.89	13.344
352.26	12.587
352.62	12.016
352.98	13.099
353.34	12.721
353.70	13.006
354.07	12.627
354.43	13.064
354.79	12.099
355.15	13.820
355.51	12.832
355.87	12.432
356.24	13.082
356.60	12.901
356.96	13.431
357.32	13.622
357.68	13.293
358.04	13.576
358.40	12.868
358.77	12.920
359.13	12.529
359.49	13.702
359.85	13.116
360.21	13.261
360.57	12.548
360.93	12.291
361.29	12.953
361.66	13.060
362.02	11.564
362.38	13.146
362.74	12.400
363.10	12.220
363.46	13.689
363.82	13.895
364.18	12.908
364.54	13.567
364.90	13.449
365.26	13.093
365.62	13.068
365.98	14.093
366.35	13.617
366.71	13.909
367.07	13.820
367.43	13.310
367.79	14.107
368.15	14.416
368.51	13.080
368.87	14.515
369.23	13.523
369.59	13.390
369.95	13.135
370.31	13.180
370.67	13.831
371.03	13.437
371.39	13.911
371.75	14.286
372.11	14.245
372.47	13.915
372.83	14.147
373.19	13.885
373.55	13.656
373.91	13.861
374.27	13.970
374.63	15.434
374.99	13.649
375.35	14.315
375.71	13.995
376.07	14.462
376.42	14.238
376.78	14.267
377.14	14.712
377.50	15.124
377.86	15.206
378.22	14.159
378.58	14.502
378.94	15.313
379.30	15.240
379.66	15.290
380.02	13.480
380.38	14.699
380.74	14.704
381.09	14.717
381.45	14.450
381.81	15.219
382.17	14.367
382.53	15.138
382.89	14.897
383.25	14.568
383.61	15.617
383.97	15.500
384.32	14.241
384.68	14.621
385.04	14.966
385.40	14.882
385.76	15.511
386.12	15.042
386.48	15.925
386.83	15.519
387.19	14.991
387.55	15.389
387.91	15.929
388.27	15.475
388.62	15.356
388.98	15.269
389.34	15.977
389.70	15.812
390.06	15.250
390.42	17.010
390.77	15.567
391.13	15.909
391.49	16.066
391.85	15.463
392.20	16.103
392.56	15.873
392.92	15.799
393.28	16.386
393.64	15.352
393.99	15.483
394.35	15.617
394.71	15.705
395.07	15.346
395.42	17.002
395.78	16.088
396.14	16.424
396.50	16.170
396.85	16.252
397.21	16.042
397.57	15.652
397.92	16.467
398.28	16.074
398.64	17.243
399.00	15.960
399.35	16.061
399.71	16.249
400.07	16.325
400.42	16.426
400.78	17.039
401.14	16.616
401.49	16.357
401.85	17.383
402.21	17.090
402.57	16.677
402.92	17.459
403.28	16.635
403.63	16.553
403.99	16.187
404.35	17.394
404.70	17.100
405.06	17.146
405.42	15.955
405.77	16.417
406.13	16.057
406.49	16.117
406.84	16.545
407.20	16.223
407.55	17.338
407.91	16.942
408.27	15.721
408.62	16.820
408.98	16.338
409.34	16.955
409.69	17.609
410.05	17.413
410.40	16.859
410.76	17.449
411.11	17.102
411.47	17.120
411.83	16.719
412.18	17.191
412.54	17.669
412.89	16.928
413.25	16.873
413.60	16.991
413.96	17.041
414.31	17.941
414.67	17.079
415.03	16.576
415.38	17.239
415.74	16.504
416.09	16.457
416.45	17.977
416.80	16.913
417.16	17.341
417.51	17.549
417.87	16.997
418.22	17.130
418.58	17.148
418.93	17.954
419.29	17.558
419.64	17.239
420.00	18.286
420.35	17.394
420.71	16.514
421.06	17.036
421.42	18.309
421.77	17.225
422.12	17.822
422.48	17.176
422.83	17.720
423.19	17.826
423.54	17.020
423.90	16.746
424.25	17.562
424.61	18.854
424.96	18.391
425.31	17.106
425.67	18.342
426.02	18.375
426.38	17.226
426.73	17.227
427.09	17.261
427.44	18.203
427.79	17.696
428.15	17.125
428.50	17.281
428.85	17.958
429.21	17.276
429.56	17.800
429.92	17.855
430.27	17.536
430.62	17.681
430.98	19.090
431.33	18.592
431.68	18.158
432.04	18.366
432.39	18.014
432.74	18.087
433.10	18.942
433.45	18.580
433.80	18.851
434.16	17.477
434.51	18.315
434.86	17.903
435.22	18.846
435.57	18.059
435.92	18.577
436.28	17.598
436.63	18.764
436.98	18.508
437.34	18.193
437.69	18.713
438.04	18.166
438.39	18.555
438.75	18.355
439.10	18.855
439.45	18.765
439.81	18.719
440.16	19.536
440.51	19.084
440.86	18.494
441.22	19.392
441.57	18.926
441.92	18.248
442.27	18.019
442.63	18.353
442.98	18.634
443.33	19.582
443.68	18.714
444.03	18.877
444.39	18.443
444.74	18.443
445.09	18.502
445.44	19.268
445.79	18.585
446.15	18.857
446.50	18.667
446.85	19.188
447.20	18.923
447.55	19.530
447.91	18.483
448.26	19.039
448.61	19.102
448.96	19.134
449.31	19.874
449.66	19.607
450.02	19.613
450.37	19.036
450.72	19.059
451.07	18.683
451.42	18.403
451.77	19.842
452.12	19.133
452.47	19.884
452.83	18.809
453.18	19.478
453.53	19.294
453.88	18.916
454.23	19.654
454.58	20.588
454.93	18.922
455.28	19.782
455.63	18.091
455.98	19.172
456.34	18.563
456.69	18.850
457.04	19.381
457.39	19.002
457.74	19.569
458.09	19.550
458.44	19.741
458.79	19.440
459.14	19.719
459.49	18.963
459.84	19.448
460.19	18.908
460.54	18.613
460.89	20.101
461.24	19.420
461.59	19.444
461.94	21.113
462.29	19.608
462.64	20.251
462.99	19.651
463.34	19.959
463.69	20.296
464.04	19.568
464.39	19.829
464.74	19.349
465.09	20.087
465.44	20.651
465.79	19.896
466.14	19.669
466.49	20.000
466.84	20.024
467.19	19.363
467.54	20.480
467.89	20.427
468.24	20.652
468.59	20.459
468.94	21.073
469.29	19.564
469.64	20.502
469.99	20.552
470.34	20.364
470.68	20.669
471.03	20.804
471.38	20.723
471.73	21.811
472.08	21.718
472.43	21.174
472.78	22.245
473.13	20.251
473.48	21.135
473.83	21.218
474.17	20.117
474.52	20.712
474.87	20.929
475.22	20.290
475.57	20.078
475.92	20.284
476.27	19.464
476.61	20.838
476.96	20.788
477.31	20.227
477.66	20.452
478.01	20.714
478.36	21.090
478.70	20.677
479.05	21.199
479.40	21.477
479.75	20.882
480.10	21.112
480.45	20.402
480.79	21.304
481.14	21.935
481.49	21.658
481.84	20.028
482.19	21.028
482.53	20.905
482.88	21.381
483.23	20.789
483.58	21.834
483.92	21.060
484.27	20.586
484.62	20.107
484.97	21.029
485.31	21.049
485.66	19.176
486.01	19.267
486.36	19.332
486.70	19.683
487.05	20.602
487.40	19.863
487.75	20.356
488.09	20.895
488.44	20.715
488.79	21.196
489.13	21.431
489.48	21.163
489.83	21.036
490.17	21.562
490.52	22.207
490.87	20.909
491.22	21.385
491.56	22.377
491.91	21.843
492.26	21.760
492.60	21.212
492.95	22.643
493.30	21.366
493.64	20.719
493.99	22.077
494.34	22.062
494.68	22.053
495.03	21.591
495.37	21.849
495.72	22.356
496.07	22.309
496.41	21.666
496.76	22.258
497.11	21.643
497.45	21.547
497.80	22.312
498.14	22.065
498.49	21.180
498.84	22.217
499.18	22.648
499.53	21.763
499.87	22.028
500.22	22.250
500.56	22.568
500.91	22.636
501.26	22.857
501.60	22.157
501.95	22.568
502.29	21.796
502.64	22.999
502.98	22.158
503.33	22.238
503.67	22.201
504.02	22.696
504.36	22.437
504.71	22.713
505.06	22.873
505.40	22.887
505.75	23.652
506.09	22.688
506.44	22.984
506.78	22.702
507.13	23.129
507.47	22.906
507.82	23.339
508.16	23.641
508.51	23.140
508.85	23.898
509.19	23.333
509.54	24.718
509.88	24.194
510.23	23.632
510.57	24.100
510.92	24.246
511.26	24.752
511.61	23.381
511.95	23.208
512.30	24.375
512.64	25.255
512.98	24.266
513.33	23.887
513.67	25.213
514.02	25.599
514.36	24.157
514.70	24.711
515.05	25.512
515.39	25.413
515.74	24.630
516.08	25.074
516.42	25.461
516.77	24.546
517.11	25.573
517.46	25.570
517.80	26.271
518.14	24.740
518.49	24.714
518.83	25.716
519.17	25.241
519.52	24.970
519.86	25.865
520.20	25.773
520.55	26.430
520.89	25.743
521.23	26.923
521.58	26.422
521.92	25.644
522.26	26.285
522.61	26.180
522.95	25.712
523.29	26.286
523.64	26.891
523.98	26.557
524.32	25.772
524.66	26.818
525.01	26.868
525.35	26.531
525.69	26.640
526.04	26.580
526.38	26.960
526.72	26.759
527.06	26.950
527.41	26.075
527.75	26.435
528.09	27.570
528.43	27.476
528.78	27.132
529.12	27.490
529.46	26.999
529.80	26.667
530.15	25.611
530.49	27.022
530.83	27.217
531.17	27.260
531.51	26.568
531.86	27.236
532.20	25.913
532.54	26.276
532.88	26.481
533.22	27.003
533.57	26.358
533.91	27.290
534.25	26.497
534.59	25.290
534.93	26.658
535.27	26.497
535.62	25.987
535.96	26.545
536.30	25.931
536.64	26.589
536.98	26.629
537.32	27.046
537.66	27.221
538.01	25.659
538.35	26.312
538.69	26.154
539.03	26.107
539.37	25.486
539.71	26.739
540.05	26.181
540.39	25.671
540.73	26.047
541.07	26.395
541.42	26.263
541.76	26.252
542.10	25.592
542.44	25.572
542.78	26.579
543.12	26.482
543.46	25.777
543.80	25.933
544.14	25.877
544.48	25.017
544.82	25.757
545.16	25.693
545.50	26.806
545.84	25.456
546.18	25.526
546.52	25.970
546.86	26.148
547.20	26.019
547.54	25.661
547.88	26.316
548.22	25.342
548.56	25.150
548.90	24.966
549.24	27.014
549.58	26.406
549.92	27.146
550.26	27.749
550.60	26.727
550.94	25.149
551.28	24.981
551.62	26.165
551.96	25.476
552.30	24.381
552.64	24.859
552.98	26.136
553.32	26.099
553.66	25.605
554.00	25.414
554.34	24.982
554.68	26.846
555.02	26.497
555.36	25.794
555.69	25.783
556.03	25.661
556.37	24.182
556.71	24.597
557.05	24.871
557.39	26.225
557.73	26.324
558.07	24.868
558.41	25.889
558.75	26.174
559.08	25.742
559.42	26.200
559.76	25.153
560.10	25.826
560.44	26.234
560.78	24.532
561.12	25.438
561.45	24.966
561.79	25.378
562.13	25.035
562.47	26.143
562.81	25.036
563.15	24.646
563.48	25.533
563.82	25.034
564.16	24.577
564.50	25.102
564.84	24.392
565.17	24.636
565.51	25.535
565.85	24.117
566.19	24.636
566.52	24.640
566.86	24.399
567.20	24.374
567.54	23.834
567.88	22.844
568.21	24.063
568.55	24.100
568.89	23.081
569.23	21.723
569.56	22.111
569.90	22.776
570.24	21.733
570.57	21.904
570.91	22.037
571.25	21.115
571.59	21.287
571.92	21.267
572.26	21.592
572.60	21.035
572.93	21.431
573.27	20.984
573.61	21.480
573.95	20.968
574.28	20.985
574.62	20.513
574.96	21.383
575.29	21.038
575.63	21.128
575.97	20.870
576.30	20.485
576.64	20.356
576.98	20.560
577.31	20.547
577.65	20.278
577.98	20.381
578.32	20.188
578.66	20.629
578.99	20.798
579.33	20.590
579.67	20.392
580.00	20.398
580.34	20.359
580.67	20.284
581.01	20.079
581.35	19.495
581.68	20.443
582.02	19.730
582.35	19.846
582.69	19.729
583.02	19.890
583.36	20.448
583.70	20.426
584.03	20.814
584.37	20.328
584.70	20.107
585.04	20.864
585.37	20.000
585.71	20.429
586.04	19.749
586.38	20.074
586.72	20.118
587.05	20.305
587.39	20.038
587.72	19.734
588.06	20.301
588.39	20.431
588.73	20.638
589.06	19.787
589.40	20.605
589.73	20.050
590.07	20.853
590.40	21.318
590.73	20.867
591.07	20.936
591.40	20.304
591.74	20.720
592.07	21.132
592.41	21.579
592.74	20.255
593.08	20.068
593.41	20.231
593.75	19.864
594.08	20.449
594.41	20.256
594.75	20.690
595.08	20.874
595.42	19.936
595.75	20.282
596.09	20.246
596.42	20.588
596.75	20.316
597.09	20.792
597.42	21.086
597.75	20.844
598.09	21.175
598.42	21.521
598.76	20.319
599.09	19.928
599.42	19.902
599.76	20.353
600.09	19.992
600.42	20.151
600.76	19.549
601.09	20.188
601.42	20.188
601.76	19.846
602.09	21.038
602.42	20.264
602.76	19.966
603.09	20.370
603.42	19.952
603.76	19.914
604.09	19.960
604.42	19.967
604.76	19.686
605.09	20.707
605.42	20.198
605.75	18.929
606.09	19.123
606.42	19.825
606.75	19.221
607.09	19.681
607.42	20.096
607.75	19.431
608.08	20.063
608.42	19.728
608.75	20.019
609.08	20.382
609.41	20.616
609.75	19.869
610.08	20.414
610.41	20.360
610.74	20.019
611.07	20.240
611.41	21.238
611.74	20.497
612.07	20.219
612.40	20.973
612.73	20.198
613.07	19.568
613.40	21.090
613.73	20.314
614.06	20.066
614.39	20.456
614.72	20.877
615.06	20.278
615.39	20.143
615.72	19.708
616.05	20.664
616.38	20.103
616.71	20.396
617.05	20.086
617.38	20.394
617.71	19.669
618.04	20.232
618.37	20.379
618.70	20.310
619.03	20.344
619.36	21.210
619.69	20.833
620.03	20.848
620.36	19.555
620.69	20.343
621.02	19.923
621.35	22.322
621.68	21.108
622.01	20.793
622.34	19.826
622.67	20.830
623.00	21.505
623.33	20.120
623.66	20.223
623.99	20.705
624.32	19.736
624.65	22.107
624.99	20.426
625.32	20.388
625.65	20.155
625.98	20.458
626.31	21.143
626.64	20.636
626.97	21.626
627.30	21.728
627.63	21.540
627.96	20.173
628.29	23.163
628.62	22.244
628.95	22.244
629.28	20.690
629.61	21.722
629.94	21.663
630.26	23.251
630.59	21.479
630.92	21.486
631.25	21.627
631.58	21.949
631.91	20.997
632.24	21.515
632.57	21.000
632.90	22.287
633.23	22.182
633.56	23.261
633.89	23.565
634.22	24.028
634.55	23.021
634.88	22.304
635.20	22.875
635.53	23.643
635.86	22.308
636.19	22.829
636.52	21.220
636.85	22.075
637.18	19.123
637.51	21.973
637.83	21.802
638.16	22.400
638.49	20.694
638.82	22.092
639.15	21.941
639.48	22.594
639.81	22.639
640.13	22.817
640.46	21.328
640.79	20.288
641.12	22.781
641.45	21.689
641.77	21.060
642.10	22.390
642.43	25.472
642.76	20.189
643.09	23.003
643.41	24.402
643.74	22.132
644.07	21.197
644.40	21.725
644.73	22.712
645.05	23.037
645.38	21.096
645.71	22.959
646.04	21.212
646.36	21.701
646.69	21.329
647.02	22.769
647.35	23.035
647.67	23.660
648.00	20.471
648.33	23.559
648.66	18.698
648.98	23.137
649.31	21.626
649.64	21.440
649.96	21.643
650.29	21.242
650.62	20.758
650.94	21.034
651.27	22.438
651.60	22.203
651.92	22.760
652.25	22.948
652.58	24.257
652.90	21.380
653.23	20.543
653.56	21.157
653.88	19.454
654.21	21.672
654.54	20.930
654.86	20.976
655.19	19.328
655.52	19.020
655.84	15.598
656.17	18.156
656.49	24.215
656.82	24.102
657.15	18.060
657.47	13.804
657.80	10.216
658.13	10.858
658.45	16.554
658.78	16.511
659.10	16.478
659.43	17.232
659.75	17.017
660.08	17.310
660.41	16.734
660.73	20.937
661.06	20.578
661.38	19.767
661.71	21.721
662.03	23.467
662.36	22.345
662.68	23.226
663.01	24.153
663.33	23.110
663.66	17.295
663.98	21.798
664.31	20.000
664.63	17.568
664.96	22.319
665.28	22.318
665.61	21.382
665.93	20.343
666.26	22.996
666.58	21.413
666.91	22.197
667.23	20.968
667.56	24.598
667.88	20.327
668.21	20.313
668.53	22.299
668.86	21.583
669.18	20.331
669.50	22.811
669.83	22.434
670.15	21.429
670.48	21.149
670.80	22.976
671.13	19.451
671.45	22.146
671.77	21.121
672.10	19.298
672.42	19.275
672.75	18.929
673.07	17.818
673.39	22.015
673.72	20.160
674.04	18.852
674.37	20.935
674.69	21.605
675.01	21.154
675.34	19.694
675.66	21.133
675.98	21.018
676.31	21.719
676.63	19.501
676.95	20.471
677.28	19.037
677.60	20.098
677.92	22.395
678.25	19.306
678.57	22.607
678.89	18.124
679.22	17.184
679.54	18.163
679.86	18.555
680.18	16.923
680.51	16.731
680.83	17.349
681.15	20.432
681.48	18.437
681.80	18.405
682.12	15.625
682.44	16.901
682.77	19.579
683.09	17.634
683.41	21.395
683.73	18.304
684.06	18.584
684.38	18.162
684.70	17.515
685.02	21.281
685.34	18.004
685.67	18.574
685.99	18.861
686.31	20.000
686.63	17.831
686.96	20.037
687.28	17.764
687.60	21.550
687.92	20.233
688.24	18.800
688.56	21.930
688.89	16.704
689.21	18.386
689.53	13.739
689.85	20.225
690.17	18.681
690.49	19.807
690.82	19.093
691.14	17.633
691.46	16.473
691.78	20.000
692.10	16.985
692.42	17.802
692.74	18.913
693.06	15.730
693.39	15.925
693.71	19.333
694.03	20.227
694.35	20.270
694.67	21.250
694.99	20.361
695.31	19.897
695.63	21.707
695.95	16.285
696.27	16.986
696.59	19.624
696.91	18.156
697.23	15.482
697.56	17.026
697.88	18.503
698.20	17.927
698.52	16.355
698.84	18.182
699.16	15.603
699.48	20.247
699.80	21.964
700.12	18.231
700.44	16.901
700.76	20.506
701.08	20.242
701.40	19.162
701.72	18.769
702.04	17.925
702.36	17.683
702.68	17.683
703.00	21.345
703.32	14.763
703.64	18.373
703.96	19.648
704.28	18.675
704.60	20.732
704.91	13.480
705.23	17.089
705.55	18.276
705.87	20.070
706.19	14.652
706.51	17.606
706.83	18.471
707.15	17.988
707.47	17.906
707.79	15.228
708.11	15.938
708.43	18.020
708.74	13.298
709.06	17.112
709.38	16.427
709.70	15.616
710.02	17.445
710.34	14.000
710.66	16.938
710.98	17.337
711.29	20.779
711.61	19.032
711.93	17.097
712.25	14.336
712.57	15.088
712.89	19.414
713.20	17.376
713.52	16.058
713.84	17.419
714.16	17.799
714.48	14.557
714.80	15.016
715.11	18.895
715.43	11.801
715.75	20.807
716.07	19.880
716.39	15.825
716.70	17.266
717.02	13.333
717.34	15.152
717.66	13.793
717.97	15.476
718.29	13.780
718.61	17.167
718.93	13.953
719.24	17.712
719.56	16.479
719.88	17.537
720.20	15.415
720.51	17.188
720.83	17.899
721.15	14.634
721.46	14.885
721.78	13.546
722.10	19.920
722.42	14.516
722.73	16.988
723.05	20.408
723.37	17.227
723.68	14.400
724.00	12.340
724.32	17.573
724.63	17.695
724.95	13.248
725.27	22.363
725.58	20.165
725.90	15.063
726.22	15.942
726.53	10.196
726.85	16.423
727.16	16.296
727.48	13.410
727.80	15.234
728.11	16.803
728.43	18.750
728.74	14.683
729.06	15.600
729.38	18.972
729.69	16.370
730.01	16.357
730.32	14.760
730.64	9.848
730.96	18.182
731.27	12.040
731.59	12.381
731.90	10.356
732.22	16.667
732.53	15.878
732.85	12.081
733.16	14.191
733.48	11.824
733.80	12.162
734.11	15.541
734.43	13.313
734.74	15.616
735.06	14.986
735.37	15.805
735.69	16.505
736.00	16.502
736.32	15.957
736.63	19.310
736.95	15.068
737.26	13.448
737.58	15.972
737.89	13.746
738.21	11.744
738.52	15.209
738.83	16.735
739.15	14.346
739.46	11.284
739.78	12.324
740.09	14.384
740.41	13.214
740.72	13.475
741.04	11.600
741.35	12.719
741.66	15.111
741.98	15.385
742.29	18.812
742.61	10.732
742.92	16.667
743.23	13.679
743.55	14.865
743.86	10.762
744.18	13.235
744.49	16.244
744.80	11.735
745.12	15.888
745.43	16.588
745.74	17.568
746.06	14.953
746.37	11.468
746.68	13.942
747.00	15.789
747.31	20.192
747.62	14.679
747.94	15.284
748.25	13.761
748.56	17.778
748.88	17.371
749.19	20.000
749.50	6.796
749.82	8.451
750.13	10.833
750.44	12.692
750.75	15.498
751.07	19.217
751.38	15.248
751.69	12.741
752.01	11.719
752.32	11.538
752.63	13.060
752.94	15.600
753.26	10.879
753.57	13.333
753.88	15.789
754.19	11.554
754.51	14.662
754.82	15.018
755.13	5.217
755.44	13.415
755.75	11.600
756.07	12.915
756.38	14.388
756.69	16.041
757.00	14.330
757.31	10.680
757.63	8.333
757.94	13.559
758.25	15.873
758.56	12.500
758.87	12.798
759.18	13.565
759.50	13.468
759.81	14.716
760.12	14.769
760.43	8.036
760.74	10.452
761.05	11.050
761.36	11.461
761.67	12.689
761.99	10.997
762.30	12.774
762.61	10.700
762.92	14.957
763.23	18.443
763.54	14.286
763.85	13.878
764.16	11.382
764.47	10.800
764.78	15.000
765.10	12.787
765.41	11.246
765.72	11.180
766.03	14.521
766.34	14.231
766.65	12.134
766.96	13.615
767.27	15.842
767.58	3.933
767.89	16.049
768.20	12.155
768.51	18.090
768.82	12.981
769.13	9.735
769.44	18.410
769.75	10.684
770.06	9.417
770.37	9.314
770.68	14.563
770.99	7.767
771.30	13.025
771.61	15.918
771.92	14.108
772.23	8.108
772.54	11.602
772.85	12.209
773.16	13.757
773.47	5.325
773.78	17.241
774.09	11.875
774.39	6.832
774.70	8.844
775.01	8.276
775.32	12.857
775.63	5.263
775.94	9.774
776.25	8.800
776.56	14.876
776.87	12.698
777.18	12.613
777.48	4.505
777.79	3.150
778.10	14.679
778.41	7.895
778.72	13.445
779.03	9.155
779.34	11.486
779.65	7.746
779.95	11.258
780.26	2.878
780.57	14.388
780.88	6.338
781.19	-3.361
781.50	10.738
781.80	16.374
782.11	0.581
782.42	14.465
782.73	11.111
783.04	11.724
783.34	5.344
783.65	10.067
783.96	8.462
784.27	9.286
784.57	11.348
784.88	-10.577
785.19	28.182
785.50	18.182
785.81	10.476
786.11	12.605
786.42	6.195
786.73	-0.943
787.04	-6.422
787.34	8.911
787.65	7.500
787.96	6.612
788.26	10.145
788.57	6.349
788.88	14.634
789.19	4.800
789.49	2.290
789.80	12.879
790.11	1.887
790.41	14.851
790.72	8.511
791.03	1.087
791.33	7.059
791.64	3.704
791.95	6.522
792.25	11.364
792.56	12.821
792.87	0.000
793.17	-10.256
793.48	-2.381
793.79	8.750
794.09	24.038
794.40	12.500
794.70	5.405
795.01	7.031
795.32	7.826
795.62	-18.478
795.93	-6.604
796.23	4.040
796.54	2.439
796.85	-8.333
797.15	-1.515
797.46	4.348
797.76	-3.947
798.07	4.545
798.37	12.195
798.68	-4.839
798.99	-2.703
799.29	0.000
799.60	10.256
799.90	3.077
800.21	7.576
800.51	-4.000
800.82	1.333
801.12	-27.083
801.43	-18.333
801.73	4.054
802.04	18.571
802.34	3.279
802.65	26.866
802.95	9.091
803.26	-6.897
803.56	1.538
803.87	3.774
804.17	-9.677
804.48	1.471
804.78	-51.220
805.09	-2.899
805.39	-5.882
805.70	-19.149
806.00	-21.053
806.30	12.821
806.61	6.579
806.91	5.405
807.22	10.526
807.52	12.500
807.83	-22.034
808.13	-33.333
808.43	0.000
808.74	-31.034
809.04	-9.524
809.35	8.163
809.65	-5.000
809.95	-24.490
810.26	25.352
810.56	16.667
810.86	-6.122
811.17	11.538
811.47	-10.638
811.77	-12.500
812.08	1.887
812.38	-28.125
812.69	14.545
812.99	-34.146
813.29	-10.811
813.59	-21.622
813.90	3.636
814.20	5.455
814.50	-13.333
814.81	9.091
815.11	-15.789
815.41	16.279
815.72	-15.000
816.02	-48.571
816.32	-8.108
816.62	0.000
816.93	0.000
817.23	-22.222
817.53	-36.111
817.84	-5.405
818.14	-21.951
818.44	22.000
818.74	-4.082
819.04	7.317
819.35	-11.111
819.65	-4.545
819.95	-88.889
820.25	-24.242
820.56	-23.810
820.86	-44.444
821.16	-22.727
821.46	-32.609
821.76	-12.069
822.07	-17.391
822.37	-21.212
822.67	14.634
822.97	2.703
823.27	-28.571
823.57	13.793
823.88	-2.941
824.18	5.556
824.48	-11.429
824.78	-9.524
825.08	-25.000
825.38	-29.630
825.69	-35.484
825.99	-9.756
826.29	-25.926
826.59	9.375
826.89	-19.355
827.19	-56.522
827.49	-22.222
827.79	-39.130
828.09	-19.355
828.39	-29.167
828.70	-46.875
829.00	-13.793
829.30	-16.216
829.60	-33.333
829.90	-33.333
830.20	-9.375
830.50	4.545
830.80	-105.882
831.10	-31.818
831.40	-14.706
831.70	-3.846
832.00	12.121
832.30	-23.529
832.60	-24.324
832.90	800.000
833.20	-21.429
833.50	-95.000
833.80	-7.895
834.10	-75.000
834.40	-59.091
834.70	-53.333
835.00	-40.000
835.30	-4.167
835.60	-66.667
835.90	-61.905
836.20	-24.000
836.50	-54.167
836.80	-78.947
837.10	2.703
837.40	-16.667
837.70	21.739
838.00	29.167
838.30	-10.526
838.60	-150.000
838.90	-160.000
839.19	-141.667
839.49	-61.538
839.79	0.000
840.09	-300.000
840.39	-90.000
840.69	-45.455
840.99	-23.810
841.29	-12.500
841.59	-61.538
841.88	-100.000
842.18	-64.286
842.48	-10.000
842.78	-257.143
843.08	-71.429
843.38	-137.500
843.68	-125.000
843.97	21.429
844.27	-200.000
844.57	-18.182
844.87	-73.333
845.17	-9.091
845.47	966.667
845.76	-60.000
846.06	-133.333
846.36	-700.000
846.66	-31.579
846.96	-36.364
847.25	-50.000
847.55	-155.556
847.85	-71.429
848.15	-84.615
848.44	-400.000
848.74	-100.000
849.04	-123.077
849.34	-375.000
849.63	-72.727
849.93	-121.429
850.23	-5.000
850.53	-250.000
850.82	-83.333
851.12	-40.000
851.42	-17.647
851.71	-137.500
852.01	-64.706
852.31	-69.231
852.61	850.000
852.90	-11.765
853.20	-46.667
853.50	-37.500
853.79	-100.000
854.09	-275.000
854.39	-20.000
854.68	2.500
854.98	-19.048
855.28	-56.000
855.57	-4.167
855.87	-37.500
856.17	-40.000
856.46	-25.000
856.76	-10.000
857.05	12.000
857.35	-141.667
857.65	-88.235
857.94	-183.333
858.24	-66.667
858.53	30.000
858.83	-63.636
859.13	48.000
859.42	-92.857
859.72	-150.000
860.01	-25.000
860.31	-150.000
860.60	-75.000
860.90	-266.667
861.20	-133.333
861.49	-80.000
861.79	-50.000
862.08	275.000
862.38	-200.000
862.67	342.857
862.97	400.000
863.26	-172.727
863.56	-181.818
863.85	-31.579
864.15	-82.353
864.44	-340.000
864.74	-120.000
865.03	-144.444
865.33	0.000
865.62	271.429
865.92	-15.789
866.21	-94.444
866.51	-72.727
866.80	-188.889
867.10	-212.500
867.39	6.250
867.69	-80.000
867.98	-60.000
868.27	-58.824
868.57	0.000
868.86	1150.000
869.16	-325.000
869.45	-285.714
869.75	650.000
870.04	20.000
870.33	-1400.000
870.63	-5.263
870.92	-166.667
871.22	-700.000
871.51	-271.429
871.80	-188.889
872.10	-400.000
>>>>>End Processed Spectral Data<<<<<
