SpectraSuite Data File
++++++++++++++++++++++++++++++++++++
Date: Wed May 13 21:33:51 PDT 2015
User: schluterlab
Dark Spectrum Present: Yes
Reference Spectrum Present: Yes
Number of Sampled Component Spectra: 1
Spectrometers: USB2E3373
Integration Time (usec): 3000 (USB2E3373)
Spectra Averaged: 3 (USB2E3373)
Boxcar Smoothing: 0 (USB2E3373)
Correct for Electrical Dark: No (USB2E3373)
Strobe/Lamp Enabled: No (USB2E3373)
Correct for Detector Non-linearity: No (USB2E3373)
Correct for Stray Light: No (USB2E3373)
Number of Pixels in Processed Spectrum: 2048
>>>>>Begin Processed Spectral Data<<<<<
178.53	0.000
178.91	-0.000
179.29	200.000
179.67	-800.000
180.04	-366.667
180.42	280.000
180.80	1800.000
181.18	333.333
181.56	-400.000
181.94	-300.000
182.31	27.273
182.69	153.846
183.07	-220.000
183.45	366.667
183.83	377.778
184.20	214.286
184.58	-166.667
184.96	200.000
185.34	314.286
185.72	0.000
186.09	-400.000
186.47	-220.000
186.85	120.000
187.23	-150.000
187.61	850.000
187.98	2200.000
188.36	-187.500
188.74	0.000
189.12	-136.364
189.49	60.000
189.87	91.667
190.25	460.000
190.63	1000.000
191.00	-280.000
191.38	400.000
191.76	500.000
192.14	116.667
192.51	26.316
192.89	533.333
193.27	125.000
193.65	-140.000
194.02	245.455
194.40	160.000
194.78	-1100.000
195.15	300.000
195.53	-360.000
195.91	-87.500
196.29	-333.333
196.66	0.000
197.04	300.000
197.42	-40.000
197.79	-40.000
198.17	-112.500
198.55	-366.667
198.92	350.000
199.30	-600.000
199.68	-90.000
200.05	850.000
200.43	133.333
200.81	-2000.000
201.18	-200.000
201.56	-183.333
201.94	875.000
202.31	-21.739
202.69	-200.000
203.07	-400.000
203.44	-220.000
203.82	-366.667
204.19	-60.000
204.57	0.000
204.95	50.000
205.32	0.000
205.70	-750.000
206.08	-350.000
206.45	-250.000
206.83	450.000
207.20	-500.000
207.58	-80.000
207.96	-1400.000
208.33	-185.714
208.71	-1600.000
209.08	300.000
209.46	375.000
209.84	0.000
210.21	130.000
210.59	2000.000
210.96	120.000
211.34	1000.000
211.71	-900.000
212.09	-250.000
212.46	-190.000
212.84	-133.333
213.22	-100.000
213.59	-1100.000
213.97	-950.000
214.34	-200.000
214.72	-46.154
215.09	200.000
215.47	222.222
215.84	750.000
216.22	-75.000
216.59	-200.000
216.97	866.667
217.34	55.556
217.72	0.000
218.09	433.333
218.47	-200.000
218.84	-171.429
219.22	-137.500
219.59	-566.667
219.97	-300.000
220.34	-162.500
220.72	-280.000
221.09	0.000
221.47	-216.667
221.84	-200.000
222.22	0.000
222.59	1200.000
222.97	-533.333
223.34	-83.333
223.72	-700.000
224.09	-600.000
224.46	-72.727
224.84	-62.500
225.21	-100.000
225.59	-400.000
225.96	-200.000
226.34	-30.000
226.71	-100.000
227.08	1000.000
227.46	-125.000
227.83	-900.000
228.21	-37.500
228.58	-325.000
228.95	-70.588
229.33	-62.500
229.70	-112.500
230.08	-53.846
230.45	-137.500
230.82	-66.667
231.20	314.286
231.57	-450.000
231.95	400.000
232.32	75.000
232.69	11.765
233.07	-1500.000
233.44	-26.087
233.81	-1100.000
234.19	4.167
234.56	-53.333
234.93	-86.667
235.31	5.263
235.68	-69.231
236.05	-84.615
236.43	-44.444
236.80	-6.061
237.17	-113.333
237.55	-64.706
237.92	0.000
238.29	-33.333
238.67	-13.889
239.04	-16.129
239.41	-19.149
239.79	17.021
240.16	-11.628
240.53	-25.000
240.91	-3.571
241.28	5.357
241.65	19.355
242.02	6.579
242.40	5.797
242.77	-1.449
243.14	23.077
243.51	11.702
243.89	10.577
244.26	24.528
244.63	-1.923
245.00	12.500
245.38	8.403
245.75	16.393
246.12	11.278
246.49	14.634
246.87	1.681
247.24	14.865
247.61	13.907
247.98	14.103
248.36	14.201
248.73	18.539
249.10	18.182
249.47	12.366
249.84	21.579
250.22	17.413
250.59	17.290
250.96	21.364
251.33	11.005
251.70	19.665
252.08	19.665
252.45	18.930
252.82	18.251
253.19	19.066
253.56	17.626
253.94	17.794
254.31	17.606
254.68	20.805
255.05	19.142
255.42	14.685
255.79	19.632
256.16	17.350
256.54	16.190
256.91	18.987
257.28	19.497
257.65	20.064
258.02	18.182
258.39	18.421
258.76	17.442
259.14	17.898
259.51	18.539
259.88	21.409
260.25	19.444
260.62	18.258
260.99	21.485
261.36	22.280
261.73	20.000
262.10	19.338
262.47	16.790
262.85	18.657
263.22	20.000
263.59	18.701
263.96	20.438
264.33	17.067
264.70	21.395
265.07	22.685
265.44	20.460
265.81	21.510
266.18	19.134
266.55	20.087
266.92	20.763
267.29	20.370
267.66	22.081
268.03	20.165
268.40	18.432
268.77	22.727
269.14	19.796
269.51	24.025
269.88	18.534
270.25	18.220
270.62	20.697
270.99	21.260
271.36	20.238
271.73	21.285
272.10	20.381
272.47	19.194
272.84	22.244
273.21	18.004
273.58	20.902
273.95	19.623
274.32	22.201
274.69	18.397
275.06	22.615
275.43	21.469
275.80	19.858
276.17	19.890
276.54	17.940
276.91	19.512
277.28	19.495
277.65	20.455
278.02	20.714
278.39	22.202
278.76	20.401
279.13	20.412
279.50	18.276
279.87	20.109
280.23	20.541
280.60	18.512
280.97	20.942
281.34	21.293
281.71	18.374
282.08	18.974
282.45	20.000
282.82	20.128
283.19	19.055
283.56	19.375
283.92	20.336
284.29	19.033
284.66	18.946
285.03	18.730
285.40	20.242
285.77	20.871
286.14	20.213
286.51	21.739
286.87	18.308
287.24	18.732
287.61	20.181
287.98	19.853
288.35	16.990
288.72	20.516
289.08	19.658
289.45	20.264
289.82	19.667
290.19	18.794
290.56	20.455
290.93	18.094
291.29	18.194
291.66	17.213
292.03	20.300
292.40	16.151
292.77	18.340
293.13	18.131
293.50	19.216
293.87	19.600
294.24	17.460
294.60	17.815
294.97	18.386
295.34	18.734
295.71	16.163
296.08	16.230
296.44	16.837
296.81	16.565
297.18	17.000
297.55	16.274
297.91	17.516
298.28	18.281
298.65	15.764
299.02	18.193
299.38	14.601
299.75	17.788
300.12	15.233
300.48	15.556
300.85	15.589
301.22	16.841
301.59	15.845
301.95	15.912
302.32	15.286
302.69	15.141
303.05	15.836
303.42	15.909
303.79	16.299
304.15	15.005
304.52	16.989
304.89	15.615
305.25	15.258
305.62	15.835
305.99	16.213
306.35	17.137
306.72	16.175
307.09	16.580
307.45	16.613
307.82	15.474
308.19	15.883
308.55	14.944
308.92	17.191
309.29	16.116
309.65	16.783
310.02	16.402
310.38	16.870
310.75	16.765
311.12	16.812
311.48	16.716
311.85	16.831
312.22	16.538
312.58	16.618
312.95	16.816
313.31	16.804
313.68	17.176
314.05	17.202
314.41	19.020
314.78	19.165
315.14	18.889
315.51	19.696
315.87	19.370
316.24	18.825
316.61	19.635
316.97	20.463
317.34	19.519
317.70	21.499
318.07	21.207
318.43	21.319
318.80	22.862
319.16	22.281
319.53	22.222
319.89	22.222
320.26	22.736
320.62	22.892
320.99	22.578
321.35	24.602
321.72	25.217
322.08	25.000
322.45	25.994
322.81	25.786
323.18	25.045
323.54	27.347
323.91	27.462
324.27	27.903
324.64	27.526
325.00	29.659
325.37	31.399
325.73	30.051
326.10	31.539
326.46	32.023
326.83	31.634
327.19	32.520
327.56	34.488
327.92	34.272
328.29	34.558
328.65	35.933
329.01	34.741
329.38	38.609
329.74	37.339
330.11	37.060
330.47	37.760
330.84	37.816
331.20	37.148
331.56	39.312
331.93	38.846
332.29	39.705
332.66	40.085
333.02	40.139
333.38	40.614
333.75	39.164
334.11	40.712
334.48	40.541
334.84	41.519
335.20	39.623
335.57	39.774
335.93	40.550
336.29	40.630
336.66	40.769
337.02	42.435
337.38	41.688
337.75	41.947
338.11	42.101
338.47	42.979
338.84	42.354
339.20	42.769
339.56	42.577
339.93	41.746
340.29	42.869
340.65	42.601
341.02	43.344
341.38	44.172
341.74	41.513
342.11	42.940
342.47	44.686
342.83	43.301
343.20	43.486
343.56	43.581
343.92	43.217
344.28	42.857
344.65	42.857
345.01	43.987
345.37	45.395
345.73	45.180
346.10	42.376
346.46	44.390
346.82	43.820
347.19	44.225
347.55	45.638
347.91	43.648
348.27	44.401
348.63	42.628
349.00	45.755
349.36	45.683
349.72	45.785
350.08	45.398
350.45	45.184
350.81	47.027
351.17	45.035
351.53	45.876
351.89	45.830
352.26	45.869
352.62	46.434
352.98	46.486
353.34	46.618
353.70	47.274
354.07	45.412
354.43	47.823
354.79	47.917
355.15	46.661
355.51	46.849
355.87	46.990
356.24	46.870
356.60	46.833
356.96	46.431
357.32	48.375
357.68	48.205
358.04	47.324
358.40	47.674
358.77	47.324
359.13	50.117
359.49	48.448
359.85	49.659
360.21	49.807
360.57	48.061
360.93	48.938
361.29	49.593
361.66	50.190
362.02	48.258
362.38	49.335
362.74	49.384
363.10	49.675
363.46	49.135
363.82	50.037
364.18	50.254
364.54	51.058
364.90	49.199
365.26	49.682
365.62	49.716
365.98	49.751
366.35	50.780
366.71	50.285
367.07	50.319
367.43	49.268
367.79	50.035
368.15	50.914
368.51	50.000
368.87	50.733
369.23	51.032
369.59	51.304
369.95	51.306
370.31	49.372
370.67	51.919
371.03	52.858
371.39	53.726
371.75	51.643
372.11	51.709
372.47	52.199
372.83	52.358
373.19	53.309
373.55	52.168
373.91	51.556
374.27	51.452
374.63	53.058
374.99	52.437
375.35	51.781
375.71	51.902
376.07	52.502
376.42	52.941
376.78	54.756
377.14	54.237
377.50	53.390
377.86	53.718
378.22	53.793
378.58	53.342
378.94	54.875
379.30	54.341
379.66	53.822
380.02	53.922
380.38	53.976
380.74	54.094
381.09	53.016
381.45	53.567
381.81	55.145
382.17	53.749
382.53	54.215
382.89	54.343
383.25	55.432
383.61	53.753
383.97	55.750
384.32	55.261
384.68	54.349
385.04	54.062
385.40	55.978
385.76	56.144
386.12	54.229
386.48	56.552
386.83	56.446
387.19	54.966
387.55	56.284
387.91	56.642
388.27	55.857
388.62	55.930
388.98	56.070
389.34	55.514
389.70	55.311
390.06	56.063
390.42	56.830
390.77	55.221
391.13	57.071
391.49	53.890
391.85	56.422
392.20	55.388
392.56	56.635
392.92	56.290
393.28	55.317
393.64	54.862
393.99	55.263
394.35	56.235
394.71	56.218
395.07	55.660
395.42	56.551
395.78	55.212
396.14	56.753
396.50	57.451
396.85	56.660
397.21	55.056
397.57	55.963
397.92	55.389
398.28	56.514
398.64	55.859
399.00	55.357
399.35	56.754
399.71	55.446
400.07	56.386
400.42	56.301
400.78	57.039
401.14	56.407
401.49	55.542
401.85	56.757
402.21	56.718
402.57	56.346
402.92	56.008
403.28	56.973
403.63	55.363
403.99	56.686
404.35	57.045
404.70	55.952
405.06	56.430
405.42	55.967
405.77	54.724
406.13	54.343
406.49	55.782
406.84	56.410
407.20	54.174
407.55	56.039
407.91	55.394
408.27	55.396
408.62	55.985
408.98	54.932
409.34	55.507
409.69	54.711
410.05	55.535
410.40	54.352
410.76	56.077
411.11	56.654
411.47	56.802
411.83	55.833
412.18	53.841
412.54	55.263
412.89	55.987
413.25	53.097
413.60	55.925
413.96	56.617
414.31	55.672
414.67	54.286
415.03	55.142
415.38	56.275
415.74	54.451
416.09	55.387
416.45	55.297
416.80	55.436
417.16	55.870
417.51	55.794
417.87	56.349
418.22	55.398
418.58	53.811
418.93	55.681
419.29	57.228
419.64	53.372
420.00	55.556
420.35	55.111
420.71	55.027
421.06	54.551
421.42	56.265
421.77	54.740
422.12	55.874
422.48	54.689
422.83	54.814
423.19	55.549
423.54	54.594
423.90	54.513
424.25	56.730
424.61	55.022
424.96	54.465
425.31	53.674
425.67	55.556
426.02	55.654
426.38	55.162
426.73	53.757
427.09	54.284
427.44	54.668
427.79	54.454
428.15	53.700
428.50	54.320
428.85	54.736
429.21	54.080
429.56	54.888
429.92	54.555
430.27	53.732
430.62	54.040
430.98	54.310
431.33	54.541
431.68	54.313
432.04	53.803
432.39	53.349
432.74	55.120
433.10	54.213
433.45	53.195
433.80	54.598
434.16	53.523
434.51	54.185
434.86	54.653
435.22	53.877
435.57	53.501
435.92	54.885
436.28	52.733
436.63	53.522
436.98	54.994
437.34	54.151
437.69	53.424
438.04	53.367
438.39	54.608
438.75	53.695
439.10	54.829
439.45	53.571
439.81	54.557
440.16	54.667
440.51	52.675
440.86	54.179
441.22	54.217
441.57	53.525
441.92	53.603
442.27	53.139
442.63	53.122
442.98	53.704
443.33	53.273
443.68	53.611
444.03	53.850
444.39	53.099
444.74	53.230
445.09	52.313
445.44	53.239
445.79	52.710
446.15	53.356
446.50	52.037
446.85	52.753
447.20	52.326
447.55	53.665
447.91	52.753
448.26	52.258
448.61	52.589
448.96	52.904
449.31	52.656
449.66	52.689
450.02	52.928
450.37	53.525
450.72	52.411
451.07	52.915
451.42	51.903
451.77	53.561
452.12	51.753
452.47	53.131
452.83	51.887
453.18	51.878
453.53	51.450
453.88	51.807
454.23	52.658
454.58	51.593
454.93	52.277
455.28	51.574
455.63	52.090
455.98	51.369
456.34	50.286
456.69	51.310
457.04	51.393
457.39	51.353
457.74	49.731
458.09	51.659
458.44	51.410
458.79	49.753
459.14	49.888
459.49	51.098
459.84	49.887
460.19	50.660
460.54	51.642
460.89	51.351
461.24	50.432
461.59	51.268
461.94	49.810
462.29	49.877
462.64	50.000
462.99	48.826
463.34	49.793
463.69	50.387
464.04	48.920
464.39	50.580
464.74	49.570
465.09	50.837
465.44	48.373
465.79	51.236
466.14	48.803
466.49	49.736
466.84	48.536
467.19	49.936
467.54	48.736
467.89	49.151
468.24	49.785
468.59	49.331
468.94	48.978
469.29	49.108
469.64	49.024
469.99	50.552
470.34	48.281
470.68	48.773
471.03	47.955
471.38	48.540
471.73	47.874
472.08	49.141
472.43	48.945
472.78	48.411
473.13	46.900
473.48	47.815
473.83	47.772
474.17	49.544
474.52	49.968
474.87	46.502
475.22	48.490
475.57	47.518
475.92	47.328
476.27	47.611
476.61	47.622
476.96	47.630
477.31	46.764
477.66	47.684
478.01	45.934
478.36	46.485
478.70	46.509
479.05	47.059
479.40	45.918
479.75	47.024
480.10	46.711
480.45	46.591
480.79	46.491
481.14	47.720
481.49	47.213
481.84	44.769
482.19	45.623
482.53	45.524
482.88	46.357
483.23	44.899
483.58	46.786
483.92	45.477
484.27	45.608
484.62	43.409
484.97	44.961
485.31	44.559
485.66	43.202
486.01	44.605
486.36	44.455
486.70	44.844
487.05	44.396
487.40	44.325
487.75	44.846
488.09	43.572
488.44	43.919
488.79	43.376
489.13	44.056
489.48	44.164
489.83	44.038
490.17	45.030
490.52	44.787
490.87	43.533
491.22	43.712
491.56	45.137
491.91	43.207
492.26	44.197
492.60	44.060
492.95	44.315
493.30	43.411
493.64	42.974
493.99	43.623
494.34	43.497
494.68	43.580
495.03	43.626
495.37	42.628
495.72	43.208
496.07	44.228
496.41	43.191
496.76	42.687
497.11	42.535
497.45	43.531
497.80	44.321
498.14	42.317
498.49	42.209
498.84	42.763
499.18	43.405
499.53	42.590
499.87	42.455
500.22	42.957
500.56	42.377
500.91	42.757
501.26	42.365
501.60	41.667
501.95	41.351
502.29	41.796
502.64	43.057
502.98	42.678
503.33	42.336
503.67	41.772
504.02	41.863
504.36	41.159
504.71	42.022
505.06	42.231
505.40	41.959
505.75	41.913
506.09	41.134
506.44	41.683
506.78	40.884
507.13	42.048
507.47	40.880
507.82	40.188
508.16	41.266
508.51	40.238
508.85	40.021
509.19	41.905
509.54	40.965
509.88	41.075
510.23	39.368
510.57	40.360
510.92	41.272
511.26	41.309
511.61	40.340
511.95	40.463
512.30	39.700
512.64	40.409
512.98	40.222
513.33	40.451
513.67	41.511
514.02	41.106
514.36	39.831
514.70	40.185
515.05	41.486
515.39	41.038
515.74	39.491
516.08	39.469
516.42	39.171
516.77	39.133
517.11	39.918
517.46	40.156
517.80	39.467
518.14	39.192
518.49	38.939
518.83	39.379
519.17	39.578
519.52	38.902
519.86	39.648
520.20	38.751
520.55	38.246
520.89	40.038
521.23	40.064
521.58	38.496
521.92	38.089
522.26	39.232
522.61	39.108
522.95	38.083
523.29	38.540
523.64	38.462
523.98	39.327
524.32	38.878
524.66	38.831
525.01	38.139
525.35	38.973
525.69	38.701
526.04	38.046
526.38	38.496
526.72	38.133
527.06	37.395
527.41	37.856
527.75	37.784
528.09	37.849
528.43	38.874
528.78	37.468
529.12	37.775
529.46	37.876
529.80	37.605
530.15	36.615
530.49	37.399
530.83	37.915
531.17	37.808
531.51	37.357
531.86	36.856
532.20	37.767
532.54	36.759
532.88	37.236
533.22	37.172
533.57	36.887
533.91	37.935
534.25	38.021
534.59	37.387
534.93	36.862
535.27	36.306
535.62	37.303
535.96	35.914
536.30	35.505
536.64	35.885
536.98	36.020
537.32	35.374
537.66	36.248
538.01	36.130
538.35	35.843
538.69	34.716
539.03	36.107
539.37	35.949
539.71	36.289
540.05	34.818
540.39	35.857
540.73	35.964
541.07	35.170
541.42	34.747
541.76	35.250
542.10	35.477
542.44	35.412
542.78	35.323
543.12	35.714
543.46	35.038
543.80	35.031
544.14	35.719
544.48	33.577
544.82	35.037
545.16	35.429
545.50	35.246
545.84	34.292
546.18	33.380
546.52	34.651
546.86	34.134
547.20	33.953
547.54	33.667
547.88	34.885
548.22	34.658
548.56	33.889
548.90	33.491
549.24	34.583
549.58	32.740
549.92	33.676
550.26	33.801
550.60	33.934
550.94	32.687
551.28	33.232
551.62	33.308
551.96	33.968
552.30	33.552
552.64	32.274
552.98	33.807
553.32	33.381
553.66	33.529
554.00	33.117
554.34	33.040
554.68	33.482
555.02	32.260
555.36	33.359
555.69	32.702
556.03	33.095
556.37	32.859
556.71	32.376
557.05	33.506
557.39	33.459
557.73	35.174
558.07	32.856
558.41	33.535
558.75	33.025
559.08	31.917
559.42	32.887
559.76	32.951
560.10	32.821
560.44	32.498
560.78	32.446
561.12	32.936
561.45	32.381
561.79	32.944
562.13	31.505
562.47	32.643
562.81	31.241
563.15	31.941
563.48	31.590
563.82	32.421
564.16	31.821
564.50	31.750
564.84	32.162
565.17	32.583
565.51	32.487
565.85	30.913
566.19	31.987
566.52	30.537
566.86	30.910
567.20	30.422
567.54	31.146
567.88	29.787
568.21	30.255
568.55	30.934
568.89	30.508
569.23	30.568
569.56	31.414
569.90	30.598
570.24	30.253
570.57	30.058
570.91	30.726
571.25	29.936
571.59	29.946
571.92	29.715
572.26	30.769
572.60	29.566
572.93	29.428
573.27	29.001
573.61	30.176
573.95	29.693
574.28	29.544
574.62	29.005
574.96	29.847
575.29	29.940
575.63	29.268
575.97	29.293
576.30	29.405
576.64	29.054
576.98	29.516
577.31	29.582
577.65	29.423
577.98	29.174
578.32	29.219
578.66	29.123
578.99	28.897
579.33	29.235
579.67	29.201
580.00	28.894
580.34	28.526
580.67	29.128
581.01	28.801
581.35	29.075
581.68	28.715
582.02	28.793
582.35	28.684
582.69	28.928
583.02	28.306
583.36	28.787
583.70	28.329
584.03	28.067
584.37	28.060
584.70	28.762
585.04	28.865
585.37	28.530
585.71	28.558
586.04	28.521
586.38	28.571
586.72	28.238
587.05	28.878
587.39	28.401
587.72	28.644
588.06	28.837
588.39	28.603
588.73	28.189
589.06	28.484
589.40	27.451
589.73	27.812
590.07	27.889
590.40	27.717
590.73	28.647
591.07	28.333
591.40	27.565
591.74	28.368
592.07	28.663
592.41	27.928
592.74	27.932
593.08	28.034
593.41	27.714
593.75	28.585
594.08	28.083
594.41	27.788
594.75	27.849
595.08	28.454
595.42	27.165
595.75	27.223
596.09	28.137
596.42	27.083
596.75	27.863
597.09	27.934
597.42	27.591
597.75	27.333
598.09	27.550
598.42	27.562
598.76	27.834
599.09	28.731
599.42	27.568
599.76	28.089
600.09	27.523
600.42	27.684
600.76	26.866
601.09	27.081
601.42	27.440
601.76	26.834
602.09	27.158
602.42	27.445
602.76	26.762
603.09	27.680
603.42	26.709
603.76	27.007
604.09	26.640
604.42	26.957
604.76	26.713
605.09	27.685
605.42	27.485
605.75	27.281
606.09	26.366
606.42	27.182
606.75	26.450
607.09	26.551
607.42	26.226
607.75	26.652
608.08	26.601
608.42	26.757
608.75	26.995
609.08	26.997
609.41	27.620
609.75	26.626
610.08	26.972
610.41	27.697
610.74	26.708
611.07	26.453
611.41	27.329
611.74	26.760
612.07	27.410
612.40	26.703
612.73	25.631
613.07	26.996
613.40	26.377
613.73	26.544
614.06	26.258
614.39	26.181
614.72	26.707
615.06	26.556
615.39	26.380
615.72	26.620
616.05	26.239
616.38	25.258
616.71	25.675
617.05	26.413
617.38	26.124
617.71	24.326
618.04	24.741
618.37	25.552
618.70	26.197
619.03	26.048
619.36	27.544
619.69	25.731
620.03	25.724
620.36	25.818
620.69	25.125
621.02	25.769
621.35	25.756
621.68	25.591
622.01	27.023
622.34	25.139
622.67	26.077
623.00	26.672
623.33	25.355
623.66	25.353
623.99	25.956
624.32	24.872
624.65	26.929
624.99	25.716
625.32	26.587
625.65	24.729
625.98	26.066
626.31	24.980
626.64	25.623
626.97	25.779
627.30	28.144
627.63	25.519
627.96	24.589
628.29	25.581
628.62	25.532
628.95	26.453
629.28	25.419
629.61	26.699
629.94	24.952
630.26	25.517
630.59	25.774
630.92	25.402
631.25	25.850
631.58	25.482
631.91	25.239
632.24	26.674
632.57	24.889
632.90	26.488
633.23	23.981
633.56	25.659
633.89	24.880
634.22	27.562
634.55	24.970
634.88	24.265
635.20	26.750
635.53	24.806
635.86	25.641
636.19	25.558
636.52	26.098
636.85	25.573
637.18	24.970
637.51	25.718
637.83	26.240
638.16	24.133
638.49	25.634
638.82	24.444
639.15	24.202
639.48	26.872
639.81	24.306
640.13	26.901
640.46	25.565
640.79	23.741
641.12	23.964
641.45	24.745
641.77	24.300
642.10	25.719
642.43	28.145
642.76	25.079
643.09	24.441
643.41	25.678
643.74	25.202
644.07	24.434
644.40	24.212
644.73	24.576
645.05	24.607
645.38	22.259
645.71	23.810
646.04	23.401
646.36	23.264
646.69	24.650
647.02	24.590
647.35	25.411
647.67	24.214
648.00	24.094
648.33	25.763
648.66	24.040
648.98	23.758
649.31	24.080
649.64	23.944
649.96	25.750
650.29	22.876
650.62	24.382
650.94	24.655
651.27	22.261
651.60	26.049
651.92	25.627
652.25	24.121
652.58	23.102
652.90	24.579
653.23	22.750
653.56	24.132
653.88	22.014
654.21	21.843
654.54	23.754
654.86	24.228
655.19	23.950
655.52	26.499
655.84	25.708
656.17	30.888
656.49	40.262
656.82	38.936
657.15	28.354
657.47	20.637
657.80	15.209
658.13	15.681
658.45	22.649
658.78	22.715
659.10	21.809
659.43	21.993
659.75	22.298
660.08	21.931
660.41	20.183
660.73	22.176
661.06	20.578
661.38	20.736
661.71	22.541
662.03	25.370
662.36	22.788
662.68	24.086
663.01	24.153
663.33	23.110
663.66	21.508
663.98	25.169
664.31	22.418
664.63	18.919
664.96	20.350
665.28	25.107
665.61	21.598
665.93	20.128
666.26	25.738
666.58	20.128
666.91	26.457
667.23	22.350
667.56	23.678
667.88	23.598
668.21	21.205
668.53	22.529
668.86	24.700
669.18	23.168
669.50	23.733
669.83	20.048
670.15	19.762
670.48	22.069
670.80	21.882
671.13	21.281
671.45	23.288
671.77	23.707
672.10	21.832
672.42	20.611
672.75	22.500
673.07	20.909
673.39	22.948
673.72	23.353
674.04	23.770
674.37	19.919
674.69	21.193
675.01	20.726
675.34	24.726
675.66	22.658
675.98	21.681
676.31	20.362
676.63	25.170
676.95	21.176
677.28	22.936
677.60	21.324
677.92	26.164
678.25	25.813
678.57	23.422
678.89	21.535
679.22	23.188
679.54	23.061
679.86	23.633
680.18	22.308
680.51	22.115
680.83	23.002
681.15	22.593
681.48	21.844
681.80	22.290
682.12	22.500
682.44	21.932
682.77	20.842
683.09	19.643
683.41	21.395
683.73	19.866
684.06	20.796
684.38	24.573
684.70	20.367
685.02	22.934
685.34	23.679
685.67	21.201
685.99	21.886
686.31	22.414
686.63	20.956
686.96	22.263
687.28	19.760
687.60	24.197
687.92	20.623
688.24	19.800
688.56	23.246
688.89	20.267
689.21	20.852
689.53	20.721
689.85	20.449
690.17	21.319
690.49	20.048
690.82	23.389
691.14	23.430
691.46	22.738
691.78	23.297
692.10	23.142
692.42	20.220
692.74	21.957
693.06	22.247
693.39	19.204
693.71	22.444
694.03	23.409
694.35	22.973
694.67	23.000
694.99	22.423
695.31	23.256
695.63	21.463
695.95	19.338
696.27	16.438
696.59	24.462
696.91	18.715
697.23	20.812
697.56	22.782
697.88	22.661
698.20	23.326
698.52	22.196
698.84	22.488
699.16	21.040
699.48	22.716
699.80	24.031
700.12	22.788
700.44	20.282
700.76	21.067
701.08	21.752
701.40	23.054
701.72	20.308
702.04	20.126
702.36	20.732
702.68	16.159
703.00	23.977
703.32	21.448
703.64	21.687
703.96	22.874
704.28	19.880
704.60	20.732
704.91	20.376
705.23	18.671
705.55	19.655
705.87	24.648
706.19	19.048
706.51	17.606
706.83	15.605
707.15	16.768
707.47	19.008
707.79	20.305
708.11	20.823
708.43	19.289
708.74	21.011
709.06	18.449
709.38	23.343
709.70	21.021
710.02	20.561
710.34	17.333
710.66	19.218
710.98	20.433
711.29	20.455
711.61	16.774
711.93	20.968
712.25	17.832
712.57	16.842
712.89	20.147
713.20	19.149
713.52	19.343
713.84	22.903
714.16	19.741
714.48	19.620
714.80	18.850
715.11	20.930
715.43	13.665
715.75	22.981
716.07	22.289
716.39	20.202
716.70	24.101
717.02	16.078
717.34	24.242
717.66	19.397
717.97	18.254
718.29	22.047
718.61	20.172
718.93	20.155
719.24	21.033
719.56	16.854
719.88	17.164
720.20	20.949
720.51	21.094
720.83	19.455
721.15	13.415
721.46	18.321
721.78	17.530
722.10	16.733
722.42	19.758
722.73	16.988
723.05	19.184
723.37	17.227
723.68	17.200
724.00	16.170
724.32	20.921
724.63	19.753
724.95	11.538
725.27	24.051
725.58	22.222
725.90	20.084
726.22	17.754
726.53	17.647
726.85	21.533
727.16	17.407
727.48	20.690
727.80	19.531
728.11	18.443
728.43	23.047
728.74	18.651
729.06	12.800
729.38	20.949
729.69	17.794
730.01	17.100
730.32	19.188
730.64	18.561
730.96	22.378
731.27	19.064
731.59	18.095
731.90	25.243
732.22	17.949
732.53	17.568
732.85	15.436
733.16	19.802
733.48	20.608
733.80	20.946
734.11	21.284
734.43	18.885
734.74	20.420
735.06	16.138
735.37	18.541
735.69	18.123
736.00	19.472
736.32	17.376
736.63	20.000
736.95	16.096
737.26	17.586
737.58	20.139
737.89	18.900
738.21	16.726
738.52	16.730
738.83	20.408
739.15	14.346
739.46	19.066
739.78	21.479
740.09	18.493
740.41	18.214
740.72	16.667
741.04	18.800
741.35	17.105
741.66	17.778
741.98	13.462
742.29	21.782
742.61	22.439
742.92	14.912
743.23	14.623
743.55	18.018
743.86	13.901
744.18	19.608
744.49	19.289
744.80	20.408
745.12	15.888
745.43	23.223
745.74	21.171
746.06	21.495
746.37	14.679
746.68	17.308
747.00	22.488
747.31	23.558
747.62	17.431
747.94	20.087
748.25	17.431
748.56	23.111
748.88	20.188
749.19	20.000
749.50	10.680
749.82	14.554
750.13	14.167
750.44	16.154
750.75	16.605
751.07	23.132
751.38	14.539
751.69	20.077
752.01	18.750
752.32	14.231
752.63	22.761
752.94	19.600
753.26	18.410
753.57	18.333
753.88	17.814
754.19	22.311
754.51	15.414
754.82	19.780
755.13	16.087
755.44	17.073
755.75	15.600
756.07	15.129
756.38	16.547
756.69	21.843
757.00	22.430
757.31	16.181
757.63	16.049
757.94	21.469
758.25	22.487
758.56	19.565
758.87	18.155
759.18	17.981
759.50	18.855
759.81	19.398
760.12	20.308
760.43	16.964
760.74	18.927
761.05	18.785
761.36	18.338
761.67	21.148
761.99	16.495
762.30	16.788
762.61	15.226
762.92	23.504
763.23	18.033
763.54	19.913
763.85	16.735
764.16	16.667
764.47	22.800
764.78	21.071
765.10	20.328
765.41	17.021
765.72	18.944
766.03	17.822
766.34	21.538
766.65	20.084
766.96	10.798
767.27	19.802
767.58	11.798
767.89	24.691
768.20	12.707
768.51	20.603
768.82	17.788
769.13	15.929
769.44	24.268
769.75	12.821
770.06	21.076
770.37	19.118
770.68	20.874
770.99	14.563
771.30	15.126
771.61	16.327
771.92	20.747
772.23	19.820
772.54	8.840
772.85	11.628
773.16	16.402
773.47	11.834
773.78	17.816
774.09	16.250
774.39	19.876
774.70	11.565
775.01	10.345
775.32	14.286
775.63	15.038
775.94	11.278
776.25	8.000
776.56	18.182
776.87	15.873
777.18	11.712
777.48	16.216
777.79	13.386
778.10	10.092
778.41	14.035
778.72	7.563
779.03	18.310
779.34	24.324
779.65	11.268
779.95	18.543
780.26	13.669
780.57	7.194
780.88	16.197
781.19	5.042
781.50	21.477
781.80	14.620
782.11	13.953
782.42	17.610
782.73	13.072
783.04	12.414
783.34	15.267
783.65	12.081
783.96	10.000
784.27	8.571
784.57	12.057
784.88	7.692
785.19	25.455
785.50	10.909
785.81	8.571
786.11	13.445
786.42	22.124
786.73	5.660
787.04	11.927
787.34	4.950
787.65	15.000
787.96	7.438
788.26	15.217
788.57	8.730
788.88	17.073
789.19	17.600
789.49	9.160
789.80	18.939
790.11	5.660
790.41	16.832
790.72	25.532
791.03	0.000
791.33	9.412
791.64	12.346
791.95	6.522
792.25	15.909
792.56	20.513
792.87	0.000
793.17	-2.564
793.48	10.714
793.79	10.000
794.09	25.962
794.40	25.000
794.70	5.405
795.01	9.375
795.32	13.913
795.62	-1.087
795.93	13.208
796.23	12.121
796.54	2.439
796.85	8.333
797.15	-1.515
797.46	-4.348
797.76	-2.632
798.07	20.455
798.37	6.098
798.68	0.000
798.99	6.757
799.29	24.096
799.60	-10.256
799.90	-1.538
800.21	10.606
800.51	0.000
800.82	12.000
801.12	-37.500
801.43	5.000
801.73	9.459
802.04	17.143
802.34	21.311
802.65	10.448
802.95	-1.818
803.26	-3.448
803.56	6.154
803.87	1.887
804.17	25.806
804.48	16.176
804.78	2.439
805.09	13.043
805.39	4.412
805.70	-6.383
806.00	-14.035
806.30	16.667
806.61	5.263
806.91	13.514
807.22	-2.632
807.52	13.636
807.83	-5.085
808.13	-6.061
808.43	3.333
808.74	-25.862
809.04	3.175
809.35	-6.122
809.65	-6.667
809.95	-4.082
810.26	9.859
810.56	-4.167
810.86	-4.082
811.17	9.615
811.47	-8.511
811.77	-2.083
812.08	-1.887
812.38	-28.125
812.69	-14.545
812.99	-14.634
813.29	-13.514
813.59	-27.027
813.90	-5.455
814.20	9.091
814.50	0.000
814.81	3.636
815.11	-26.316
815.41	23.256
815.72	-15.000
816.02	-22.857
816.32	-18.919
816.62	-10.417
816.93	-4.444
817.23	-26.667
817.53	-52.778
817.84	-18.919
818.14	-2.439
818.44	-8.000
818.74	6.122
819.04	31.707
819.35	-19.444
819.65	-11.364
819.95	-44.444
820.25	-30.303
820.56	-26.190
820.86	-5.556
821.16	-25.000
821.46	4.348
821.76	-6.897
822.07	13.043
822.37	15.152
822.67	19.512
822.97	-5.405
823.27	-28.571
823.57	-6.897
823.88	-38.235
824.18	-5.556
824.48	-14.286
824.78	-47.619
825.08	-3.571
825.38	3.704
825.69	-12.903
825.99	-4.878
826.29	-40.741
826.59	-31.250
826.89	-48.387
827.19	-56.522
827.49	-33.333
827.79	-30.435
828.09	-12.903
828.39	4.167
828.70	-40.625
829.00	-13.793
829.30	-13.514
829.60	-79.167
829.90	0.000
830.20	-9.375
830.50	-18.182
830.80	-164.706
831.10	-59.091
831.40	-50.000
831.70	-50.000
832.00	-30.303
832.30	-17.647
832.60	32.432
832.90	1500.000
833.20	-53.571
833.50	-110.000
833.80	-39.474
834.10	-45.833
834.40	-40.909
834.70	-73.333
835.00	-110.000
835.30	-79.167
835.60	-80.952
835.90	-28.571
836.20	-8.000
836.50	-45.833
836.80	-52.632
837.10	16.216
837.40	23.333
837.70	-26.087
838.00	4.167
838.30	15.789
838.60	-110.000
838.90	-280.000
839.19	-125.000
839.49	-130.769
839.79	0.000
840.09	-383.333
840.39	-50.000
840.69	-59.091
840.99	-52.381
841.29	-37.500
841.59	-84.615
841.88	-53.333
842.18	-50.000
842.48	-13.333
842.78	-242.857
843.08	-78.571
843.38	-125.000
843.68	-112.500
843.97	-35.714
844.27	-155.556
844.57	-163.636
844.87	6.667
845.17	-9.091
845.47	1000.000
845.76	-80.000
846.06	-116.667
846.36	-700.000
846.66	10.526
846.96	-36.364
847.25	-94.444
847.55	-222.222
847.85	-19.048
848.15	-46.154
848.44	-233.333
848.74	-100.000
849.04	-76.923
849.34	-475.000
849.63	-127.273
849.93	-135.714
850.23	-25.000
850.53	-225.000
850.82	-22.222
851.12	-53.333
851.42	-52.941
851.71	-25.000
852.01	-29.412
852.31	-84.615
852.61	1100.000
852.90	5.882
853.20	-80.000
853.50	-62.500
853.79	-100.000
854.09	-275.000
854.39	-110.000
854.68	-20.000
854.98	-80.952
855.28	-12.000
855.57	-62.500
855.87	-12.500
856.17	-56.000
856.46	15.625
856.76	-65.000
857.05	-20.000
857.35	-108.333
857.65	-29.412
857.94	-108.333
858.24	-58.333
858.53	-15.000
858.83	-109.091
859.13	-24.000
859.42	-107.143
859.72	-262.500
860.01	-20.833
860.31	-125.000
860.60	-81.250
860.90	-33.333
861.20	-16.667
861.49	13.333
861.79	-143.750
862.08	700.000
862.38	-116.667
862.67	271.429
862.97	325.000
863.26	-54.545
863.56	-109.091
863.85	15.789
864.15	-35.294
864.44	-280.000
864.74	-90.000
865.03	-55.556
865.33	-21.429
865.62	192.857
865.92	-10.526
866.21	-38.889
866.51	-72.727
866.80	-111.111
867.10	-250.000
867.39	-25.000
867.69	-73.333
867.98	-140.000
868.27	-17.647
868.57	0.000
868.86	950.000
869.16	-325.000
869.45	-214.286
869.75	500.000
870.04	-40.000
870.33	-2400.000
870.63	-115.789
870.92	-16.667
871.22	-1100.000
871.51	-171.429
871.80	-200.000
872.10	-275.000
>>>>>End Processed Spectral Data<<<<<
