SpectraSuite Data File
++++++++++++++++++++++++++++++++++++
Date: Wed May 13 20:25:19 PDT 2015
User: schluterlab
Dark Spectrum Present: Yes
Reference Spectrum Present: Yes
Number of Sampled Component Spectra: 1
Spectrometers: USB2E3373
Integration Time (usec): 3000 (USB2E3373)
Spectra Averaged: 3 (USB2E3373)
Boxcar Smoothing: 0 (USB2E3373)
Correct for Electrical Dark: No (USB2E3373)
Strobe/Lamp Enabled: No (USB2E3373)
Correct for Detector Non-linearity: No (USB2E3373)
Correct for Stray Light: No (USB2E3373)
Number of Pixels in Processed Spectrum: 2048
>>>>>Begin Processed Spectral Data<<<<<
178.53	0.000
178.91	-1300.000
179.29	-1250.000
179.67	-233.333
180.04	-1400.000
180.42	2550.000
180.80	900.000
181.18	-975.000
181.56	642.857
181.94	0.000
182.31	-585.714
182.69	1866.667
183.07	-450.000
183.45	-400.000
183.83	509.091
184.20	-300.000
184.58	2250.000
184.96	5100.000
185.34	-860.000
185.72	-625.000
186.09	-1900.000
186.47	2700.000
186.85	2400.000
187.23	4700.000
187.61	-1500.000
187.98	1325.000
188.36	509.091
188.74	481.818
189.12	-620.000
189.49	460.000
189.87	-5400.000
190.25	-1175.000
190.63	328.571
191.00	415.385
191.38	700.000
191.76	-1325.000
192.14	1100.000
192.51	550.000
192.89	916.667
193.27	550.000
193.65	-1100.000
194.02	520.000
194.40	880.000
194.78	590.000
195.15	533.333
195.53	600.000
195.91	-1750.000
196.29	331.250
196.66	300.000
197.04	-250.000
197.42	0.000
197.79	560.000
198.17	-5200.000
198.55	542.857
198.92	700.000
199.30	940.000
199.68	0.000
200.05	311.111
200.43	757.143
200.81	3700.000
201.18	1666.667
201.56	-2033.333
201.94	533.333
202.31	544.444
202.69	375.000
203.07	510.000
203.44	0.000
203.82	1125.000
204.19	814.286
204.57	414.286
204.95	662.500
205.32	1700.000
205.70	490.909
206.08	285.714
206.45	2800.000
206.83	400.000
207.20	783.333
207.58	700.000
207.96	322.222
208.33	612.500
208.71	-733.333
209.08	628.571
209.46	533.333
209.84	345.455
210.21	-1633.333
210.59	1250.000
210.96	-387.500
211.34	2150.000
211.71	650.000
212.09	833.333
212.46	0.000
212.84	1766.667
213.22	1425.000
213.59	-4700.000
213.97	750.000
214.34	642.857
214.72	481.818
215.09	980.000
215.47	-2150.000
215.84	-2550.000
216.22	1366.667
216.59	321.429
216.97	1150.000
217.34	481.818
217.72	-650.000
218.09	0.000
218.47	-4200.000
218.84	655.556
219.22	728.571
219.59	1666.667
219.97	-685.714
220.34	1000.000
220.72	-1400.000
221.09	378.571
221.47	1250.000
221.84	-850.000
222.22	0.000
222.59	1425.000
222.97	-2350.000
223.34	1120.000
223.72	492.308
224.09	1020.000
224.46	2200.000
224.84	-4900.000
225.21	-1140.000
225.59	-5400.000
225.96	520.000
226.34	345.000
226.71	2200.000
227.08	650.000
227.46	460.000
227.83	-900.000
228.21	-2450.000
228.58	577.778
228.95	-2150.000
229.33	-2250.000
229.70	1700.000
230.08	742.857
230.45	-820.000
230.82	333.333
231.20	716.667
231.57	657.143
231.95	466.667
232.32	236.364
232.69	381.818
233.07	714.286
233.44	276.923
233.81	-1533.333
234.19	257.895
234.56	458.333
234.93	241.667
235.31	318.182
235.68	307.692
236.05	357.143
236.43	166.667
236.80	273.684
237.17	4000.000
237.55	233.333
237.92	182.143
238.29	242.857
238.67	132.258
239.04	162.069
239.41	127.778
239.79	84.783
240.16	123.810
240.53	125.000
240.91	84.314
241.28	90.000
241.65	100.000
242.02	86.957
242.40	75.806
242.77	81.667
243.14	69.892
243.51	71.910
243.89	67.059
244.26	66.667
244.63	68.817
245.00	52.128
245.38	59.406
245.75	45.794
246.12	43.119
246.49	45.985
246.87	52.000
247.24	48.462
247.61	44.286
247.98	39.216
248.36	38.514
248.73	31.210
249.10	38.854
249.47	38.418
249.84	36.364
250.22	33.690
250.59	37.870
250.96	37.374
251.33	35.071
251.70	31.683
252.08	31.429
252.45	30.045
252.82	31.739
253.19	29.362
253.56	31.373
253.94	30.705
254.31	31.641
254.68	33.462
255.05	27.306
255.42	30.488
255.79	28.676
256.16	27.437
256.54	24.382
256.91	32.028
257.28	23.381
257.65	25.743
258.02	24.224
258.39	26.498
258.76	25.753
259.14	25.298
259.51	21.884
259.88	18.944
260.25	23.867
260.62	21.676
260.99	24.845
261.36	21.622
261.73	19.484
262.10	20.640
262.47	21.972
262.85	23.955
263.22	17.379
263.59	24.786
263.96	18.681
264.33	20.888
264.70	23.947
265.07	21.483
265.44	20.960
265.81	18.978
266.18	19.849
266.55	20.732
266.92	17.936
267.29	23.843
267.66	18.578
268.03	20.455
268.40	20.794
268.77	19.332
269.14	17.793
269.51	19.413
269.88	19.580
270.25	20.767
270.62	17.303
270.99	24.731
271.36	20.172
271.73	18.692
272.10	19.130
272.47	20.430
272.84	19.697
273.21	18.449
273.58	16.157
273.95	16.771
274.32	16.942
274.69	18.415
275.06	17.913
275.43	20.426
275.80	18.236
276.17	17.312
276.54	20.582
276.91	18.775
277.28	17.578
277.65	19.729
278.02	16.149
278.39	19.336
278.76	18.909
279.13	19.623
279.50	17.318
279.87	18.526
280.23	18.962
280.60	17.795
280.97	15.896
281.34	18.230
281.71	18.909
282.08	17.083
282.45	17.818
282.82	18.117
283.19	14.617
283.56	20.175
283.92	17.766
284.29	16.755
284.66	17.241
285.03	14.286
285.40	17.782
285.77	16.667
286.14	18.135
286.51	16.000
286.87	16.239
287.24	16.450
287.61	18.138
287.98	17.370
288.35	15.055
288.72	16.667
289.08	15.023
289.45	15.486
289.82	15.447
290.19	14.757
290.56	15.008
290.93	15.106
291.29	15.951
291.66	14.159
292.03	15.988
292.40	15.859
292.77	15.533
293.13	15.522
293.50	15.306
293.87	14.815
294.24	14.963
294.60	12.227
294.97	13.953
295.34	15.515
295.71	13.494
296.08	14.530
296.44	13.067
296.81	12.682
297.18	13.144
297.55	11.873
297.91	13.193
298.28	13.788
298.65	14.099
299.02	12.912
299.38	13.280
299.75	11.186
300.12	13.282
300.48	12.375
300.85	12.084
301.22	11.465
301.59	12.121
301.95	13.098
302.32	11.553
302.69	11.947
303.05	12.242
303.42	12.469
303.79	12.458
304.15	11.422
304.52	11.240
304.89	11.266
305.25	11.833
305.62	12.458
305.99	12.515
306.35	11.969
306.72	11.659
307.09	12.098
307.45	12.387
307.82	10.045
308.19	12.141
308.55	11.435
308.92	12.030
309.29	10.560
309.65	11.029
310.02	11.416
310.38	11.720
310.75	11.088
311.12	12.078
311.48	12.539
311.85	11.426
312.22	11.759
312.58	11.227
312.95	11.088
313.31	10.485
313.68	11.331
314.05	13.905
314.41	11.558
314.78	11.883
315.14	11.718
315.51	11.637
315.87	11.485
316.24	11.023
316.61	11.404
316.97	11.742
317.34	11.057
317.70	12.906
318.07	12.031
318.43	12.427
318.80	11.996
319.16	11.959
319.53	12.383
319.89	13.429
320.26	14.100
320.62	13.889
320.99	13.434
321.35	13.535
321.72	14.887
322.08	15.005
322.45	13.731
322.81	14.535
323.18	15.414
323.54	14.378
323.91	15.849
324.27	14.914
324.64	14.259
325.00	15.509
325.37	16.197
325.73	16.786
326.10	16.240
326.46	15.681
326.83	16.911
327.19	17.421
327.56	18.206
327.92	18.023
328.29	18.190
328.65	18.785
329.01	18.773
329.38	19.704
329.74	18.190
330.11	18.190
330.47	19.376
330.84	19.761
331.20	19.945
331.56	20.000
331.93	19.537
332.29	19.965
332.66	20.442
333.02	19.013
333.38	19.874
333.75	19.430
334.11	19.306
334.48	18.722
334.84	19.853
335.20	19.818
335.57	20.218
335.93	18.482
336.29	19.780
336.66	21.280
337.02	18.371
337.38	20.648
337.75	19.875
338.11	20.770
338.47	21.363
338.84	20.715
339.20	20.000
339.56	21.533
339.93	20.727
340.29	19.928
340.65	21.390
341.02	21.902
341.38	21.441
341.74	20.263
342.11	21.135
342.47	21.762
342.83	21.233
343.20	21.818
343.56	20.725
343.92	22.105
344.28	20.918
344.65	21.840
345.01	21.044
345.37	21.612
345.73	21.235
346.10	20.972
346.46	22.119
346.82	22.488
347.19	21.554
347.55	21.100
347.91	22.735
348.27	21.857
348.63	21.572
349.00	21.197
349.36	21.429
349.72	21.652
350.08	20.989
350.45	22.050
350.81	22.908
351.17	21.475
351.53	20.885
351.89	21.122
352.26	22.573
352.62	22.213
352.98	22.447
353.34	22.104
353.70	22.259
354.07	21.855
354.43	21.825
354.79	20.274
355.15	21.947
355.51	22.462
355.87	22.939
356.24	22.476
356.60	22.053
356.96	22.848
357.32	22.240
357.68	21.969
358.04	21.457
358.40	22.090
358.77	21.987
359.13	21.863
359.49	22.588
359.85	20.714
360.21	22.169
360.57	23.502
360.93	22.692
361.29	23.205
361.66	20.820
362.02	22.015
362.38	22.966
362.74	20.833
363.10	22.132
363.46	22.010
363.82	21.844
364.18	22.394
364.54	22.957
364.90	22.592
365.26	22.206
365.62	22.571
365.98	22.279
366.35	20.989
366.71	22.704
367.07	22.360
367.43	24.020
367.79	23.412
368.15	22.773
368.51	21.366
368.87	22.056
369.23	21.873
369.59	23.606
369.95	21.985
370.31	22.721
370.67	21.957
371.03	22.772
371.39	22.668
371.75	22.794
372.11	22.475
372.47	23.021
372.83	23.775
373.19	22.254
373.55	23.282
373.91	23.049
374.27	21.856
374.63	22.545
374.99	22.458
375.35	22.610
375.71	22.070
376.07	23.182
376.42	23.109
376.78	23.526
377.14	23.609
377.50	23.444
377.86	22.806
378.22	21.997
378.58	21.429
378.94	22.564
379.30	23.092
379.66	23.731
380.02	23.342
380.38	23.133
380.74	22.989
381.09	23.227
381.45	23.479
381.81	24.509
382.17	23.631
382.53	23.019
382.89	24.198
383.25	24.453
383.61	24.535
383.97	23.202
384.32	24.142
384.68	23.544
385.04	23.356
385.40	24.396
385.76	23.280
386.12	23.575
386.48	24.607
386.83	25.465
387.19	25.727
387.55	23.377
387.91	23.579
388.27	24.280
388.62	24.093
388.98	24.140
389.34	24.218
389.70	24.464
390.06	25.095
390.42	23.995
390.77	25.064
391.13	25.463
391.49	24.619
391.85	24.252
392.20	24.795
392.56	24.242
392.92	24.956
393.28	24.438
393.64	24.041
393.99	24.740
394.35	25.124
394.71	25.157
395.07	24.299
395.42	25.031
395.78	24.682
396.14	25.450
396.50	26.190
396.85	25.429
397.21	24.599
397.57	24.427
397.92	23.978
398.28	23.374
398.64	24.313
399.00	24.398
399.35	23.801
399.71	24.537
400.07	24.956
400.42	24.540
400.78	24.849
401.14	23.476
401.49	25.373
401.85	24.077
402.21	24.551
402.57	24.429
402.92	24.527
403.28	25.047
403.63	24.134
403.99	24.459
404.35	23.939
404.70	23.681
405.06	24.578
405.42	24.392
405.77	23.657
406.13	23.646
406.49	24.009
406.84	24.631
407.20	23.641
407.55	24.314
407.91	23.600
408.27	24.186
408.62	24.804
408.98	24.020
409.34	24.108
409.69	24.452
410.05	23.978
410.40	24.220
410.76	24.253
411.11	24.186
411.47	24.345
411.83	24.130
412.18	23.810
412.54	23.599
412.89	23.675
413.25	24.203
413.60	23.533
413.96	22.708
414.31	22.418
414.67	24.461
415.03	23.179
415.38	23.647
415.74	23.280
416.09	23.318
416.45	22.959
416.80	23.662
417.16	24.062
417.51	23.225
417.87	22.993
418.22	23.722
418.58	23.370
418.93	23.403
419.29	23.234
419.64	23.174
420.00	24.207
420.35	22.783
420.71	22.116
421.06	22.554
421.42	22.164
421.77	22.534
422.12	22.628
422.48	21.695
422.83	23.238
423.19	22.210
423.54	21.938
423.90	22.261
424.25	22.446
424.61	22.262
424.96	21.866
425.31	21.982
425.67	21.404
426.02	21.143
426.38	22.100
426.73	21.182
427.09	21.459
427.44	21.334
427.79	22.139
428.15	22.083
428.50	21.475
428.85	22.050
429.21	21.866
429.56	20.736
429.92	20.634
430.27	20.159
430.62	19.816
430.98	20.498
431.33	20.155
431.68	21.414
432.04	20.820
432.39	20.959
432.74	21.424
433.10	20.713
433.45	21.166
433.80	19.401
434.16	20.673
434.51	20.316
434.86	20.410
435.22	20.678
435.57	19.939
435.92	20.246
436.28	20.641
436.63	21.026
436.98	19.805
437.34	20.453
437.69	20.945
438.04	20.124
438.39	19.881
438.75	20.105
439.10	20.168
439.45	20.248
439.81	20.242
440.16	19.481
440.51	19.566
440.86	20.266
441.22	18.242
441.57	19.321
441.92	20.215
442.27	20.129
442.63	18.062
442.98	19.775
443.33	19.674
443.68	19.618
444.03	18.985
444.39	18.598
444.74	18.344
445.09	19.030
445.44	18.808
445.79	18.902
446.15	19.322
446.50	18.955
446.85	18.654
447.20	19.123
447.55	18.872
447.91	18.698
448.26	19.143
448.61	19.050
448.96	19.158
449.31	18.673
449.66	18.683
450.02	18.719
450.37	18.821
450.72	18.105
451.07	18.647
451.42	18.541
451.77	19.730
452.12	19.053
452.47	19.341
452.83	17.657
453.18	19.132
453.53	19.975
453.88	18.547
454.23	18.231
454.58	18.958
454.93	19.708
455.28	18.267
455.63	18.325
455.98	19.405
456.34	18.593
456.69	18.535
457.04	18.142
457.39	18.235
457.74	17.934
458.09	18.631
458.44	18.586
458.79	18.059
459.14	18.284
459.49	17.805
459.84	18.061
460.19	17.560
460.54	17.940
460.89	18.431
461.24	17.729
461.59	18.420
461.94	16.893
462.29	17.507
462.64	18.698
462.99	17.957
463.34	19.067
463.69	18.074
464.04	17.797
464.39	16.812
464.74	17.469
465.09	17.310
465.44	16.288
465.79	16.779
466.14	17.406
466.49	17.130
466.84	17.630
467.19	18.165
467.54	17.125
467.89	17.287
468.24	17.161
468.59	17.460
468.94	16.677
469.29	17.095
469.64	17.871
469.99	17.727
470.34	16.711
470.68	18.175
471.03	16.735
471.38	17.860
471.73	18.188
472.08	18.553
472.43	17.337
472.78	16.327
473.13	17.587
473.48	16.979
473.83	17.256
474.17	16.739
474.52	16.749
474.87	17.455
475.22	17.353
475.57	15.637
475.92	16.144
476.27	16.573
476.61	16.382
476.96	16.273
477.31	16.117
477.66	16.138
478.01	16.362
478.36	16.288
478.70	15.421
479.05	15.868
479.40	16.274
479.75	15.913
480.10	15.507
480.45	15.469
480.79	15.289
481.14	15.313
481.49	15.994
481.84	15.318
482.19	16.311
482.53	14.908
482.88	15.309
483.23	15.654
483.58	15.332
483.92	15.464
484.27	14.553
484.62	14.440
484.97	14.269
485.31	14.315
485.66	13.299
486.01	12.454
486.36	12.585
486.70	12.573
487.05	12.810
487.40	13.407
487.75	13.061
488.09	14.043
488.44	13.642
488.79	14.684
489.13	14.629
489.48	14.845
489.83	14.199
490.17	14.730
490.52	15.013
490.87	14.971
491.22	14.688
491.56	14.442
491.91	14.565
492.26	14.837
492.60	14.700
492.95	13.424
493.30	14.626
493.64	14.186
493.99	14.206
494.34	14.570
494.68	15.018
495.03	14.615
495.37	14.891
495.72	14.815
496.07	14.756
496.41	14.159
496.76	14.160
497.11	14.093
497.45	14.159
497.80	14.635
498.14	14.396
498.49	14.390
498.84	14.669
499.18	14.429
499.53	14.577
499.87	14.539
500.22	14.885
500.56	14.903
500.91	14.856
501.26	14.367
501.60	14.713
501.95	14.665
502.29	14.667
502.64	14.572
502.98	14.540
503.33	13.803
503.67	14.571
504.02	13.938
504.36	15.208
504.71	14.558
505.06	14.506
505.40	14.439
505.75	14.417
506.09	14.480
506.44	13.666
506.78	14.321
507.13	14.841
507.47	14.848
507.82	14.590
508.16	14.742
508.51	14.155
508.85	14.350
509.19	14.745
509.54	14.694
509.88	14.323
510.23	14.190
510.57	14.912
510.92	15.070
511.26	15.416
511.61	14.367
511.95	13.831
512.30	14.104
512.64	13.810
512.98	15.380
513.33	14.722
513.67	14.461
514.02	14.340
514.36	14.801
514.70	14.333
515.05	14.334
515.39	14.526
515.74	14.640
516.08	15.316
516.42	15.927
516.77	15.385
517.11	14.206
517.46	15.463
517.80	15.099
518.14	14.534
518.49	15.461
518.83	15.625
519.17	15.242
519.52	14.544
519.86	14.889
520.20	15.434
520.55	15.560
520.89	15.511
521.23	15.621
521.58	15.306
521.92	16.105
522.26	15.009
522.61	15.452
522.95	14.303
523.29	15.033
523.64	15.915
523.98	16.451
524.32	15.320
524.66	14.913
525.01	15.257
525.35	15.737
525.69	15.456
526.04	15.826
526.38	15.741
526.72	15.337
527.06	15.066
527.41	14.790
527.75	15.434
528.09	15.864
528.43	14.914
528.78	16.165
529.12	15.758
529.46	15.677
529.80	15.780
530.15	16.075
530.49	15.446
530.83	15.506
531.17	16.123
531.51	16.537
531.86	15.613
532.20	16.297
532.54	16.015
532.88	15.661
533.22	14.616
533.57	14.753
533.91	15.111
534.25	14.763
534.59	15.436
534.93	15.229
535.27	14.544
535.62	15.201
535.96	15.317
536.30	15.003
536.64	14.295
536.98	15.528
537.32	15.273
537.66	15.333
538.01	15.142
538.35	15.708
538.69	16.465
539.03	14.360
539.37	13.994
539.71	14.258
540.05	14.444
540.39	15.349
540.73	15.136
541.07	16.093
541.42	14.938
541.76	14.839
542.10	15.071
542.44	15.298
542.78	15.547
543.12	14.523
543.46	15.016
543.80	15.224
544.14	13.928
544.48	14.984
544.82	14.753
545.16	14.964
545.50	14.974
545.84	14.113
546.18	15.286
546.52	15.210
546.86	15.739
547.20	15.846
547.54	15.297
547.88	15.689
548.22	14.819
548.56	15.597
548.90	14.085
549.24	13.939
549.58	15.348
549.92	14.973
550.26	15.412
550.60	14.592
550.94	15.141
551.28	13.826
551.62	15.097
551.96	14.456
552.30	15.085
552.64	15.483
552.98	15.186
553.32	14.700
553.66	15.133
554.00	15.168
554.34	15.597
554.68	15.236
555.02	15.656
555.36	15.658
555.69	14.141
556.03	16.083
556.37	14.120
556.71	14.666
557.05	15.126
557.39	15.185
557.73	14.961
558.07	15.446
558.41	14.182
558.75	15.356
559.08	14.765
559.42	14.966
559.76	15.221
560.10	15.418
560.44	14.535
560.78	13.639
561.12	14.974
561.45	15.254
561.79	14.436
562.13	13.950
562.47	14.754
562.81	15.272
563.15	14.314
563.48	13.926
563.82	14.742
564.16	13.407
564.50	13.086
564.84	14.159
565.17	13.835
565.51	14.121
565.85	13.769
566.19	12.899
566.52	14.566
566.86	13.442
567.20	14.387
567.54	14.155
567.88	13.036
568.21	13.545
568.55	12.487
568.89	12.743
569.23	12.433
569.56	12.146
569.90	11.736
570.24	11.410
570.57	11.187
570.91	10.633
571.25	11.180
571.59	10.987
571.92	11.175
572.26	10.976
572.60	11.231
572.93	10.885
573.27	10.736
573.61	10.972
573.95	10.827
574.28	10.377
574.62	10.277
574.96	10.538
575.29	10.209
575.63	10.645
575.97	10.362
576.30	10.329
576.64	10.361
576.98	10.622
577.31	10.074
577.65	10.185
577.98	9.992
578.32	9.909
578.66	10.021
578.99	10.523
579.33	10.215
579.67	9.730
580.00	10.285
580.34	10.418
580.67	10.187
581.01	10.434
581.35	9.695
581.68	9.894
582.02	9.690
582.35	9.982
582.69	9.778
583.02	9.835
583.36	10.191
583.70	10.365
584.03	10.266
584.37	10.514
584.70	10.031
585.04	10.152
585.37	10.298
585.71	10.714
586.04	10.437
586.38	10.580
586.72	10.853
587.05	10.133
587.39	9.947
587.72	10.410
588.06	10.566
588.39	10.617
588.73	10.736
589.06	11.187
589.40	10.842
589.73	10.806
590.07	11.317
590.40	10.815
590.73	11.280
591.07	12.210
591.40	11.514
591.74	11.861
592.07	11.955
592.41	11.534
592.74	10.936
593.08	11.193
593.41	10.788
593.75	10.681
594.08	10.828
594.41	11.311
594.75	10.462
595.08	11.417
595.42	11.138
595.75	10.434
596.09	11.228
596.42	12.063
596.75	11.271
597.09	11.948
597.42	11.088
597.75	11.427
598.09	12.000
598.42	11.512
598.76	11.471
599.09	10.870
599.42	10.844
599.76	11.018
600.09	10.856
600.42	10.811
600.76	11.107
601.09	10.747
601.42	11.301
601.76	11.727
602.09	11.186
602.42	11.545
602.76	11.769
603.09	11.172
603.42	11.675
603.76	11.319
604.09	11.477
604.42	11.455
604.76	11.936
605.09	11.271
605.42	11.330
605.75	11.465
606.09	11.427
606.42	11.157
606.75	11.572
607.09	12.097
607.42	11.896
607.75	11.646
608.08	11.463
608.42	12.192
608.75	10.821
609.08	11.563
609.41	12.565
609.75	11.768
610.08	11.876
610.41	11.639
610.74	12.110
611.07	12.253
611.41	12.071
611.74	12.217
612.07	12.060
612.40	12.277
612.73	11.789
613.07	12.123
613.40	13.217
613.73	12.218
614.06	11.452
614.39	12.795
614.72	12.632
615.06	12.920
615.39	12.208
615.72	12.628
616.05	11.855
616.38	12.618
616.71	12.470
617.05	12.898
617.38	11.365
617.71	12.793
618.04	13.462
618.37	12.833
618.70	13.068
619.03	13.618
619.36	14.257
619.69	13.803
620.03	14.011
620.36	14.706
620.69	14.178
621.02	14.528
621.35	13.782
621.68	13.551
622.01	13.467
622.34	15.129
622.67	13.916
623.00	13.793
623.33	13.438
623.66	13.367
623.99	14.065
624.32	14.194
624.65	13.418
624.99	12.960
625.32	13.469
625.65	14.350
625.98	14.143
626.31	13.841
626.64	14.449
626.97	14.630
627.30	13.051
627.63	15.012
627.96	15.307
628.29	14.436
628.62	16.285
628.95	16.887
629.28	14.507
629.61	15.674
629.94	16.000
630.26	14.681
630.59	15.634
630.92	15.230
631.25	14.610
631.58	16.717
631.91	17.039
632.24	15.928
632.57	17.419
632.90	15.461
633.23	16.443
633.56	17.740
633.89	17.214
634.22	17.480
634.55	17.515
634.88	15.928
635.20	17.563
635.53	18.193
635.86	17.450
636.19	17.294
636.52	18.339
636.85	16.724
637.18	16.820
637.51	17.730
637.83	15.413
638.16	18.159
638.49	17.758
638.82	17.193
639.15	17.500
639.48	18.080
639.81	19.035
640.13	18.490
640.46	19.060
640.79	16.645
641.12	17.056
641.45	18.017
641.77	17.084
642.10	19.152
642.43	18.168
642.76	19.659
643.09	20.399
643.41	21.093
643.74	19.444
644.07	20.884
644.40	21.319
644.73	20.787
645.05	19.810
645.38	18.483
645.71	20.290
646.04	19.601
646.36	22.204
646.69	20.067
647.02	21.429
647.35	20.790
647.67	18.938
648.00	20.650
648.33	20.462
648.66	18.788
648.98	19.490
649.31	17.489
649.64	16.891
649.96	18.480
650.29	20.379
650.62	18.770
650.94	19.125
651.27	19.764
651.60	20.300
651.92	19.489
652.25	18.893
652.58	20.093
652.90	18.641
653.23	19.106
653.56	19.055
653.88	20.127
654.21	21.801
654.54	18.317
654.86	19.159
655.19	17.297
655.52	10.640
655.84	7.672
656.17	9.408
656.49	12.533
656.82	12.434
657.15	9.676
657.47	7.273
657.80	5.751
658.13	5.745
658.45	9.309
658.78	9.115
659.10	9.857
659.43	10.211
659.75	10.942
660.08	11.266
660.41	14.525
660.73	18.551
661.06	18.631
661.38	21.455
661.71	21.346
662.03	22.485
662.36	20.676
662.68	21.486
663.01	21.818
663.33	20.807
663.66	24.370
663.98	21.814
664.31	20.588
664.63	20.445
664.96	21.529
665.28	22.131
665.61	20.273
665.93	21.730
666.26	22.110
666.58	21.130
666.91	23.679
667.23	24.944
667.56	19.870
667.88	22.863
668.21	22.814
668.53	19.957
668.86	23.160
669.18	24.307
669.50	23.696
669.83	25.708
670.15	24.222
670.48	21.569
670.80	22.845
671.13	22.718
671.45	20.426
671.77	24.847
672.10	20.333
672.42	19.258
672.75	19.900
673.07	21.655
673.39	18.264
673.72	21.289
674.04	20.196
674.37	21.748
674.69	21.063
675.01	19.038
675.34	21.150
675.66	24.000
675.98	21.589
676.31	21.639
676.63	20.807
676.95	20.964
677.28	22.196
677.60	22.198
677.92	25.316
678.25	22.793
678.57	20.916
678.89	20.641
679.22	20.039
679.54	22.137
679.86	21.651
680.18	20.215
680.51	21.809
680.83	21.174
681.15	21.698
681.48	21.361
681.80	20.116
682.12	18.774
682.44	18.182
682.77	22.607
683.09	23.391
683.41	21.286
683.73	22.296
684.06	23.347
684.38	20.939
684.70	20.930
685.02	21.576
685.34	17.766
685.67	17.657
685.99	18.041
686.31	17.747
686.63	16.784
686.96	19.107
687.28	20.758
687.60	16.667
687.92	21.938
688.24	18.251
688.56	22.289
688.89	22.614
689.21	22.926
689.53	20.668
689.85	22.616
690.17	16.770
690.49	21.444
690.82	21.495
691.14	20.536
691.46	19.409
691.78	20.281
692.10	21.488
692.42	20.758
692.74	19.502
693.06	21.277
693.39	21.561
693.71	22.926
694.03	21.053
694.35	17.316
694.67	21.281
694.99	25.610
695.31	19.118
695.63	19.378
695.95	22.249
696.27	17.005
696.59	25.130
696.91	22.798
697.23	20.188
697.56	21.962
697.88	20.041
698.20	20.833
698.52	21.505
698.84	19.599
699.16	21.889
699.48	21.853
699.80	21.739
700.12	24.935
700.44	21.751
700.76	24.862
701.08	22.126
701.40	24.022
701.72	26.531
702.04	30.966
702.36	20.680
702.68	22.380
703.00	22.161
703.32	21.809
703.64	23.056
703.96	22.284
704.28	25.000
704.60	27.273
704.91	27.003
705.23	25.513
705.55	30.565
705.87	30.897
706.19	28.269
706.51	26.480
706.83	27.273
707.15	27.451
707.47	21.465
707.79	25.061
708.11	22.603
708.43	22.143
708.74	20.663
709.06	23.377
709.38	24.672
709.70	28.779
710.02	21.958
710.34	22.727
710.66	26.567
710.98	26.420
711.29	27.326
711.61	27.434
711.93	20.833
712.25	31.833
712.57	25.735
712.89	24.913
713.20	28.571
713.52	29.934
713.84	22.152
714.16	24.085
714.48	25.862
714.80	29.787
715.11	23.343
715.43	24.926
715.75	24.348
716.07	24.920
716.39	24.765
716.70	27.243
717.02	32.734
717.34	25.795
717.66	30.224
717.97	32.669
718.29	26.667
718.61	25.182
718.93	27.941
719.24	24.913
719.56	25.424
719.88	30.508
720.20	29.730
720.51	29.617
720.83	26.394
721.15	22.015
721.46	24.823
721.78	30.108
722.10	27.925
722.42	29.699
722.73	28.464
723.05	28.689
723.37	27.935
723.68	29.344
724.00	28.862
724.32	31.048
724.63	32.927
724.95	28.870
725.27	33.198
725.58	29.297
725.90	28.102
726.22	27.925
726.53	25.000
726.85	27.645
727.16	29.537
727.48	23.404
727.80	29.545
728.11	27.899
728.43	29.231
728.74	26.882
729.06	30.657
729.38	33.088
729.69	30.605
730.01	22.526
730.32	24.306
730.64	26.756
730.96	19.472
731.27	24.172
731.59	25.382
731.90	24.781
732.22	22.981
732.53	20.433
732.85	23.077
733.16	25.080
733.48	25.581
733.80	23.377
734.11	28.344
734.43	24.852
734.74	24.286
735.06	20.917
735.37	23.699
735.69	21.019
736.00	28.105
736.32	24.611
736.63	26.837
736.95	24.601
737.26	14.626
737.58	19.677
737.89	26.087
738.21	26.962
738.52	29.286
738.83	24.906
739.15	28.077
739.46	27.372
739.78	27.431
740.09	25.538
740.41	27.419
740.72	28.571
741.04	24.444
741.35	28.750
741.66	31.556
741.98	27.830
742.29	35.407
742.61	34.483
742.92	31.222
743.23	26.068
743.55	33.600
743.86	28.509
744.18	30.973
744.49	35.885
744.80	38.967
745.12	33.182
745.43	33.480
745.74	35.586
746.06	31.651
746.37	34.529
746.68	31.674
747.00	34.722
747.31	32.857
747.62	30.973
747.94	30.396
748.25	28.936
748.56	31.278
748.88	32.673
749.19	36.000
749.50	30.698
749.82	26.423
750.13	30.204
750.44	28.832
750.75	26.316
751.07	26.688
751.38	26.481
751.69	26.715
752.01	28.195
752.32	23.827
752.63	25.177
752.94	29.098
753.26	30.400
753.57	32.114
753.88	30.078
754.19	22.143
754.51	27.083
754.82	27.437
755.13	28.302
755.44	29.323
755.75	26.642
756.07	25.177
756.38	22.628
756.69	25.503
757.00	25.449
757.31	22.255
757.63	20.468
757.94	24.933
758.25	23.039
758.56	21.728
758.87	23.118
759.18	22.727
759.50	23.511
759.81	24.299
760.12	20.312
760.43	23.782
760.74	22.826
761.05	22.316
761.36	21.925
761.67	19.602
761.99	27.640
762.30	27.778
762.61	30.153
762.92	29.297
763.23	30.252
763.54	24.800
763.85	24.219
764.16	26.154
764.47	28.137
764.78	25.442
765.10	19.937
765.41	24.779
765.72	23.952
766.03	22.884
766.34	28.333
766.65	30.638
766.96	32.051
767.27	34.518
767.58	36.458
767.89	40.000
768.20	39.080
768.51	37.563
768.82	32.110
769.13	24.390
769.44	26.316
769.75	25.751
770.06	22.477
770.37	38.462
770.68	25.926
770.99	30.222
771.30	23.770
771.61	32.735
771.92	29.508
772.23	32.773
772.54	33.333
772.85	40.314
773.16	37.766
773.47	38.587
773.78	41.117
774.09	44.048
774.39	38.596
774.70	36.420
775.01	45.652
775.32	41.830
775.63	40.132
775.94	37.410
776.25	52.756
776.56	52.239
776.87	45.082
777.18	53.906
777.48	58.015
777.79	49.242
778.10	40.741
778.41	56.250
778.72	39.416
779.03	40.940
779.34	39.597
779.65	38.514
779.95	38.650
780.26	45.098
780.57	40.690
780.88	53.125
781.19	46.617
781.50	42.568
781.80	40.881
782.11	31.638
782.42	36.709
782.73	35.583
783.04	40.541
783.34	45.070
783.65	48.630
783.96	47.015
784.27	38.462
784.57	40.288
784.88	37.963
785.19	46.032
785.50	51.887
785.81	52.239
786.11	55.738
786.42	52.713
786.73	41.593
787.04	61.321
787.34	58.036
787.65	55.000
787.96	51.351
788.26	46.281
788.57	57.627
788.88	55.372
789.19	45.139
789.49	55.303
789.80	48.855
790.11	66.667
790.41	52.475
790.72	61.446
791.03	52.174
791.33	69.767
791.64	55.670
791.95	56.436
792.25	82.222
792.56	66.234
792.87	73.077
793.17	81.013
793.48	72.414
793.79	64.368
794.09	64.773
794.40	48.739
794.70	57.353
795.01	40.000
795.32	42.446
795.62	49.606
795.93	48.276
796.23	52.212
796.54	65.882
796.85	54.054
797.15	71.831
797.46	80.303
797.76	79.518
798.07	70.886
798.37	50.769
798.68	83.333
798.99	50.704
799.29	71.429
799.60	61.364
799.90	83.562
800.21	82.090
800.51	77.586
800.82	78.947
801.12	83.607
801.43	84.848
801.73	56.757
802.04	98.413
802.34	87.654
802.65	87.500
802.95	81.356
803.26	90.625
803.56	74.286
803.87	86.154
804.17	73.529
804.48	98.148
804.78	84.483
805.09	88.235
805.39	88.462
805.70	103.571
806.00	88.525
806.30	78.788
806.61	82.927
806.91	60.759
807.22	72.368
807.52	67.164
807.83	73.239
808.13	82.813
808.43	95.000
808.74	60.526
809.04	76.812
809.35	83.582
809.65	67.105
809.95	95.161
810.26	91.525
810.56	87.302
810.86	129.545
811.17	133.333
811.47	96.667
811.77	79.630
812.08	105.455
812.38	110.000
812.69	141.667
812.99	125.000
813.29	108.163
813.59	80.952
813.90	106.122
814.20	78.182
814.50	81.538
814.81	97.059
815.11	122.449
815.41	83.607
815.72	138.095
816.02	109.091
816.32	119.048
816.62	127.500
816.93	102.439
817.23	126.190
817.53	113.636
817.84	142.424
818.14	100.000
818.44	115.556
818.74	117.647
819.04	125.000
819.35	137.143
819.65	150.000
819.95	182.143
820.25	240.000
820.56	138.462
820.86	106.818
821.16	137.209
821.46	133.333
821.76	104.000
822.07	137.143
822.37	132.500
822.67	142.424
822.97	92.157
823.27	160.714
823.57	162.162
823.88	140.000
824.18	153.333
824.48	126.190
824.78	208.000
825.08	170.833
825.38	132.432
825.69	95.122
825.99	191.667
826.29	151.724
826.59	163.158
826.89	147.368
827.19	150.000
827.49	138.710
827.79	138.636
828.09	147.727
828.39	102.128
828.70	116.327
829.00	181.481
829.30	138.710
829.60	117.500
829.90	226.667
830.20	182.143
830.50	213.043
830.80	182.609
831.10	186.667
831.40	176.667
831.70	186.957
832.00	246.154
832.30	140.741
832.60	256.250
832.90	180.000
833.20	342.857
833.50	177.419
833.80	189.655
834.10	184.375
834.40	211.538
834.70	272.222
835.00	242.857
835.30	165.714
835.60	261.538
835.90	182.759
836.20	271.429
836.50	158.621
836.80	188.000
837.10	163.889
837.40	223.810
837.70	300.000
838.00	177.778
838.30	223.810
838.60	242.857
838.90	203.846
839.19	230.000
839.49	428.571
839.79	260.000
840.09	255.000
840.39	261.905
840.69	243.478
840.99	316.667
841.29	470.000
841.59	333.333
841.88	356.250
842.18	158.621
842.48	280.952
842.78	186.667
843.08	208.696
843.38	184.375
843.68	850.000
843.97	230.769
844.27	172.414
844.57	280.952
844.87	337.500
845.17	237.037
845.47	1433.333
845.76	400.000
846.06	311.765
846.36	537.500
846.66	285.714
846.96	281.250
847.25	409.091
847.55	363.636
847.85	260.870
848.15	460.000
848.44	400.000
848.74	216.667
849.04	276.471
849.34	530.000
849.63	200.000
849.93	400.000
850.23	920.000
850.53	400.000
850.82	2250.000
851.12	-4000.000
851.42	4600.000
851.71	240.000
852.01	-966.667
852.31	233.333
852.61	1833.333
852.90	252.381
853.20	240.000
853.50	305.882
853.79	242.857
854.09	187.500
854.39	287.500
854.68	172.973
854.98	145.161
855.28	190.000
855.57	217.241
855.87	188.889
856.17	273.684
856.46	253.333
856.76	311.765
857.05	206.897
857.35	241.667
857.65	286.667
857.94	221.739
858.24	223.077
858.53	260.000
858.83	222.727
859.13	333.333
859.42	0.000
859.72	577.778
860.01	418.182
860.31	290.909
860.60	273.684
860.90	208.696
861.20	611.111
861.49	391.667
861.79	-5000.000
862.08	612.500
862.38	252.381
862.67	353.846
862.97	329.412
863.26	455.556
863.56	227.778
863.85	366.667
864.15	525.000
864.44	333.333
864.74	966.667
865.03	537.500
865.33	300.000
865.62	400.000
865.92	400.000
866.21	375.000
866.51	0.000
866.80	381.818
867.10	1160.000
867.39	400.000
867.69	481.818
867.98	284.211
868.27	472.727
868.57	289.474
868.86	-4600.000
869.16	312.500
869.45	2400.000
869.75	-3200.000
870.04	366.667
870.33	700.000
870.63	1100.000
870.92	2250.000
871.22	628.571
871.51	341.176
871.80	252.381
872.10	328.571
>>>>>End Processed Spectral Data<<<<<
