SpectraSuite Data File
++++++++++++++++++++++++++++++++++++
Date: Wed May 13 21:27:25 PDT 2015
User: schluterlab
Dark Spectrum Present: Yes
Reference Spectrum Present: Yes
Number of Sampled Component Spectra: 1
Spectrometers: USB2E3373
Integration Time (usec): 3000 (USB2E3373)
Spectra Averaged: 3 (USB2E3373)
Boxcar Smoothing: 0 (USB2E3373)
Correct for Electrical Dark: No (USB2E3373)
Strobe/Lamp Enabled: No (USB2E3373)
Correct for Detector Non-linearity: No (USB2E3373)
Correct for Stray Light: No (USB2E3373)
Number of Pixels in Processed Spectrum: 2048
>>>>>Begin Processed Spectral Data<<<<<
178.53	0.000
178.91	850.000
179.29	191.667
179.67	-850.000
180.04	-200.000
180.42	220.000
180.80	2100.000
181.18	283.333
181.56	-400.000
181.94	-400.000
182.31	-27.273
182.69	146.154
183.07	-100.000
183.45	200.000
183.83	155.556
184.20	157.143
184.58	33.333
184.96	166.667
185.34	285.714
185.72	0.000
186.09	300.000
186.47	-260.000
186.85	60.000
187.23	-100.000
187.61	600.000
187.98	1100.000
188.36	-100.000
188.74	0.000
189.12	-18.182
189.49	20.000
189.87	200.000
190.25	220.000
190.63	900.000
191.00	-80.000
191.38	240.000
191.76	450.000
192.14	116.667
192.51	-26.316
192.89	566.667
193.27	275.000
193.65	-180.000
194.02	118.182
194.40	110.000
194.78	-300.000
195.15	120.000
195.53	-140.000
195.91	0.000
196.29	-100.000
196.66	0.000
197.04	650.000
197.42	-120.000
197.79	20.000
198.17	-100.000
198.55	0.000
198.92	125.000
199.30	-233.333
199.68	0.000
200.05	500.000
200.43	100.000
200.81	-2100.000
201.18	-180.000
201.56	-100.000
201.94	300.000
202.31	17.391
202.69	-157.143
203.07	-500.000
203.44	-160.000
203.82	-233.333
204.19	-60.000
204.57	0.000
204.95	-66.667
205.32	0.000
205.70	-500.000
206.08	-450.000
206.45	-150.000
206.83	300.000
207.20	-500.000
207.58	0.000
207.96	-1800.000
208.33	-100.000
208.71	-1900.000
209.08	150.000
209.46	300.000
209.84	0.000
210.21	120.000
210.59	1400.000
210.96	280.000
211.34	800.000
211.71	-350.000
212.09	-150.000
212.46	-190.000
212.84	-166.667
213.22	0.000
213.59	-1100.000
213.97	-500.000
214.34	-400.000
214.72	30.769
215.09	162.500
215.47	100.000
215.84	450.000
216.22	-12.500
216.59	100.000
216.97	300.000
217.34	177.778
217.72	0.000
218.09	200.000
218.47	-900.000
218.84	-100.000
219.22	-175.000
219.59	33.333
219.97	-50.000
220.34	-12.500
220.72	-260.000
221.09	0.000
221.47	-250.000
221.84	-100.000
222.22	0.000
222.59	-0.000
222.97	-566.667
223.34	-16.667
223.72	-1800.000
224.09	-250.000
224.46	-90.909
224.84	-100.000
225.21	-185.714
225.59	-425.000
225.96	-150.000
226.34	-90.000
226.71	-157.143
227.08	450.000
227.46	-25.000
227.83	300.000
228.21	-50.000
228.58	-300.000
228.95	23.529
229.33	6.250
229.70	-12.500
230.08	30.769
230.45	-150.000
230.82	-125.000
231.20	185.714
231.57	-225.000
231.95	700.000
232.32	91.667
232.69	-23.529
233.07	-1000.000
233.44	-13.043
233.81	-700.000
234.19	4.167
234.56	-46.667
234.93	26.667
235.31	68.421
235.68	0.000
236.05	-30.769
236.43	44.444
236.80	-12.121
237.17	-33.333
237.55	-41.176
237.92	-13.793
238.29	-18.519
238.67	30.556
239.04	12.903
239.41	25.532
239.79	29.787
240.16	9.302
240.53	39.286
240.91	33.929
241.28	7.143
241.65	41.935
242.02	34.211
242.40	33.333
242.77	26.087
243.14	21.795
243.51	34.043
243.89	37.500
244.26	40.566
244.63	34.615
245.00	40.625
245.38	40.336
245.75	40.164
246.12	43.609
246.49	30.894
246.87	26.050
247.24	39.189
247.61	44.371
247.98	37.179
248.36	36.095
248.73	37.079
249.10	33.333
249.47	45.161
249.84	46.842
250.22	44.279
250.59	38.785
250.96	41.818
251.33	39.234
251.70	43.096
252.08	43.933
252.45	41.152
252.82	46.388
253.19	40.856
253.56	39.209
253.94	41.993
254.31	43.662
254.68	41.275
255.05	42.574
255.42	40.559
255.79	39.571
256.16	42.587
256.54	38.095
256.91	39.241
257.28	39.937
257.65	42.038
258.02	43.402
258.39	42.690
258.76	40.407
259.14	43.466
259.51	43.258
259.88	40.921
260.25	40.278
260.62	44.944
260.99	42.440
261.36	41.192
261.73	41.235
262.10	43.003
262.47	39.259
262.85	42.786
263.22	42.564
263.59	41.818
263.96	38.686
264.33	40.625
264.70	38.837
265.07	43.287
265.44	46.437
265.81	40.503
266.18	43.052
266.55	39.738
266.92	40.254
267.29	43.004
267.66	44.586
268.03	44.033
268.40	40.466
268.77	41.736
269.14	42.857
269.51	43.326
269.88	37.475
270.25	43.008
270.62	39.139
270.99	43.307
271.36	40.476
271.73	43.574
272.10	41.524
272.47	39.731
272.84	45.079
273.21	39.726
273.58	44.467
273.95	39.623
274.32	41.231
274.69	40.984
275.06	42.226
275.43	41.243
275.80	41.489
276.17	41.621
276.54	39.964
276.91	42.160
277.28	41.336
277.65	41.608
278.02	43.393
278.39	43.162
278.76	43.144
279.13	43.396
279.50	40.690
279.87	39.493
280.23	41.081
280.60	40.657
280.97	42.045
281.34	44.006
281.71	38.862
282.08	40.855
282.45	42.623
282.82	40.096
283.19	41.159
283.56	41.875
283.92	41.284
284.29	40.250
284.66	41.680
285.03	41.368
285.40	42.145
285.77	42.342
286.14	40.426
286.51	40.630
286.87	38.308
287.24	40.118
287.61	40.813
287.98	40.294
288.35	38.748
288.72	38.307
289.08	38.746
289.45	36.858
289.82	40.847
290.19	37.868
290.56	38.778
290.93	34.807
291.29	38.030
291.66	38.525
292.03	35.831
292.40	36.743
292.77	37.216
293.13	35.286
293.50	35.556
293.87	37.067
294.24	34.127
294.60	36.151
294.97	36.905
295.34	34.037
295.71	34.560
296.08	32.330
296.44	34.311
296.81	32.400
297.18	33.375
297.55	31.840
297.91	35.031
298.28	33.656
298.65	33.621
299.02	35.775
299.38	33.006
299.75	31.851
300.12	32.442
300.48	32.164
300.85	34.180
301.22	33.217
301.59	31.690
301.95	30.314
302.32	30.455
302.69	30.169
303.05	31.783
303.42	31.477
303.79	33.123
304.15	32.092
304.52	33.441
304.89	31.672
305.25	31.284
305.62	32.104
305.99	32.100
306.35	33.020
306.72	30.519
307.09	31.283
307.45	31.416
307.82	30.105
308.19	30.512
308.55	30.706
308.92	31.532
309.29	29.630
309.65	30.969
310.02	30.119
310.38	30.488
310.75	30.868
311.12	30.515
311.48	31.256
311.85	30.118
312.22	30.368
312.58	28.889
312.95	30.945
313.31	29.477
313.68	30.248
314.05	31.285
314.41	33.141
314.78	32.163
315.14	30.926
315.51	32.540
315.87	31.696
316.24	30.211
316.61	31.781
316.97	32.500
317.34	30.838
317.70	32.293
318.07	33.185
318.43	32.249
318.80	32.635
319.16	33.864
319.53	32.885
319.89	33.243
320.26	33.457
320.62	32.715
320.99	33.333
321.35	33.302
321.72	34.167
322.08	34.779
322.45	35.245
322.81	36.506
323.18	35.778
323.54	37.545
323.91	37.850
324.27	37.804
324.64	37.892
325.00	39.283
325.37	38.823
325.73	37.626
326.10	38.688
326.46	39.632
326.83	41.100
327.19	40.488
327.56	42.546
327.92	42.478
328.29	42.905
328.65	44.610
329.01	43.712
329.38	45.304
329.74	44.807
330.11	44.274
330.47	44.358
330.84	47.022
331.20	45.517
331.56	47.192
331.93	47.287
332.29	48.045
332.66	44.661
333.02	46.916
333.38	46.491
333.75	46.587
334.11	48.437
334.48	48.561
334.84	47.703
335.20	48.113
335.57	46.997
335.93	47.079
336.29	47.110
336.66	48.547
337.02	49.130
337.38	48.216
337.75	48.837
338.11	48.249
338.47	49.058
338.84	48.540
339.20	49.647
339.56	48.891
339.93	51.167
340.29	48.591
340.65	49.358
341.02	48.170
341.38	49.831
341.74	49.664
342.11	50.206
342.47	50.209
342.83	49.837
343.20	50.169
343.56	49.469
343.92	48.822
344.28	48.782
344.65	48.735
345.01	49.637
345.37	50.576
345.73	53.023
346.10	51.043
346.46	50.650
346.82	51.124
347.19	49.525
347.55	52.423
347.91	50.663
348.27	51.656
348.63	51.442
349.00	52.044
349.36	51.413
349.72	50.348
350.08	51.794
350.45	51.997
350.81	51.252
351.17	51.732
351.53	52.632
351.89	50.913
352.26	51.429
352.62	52.636
352.98	52.875
353.34	53.382
353.70	51.791
354.07	52.706
354.43	52.333
354.79	54.407
355.15	53.649
355.51	52.316
355.87	53.401
356.24	55.136
356.60	53.636
356.96	55.411
357.32	53.328
357.68	54.087
358.04	54.771
358.40	55.891
358.77	57.110
359.13	56.809
359.49	55.110
359.85	55.724
360.21	56.592
360.57	57.643
360.93	56.677
361.29	57.587
361.66	56.872
362.02	57.450
362.38	57.386
362.74	56.418
363.10	58.351
363.46	58.501
363.82	59.128
364.18	58.013
364.54	58.862
364.90	58.118
365.26	57.962
365.62	59.517
365.98	59.644
366.35	60.355
366.71	59.843
367.07	59.391
367.43	60.697
367.79	60.389
368.15	62.307
368.51	60.759
368.87	62.875
369.23	61.566
369.59	61.875
369.95	62.409
370.31	62.483
370.67	62.925
371.03	64.365
371.39	62.030
371.75	63.143
372.11	62.251
372.47	65.105
372.83	64.147
373.19	64.820
373.55	66.618
373.91	65.559
374.27	65.353
374.63	67.141
374.99	65.877
375.35	65.822
375.71	65.557
376.07	68.129
376.42	67.781
376.78	68.296
377.14	68.610
377.50	67.666
377.86	67.995
378.22	68.647
378.58	69.546
378.94	69.750
379.30	69.831
379.66	70.222
380.02	67.953
380.38	70.120
380.74	70.233
381.09	70.386
381.45	70.617
381.81	71.288
382.17	70.888
382.53	71.938
382.89	70.808
383.25	71.852
383.61	72.881
383.97	72.875
384.32	72.590
384.68	72.733
385.04	72.266
385.40	73.724
385.76	73.358
386.12	74.371
386.48	75.361
386.83	74.343
387.19	75.817
387.55	74.923
387.91	76.568
388.27	75.462
388.62	76.529
388.98	77.409
389.34	76.378
389.70	75.702
390.06	75.125
390.42	76.289
390.77	77.258
391.13	77.967
391.49	76.977
391.85	77.955
392.20	78.070
392.56	79.556
392.92	77.999
393.28	78.791
393.64	80.183
393.99	77.234
394.35	79.753
394.71	79.359
395.07	78.365
395.42	79.342
395.78	79.408
396.14	79.581
396.50	82.055
396.85	80.561
397.21	79.526
397.57	80.311
397.92	79.461
398.28	80.147
398.64	79.114
399.00	79.129
399.35	81.555
399.71	80.839
400.07	80.723
400.42	81.755
400.78	80.483
401.14	81.055
401.49	81.366
401.85	81.143
402.21	83.344
402.57	82.097
402.92	82.416
403.28	81.426
403.63	81.525
403.99	82.214
404.35	82.107
404.70	81.511
405.06	82.384
405.42	81.533
405.77	82.200
406.13	82.171
406.49	82.924
406.84	84.615
407.20	82.593
407.55	83.182
407.91	81.602
408.27	82.907
408.62	83.303
408.98	81.998
409.34	81.745
409.69	83.431
410.05	84.142
410.40	81.254
410.76	83.032
411.11	84.080
411.47	85.601
411.83	82.221
412.18	83.879
412.54	83.709
412.89	84.201
413.25	82.714
413.60	84.577
413.96	84.020
414.31	84.402
414.67	83.302
415.03	84.235
415.38	82.497
415.74	83.106
416.09	85.393
416.45	85.919
416.80	86.577
417.16	84.953
417.51	84.662
417.87	84.656
418.22	85.262
418.58	85.348
418.93	84.495
419.29	86.799
419.64	84.288
420.00	86.032
420.35	83.622
420.71	83.729
421.06	85.178
421.42	85.766
421.77	86.301
422.12	86.819
422.48	85.333
422.83	86.119
423.19	85.451
423.54	86.101
423.90	85.629
424.25	86.828
424.61	86.506
424.96	87.581
425.31	86.035
425.67	87.772
426.02	87.161
426.38	88.184
426.73	88.882
427.09	85.991
427.44	87.199
427.79	88.302
428.15	86.300
428.50	88.036
428.85	87.577
429.21	86.775
429.56	87.991
429.92	88.235
430.27	87.628
430.62	86.936
430.98	87.150
431.33	88.608
431.68	88.392
432.04	88.901
432.39	87.125
432.74	87.554
433.10	88.727
433.45	88.698
433.80	88.966
434.16	86.674
434.51	89.783
434.86	90.813
435.22	88.964
435.57	89.435
435.92	91.194
436.28	89.970
436.63	89.781
436.98	90.071
437.34	91.026
437.69	88.548
438.04	88.455
438.39	91.283
438.75	89.928
439.10	90.457
439.45	88.983
439.81	91.010
440.16	89.739
440.51	90.309
440.86	90.397
441.22	90.591
441.57	89.859
441.92	89.839
442.27	90.097
442.63	89.505
442.98	89.525
443.33	90.801
443.68	89.510
444.03	89.468
444.39	90.580
444.74	89.840
445.09	89.317
445.44	92.113
445.79	91.327
446.15	91.070
446.50	90.033
446.85	92.090
447.20	91.636
447.55	89.368
447.91	88.933
448.26	89.594
448.61	89.528
448.96	90.034
449.31	90.691
449.66	89.184
450.02	90.222
450.37	89.718
450.72	89.897
451.07	89.843
451.42	88.210
451.77	90.383
452.12	89.661
452.47	91.220
452.83	88.502
453.18	90.197
453.53	89.155
453.88	88.735
454.23	90.482
454.58	88.787
454.93	88.711
455.28	88.696
455.63	89.956
455.98	89.897
456.34	89.002
456.69	89.649
457.04	87.616
457.39	89.838
457.74	87.732
458.09	87.204
458.44	88.837
458.79	87.315
459.14	85.955
459.49	90.305
459.84	88.162
460.19	87.035
460.54	87.470
460.89	87.894
461.24	87.978
461.59	88.889
461.94	86.536
462.29	89.093
462.64	86.873
462.99	87.391
463.34	88.743
463.69	88.015
464.04	87.035
464.39	87.980
464.74	86.548
465.09	87.539
465.44	87.093
465.79	86.314
466.14	86.830
466.49	87.742
466.84	87.388
467.19	87.134
467.54	86.585
467.89	87.869
468.24	87.646
468.59	86.616
468.94	87.548
469.29	85.724
469.64	86.681
469.99	87.862
470.34	88.537
470.68	87.807
471.03	88.858
471.38	86.300
471.73	86.351
472.08	88.454
472.43	87.665
472.78	87.492
473.13	84.828
473.48	86.497
473.83	87.382
474.17	88.151
474.52	87.508
474.87	86.128
475.22	85.870
475.57	85.053
475.92	85.987
476.27	86.189
476.61	85.730
476.96	85.894
477.31	86.246
477.66	85.311
478.01	84.670
478.36	85.395
478.70	84.909
479.05	85.683
479.40	82.995
479.75	85.069
480.10	84.804
480.45	83.521
480.79	84.719
481.14	85.461
481.49	84.953
481.84	83.836
482.19	83.696
482.53	83.429
482.88	83.749
483.23	84.456
483.58	85.208
483.92	83.317
484.27	82.525
484.62	81.935
484.97	82.414
485.31	81.092
485.66	77.281
486.01	77.650
486.36	77.196
486.70	78.233
487.05	79.582
487.40	79.743
487.75	81.424
488.09	80.763
488.44	80.932
488.79	81.491
489.13	81.113
489.48	80.718
489.83	80.840
490.17	82.887
490.52	83.590
490.87	82.012
491.22	81.959
491.56	83.852
491.91	81.085
492.26	83.269
492.60	80.183
492.95	80.612
493.30	81.250
493.64	79.089
493.99	81.353
494.34	81.021
494.68	81.575
495.03	81.126
495.37	80.584
495.72	81.203
496.07	83.536
496.41	80.721
496.76	81.079
497.11	79.859
497.45	81.712
497.80	81.777
498.14	81.763
498.49	80.484
498.84	80.870
499.18	80.488
499.53	79.567
499.87	79.379
500.22	80.587
500.56	78.837
500.91	79.678
501.26	80.197
501.60	79.559
501.95	78.917
502.29	78.738
502.64	79.942
502.98	77.746
503.33	78.783
503.67	79.552
504.02	78.676
504.36	78.851
504.71	77.591
505.06	80.031
505.40	79.794
505.75	79.756
506.09	78.845
506.44	78.780
506.78	78.974
507.13	79.002
507.47	80.435
507.82	78.127
508.16	78.206
508.51	77.634
508.85	78.797
509.19	79.524
509.54	78.767
509.88	79.785
510.23	78.263
510.57	77.807
510.92	79.472
511.26	81.243
511.61	79.363
511.95	78.280
512.30	78.679
512.64	79.285
512.98	77.895
513.33	78.028
513.67	78.365
514.02	79.247
514.36	79.270
514.70	79.099
515.05	80.281
515.39	79.304
515.74	80.521
516.08	78.820
516.42	77.880
516.77	78.735
517.11	79.424
517.46	79.952
517.80	80.327
518.14	78.261
518.49	78.903
518.83	77.804
519.17	78.313
519.52	79.916
519.86	79.903
520.20	77.138
520.55	78.607
520.89	79.064
521.23	81.090
521.58	80.531
521.92	77.813
522.26	78.530
522.61	78.474
522.95	79.210
523.29	77.778
523.64	78.067
523.98	78.717
524.32	77.631
524.66	79.286
525.01	79.685
525.35	78.934
525.69	78.926
526.04	77.394
526.38	77.884
526.72	78.764
527.06	77.176
527.41	77.234
527.75	78.972
528.09	79.646
528.43	79.172
528.78	77.196
529.12	77.878
529.46	77.479
529.80	77.540
530.15	76.448
530.49	79.111
530.83	78.064
531.17	77.877
531.51	76.534
531.86	77.033
532.20	76.637
532.54	77.241
532.88	76.447
533.22	76.902
533.57	77.219
533.91	76.581
534.25	77.409
534.59	75.997
534.93	75.638
535.27	76.624
535.62	76.645
535.96	74.431
536.30	75.598
536.64	74.846
536.98	74.632
537.32	75.587
537.66	76.164
538.01	75.243
538.35	76.174
538.69	74.314
539.03	73.020
539.37	73.441
539.71	73.738
540.05	73.212
540.39	74.742
540.73	74.930
541.07	74.150
541.42	74.141
541.76	75.372
542.10	73.257
542.44	74.290
542.78	74.046
543.12	72.507
543.46	72.840
543.80	72.573
544.14	73.572
544.48	71.931
544.82	71.284
545.16	72.955
545.50	74.139
545.84	73.773
546.18	72.861
546.52	71.348
546.86	72.792
547.20	72.981
547.54	73.624
547.88	72.470
548.22	70.228
548.56	71.381
548.90	70.907
549.24	72.847
549.58	72.313
549.92	73.661
550.26	72.989
550.60	73.273
550.94	73.060
551.28	72.369
551.62	73.534
551.96	71.083
552.30	71.106
552.64	72.387
552.98	73.153
553.32	72.531
553.66	71.753
554.00	71.274
554.34	71.868
554.68	70.992
555.02	71.707
555.36	72.542
555.69	71.741
556.03	71.337
556.37	70.555
556.71	70.357
557.05	71.439
557.39	70.761
557.73	72.844
558.07	69.932
558.41	72.067
558.75	71.209
559.08	71.852
559.42	72.384
559.76	68.425
560.10	70.484
560.44	71.334
560.78	70.144
561.12	69.306
561.45	68.639
561.79	67.675
562.13	70.605
562.47	70.143
562.81	70.130
563.15	67.705
563.48	67.447
563.82	68.947
564.16	69.059
564.50	68.182
564.84	69.392
565.17	68.874
565.51	68.382
565.85	68.421
566.19	67.682
566.52	67.759
566.86	66.245
567.20	66.463
567.54	64.882
567.88	64.278
568.21	64.747
568.55	65.154
568.89	64.457
569.23	63.749
569.56	63.287
569.90	62.998
570.24	61.661
570.57	61.651
570.91	61.585
571.25	61.975
571.59	60.553
571.92	61.015
572.26	61.271
572.60	61.411
572.93	61.575
573.27	60.613
573.61	60.610
573.95	60.100
574.28	59.758
574.62	59.961
574.96	59.252
575.29	59.453
575.63	58.799
575.97	60.897
576.30	59.169
576.64	59.209
576.98	59.586
577.31	58.811
577.65	58.759
577.98	58.370
578.32	57.744
578.66	58.763
578.99	58.944
579.33	58.921
579.67	59.470
580.00	58.758
580.34	58.362
580.67	59.285
581.01	58.722
581.35	57.942
581.68	57.429
582.02	57.910
582.35	57.957
582.69	57.855
583.02	57.709
583.36	58.210
583.70	58.763
584.03	59.126
584.37	58.770
584.70	57.896
585.04	58.220
585.37	58.299
585.71	58.056
586.04	57.845
586.38	57.801
586.72	57.938
587.05	58.742
587.39	58.186
587.72	58.537
588.06	58.304
588.39	58.270
588.73	57.792
589.06	58.875
589.40	58.411
589.73	57.456
590.07	58.987
590.40	59.069
590.73	59.968
591.07	58.629
591.40	58.217
591.74	59.982
592.07	59.242
592.41	58.644
592.74	58.642
593.08	57.846
593.41	58.285
593.75	57.203
594.08	57.582
594.41	58.172
594.75	57.646
595.08	58.701
595.42	57.194
595.75	56.580
596.09	58.276
596.42	58.578
596.75	58.227
597.09	60.009
597.42	59.175
597.75	58.311
598.09	59.016
598.42	57.852
598.76	58.354
599.09	58.303
599.42	56.420
599.76	57.642
600.09	56.928
600.42	57.100
600.76	57.058
601.09	56.685
601.42	57.389
601.76	56.602
602.09	56.871
602.42	58.234
602.76	57.131
603.09	58.275
603.42	56.977
603.76	55.963
604.09	56.443
604.42	57.262
604.76	57.486
605.09	57.227
605.42	57.715
605.75	57.002
606.09	55.795
606.42	57.066
606.75	56.147
607.09	56.472
607.42	57.443
607.75	55.755
608.08	56.222
608.42	56.654
608.75	57.286
609.08	56.296
609.41	56.781
609.75	58.245
610.08	57.742
610.41	58.455
610.74	56.545
611.07	56.062
611.41	57.677
611.74	56.573
612.07	56.488
612.40	57.892
612.73	56.751
613.07	57.927
613.40	56.993
613.73	56.663
614.06	56.993
614.39	57.087
614.72	57.024
615.06	56.278
615.39	57.119
615.72	56.641
616.05	57.545
616.38	57.159
616.71	56.629
617.05	56.941
617.38	57.178
617.71	55.331
618.04	56.917
618.37	57.855
618.70	57.633
619.03	56.976
619.36	58.078
619.69	57.749
620.03	55.618
620.36	57.550
620.69	57.245
621.02	56.385
621.35	57.318
621.68	57.946
622.01	57.443
622.34	58.287
622.67	58.340
623.00	59.043
623.33	58.265
623.66	56.431
623.99	57.014
624.32	56.420
624.65	56.380
624.99	56.429
625.32	56.908
625.65	56.202
625.98	56.477
626.31	57.224
626.64	58.126
626.97	57.180
627.30	57.314
627.63	57.093
627.96	56.797
628.29	59.721
628.62	58.801
628.95	59.118
629.28	59.901
629.61	58.469
629.94	58.704
630.26	58.325
630.59	58.841
630.92	57.530
631.25	57.364
631.58	60.600
631.91	57.264
632.24	57.629
632.57	55.444
632.90	60.443
633.23	59.952
633.56	61.990
633.89	60.048
634.22	60.071
634.55	61.510
634.88	57.475
635.20	60.750
635.53	59.948
635.86	60.385
636.19	57.444
636.52	57.683
636.85	57.057
637.18	56.882
637.51	56.804
637.83	57.833
638.16	58.533
638.49	59.947
638.82	60.784
639.15	58.777
639.48	58.155
639.81	56.250
640.13	59.577
640.46	59.887
640.79	58.561
641.12	58.728
641.45	60.699
641.77	60.383
642.10	60.666
642.43	63.208
642.76	58.675
643.09	60.224
643.41	58.692
643.74	58.805
644.07	58.414
644.40	59.204
644.73	61.356
645.05	61.955
645.38	58.804
645.71	59.184
646.04	59.259
646.36	61.111
646.69	59.441
647.02	59.199
647.35	62.888
647.67	60.074
648.00	60.870
648.33	59.153
648.66	57.763
648.98	56.832
649.31	57.515
649.64	57.277
649.96	61.611
650.29	54.412
650.62	57.496
650.94	56.379
651.27	57.597
651.60	58.741
651.92	59.140
652.25	60.134
652.58	56.601
652.90	56.566
653.23	57.385
653.56	55.207
653.88	55.973
654.21	57.338
654.54	55.150
654.86	55.772
655.19	54.482
655.52	53.127
655.84	48.024
656.17	56.668
656.49	74.696
656.82	73.728
657.15	55.951
657.47	41.929
657.80	31.669
658.13	32.686
658.45	48.805
658.78	49.347
659.10	49.348
659.43	49.594
659.75	50.367
660.08	51.655
660.41	52.941
660.73	52.066
661.06	57.993
661.38	57.946
661.71	57.582
662.03	57.505
662.36	56.637
662.68	60.215
663.01	58.898
663.33	57.235
663.66	53.659
663.98	57.753
664.31	58.022
664.63	54.955
664.96	58.862
665.28	58.798
665.61	54.428
665.93	57.388
666.26	58.228
666.58	55.889
666.91	57.399
667.23	58.525
667.56	56.782
667.88	54.673
668.21	58.929
668.53	56.552
668.86	57.314
669.18	54.374
669.50	60.138
669.83	56.086
670.15	59.048
670.48	53.793
670.80	57.549
671.13	59.725
671.45	56.621
671.77	55.819
672.10	53.216
672.42	55.916
672.75	53.750
673.07	51.636
673.39	56.157
673.72	56.088
674.04	56.352
674.37	54.472
674.69	53.909
675.01	55.128
675.34	52.954
675.66	52.723
675.98	56.637
676.31	55.430
676.63	57.596
676.95	53.882
677.28	53.211
677.60	55.147
677.92	53.437
678.25	53.362
678.57	55.397
678.89	53.305
679.22	51.760
679.54	55.306
679.86	53.906
680.18	54.615
680.51	52.308
680.83	53.606
681.15	55.992
681.48	54.509
681.80	55.215
682.12	51.458
682.44	50.503
682.77	52.000
683.09	51.339
683.41	54.186
683.73	56.250
684.06	53.097
684.38	56.197
684.70	50.713
685.02	55.579
685.34	51.468
685.67	52.158
685.99	48.399
686.31	50.862
686.63	53.676
686.96	52.134
687.28	49.701
687.60	55.198
687.92	49.805
688.24	50.600
688.56	54.605
688.89	50.334
689.21	51.794
689.53	49.550
689.85	55.506
690.17	50.989
690.49	52.657
690.82	51.790
691.14	55.314
691.46	54.060
691.78	53.846
692.10	51.592
692.42	47.253
692.74	51.957
693.06	47.416
693.39	50.351
693.71	50.444
694.03	53.182
694.35	54.279
694.67	53.750
694.99	53.866
695.31	52.196
695.63	50.732
695.95	49.109
696.27	54.521
696.59	48.925
696.91	50.559
697.23	48.477
697.56	51.559
697.88	47.609
698.20	48.380
698.52	52.570
698.84	48.565
699.16	46.572
699.48	51.358
699.80	51.163
700.12	53.083
700.44	49.296
700.76	48.596
701.08	48.943
701.40	51.497
701.72	49.231
702.04	51.258
702.36	50.915
702.68	53.049
703.00	51.462
703.32	48.189
703.64	52.711
703.96	47.214
704.28	49.398
704.60	47.866
704.91	50.470
705.23	56.646
705.55	47.586
705.87	50.352
706.19	47.619
706.51	52.113
706.83	47.134
707.15	52.744
707.47	53.719
707.79	46.701
708.11	49.357
708.43	48.731
708.74	52.128
709.06	43.850
709.38	48.703
709.70	48.348
710.02	51.402
710.34	49.000
710.66	50.814
710.98	47.368
711.29	53.247
711.61	46.452
711.93	49.677
712.25	50.000
712.57	48.070
712.89	47.619
713.20	50.000
713.52	52.190
713.84	47.419
714.16	49.515
714.48	50.633
714.80	47.284
715.11	48.837
715.43	48.447
715.75	49.379
716.07	44.578
716.39	47.475
716.70	48.561
717.02	43.922
717.34	50.000
717.66	50.000
717.97	46.032
718.29	48.031
718.61	48.927
718.93	44.186
719.24	50.923
719.56	46.067
719.88	44.030
720.20	45.455
720.51	43.359
720.83	49.416
721.15	41.057
721.46	43.130
721.78	48.207
722.10	43.825
722.42	44.758
722.73	45.174
723.05	52.245
723.37	48.319
723.68	44.400
724.00	43.830
724.32	47.699
724.63	46.914
724.95	42.735
725.27	46.835
725.58	50.617
725.90	46.862
726.22	44.565
726.53	43.137
726.85	48.905
727.16	45.926
727.48	45.594
727.80	44.922
728.11	41.803
728.43	48.438
728.74	46.032
729.06	40.400
729.38	44.269
729.69	45.552
730.01	41.636
730.32	42.435
730.64	46.970
730.96	47.902
731.27	40.134
731.59	45.397
731.90	44.984
732.22	41.987
732.53	44.257
732.85	41.611
733.16	44.224
733.48	45.608
733.80	39.527
734.11	44.932
734.43	45.820
734.74	45.045
735.06	45.821
735.37	45.897
735.69	44.013
736.00	43.894
736.32	47.163
736.63	51.379
736.95	49.658
737.26	42.414
737.58	44.792
737.89	43.643
738.21	44.484
738.52	46.768
738.83	42.449
739.15	46.835
739.46	45.525
739.78	40.845
740.09	41.438
740.41	43.571
740.72	40.071
741.04	36.400
741.35	46.930
741.66	48.000
741.98	48.077
742.29	45.545
742.61	44.878
742.92	46.053
743.23	42.925
743.55	41.892
743.86	35.874
744.18	42.647
744.49	39.086
744.80	43.878
745.12	41.589
745.43	45.972
745.74	43.694
746.06	46.729
746.37	39.908
746.68	45.673
747.00	37.799
747.31	43.750
747.62	47.248
747.94	45.852
748.25	41.743
748.56	43.556
748.88	46.009
749.19	47.619
749.50	40.777
749.82	40.376
750.13	39.167
750.44	39.231
750.75	38.376
751.07	44.128
751.38	43.617
751.69	40.927
752.01	41.016
752.32	42.692
752.63	42.164
752.94	44.400
753.26	44.770
753.57	41.667
753.88	42.105
754.19	45.020
754.51	38.722
754.82	41.392
755.13	43.478
755.44	43.496
755.75	40.000
756.07	38.007
756.38	40.288
756.69	45.734
757.00	41.121
757.31	44.013
757.63	36.420
757.94	42.938
758.25	39.947
758.56	42.120
758.87	42.857
759.18	41.009
759.50	42.424
759.81	40.803
760.12	41.538
760.43	38.095
760.74	41.808
761.05	37.845
761.36	40.115
761.67	38.369
761.99	38.832
762.30	41.971
762.61	39.506
762.92	45.299
763.23	47.131
763.54	44.156
763.85	36.327
764.16	37.398
764.47	44.000
764.78	41.429
765.10	39.016
765.41	35.866
765.72	42.547
766.03	39.274
766.34	36.538
766.65	40.586
766.96	34.742
767.27	40.099
767.58	38.202
767.89	46.914
768.20	30.387
768.51	44.221
768.82	39.904
769.13	38.496
769.44	40.167
769.75	34.188
770.06	40.807
770.37	39.706
770.68	40.777
770.99	38.835
771.30	43.697
771.61	36.327
771.92	41.494
772.23	32.432
772.54	38.674
772.85	38.372
773.16	41.799
773.47	40.828
773.78	42.529
774.09	41.250
774.39	36.646
774.70	40.816
775.01	43.448
775.32	42.143
775.63	38.346
775.94	36.090
776.25	39.200
776.56	41.322
776.87	31.746
777.18	40.541
777.48	37.838
777.79	27.559
778.10	41.284
778.41	34.211
778.72	47.059
779.03	33.099
779.34	36.486
779.65	37.324
779.95	39.735
780.26	30.216
780.57	28.777
780.88	33.803
781.19	35.294
781.50	43.624
781.80	38.012
782.11	28.488
782.42	46.541
782.73	43.137
783.04	37.241
783.34	25.191
783.65	35.570
783.96	45.385
784.27	35.714
784.57	36.879
784.88	10.577
785.19	35.455
785.50	24.545
785.81	41.905
786.11	35.294
786.42	37.168
786.73	29.245
787.04	21.101
787.34	26.733
787.65	29.167
787.96	31.405
788.26	27.536
788.57	32.540
788.88	33.333
789.19	31.200
789.49	32.061
789.80	38.636
790.11	33.962
790.41	28.713
790.72	26.596
791.03	27.174
791.33	38.824
791.64	28.395
791.95	31.522
792.25	27.273
792.56	43.590
792.87	21.795
793.17	23.077
793.48	36.905
793.79	23.750
794.09	37.500
794.40	45.833
794.70	28.829
795.01	24.219
795.32	26.957
795.62	28.261
795.93	27.358
796.23	38.384
796.54	21.951
796.85	35.714
797.15	28.788
797.46	17.391
797.76	30.263
798.07	26.136
798.37	39.024
798.68	33.871
798.99	25.676
799.29	39.759
799.60	29.487
799.90	29.231
800.21	30.303
800.51	13.333
800.82	34.667
801.12	2.083
801.43	10.000
801.73	17.568
802.04	38.571
802.34	21.311
802.65	23.881
802.95	38.182
803.26	34.483
803.56	18.462
803.87	43.396
804.17	8.065
804.48	29.412
804.78	21.951
805.09	27.536
805.39	17.647
805.70	19.149
806.00	14.035
806.30	38.462
806.61	31.579
806.91	21.622
807.22	25.000
807.52	22.727
807.83	22.034
808.13	10.606
808.43	36.667
808.74	3.448
809.04	38.095
809.35	28.571
809.65	21.667
809.95	34.694
810.26	26.761
810.56	14.583
810.86	34.694
811.17	25.000
811.47	19.149
811.77	14.583
812.08	18.868
812.38	9.375
812.69	34.545
812.99	31.707
813.29	16.216
813.59	0.000
813.90	25.455
814.20	38.182
814.50	20.000
814.81	34.545
815.11	19.298
815.41	37.209
815.72	20.000
816.02	8.571
816.32	18.919
816.62	10.417
816.93	20.000
817.23	15.556
817.53	-2.778
817.84	16.216
818.14	26.829
818.44	26.000
818.74	16.327
819.04	24.390
819.35	-2.778
819.65	13.636
819.95	11.111
820.25	-9.091
820.56	-4.762
820.86	25.000
821.16	-2.273
821.46	4.348
821.76	12.069
822.07	45.652
822.37	27.273
822.67	48.780
822.97	43.243
823.27	-40.000
823.57	41.379
823.88	20.588
824.18	13.889
824.48	17.143
824.78	14.286
825.08	7.143
825.38	59.259
825.69	16.129
825.99	34.146
826.29	14.815
826.59	3.125
826.89	32.258
827.19	4.348
827.49	-5.556
827.79	-13.043
828.09	19.355
828.39	6.250
828.70	-21.875
829.00	-20.690
829.30	10.811
829.60	-8.333
829.90	25.926
830.20	31.250
830.50	-40.909
830.80	-17.647
831.10	0.000
831.40	2.941
831.70	-11.538
832.00	-6.061
832.30	17.647
832.60	45.946
832.90	700.000
833.20	32.143
833.50	-30.000
833.80	21.053
834.10	-25.000
834.40	-13.636
834.70	-33.333
835.00	50.000
835.30	16.667
835.60	-19.048
835.90	14.286
836.20	20.000
836.50	12.500
836.80	-15.789
837.10	35.135
837.40	20.000
837.70	-4.348
838.00	33.333
838.30	-42.105
838.60	-80.000
838.90	-100.000
839.19	-33.333
839.49	7.692
839.79	10.526
840.09	-100.000
840.39	-10.000
840.69	-22.727
840.99	47.619
841.29	20.833
841.59	-7.692
841.88	-46.667
842.18	-14.286
842.48	40.000
842.78	-85.714
843.08	-64.286
843.38	-75.000
843.68	-12.500
843.97	-7.143
844.27	-66.667
844.57	-90.909
844.87	-6.667
845.17	-4.545
845.47	300.000
845.76	-26.667
846.06	-116.667
846.36	-750.000
846.66	-47.368
846.96	-22.727
847.25	-94.444
847.55	-100.000
847.85	-28.571
848.15	-38.462
848.44	-166.667
848.74	-75.000
849.04	-76.923
849.34	-100.000
849.63	-136.364
849.93	-50.000
850.23	-20.000
850.53	-50.000
850.82	0.000
851.12	40.000
851.42	-41.176
851.71	-62.500
852.01	17.647
852.31	-38.462
852.61	800.000
852.90	-35.294
853.20	-46.667
853.50	-18.750
853.79	-85.714
854.09	-225.000
854.39	-45.000
854.68	2.500
854.98	-57.143
855.28	0.000
855.57	-8.333
855.87	-25.000
856.17	8.000
856.46	3.125
856.76	-15.000
857.05	-20.000
857.35	-50.000
857.65	-41.176
857.94	-200.000
858.24	-8.333
858.53	-10.000
858.83	-154.545
859.13	8.000
859.42	-64.286
859.72	-162.500
860.01	12.500
860.31	-225.000
860.60	-81.250
860.90	-300.000
861.20	-166.667
861.49	-26.667
861.79	-68.750
862.08	50.000
862.38	-125.000
862.67	157.143
862.97	475.000
863.26	-18.182
863.56	-109.091
863.85	21.053
864.15	-23.529
864.44	-280.000
864.74	-60.000
865.03	-111.111
865.33	-21.429
865.62	142.857
865.92	-31.579
866.21	-66.667
866.51	-36.364
866.80	-44.444
867.10	-137.500
867.39	-6.250
867.69	-66.667
867.98	-60.000
868.27	-11.765
868.57	0.000
868.86	1100.000
869.16	100.000
869.45	-85.714
869.75	150.000
870.04	-20.000
870.33	-1600.000
870.63	-73.684
870.92	25.000
871.22	-1100.000
871.51	-157.143
871.80	-177.778
872.10	-300.000
>>>>>End Processed Spectral Data<<<<<
