SpectraSuite Data File
++++++++++++++++++++++++++++++++++++
Date: Wed May 13 20:26:51 PDT 2015
User: schluterlab
Dark Spectrum Present: Yes
Reference Spectrum Present: Yes
Number of Sampled Component Spectra: 1
Spectrometers: USB2E3373
Integration Time (usec): 3000 (USB2E3373)
Spectra Averaged: 3 (USB2E3373)
Boxcar Smoothing: 0 (USB2E3373)
Correct for Electrical Dark: No (USB2E3373)
Strobe/Lamp Enabled: No (USB2E3373)
Correct for Detector Non-linearity: No (USB2E3373)
Correct for Stray Light: No (USB2E3373)
Number of Pixels in Processed Spectrum: 2048
>>>>>Begin Processed Spectral Data<<<<<
178.53	0.000
178.91	-1175.000
179.29	-875.000
179.67	-177.778
180.04	-950.000
180.42	2100.000
180.80	1040.000
181.18	-1050.000
181.56	500.000
181.94	0.000
182.31	-542.857
182.69	1300.000
183.07	-550.000
183.45	-488.889
183.83	500.000
184.20	-330.000
184.58	2100.000
184.96	5500.000
185.34	-740.000
185.72	-562.500
186.09	-2050.000
186.47	2400.000
186.85	2000.000
187.23	4900.000
187.61	-1300.000
187.98	1075.000
188.36	545.455
188.74	390.909
189.12	-840.000
189.49	550.000
189.87	-4000.000
190.25	-1150.000
190.63	400.000
191.00	376.923
191.38	800.000
191.76	-1150.000
192.14	1475.000
192.51	612.500
192.89	933.333
193.27	587.500
193.65	-850.000
194.02	440.000
194.40	840.000
194.78	540.000
195.15	483.333
195.53	540.000
195.91	-1350.000
196.29	256.250
196.66	310.526
197.04	-250.000
197.42	0.000
197.79	680.000
198.17	-4500.000
198.55	414.286
198.92	650.000
199.30	920.000
199.68	0.000
200.05	261.111
200.43	585.714
200.81	4200.000
201.18	1233.333
201.56	-1266.667
201.94	555.556
202.31	622.222
202.69	441.667
203.07	520.000
203.44	0.000
203.82	1200.000
204.19	671.429
204.57	414.286
204.95	650.000
205.32	1333.333
205.70	527.273
206.08	335.714
206.45	2400.000
206.83	312.500
207.20	800.000
207.58	860.000
207.96	227.778
208.33	587.500
208.71	-683.333
209.08	828.571
209.46	477.778
209.84	381.818
210.21	-1433.333
210.59	1375.000
210.96	-437.500
211.34	2350.000
211.71	480.000
212.09	700.000
212.46	0.000
212.84	1633.333
213.22	1125.000
213.59	-4700.000
213.97	716.667
214.34	657.143
214.72	572.727
215.09	760.000
215.47	-1600.000
215.84	-2400.000
216.22	1400.000
216.59	400.000
216.97	1150.000
217.34	454.545
217.72	-683.333
218.09	0.000
218.47	-3000.000
218.84	600.000
219.22	714.286
219.59	1433.333
219.97	-571.429
220.34	820.000
220.72	-1300.000
221.09	428.571
221.47	1325.000
221.84	-783.333
222.22	0.000
222.59	1375.000
222.97	-2200.000
223.34	920.000
223.72	384.615
224.09	1020.000
224.46	1900.000
224.84	-4900.000
225.21	-820.000
225.59	-4400.000
225.96	600.000
226.34	275.000
226.71	2150.000
227.08	650.000
227.46	520.000
227.83	-825.000
228.21	-2300.000
228.58	488.889
228.95	-2300.000
229.33	-1900.000
229.70	1500.000
230.08	542.857
230.45	-740.000
230.82	391.667
231.20	733.333
231.57	685.714
231.95	391.667
232.32	195.455
232.69	327.273
233.07	557.143
233.44	361.538
233.81	-1633.333
234.19	294.737
234.56	433.333
234.93	291.667
235.31	381.818
235.68	330.769
236.05	271.429
236.43	172.727
236.80	215.789
237.17	4000.000
237.55	204.762
237.92	192.857
238.29	190.476
238.67	148.387
239.04	155.172
239.41	111.111
239.79	100.000
240.16	104.762
240.53	115.909
240.91	76.471
241.28	80.000
241.65	86.000
242.02	82.609
242.40	70.968
242.77	70.000
243.14	59.140
243.51	65.169
243.89	55.294
244.26	44.444
244.63	50.538
245.00	52.128
245.38	46.535
245.75	48.598
246.12	31.193
246.49	51.095
246.87	50.400
247.24	45.385
247.61	40.714
247.98	45.098
248.36	42.568
248.73	35.669
249.10	40.764
249.47	30.508
249.84	37.968
250.22	35.829
250.59	30.769
250.96	32.828
251.33	30.806
251.70	32.673
252.08	35.238
252.45	30.045
252.82	27.826
253.19	29.362
253.56	29.804
253.94	24.896
254.31	26.562
254.68	26.154
255.05	28.782
255.42	26.016
255.79	26.838
256.16	26.354
256.54	21.908
256.91	28.470
257.28	19.784
257.65	23.762
258.02	24.224
258.39	23.659
258.76	23.411
259.14	23.810
259.51	22.796
259.88	20.497
260.25	24.169
260.62	21.387
260.99	21.739
261.36	24.324
261.73	22.063
262.10	22.674
262.47	23.380
262.85	21.448
263.22	20.513
263.59	24.501
263.96	23.352
264.33	21.932
264.70	23.158
265.07	19.949
265.44	19.949
265.81	19.465
266.18	18.844
266.55	20.244
266.92	20.147
267.29	22.917
267.66	21.330
268.03	18.864
268.40	20.561
268.77	18.138
269.14	18.468
269.51	22.122
269.88	20.979
270.25	16.704
270.62	20.225
270.99	20.430
271.36	19.957
271.73	18.458
272.10	16.522
272.47	21.505
272.84	19.913
273.21	19.706
273.58	19.651
273.95	18.868
274.32	19.215
274.69	20.557
275.06	17.520
275.43	17.872
275.80	18.236
276.17	17.923
276.54	18.919
276.91	16.798
277.28	16.211
277.65	19.149
278.02	16.770
278.39	20.117
278.76	18.000
279.13	16.981
279.50	17.505
279.87	18.725
280.23	16.367
280.60	17.021
280.97	16.451
281.34	17.699
281.71	19.273
282.08	18.426
282.45	16.364
282.82	17.584
283.19	14.260
283.56	17.018
283.92	17.090
284.29	17.108
284.66	16.878
285.03	17.179
285.40	14.437
285.77	18.013
286.14	17.271
286.51	18.000
286.87	15.043
287.24	16.450
287.61	14.767
287.98	17.208
288.35	14.580
288.72	15.265
289.08	16.588
289.45	17.463
289.82	15.935
290.19	14.286
290.56	14.089
290.93	12.991
291.29	14.417
291.66	14.159
292.03	17.587
292.40	16.593
292.77	14.349
293.13	14.776
293.50	15.743
293.87	14.074
294.24	13.481
294.60	14.993
294.97	14.099
295.34	15.797
295.71	14.631
296.08	13.818
296.44	11.692
296.81	13.738
297.18	13.957
297.55	11.478
297.91	14.248
298.28	15.261
298.65	12.272
299.02	13.834
299.38	13.679
299.75	12.534
300.12	11.622
300.48	12.125
300.85	13.194
301.22	13.631
301.59	13.258
301.95	12.720
302.32	12.837
302.69	13.978
303.05	11.636
303.42	12.099
303.79	13.137
304.15	12.121
304.52	12.283
304.89	10.801
305.25	13.689
305.62	12.231
305.99	12.987
306.35	13.199
306.72	12.332
307.09	12.320
307.45	14.527
307.82	11.719
308.19	13.907
308.55	13.916
308.92	12.460
309.29	12.144
309.65	12.831
310.02	14.905
310.38	13.978
310.75	13.411
311.12	15.148
311.48	13.166
311.85	14.361
312.22	14.464
312.58	12.994
312.95	16.367
313.31	14.272
313.68	15.696
314.05	16.568
314.41	14.573
314.78	15.609
315.14	15.094
315.51	16.169
315.87	15.842
316.24	15.988
316.61	17.349
316.97	17.417
317.34	15.264
317.70	17.973
318.07	18.576
318.43	17.123
318.80	19.025
319.16	18.738
319.53	18.574
319.89	19.619
320.26	21.400
320.62	19.841
320.99	21.111
321.35	21.010
321.72	21.663
322.08	22.606
322.45	24.776
322.81	24.225
323.18	23.892
323.54	23.840
323.91	23.774
324.27	24.283
324.64	23.579
325.00	25.158
325.37	26.115
325.73	26.481
326.10	27.184
326.46	26.075
326.83	27.869
327.19	27.071
327.56	27.613
327.92	28.696
328.29	29.902
328.65	29.558
329.01	29.332
329.38	28.862
329.74	29.548
330.11	30.254
330.47	30.119
330.84	31.342
331.20	29.599
331.56	32.110
331.93	30.556
332.29	29.902
332.66	30.973
333.02	31.718
333.38	31.165
333.75	32.531
334.11	31.584
334.48	31.233
334.84	30.882
335.20	31.091
335.57	31.369
335.93	30.625
336.29	31.685
336.66	33.544
337.02	30.769
337.38	33.241
337.75	32.442
338.11	31.334
338.47	32.136
338.84	32.722
339.20	30.917
339.56	34.124
339.93	32.182
340.29	32.790
340.65	32.620
341.02	32.461
341.38	33.452
341.74	32.544
342.11	31.878
342.47	32.775
342.83	33.562
343.20	32.641
343.56	32.856
343.92	34.211
344.28	33.844
344.65	33.190
345.01	32.912
345.37	32.333
345.73	32.910
346.10	33.674
346.46	33.475
346.82	33.361
347.19	32.581
347.55	34.401
347.91	34.466
348.27	34.840
348.63	34.281
349.00	33.738
349.36	33.251
349.72	33.601
350.08	32.739
350.45	35.313
350.81	34.931
351.17	34.441
351.53	35.299
351.89	33.168
352.26	34.412
352.62	34.322
352.98	33.874
353.34	35.086
353.70	33.552
354.07	34.194
354.43	33.889
354.79	34.111
355.15	35.116
355.51	35.412
355.87	35.429
356.24	35.423
356.60	34.483
356.96	35.800
357.32	35.078
357.68	34.961
358.04	34.442
358.40	34.996
358.77	34.194
359.13	34.570
359.49	34.980
359.85	34.762
360.21	33.971
360.57	35.097
360.93	35.231
361.29	34.392
361.66	33.824
362.02	35.299
362.38	36.198
362.74	35.119
363.10	34.197
363.46	35.143
363.82	35.450
364.18	35.095
364.54	36.256
364.90	35.127
365.26	36.029
365.62	36.012
365.98	35.135
366.35	34.169
366.71	35.792
367.07	35.907
367.43	36.865
367.79	36.474
368.15	37.356
368.51	34.520
368.87	35.903
369.23	35.845
369.59	37.075
369.95	35.368
370.31	36.396
370.67	35.797
371.03	36.554
371.39	35.787
371.75	35.368
372.11	35.420
372.47	35.997
372.83	36.527
373.19	35.694
373.55	37.029
373.91	37.040
374.27	36.770
374.63	36.727
374.99	35.876
375.35	35.520
375.71	35.161
376.07	35.597
376.42	35.626
376.78	36.382
377.14	36.364
377.50	35.563
377.86	35.372
378.22	36.473
378.58	35.276
378.94	34.947
379.30	35.242
379.66	36.104
380.02	35.995
380.38	35.458
380.74	35.954
381.09	35.636
381.45	36.509
381.81	36.978
382.17	35.350
382.53	35.283
382.89	35.864
383.25	35.960
383.61	36.989
383.97	36.335
384.32	35.745
384.68	35.006
385.04	35.833
385.40	34.427
385.76	34.275
386.12	35.687
386.48	35.997
386.83	36.241
387.19	37.415
387.55	35.436
387.91	34.704
388.27	35.316
388.62	36.140
388.98	35.012
389.34	35.982
389.70	35.745
390.06	35.425
390.42	35.473
390.77	35.814
391.13	35.099
391.49	33.820
391.85	35.391
392.20	33.817
392.56	35.101
392.92	35.079
393.28	33.846
393.64	34.832
393.99	34.698
394.35	34.553
394.71	34.128
395.07	34.579
395.42	35.043
395.78	34.987
396.14	34.947
396.50	34.774
396.85	35.537
397.21	34.340
397.57	33.974
397.92	34.075
398.28	33.016
398.64	34.170
399.00	33.576
399.35	34.292
399.71	34.201
400.07	34.299
400.42	34.294
400.78	33.896
401.14	33.841
401.49	34.627
401.85	33.878
402.21	33.832
402.57	34.115
402.92	34.237
403.28	33.417
403.63	33.230
403.99	34.204
404.35	32.909
404.70	32.794
405.06	33.023
405.42	34.373
405.77	32.971
406.13	32.788
406.49	32.939
406.84	33.136
407.20	31.738
407.55	32.929
407.91	33.533
408.27	33.567
408.62	32.571
408.98	32.843
409.34	32.780
409.69	32.774
410.05	32.652
410.40	32.661
410.76	32.855
411.11	32.509
411.47	31.885
411.83	32.743
412.18	31.169
412.54	32.690
412.89	32.169
413.25	32.290
413.60	32.057
413.96	31.998
414.31	31.349
414.67	31.939
415.03	32.848
415.38	33.054
415.74	32.154
416.09	32.920
416.45	32.865
416.80	31.461
417.16	31.971
417.51	31.652
417.87	31.407
418.22	31.924
418.58	32.666
418.93	31.388
419.29	32.272
419.64	32.368
420.00	31.098
420.35	31.884
420.71	31.919
421.06	31.981
421.42	31.696
421.77	31.783
422.12	31.331
422.48	30.383
422.83	31.275
423.19	31.934
423.54	31.747
423.90	32.406
424.25	31.937
424.61	32.024
424.96	31.603
425.31	30.676
425.67	30.730
426.02	31.029
426.38	31.563
426.73	31.188
427.09	32.340
427.44	31.340
427.79	32.375
428.15	31.131
428.50	31.305
428.85	31.883
429.21	30.591
429.56	31.104
429.92	30.750
430.27	30.487
430.62	30.364
430.98	30.306
431.33	30.155
431.68	31.623
432.04	30.884
432.39	31.810
432.74	31.718
433.10	31.692
433.45	31.254
433.80	30.654
434.16	31.090
434.51	31.421
434.86	32.041
435.22	30.962
435.57	31.003
435.92	31.597
436.28	31.495
436.63	32.119
436.98	31.883
437.34	31.306
437.69	31.914
438.04	30.860
438.39	31.104
438.75	31.377
439.10	30.615
439.45	31.346
439.81	31.239
440.16	30.378
440.51	30.756
440.86	31.616
441.22	31.257
441.57	31.210
441.92	31.781
442.27	31.109
442.63	30.595
442.98	32.000
443.33	30.163
443.68	30.459
444.03	30.844
444.39	30.769
444.74	30.628
445.09	30.836
445.44	30.563
445.79	30.134
446.15	30.598
446.50	30.802
446.85	29.651
447.20	30.189
447.55	31.267
447.91	30.226
448.26	30.607
448.61	30.808
448.96	30.343
449.31	30.934
449.66	31.232
450.02	30.084
450.37	30.329
450.72	30.626
451.07	28.885
451.42	30.091
451.77	31.239
452.12	30.600
452.47	29.415
452.83	31.585
453.18	30.562
453.53	31.231
453.88	29.829
454.23	29.946
454.58	30.588
454.93	32.041
455.28	30.673
455.63	30.158
455.98	31.667
456.34	30.151
456.69	30.808
457.04	30.588
457.39	29.573
457.74	30.354
458.09	29.730
458.44	30.103
458.79	28.742
459.14	30.135
459.49	29.947
459.84	29.640
460.19	29.699
460.54	28.993
460.89	29.676
461.24	29.933
461.59	30.389
461.94	29.963
462.29	29.792
462.64	29.930
462.99	29.083
463.34	30.600
463.69	29.268
464.04	29.391
464.39	28.812
464.74	29.174
465.09	29.192
465.44	28.532
465.79	28.356
466.14	28.626
466.49	28.142
466.84	28.663
467.19	28.847
467.54	30.000
467.89	28.752
468.24	28.330
468.59	29.670
468.94	28.467
469.29	29.884
469.64	29.451
469.99	29.432
470.34	29.524
470.68	30.172
471.03	28.980
471.38	29.604
471.73	28.648
472.08	29.474
472.43	29.020
472.78	28.703
473.13	27.599
473.48	28.215
473.83	26.951
474.17	29.123
474.52	28.102
474.87	29.247
475.22	28.033
475.57	28.103
475.92	27.244
476.27	28.185
476.61	28.075
476.96	27.543
477.31	27.316
477.66	28.173
478.01	27.130
478.36	27.869
478.70	27.310
479.05	27.796
479.40	27.482
479.75	27.250
480.10	26.292
480.45	27.035
480.79	26.469
481.14	27.250
481.49	26.720
481.84	26.200
482.19	26.715
482.53	27.294
482.88	26.338
483.23	26.682
483.58	26.388
483.92	26.148
484.27	24.575
484.62	26.164
484.97	24.911
485.31	25.342
485.66	23.451
486.01	22.734
486.36	22.462
486.70	22.566
487.05	22.846
487.40	23.698
487.75	23.850
488.09	24.689
488.44	24.883
488.79	25.497
489.13	25.592
489.48	25.897
489.83	25.723
490.17	26.304
490.52	25.244
490.87	25.057
491.22	25.739
491.56	24.920
491.91	25.221
492.26	24.805
492.60	25.300
492.95	25.444
493.30	25.187
493.64	25.665
493.99	24.373
494.34	25.578
494.68	25.824
495.03	25.141
495.37	25.081
495.72	25.536
496.07	25.568
496.41	24.425
496.76	24.582
497.11	24.854
497.45	24.453
497.80	24.856
498.14	24.300
498.49	24.780
498.84	24.832
499.18	25.190
499.53	24.976
499.87	24.790
500.22	24.494
500.56	25.000
500.91	24.375
501.26	24.087
501.60	25.819
501.95	23.969
502.29	24.367
502.64	24.534
502.98	24.451
503.33	24.223
503.67	24.084
504.02	23.994
504.36	24.052
504.71	24.377
505.06	24.482
505.40	23.918
505.75	23.915
506.09	23.615
506.44	24.223
506.78	24.403
507.13	24.230
507.47	24.596
507.82	24.519
508.16	24.721
508.51	24.150
508.85	23.784
509.19	24.388
509.54	24.082
509.88	23.905
510.23	23.907
510.57	23.736
510.92	24.340
511.26	23.484
511.61	23.755
511.95	23.747
512.30	22.853
512.64	23.966
512.98	24.491
513.33	24.143
513.67	23.159
514.02	23.485
514.36	24.140
514.70	25.014
515.05	23.257
515.39	23.948
515.74	24.606
516.08	23.924
516.42	24.473
516.77	24.526
517.11	23.141
517.46	23.928
517.80	24.042
518.14	24.030
518.49	24.387
518.83	24.091
519.17	23.326
519.52	23.826
519.86	23.674
520.20	24.451
520.55	24.237
520.89	24.392
521.23	24.306
521.58	23.529
521.92	24.250
522.26	23.856
522.61	23.427
522.95	22.959
523.29	22.763
523.64	24.512
523.98	24.461
524.32	23.764
524.66	23.752
525.01	23.223
525.35	23.420
525.69	23.584
526.04	23.302
526.38	23.551
526.72	22.822
527.06	23.415
527.41	22.401
527.75	23.666
528.09	22.608
528.43	23.709
528.78	23.479
529.12	23.394
529.46	22.903
529.80	23.824
530.15	23.489
530.49	22.892
530.83	24.241
531.17	23.825
531.51	24.060
531.86	24.000
532.20	24.185
532.54	23.126
532.88	22.657
533.22	22.611
533.57	22.284
533.91	22.456
534.25	21.993
534.59	22.636
534.93	22.189
535.27	22.028
535.62	22.039
535.96	22.599
536.30	22.759
536.64	22.859
536.98	22.495
537.32	21.659
537.66	22.667
538.01	22.646
538.35	22.689
538.69	22.591
539.03	22.612
539.37	21.150
539.71	21.452
540.05	21.961
540.39	22.060
540.73	23.027
541.07	22.453
541.42	22.244
541.76	22.129
542.10	21.669
542.44	21.060
542.78	22.464
543.12	21.305
543.46	21.705
543.80	21.926
544.14	20.924
544.48	21.778
544.82	20.847
545.16	21.405
545.50	21.144
545.84	22.110
546.18	21.481
546.52	22.574
546.86	22.268
547.20	22.320
547.54	22.311
547.88	21.939
548.22	20.984
548.56	21.635
548.90	21.127
549.24	20.471
549.58	21.965
549.92	21.016
550.26	21.804
550.60	22.061
550.94	21.690
551.28	20.849
551.62	21.208
551.96	21.123
552.30	21.638
552.64	21.569
552.98	21.492
553.32	21.241
553.66	21.677
554.00	21.620
554.34	20.980
554.68	22.389
555.02	22.003
555.36	21.364
555.69	20.433
556.03	21.131
556.37	20.873
556.71	20.737
557.05	20.658
557.39	20.714
557.73	20.677
558.07	20.740
558.41	20.984
558.75	22.337
559.08	21.029
559.42	21.391
559.76	21.324
560.10	21.342
560.44	21.174
560.78	20.359
561.12	21.174
561.45	20.860
561.79	20.501
562.13	20.523
562.47	20.697
562.81	19.944
563.15	20.067
563.48	20.358
563.82	20.548
564.16	19.228
564.50	19.987
564.84	19.785
565.17	20.399
565.51	19.425
565.85	20.114
566.19	18.910
566.52	19.823
566.86	18.987
567.20	19.340
567.54	19.121
567.88	18.088
568.21	19.788
568.55	17.897
568.89	17.947
569.23	17.558
569.56	17.206
569.90	16.642
570.24	16.254
570.57	16.015
570.91	15.579
571.25	15.843
571.59	15.994
571.92	15.380
572.26	15.540
572.60	16.216
572.93	15.982
573.27	16.149
573.61	15.829
573.95	15.504
574.28	15.327
574.62	15.452
574.96	15.293
575.29	14.767
575.63	15.346
575.97	15.465
576.30	15.481
576.64	15.441
576.98	15.386
577.31	15.111
577.65	15.071
577.98	14.536
578.32	14.476
578.66	14.151
578.99	15.225
579.33	14.718
579.67	14.522
580.00	14.960
580.34	15.093
580.67	14.748
581.01	14.886
581.35	14.543
581.68	14.506
582.02	13.923
582.35	14.141
582.69	14.402
583.02	14.564
583.36	14.618
583.70	15.335
584.03	14.890
584.37	15.441
584.70	15.204
585.04	15.338
585.37	14.515
585.71	14.826
586.04	14.979
586.38	14.943
586.72	15.603
587.05	15.050
587.39	14.565
587.72	15.357
588.06	15.235
588.39	15.418
588.73	15.342
589.06	15.862
589.40	15.219
589.73	15.241
590.07	15.480
590.40	15.345
590.73	15.808
591.07	16.036
591.40	16.617
591.74	16.234
592.07	16.143
592.41	16.246
592.74	15.543
593.08	15.223
593.41	15.628
593.75	14.959
594.08	15.153
594.41	15.765
594.75	14.713
595.08	15.569
595.42	15.692
595.75	15.420
596.09	16.185
596.42	16.542
596.75	15.914
597.09	16.753
597.42	15.472
597.75	16.429
598.09	16.217
598.42	16.108
598.76	15.728
599.09	15.089
599.42	15.684
599.76	15.154
600.09	14.900
600.42	14.901
600.76	15.286
601.09	15.628
601.42	14.916
601.76	15.332
602.09	15.494
602.42	16.043
602.76	15.397
603.09	15.303
603.42	15.775
603.76	15.130
604.09	15.665
604.42	15.817
604.76	16.407
605.09	15.640
605.42	15.306
605.75	15.894
606.09	15.372
606.42	15.488
606.75	15.803
607.09	16.116
607.42	15.233
607.75	15.274
608.08	15.415
608.42	16.360
608.75	15.870
609.08	15.449
609.41	16.230
609.75	15.531
610.08	16.400
610.41	15.829
610.74	15.610
611.07	16.057
611.41	16.977
611.74	16.491
612.07	16.201
612.40	16.317
612.73	16.105
613.07	16.649
613.40	16.851
613.73	15.941
614.06	16.129
614.39	16.361
614.72	15.947
615.06	16.702
615.39	15.977
615.72	15.746
616.05	16.268
616.38	17.454
616.71	17.340
617.05	17.079
617.38	17.078
617.71	16.276
618.04	16.587
618.37	16.972
618.70	17.113
619.03	16.447
619.36	17.787
619.69	17.465
620.03	18.269
620.36	18.249
620.69	18.288
621.02	18.142
621.35	17.150
621.68	17.991
622.01	17.957
622.34	18.381
622.67	18.783
623.00	18.122
623.33	16.869
623.66	17.513
623.99	17.820
624.32	17.618
624.65	17.938
624.99	16.856
625.32	17.234
625.65	18.708
625.98	18.217
626.31	19.596
626.64	18.776
626.97	19.534
627.30	18.371
627.63	18.376
627.96	19.344
628.29	19.073
628.62	19.579
628.95	20.755
629.28	19.617
629.61	19.432
629.94	19.619
630.26	18.875
630.59	19.256
630.92	20.019
631.25	19.941
631.58	20.220
631.91	20.081
632.24	19.831
632.57	20.147
632.90	21.053
633.23	21.141
633.56	21.130
633.89	21.065
634.22	20.318
634.55	20.828
634.88	21.796
635.20	21.505
635.53	20.120
635.86	21.535
636.19	19.765
636.52	20.992
636.85	21.306
637.18	20.392
637.51	22.222
637.83	19.112
638.16	21.483
638.49	21.285
638.82	22.503
639.15	22.500
639.48	21.322
639.81	21.716
640.13	21.224
640.46	22.550
640.79	22.325
641.12	21.733
641.45	22.765
641.77	21.649
642.10	22.661
642.43	22.673
642.76	23.065
643.09	24.540
643.41	23.217
643.74	24.537
644.07	22.256
644.40	23.620
644.73	24.409
645.05	24.089
645.38	22.433
645.71	23.349
646.04	25.249
646.36	26.210
646.69	25.251
647.02	26.361
647.35	23.024
647.67	23.894
648.00	25.203
648.33	22.937
648.66	24.394
648.98	22.189
649.31	21.973
649.64	22.870
649.96	22.206
650.29	22.275
650.62	22.654
650.94	23.825
651.27	22.973
651.60	23.627
651.92	23.802
652.25	22.150
652.58	22.897
652.90	22.907
653.23	21.418
653.56	22.205
653.88	23.613
654.21	25.908
654.54	22.442
654.86	22.586
655.19	19.730
655.52	13.808
655.84	10.200
656.17	12.295
656.49	16.538
656.82	17.323
657.15	13.289
657.47	10.226
657.80	7.889
658.13	8.299
658.45	12.766
658.78	13.200
659.10	14.165
659.43	14.840
659.75	16.034
660.08	17.405
660.41	18.622
660.73	23.126
661.06	22.293
661.38	25.818
661.71	27.115
662.03	25.444
662.36	22.068
662.68	24.699
663.01	26.061
663.33	25.053
663.66	25.840
663.98	26.134
664.31	25.630
664.63	25.304
664.96	21.529
665.28	24.590
665.61	23.392
665.93	23.944
666.26	22.921
666.58	25.523
666.91	28.330
667.23	26.292
667.56	23.758
667.88	27.137
668.21	26.439
668.53	25.380
668.86	25.108
669.18	28.998
669.50	25.870
669.83	29.847
670.15	24.889
670.48	27.015
670.80	26.293
671.13	28.025
671.45	22.128
671.77	25.866
672.10	24.399
672.42	24.205
672.75	23.051
673.07	21.831
673.39	23.870
673.72	23.047
674.04	22.745
674.37	24.660
674.69	24.540
675.01	24.477
675.34	25.462
675.66	28.211
675.98	26.680
676.31	25.420
676.63	26.539
676.95	24.109
677.28	27.103
677.60	25.934
677.92	29.325
678.25	25.873
678.57	24.502
678.89	25.852
679.22	24.361
679.54	23.855
679.86	22.936
680.18	23.792
680.51	22.872
680.83	22.420
681.15	24.151
681.48	26.276
681.80	24.178
682.12	22.797
682.44	21.470
682.77	25.866
683.09	29.828
683.41	26.164
683.73	22.517
684.06	26.446
684.38	23.875
684.70	25.969
685.02	24.390
685.34	21.795
685.67	20.629
685.99	20.275
686.31	21.331
686.63	21.378
686.96	22.500
687.28	22.563
687.60	19.928
687.92	23.766
688.24	23.384
688.56	24.699
688.89	23.859
689.21	25.109
689.53	26.096
689.85	27.273
690.17	22.360
690.49	28.450
690.82	21.028
691.14	25.893
691.46	23.840
691.78	23.293
692.10	24.587
692.42	25.349
692.74	23.029
693.06	24.894
693.39	24.025
693.71	23.144
694.03	25.053
694.35	24.026
694.67	25.400
694.99	26.341
695.31	22.549
695.63	28.469
695.95	25.672
696.27	24.365
696.59	26.425
696.91	24.093
697.23	24.648
697.56	23.241
697.88	21.472
698.20	21.667
698.52	23.226
698.84	24.499
699.16	24.424
699.48	23.515
699.80	28.261
700.12	26.753
700.44	24.934
700.76	26.796
701.08	29.023
701.40	29.330
701.72	30.321
702.04	30.398
702.36	24.929
702.68	26.912
703.00	28.255
703.32	27.394
703.64	26.542
703.96	27.019
704.28	27.907
704.60	27.566
704.91	27.893
705.23	26.979
705.55	30.565
705.87	36.213
706.19	32.509
706.51	32.087
706.83	29.697
707.15	31.933
707.47	26.515
707.79	25.307
708.11	25.114
708.43	25.714
708.74	25.510
709.06	26.753
709.38	27.034
709.70	28.488
710.02	25.223
710.34	27.879
710.66	28.060
710.98	27.557
711.29	29.070
711.61	29.499
711.93	25.962
712.25	29.582
712.57	29.412
712.89	30.450
713.20	27.356
713.52	28.289
713.84	26.582
714.16	29.878
714.48	24.425
714.80	31.307
715.11	27.378
715.43	29.970
715.75	26.087
716.07	28.435
716.39	28.840
716.70	31.561
717.02	32.734
717.34	28.269
717.66	33.582
717.97	32.669
718.29	34.444
718.61	30.657
718.93	28.676
719.24	30.796
719.56	27.119
719.88	27.797
720.20	31.757
720.51	33.101
720.83	35.316
721.15	29.851
721.46	25.532
721.78	32.258
722.10	31.698
722.42	31.579
722.73	34.457
723.05	29.098
723.37	32.389
723.68	30.888
724.00	34.959
724.32	30.645
724.63	35.366
724.95	35.146
725.27	35.628
725.58	32.813
725.90	33.577
726.22	34.340
726.53	30.903
726.85	27.645
727.16	31.317
727.48	30.851
727.80	29.924
728.11	32.971
728.43	28.846
728.74	28.674
729.06	31.752
729.38	32.353
729.69	30.605
730.01	26.962
730.32	29.514
730.64	31.104
730.96	26.403
731.27	31.126
731.59	30.887
731.90	27.405
732.22	24.534
732.53	26.316
732.85	30.449
733.16	26.045
733.48	28.571
733.80	30.844
734.11	28.981
734.43	26.923
734.74	25.429
735.06	22.636
735.37	27.168
735.69	23.248
736.00	29.739
736.32	28.037
736.63	27.476
736.95	28.435
737.26	22.789
737.58	23.548
737.89	28.094
738.21	29.693
738.52	30.357
738.83	26.038
739.15	31.154
739.46	30.292
739.78	29.861
740.09	29.538
740.41	28.065
740.72	25.436
741.04	30.741
741.35	26.667
741.66	35.556
741.98	29.245
742.29	35.407
742.61	40.086
742.92	33.484
743.23	36.752
743.55	32.400
743.86	31.140
744.18	35.841
744.49	38.278
744.80	35.211
745.12	37.273
745.43	35.242
745.74	36.486
746.06	34.404
746.37	30.493
746.68	28.507
747.00	36.574
747.31	39.048
747.62	26.991
747.94	30.396
748.25	35.319
748.56	37.004
748.88	29.703
749.19	38.000
749.50	35.349
749.82	30.488
750.13	25.306
750.44	29.562
750.75	30.175
751.07	32.797
751.38	27.526
751.69	28.159
752.01	29.699
752.32	28.881
752.63	32.270
752.94	27.459
753.26	37.200
753.57	32.927
753.88	31.641
754.19	28.929
754.51	30.556
754.82	27.798
755.13	30.189
755.44	28.195
755.75	28.467
756.07	26.241
756.38	24.453
756.69	27.517
757.00	23.054
757.31	24.629
757.63	25.439
757.94	23.324
758.25	23.039
758.56	22.963
758.87	24.462
759.18	25.152
759.50	27.586
759.81	27.414
760.12	23.437
760.43	25.215
760.74	21.739
761.05	27.401
761.36	23.262
761.67	26.420
761.99	23.602
762.30	28.125
762.61	34.733
762.92	29.297
763.23	31.933
763.54	30.000
763.85	31.250
764.16	35.000
764.47	33.080
764.78	28.622
765.10	22.468
765.41	26.549
765.72	26.946
766.03	26.019
766.34	26.000
766.65	36.170
766.96	33.761
767.27	38.579
767.58	35.417
767.89	41.579
768.20	40.230
768.51	35.025
768.82	37.615
769.13	28.455
769.44	27.530
769.75	29.614
770.06	29.817
770.37	34.389
770.68	30.556
770.99	35.556
771.30	24.590
771.61	32.735
771.92	29.508
772.23	35.294
772.54	39.487
772.85	38.743
773.16	36.170
773.47	41.304
773.78	38.071
774.09	38.095
774.39	47.953
774.70	39.506
775.01	46.377
775.32	48.366
775.63	48.026
775.94	43.885
776.25	50.394
776.56	52.239
776.87	49.180
777.18	47.656
777.48	48.855
777.79	53.030
778.10	54.815
778.41	55.357
778.72	37.956
779.03	47.651
779.34	42.953
779.65	39.189
779.95	39.264
780.26	37.255
780.57	45.517
780.88	53.906
781.19	44.361
781.50	42.568
781.80	44.025
782.11	38.983
782.42	36.709
782.73	46.626
783.04	47.973
783.34	45.775
783.65	49.315
783.96	34.328
784.27	40.559
784.57	45.324
784.88	40.741
785.19	61.905
785.50	54.717
785.81	52.239
786.11	51.639
786.42	51.163
786.73	38.938
787.04	53.774
787.34	58.036
787.65	55.000
787.96	43.243
788.26	44.628
788.57	55.085
788.88	52.893
789.19	54.861
789.49	56.818
789.80	43.511
790.11	60.952
790.41	64.356
790.72	59.036
791.03	67.391
791.33	65.116
791.64	59.794
791.95	56.436
792.25	67.778
792.56	68.831
792.87	74.359
793.17	83.544
793.48	74.713
793.79	70.115
794.09	69.318
794.40	51.261
794.70	49.265
795.01	47.407
795.32	40.288
795.62	50.394
795.93	51.724
796.23	57.522
796.54	52.941
796.85	63.514
797.15	91.549
797.46	74.242
797.76	71.084
798.07	72.152
798.37	69.231
798.68	68.182
798.99	64.789
799.29	71.429
799.60	63.636
799.90	75.342
800.21	82.090
800.51	112.069
800.82	91.228
801.12	80.328
801.43	80.303
801.73	67.568
802.04	98.413
802.34	66.667
802.65	70.312
802.95	96.610
803.26	103.125
803.56	64.286
803.87	64.615
804.17	86.765
804.48	103.704
804.78	75.862
805.09	73.529
805.39	82.692
805.70	75.000
806.00	95.082
806.30	75.758
806.61	69.512
806.91	65.823
807.22	71.053
807.52	68.657
807.83	78.873
808.13	79.687
808.43	98.333
808.74	71.053
809.04	86.957
809.35	82.090
809.65	84.211
809.95	101.613
810.26	94.915
810.56	84.127
810.86	100.000
811.17	138.095
811.47	83.333
811.77	103.704
812.08	101.818
812.38	120.000
812.69	119.444
812.99	154.545
813.29	79.592
813.59	102.381
813.90	122.449
814.20	90.909
814.50	72.308
814.81	92.647
815.11	83.673
815.41	80.328
815.72	123.810
816.02	112.727
816.32	123.810
816.62	125.000
816.93	129.268
817.23	130.952
817.53	81.818
817.84	154.545
818.14	123.913
818.44	91.111
818.74	135.294
819.04	120.000
819.35	128.571
819.65	152.941
819.95	175.000
820.25	200.000
820.56	135.897
820.86	127.273
821.16	139.535
821.46	125.641
821.76	126.000
822.07	134.286
822.37	137.500
822.67	139.394
822.97	92.157
823.27	185.714
823.57	151.351
823.88	157.500
824.18	146.667
824.48	142.857
824.78	192.000
825.08	170.833
825.38	140.541
825.69	95.122
825.99	220.833
826.29	144.828
826.59	121.053
826.89	126.316
827.19	176.471
827.49	170.968
827.79	140.909
828.09	106.818
828.39	142.553
828.70	104.082
829.00	155.556
829.30	135.484
829.60	135.000
829.90	300.000
830.20	167.857
830.50	178.261
830.80	156.522
831.10	180.000
831.40	150.000
831.70	200.000
832.00	192.308
832.30	170.370
832.60	293.750
832.90	170.000
833.20	278.571
833.50	167.742
833.80	193.103
834.10	178.125
834.40	238.462
834.70	305.556
835.00	276.190
835.30	162.857
835.60	184.615
835.90	193.103
836.20	264.286
836.50	186.207
836.80	188.000
837.10	150.000
837.40	261.905
837.70	252.941
838.00	196.296
838.30	214.286
838.60	233.333
838.90	211.538
839.19	245.000
839.49	314.286
839.79	275.000
840.09	270.000
840.39	257.143
840.69	221.739
840.99	233.333
841.29	390.000
841.59	300.000
841.88	325.000
842.18	168.966
842.48	271.429
842.78	173.333
843.08	217.391
843.38	181.250
843.68	850.000
843.97	211.538
844.27	196.552
844.57	252.381
844.87	293.750
845.17	181.481
845.47	1266.667
845.76	444.444
846.06	258.824
846.36	400.000
846.66	307.143
846.96	300.000
847.25	327.273
847.55	372.727
847.85	252.174
848.15	460.000
848.44	385.714
848.74	261.111
849.04	270.588
849.34	500.000
849.63	210.526
849.93	409.091
850.23	900.000
850.53	442.857
850.82	2050.000
851.12	-4900.000
851.42	5300.000
851.71	240.000
852.01	-1166.667
852.31	204.167
852.61	1433.333
852.90	290.476
853.20	204.000
853.50	311.765
853.79	219.048
854.09	183.333
854.39	250.000
854.68	164.865
854.98	167.742
855.28	136.667
855.57	217.241
855.87	196.296
856.17	210.526
856.46	206.667
856.76	247.059
857.05	172.414
857.35	220.833
857.65	280.000
857.94	230.435
858.24	200.000
858.53	245.000
858.83	250.000
859.13	360.000
859.42	0.000
859.72	411.111
860.01	409.091
860.31	209.091
860.60	221.053
860.90	247.826
861.20	566.667
861.49	433.333
861.79	-3900.000
862.08	650.000
862.38	285.714
862.67	315.385
862.97	300.000
863.26	400.000
863.56	244.444
863.85	383.333
864.15	537.500
864.44	380.000
864.74	783.333
865.03	637.500
865.33	257.895
865.62	327.273
865.92	369.231
866.21	308.333
866.51	0.000
866.80	500.000
867.10	1080.000
867.39	453.846
867.69	354.545
867.98	263.158
868.27	390.909
868.57	278.947
868.86	-3700.000
869.16	300.000
869.45	1550.000
869.75	-3400.000
870.04	400.000
870.33	557.143
870.63	775.000
870.92	2000.000
871.22	628.571
871.51	264.706
871.80	147.619
872.10	292.857
>>>>>End Processed Spectral Data<<<<<
