SpectraSuite Data File
++++++++++++++++++++++++++++++++++++
Date: Wed May 13 21:37:02 PDT 2015
User: schluterlab
Dark Spectrum Present: Yes
Reference Spectrum Present: Yes
Number of Sampled Component Spectra: 1
Spectrometers: USB2E3373
Integration Time (usec): 3000 (USB2E3373)
Spectra Averaged: 3 (USB2E3373)
Boxcar Smoothing: 0 (USB2E3373)
Correct for Electrical Dark: No (USB2E3373)
Strobe/Lamp Enabled: No (USB2E3373)
Correct for Detector Non-linearity: No (USB2E3373)
Correct for Stray Light: No (USB2E3373)
Number of Pixels in Processed Spectrum: 2048
>>>>>Begin Processed Spectral Data<<<<<
178.53	0.000
178.91	600.000
179.29	208.333
179.67	-800.000
180.04	-300.000
180.42	200.000
180.80	1500.000
181.18	333.333
181.56	-625.000
181.94	-450.000
182.31	0.000
182.69	100.000
183.07	-280.000
183.45	383.333
183.83	133.333
184.20	242.857
184.58	-133.333
184.96	566.667
185.34	157.143
185.72	0.000
186.09	-800.000
186.47	-300.000
186.85	360.000
187.23	-550.000
187.61	700.000
187.98	1700.000
188.36	-62.500
188.74	0.000
189.12	-72.727
189.49	0.000
189.87	175.000
190.25	320.000
190.63	1300.000
191.00	0.000
191.38	420.000
191.76	275.000
192.14	158.333
192.51	-68.421
192.89	666.667
193.27	425.000
193.65	-400.000
194.02	200.000
194.40	260.000
194.78	-1400.000
195.15	240.000
195.53	-160.000
195.91	-50.000
196.29	-433.333
196.66	0.000
197.04	650.000
197.42	-160.000
197.79	-60.000
198.17	-175.000
198.55	-466.667
198.92	200.000
199.30	-500.000
199.68	-60.000
200.05	600.000
200.43	283.333
200.81	-1100.000
201.18	-300.000
201.56	-116.667
201.94	675.000
202.31	-13.043
202.69	-142.857
203.07	-366.667
203.44	-180.000
203.82	-266.667
204.19	-100.000
204.57	0.000
204.95	-233.333
205.32	0.000
205.70	-500.000
206.08	-150.000
206.45	-216.667
206.83	500.000
207.20	-633.333
207.58	-130.000
207.96	-1100.000
208.33	-200.000
208.71	-2600.000
209.08	262.500
209.46	375.000
209.84	0.000
210.21	130.000
210.59	1800.000
210.96	440.000
211.34	1400.000
211.71	-950.000
212.09	-150.000
212.46	-70.000
212.84	0.000
213.22	-100.000
213.59	-1300.000
213.97	-100.000
214.34	-650.000
214.72	-23.077
215.09	325.000
215.47	211.111
215.84	800.000
216.22	-87.500
216.59	-550.000
216.97	666.667
217.34	177.778
217.72	0.000
218.09	566.667
218.47	0.000
218.84	-85.714
219.22	-162.500
219.59	-333.333
219.97	-300.000
220.34	-162.500
220.72	-120.000
221.09	0.000
221.47	-83.333
221.84	-1400.000
222.22	0.000
222.59	1100.000
222.97	-266.667
223.34	-83.333
223.72	-1400.000
224.09	-750.000
224.46	-45.455
224.84	-112.500
225.21	-242.857
225.59	-200.000
225.96	-233.333
226.34	-70.000
226.71	-214.286
227.08	700.000
227.46	-87.500
227.83	-1900.000
228.21	0.000
228.58	-350.000
228.95	-88.235
229.33	0.000
229.70	-87.500
230.08	-23.077
230.45	-137.500
230.82	-41.667
231.20	271.429
231.57	-400.000
231.95	1000.000
232.32	-16.667
232.69	-35.294
233.07	-900.000
233.44	-30.435
233.81	-300.000
234.19	0.000
234.56	-26.667
234.93	-60.000
235.31	-5.263
235.68	-123.077
236.05	30.769
236.43	-55.556
236.80	3.030
237.17	-60.000
237.55	-76.471
237.92	-51.724
238.29	7.407
238.67	11.111
239.04	-19.355
239.41	2.128
239.79	23.404
240.16	11.628
240.53	19.643
240.91	17.857
241.28	23.214
241.65	9.677
242.02	11.842
242.40	31.884
242.77	26.087
243.14	12.821
243.51	25.532
243.89	18.269
244.26	32.075
244.63	15.385
245.00	26.042
245.38	26.050
245.75	22.131
246.12	25.564
246.49	21.951
246.87	22.689
247.24	26.351
247.61	28.477
247.98	31.410
248.36	24.852
248.73	24.157
249.10	25.253
249.47	32.796
249.84	25.263
250.22	26.368
250.59	27.570
250.96	32.727
251.33	23.923
251.70	32.636
252.08	29.289
252.45	27.984
252.82	31.179
253.19	32.685
253.56	29.137
253.94	34.520
254.31	30.282
254.68	32.215
255.05	31.353
255.42	30.070
255.79	32.822
256.16	30.915
256.54	32.698
256.91	30.063
257.28	28.616
257.65	31.529
258.02	30.205
258.39	35.673
258.76	31.105
259.14	32.386
259.51	30.056
259.88	32.520
260.25	33.056
260.62	31.461
260.99	34.483
261.36	30.311
261.73	31.852
262.10	30.280
262.47	30.864
262.85	30.597
263.22	34.872
263.59	30.909
263.96	33.333
264.33	31.971
264.70	29.302
265.07	33.565
265.44	31.494
265.81	33.638
266.18	32.802
266.55	31.441
266.92	32.627
267.29	31.070
267.66	34.820
268.03	31.687
268.40	31.780
268.77	32.851
269.14	34.082
269.51	34.292
269.88	31.976
270.25	35.169
270.62	29.098
270.99	30.512
271.36	31.746
271.73	32.530
272.10	30.857
272.47	31.670
272.84	32.677
273.21	30.137
273.58	34.631
273.95	30.755
274.32	33.022
274.69	30.965
275.06	32.862
275.43	31.638
275.80	31.383
276.17	30.939
276.54	30.728
276.91	30.662
277.28	31.047
277.65	33.042
278.02	31.786
278.39	30.551
278.76	29.431
279.13	30.703
279.50	33.621
279.87	29.710
280.23	33.694
280.60	29.758
280.97	29.545
281.34	30.915
281.71	30.569
282.08	29.744
282.45	31.311
282.82	30.990
283.19	31.402
283.56	30.938
283.92	30.581
284.29	28.549
284.66	29.489
285.03	28.664
285.40	29.909
285.77	32.883
286.14	29.787
286.51	30.585
286.87	29.385
287.24	31.268
287.61	31.024
287.98	28.676
288.35	30.253
288.72	30.416
289.08	30.057
289.45	29.809
289.82	30.106
290.19	30.154
290.56	29.830
290.93	28.315
291.29	28.044
291.66	28.279
292.03	27.520
292.40	27.322
292.77	27.443
293.13	29.010
293.50	26.405
293.87	28.267
294.24	27.249
294.60	27.178
294.97	27.381
295.34	26.385
295.71	24.836
296.08	25.000
296.44	24.490
296.81	25.213
297.18	25.500
297.55	25.236
297.91	26.087
298.28	25.908
298.65	25.246
299.02	26.618
299.38	25.153
299.75	26.082
300.12	23.256
300.48	24.678
300.85	23.441
301.22	25.436
301.59	23.474
301.95	23.461
302.32	22.754
302.69	23.051
303.05	23.145
303.42	23.409
303.79	23.870
304.15	24.973
304.52	23.763
304.89	23.145
305.25	21.734
305.62	23.210
305.99	24.592
306.35	23.720
306.72	24.415
307.09	23.566
307.45	23.855
307.82	22.316
308.19	21.317
308.55	22.927
308.92	24.067
309.29	23.223
309.65	22.677
310.02	23.559
310.38	23.476
310.75	22.880
311.12	23.810
311.48	23.046
311.85	24.311
312.22	24.371
312.58	22.512
312.95	25.075
313.31	23.416
313.68	23.092
314.05	24.102
314.41	25.168
314.78	24.478
315.14	25.093
315.51	24.548
315.87	25.394
316.24	24.977
316.61	25.388
316.97	24.815
317.34	24.777
317.70	27.297
318.07	26.974
318.43	27.642
318.80	25.829
319.16	27.321
319.53	28.047
319.89	28.094
320.26	28.558
320.62	29.379
320.99	27.907
321.35	29.747
321.72	29.933
322.08	30.166
322.45	33.025
322.81	33.179
323.18	32.200
323.54	34.296
323.91	35.411
324.27	34.293
324.64	35.627
325.00	35.521
325.37	37.628
325.73	36.785
326.10	37.847
326.46	39.799
326.83	38.350
327.19	40.325
327.56	40.532
327.92	41.432
328.29	42.821
328.65	44.522
329.01	43.448
329.38	44.435
329.74	43.519
330.11	45.356
330.47	44.878
330.84	46.751
331.20	45.175
331.56	47.283
331.93	47.373
332.29	49.088
332.66	47.627
333.02	49.348
333.38	48.860
333.75	48.635
334.11	47.569
334.48	49.433
334.84	48.852
335.20	50.429
335.57	49.260
335.93	48.797
336.29	49.912
336.66	50.427
337.02	50.870
337.38	50.131
337.75	50.388
338.11	48.506
338.47	49.486
338.84	49.399
339.20	50.705
339.56	49.403
339.93	50.475
340.29	51.836
340.65	49.615
341.02	50.832
341.38	50.929
341.74	52.017
342.11	51.115
342.47	52.469
342.83	50.327
343.20	52.792
343.56	51.267
343.92	49.716
344.28	51.218
344.65	51.837
345.01	51.816
345.37	51.891
345.73	52.369
346.10	51.926
346.46	52.358
346.82	52.408
347.19	53.560
347.55	51.777
347.91	51.442
348.27	51.735
348.63	51.362
349.00	51.572
349.36	51.491
349.72	52.514
350.08	51.560
350.45	51.214
350.81	52.426
351.17	51.270
351.53	52.789
351.89	49.960
352.26	52.124
352.62	53.566
352.98	51.997
353.34	53.301
353.70	52.181
354.07	51.373
354.43	50.855
354.79	52.404
355.15	51.009
355.51	51.557
355.87	52.306
356.24	51.685
356.60	50.430
356.96	51.804
357.32	51.858
357.68	53.705
358.04	51.901
358.40	52.326
358.77	52.599
359.13	53.152
359.49	51.400
359.85	52.388
360.21	52.120
360.57	52.548
360.93	53.869
361.29	52.480
361.66	52.923
362.02	52.483
362.38	52.806
362.74	52.067
363.10	52.711
363.46	51.801
363.82	54.176
364.18	52.719
364.54	52.881
364.90	53.101
365.26	52.088
365.62	51.918
365.98	52.527
366.35	51.702
366.71	53.495
367.07	52.303
367.43	52.892
367.79	52.536
368.15	53.235
368.51	51.758
368.87	53.733
369.23	52.100
369.59	53.418
369.95	53.120
370.31	52.301
370.67	52.281
371.03	54.640
371.39	53.371
371.75	52.429
372.11	53.846
372.47	54.650
372.83	53.259
373.19	52.734
373.55	52.457
373.91	51.768
374.27	52.351
374.63	53.058
374.99	53.134
375.35	53.288
375.71	53.940
376.07	53.598
376.42	53.676
376.78	54.293
377.14	54.373
377.50	53.651
377.86	53.918
378.22	54.235
378.58	53.846
378.94	55.375
379.30	53.342
379.66	53.576
380.02	53.615
380.38	52.410
380.74	53.736
381.09	54.162
381.45	53.930
381.81	54.097
382.17	53.686
382.53	52.923
382.89	52.714
383.25	54.383
383.61	53.208
383.97	54.500
384.32	53.119
384.68	53.917
385.04	53.879
385.40	53.362
385.76	52.920
386.12	54.487
386.48	53.354
386.83	54.568
387.19	54.164
387.55	54.077
387.91	54.428
388.27	53.946
388.62	52.996
388.98	54.255
389.34	53.822
389.70	52.381
390.06	53.375
390.42	55.284
390.77	53.748
391.13	53.914
391.49	52.372
391.85	52.843
392.20	53.634
392.56	53.841
392.92	53.130
393.28	53.748
393.64	52.905
393.99	51.040
394.35	53.519
394.71	53.718
395.07	52.264
395.42	52.102
395.78	52.445
396.14	53.456
396.50	53.012
396.85	53.856
397.21	51.998
397.57	53.106
397.92	51.617
398.28	51.382
398.64	51.609
399.00	51.562
399.35	52.327
399.71	51.951
400.07	52.229
400.42	51.850
400.78	50.755
401.14	52.667
401.49	52.487
401.85	52.457
402.21	51.517
402.57	52.974
402.92	51.877
403.28	51.595
403.63	51.333
403.99	51.951
404.35	51.434
404.70	50.272
405.06	50.910
405.42	51.822
405.77	50.115
406.13	50.286
406.49	51.049
406.84	50.611
407.20	49.793
407.55	51.299
407.91	49.835
408.27	48.846
408.62	50.522
408.98	50.555
409.34	50.804
409.69	51.072
410.05	49.938
410.40	49.239
410.76	50.842
411.11	50.808
411.47	50.365
411.83	50.842
412.18	50.063
412.54	49.373
412.89	50.658
413.25	47.552
413.60	49.969
413.96	49.313
414.31	49.815
414.67	49.397
415.03	49.188
415.38	49.406
415.74	48.863
416.09	50.033
416.45	50.513
416.80	49.530
417.16	51.080
417.51	49.766
417.87	50.265
418.22	48.869
418.58	49.409
418.93	50.345
419.29	50.759
419.64	49.555
420.00	50.794
420.35	48.834
420.71	49.299
421.06	49.815
421.42	50.000
421.77	49.422
422.12	51.003
422.48	48.855
422.83	49.380
423.19	50.316
423.54	49.647
423.90	50.059
424.25	50.260
424.61	49.538
424.96	50.503
425.31	48.626
425.67	50.558
426.02	50.942
426.38	50.435
426.73	49.664
427.09	49.218
427.44	49.736
427.79	49.347
428.15	49.541
428.50	49.003
428.85	50.246
429.21	48.846
429.56	51.010
429.92	49.089
430.27	50.000
430.62	49.948
430.98	50.185
431.33	50.188
431.68	48.882
432.04	50.028
432.39	48.845
432.74	48.804
433.10	50.552
433.45	48.757
433.80	50.402
434.16	49.372
434.51	50.217
434.86	50.059
435.22	49.915
435.57	48.833
435.92	51.809
436.28	48.829
436.63	50.231
436.98	49.530
437.34	50.061
437.69	49.764
438.04	49.802
438.39	50.498
438.75	49.762
439.10	50.839
439.45	50.969
439.81	51.786
440.16	50.203
440.51	50.178
440.86	50.682
441.22	50.832
441.57	49.729
441.92	50.855
442.27	49.946
442.63	49.946
442.98	50.868
443.33	50.621
443.68	49.710
444.03	50.323
444.39	50.372
444.74	51.518
445.09	49.670
445.44	51.944
445.79	51.162
446.15	51.192
446.50	50.881
446.85	51.790
447.20	51.281
447.55	51.315
447.91	49.888
448.26	51.458
448.61	50.173
448.96	51.025
449.31	51.171
449.66	51.359
450.02	51.279
450.37	52.115
450.72	49.369
451.07	51.223
451.42	49.969
451.77	52.039
452.12	50.624
452.47	51.646
452.83	50.708
453.18	50.859
453.53	50.441
453.88	50.964
454.23	51.669
454.58	49.449
454.93	49.519
455.28	50.739
455.63	49.407
455.98	51.552
456.34	50.223
456.69	51.693
457.04	49.907
457.39	51.413
457.74	50.868
458.09	50.178
458.44	50.705
458.79	49.368
459.14	50.112
459.49	50.610
459.84	49.887
460.19	49.400
460.54	50.730
460.89	51.745
461.24	51.171
461.59	50.906
461.94	50.759
462.29	49.694
462.64	49.670
462.99	50.235
463.34	50.345
463.69	51.095
464.04	49.760
464.39	50.336
464.74	49.324
465.09	49.597
465.44	50.112
465.79	49.971
466.14	49.829
466.49	50.440
466.84	49.552
467.19	50.764
467.54	50.162
467.89	50.471
468.24	49.723
468.59	49.076
468.94	49.617
469.29	49.438
469.64	50.070
469.99	51.103
470.34	50.978
470.68	50.037
471.03	50.000
471.38	48.261
471.73	48.628
472.08	48.797
472.43	49.340
472.78	49.358
473.13	48.483
473.48	48.598
473.83	49.027
474.17	49.219
474.52	49.450
474.87	47.708
475.22	48.007
475.57	48.076
475.92	49.237
476.27	49.184
476.61	47.905
476.96	49.629
477.31	49.245
477.66	49.209
478.01	48.571
478.36	48.937
478.70	48.496
479.05	48.391
479.40	47.530
479.75	49.044
480.10	48.343
480.45	47.523
480.79	49.378
481.14	49.037
481.49	48.890
481.84	47.031
482.19	47.429
482.53	47.952
482.88	48.562
483.23	47.594
483.58	48.440
483.92	47.860
484.27	47.210
484.62	45.672
484.97	48.528
485.31	47.164
485.66	45.137
486.01	46.109
486.36	47.252
486.70	47.925
487.05	47.795
487.40	47.819
487.75	48.521
488.09	47.263
488.44	47.844
488.79	47.123
489.13	46.600
489.48	46.943
489.83	45.913
490.17	47.072
490.52	47.920
490.87	45.897
491.22	46.962
491.56	47.724
491.91	46.567
492.26	46.712
492.60	46.801
492.95	47.230
493.30	46.269
493.64	45.995
493.99	46.232
494.34	47.013
494.68	46.730
495.03	46.739
495.37	45.985
495.72	46.516
496.07	47.638
496.41	45.531
496.76	47.349
497.11	46.526
497.45	46.012
497.80	46.643
498.14	47.154
498.49	46.848
498.84	46.609
499.18	45.943
499.53	44.953
499.87	46.094
500.22	45.197
500.56	46.540
500.91	46.730
501.26	46.404
501.60	45.294
501.95	46.430
502.29	46.165
502.64	45.998
502.98	45.231
503.33	45.109
503.67	46.300
504.02	45.882
504.36	45.121
504.71	45.071
505.06	46.001
505.40	45.876
505.75	46.490
506.09	45.376
506.44	44.607
506.78	44.845
507.13	45.530
507.47	45.811
507.82	45.578
508.16	44.855
508.51	44.112
508.85	44.479
509.19	44.656
509.54	45.684
509.88	45.860
510.23	44.316
510.57	44.544
510.92	44.828
511.26	45.490
511.61	44.018
511.95	44.046
512.30	44.586
512.64	45.346
512.98	43.601
513.33	44.507
513.67	43.328
514.02	44.584
514.36	43.820
514.70	43.245
515.05	45.056
515.39	44.517
515.74	45.115
516.08	43.953
516.42	43.491
516.77	44.464
517.11	44.503
517.46	44.238
517.80	45.278
518.14	44.336
518.49	43.761
518.83	44.033
519.17	43.012
519.52	44.511
519.86	44.384
520.20	42.693
520.55	42.786
520.89	44.339
521.23	43.846
521.58	44.058
521.92	42.615
522.26	43.331
522.61	44.473
522.95	43.653
523.29	42.603
523.64	42.721
523.98	43.329
524.32	42.155
524.66	41.883
525.01	44.168
525.35	44.305
525.69	43.605
526.04	41.433
526.38	42.129
526.72	42.472
527.06	41.715
527.41	41.496
527.75	41.255
528.09	42.342
528.43	44.369
528.78	42.313
529.12	43.014
529.46	42.354
529.80	42.136
530.15	40.798
530.49	42.722
530.83	42.316
531.17	41.781
531.51	40.121
531.86	42.615
532.20	42.040
532.54	41.586
532.88	42.274
533.22	41.886
533.57	41.722
533.91	41.355
534.25	42.578
534.59	41.313
534.93	42.411
535.27	41.146
535.62	41.842
535.96	41.900
536.30	41.888
536.64	41.627
536.98	40.364
537.32	42.420
537.66	41.255
538.01	40.153
538.35	40.401
538.69	40.602
539.03	39.664
539.37	39.168
539.71	42.156
540.05	39.879
540.39	39.023
540.73	40.433
541.07	40.884
541.42	40.539
541.76	42.084
542.10	40.420
542.44	41.164
542.78	39.903
543.12	40.296
543.46	39.461
543.80	40.530
544.14	41.638
544.48	40.080
544.82	40.686
545.16	39.892
545.50	40.243
545.84	39.902
546.18	39.481
546.52	39.873
546.86	39.081
547.20	40.315
547.54	39.242
547.88	39.609
548.22	39.023
548.56	39.893
548.90	38.836
549.24	40.625
549.58	40.285
549.92	40.646
550.26	41.328
550.60	40.541
550.94	39.328
551.28	39.061
551.62	38.947
551.96	38.214
552.30	38.064
552.64	39.760
552.98	38.849
553.32	39.366
553.66	39.618
554.00	39.309
554.34	38.242
554.68	37.658
555.02	39.296
555.36	38.805
555.69	39.039
556.03	37.813
556.37	38.976
556.71	37.351
557.05	38.524
557.39	37.302
557.73	39.637
558.07	38.885
558.41	38.607
558.75	38.491
559.08	38.813
559.42	38.788
559.76	38.226
560.10	38.663
560.44	37.583
560.78	38.273
561.12	38.402
561.45	37.211
561.79	37.827
562.13	38.608
562.47	38.214
562.81	38.095
563.15	38.173
563.48	36.889
563.82	36.799
564.16	37.644
564.50	37.246
564.84	37.297
565.17	37.550
565.51	38.503
565.85	36.909
566.19	38.675
566.52	37.877
566.86	37.421
567.20	37.691
567.54	37.075
567.88	36.954
568.21	36.936
568.55	37.194
568.89	36.142
569.23	38.359
569.56	36.754
569.90	37.040
570.24	35.884
570.57	36.847
570.91	36.451
571.25	36.433
571.59	35.959
571.92	36.316
572.26	37.244
572.60	36.649
572.93	36.832
573.27	35.712
573.61	36.366
573.95	36.251
574.28	36.298
574.62	36.435
574.96	36.737
575.29	36.083
575.63	37.118
575.97	36.522
576.30	36.509
576.64	36.337
576.98	36.125
577.31	36.211
577.65	36.028
577.98	36.292
578.32	35.554
578.66	36.495
578.99	36.831
579.33	36.032
579.67	36.049
580.00	35.528
580.34	35.749
580.67	35.644
581.01	35.331
581.35	35.650
581.68	35.340
582.02	36.126
582.35	36.641
582.69	36.309
583.02	35.583
583.36	36.302
583.70	36.644
584.03	35.778
584.37	35.710
584.70	35.206
585.04	35.760
585.37	35.966
585.71	35.721
586.04	35.789
586.38	34.622
586.72	34.954
587.05	35.815
587.39	36.248
587.72	34.920
588.06	35.294
588.39	35.432
588.73	35.680
589.06	35.629
589.40	35.157
589.73	35.178
590.07	34.962
590.40	35.630
590.73	36.588
591.07	34.977
591.40	34.522
591.74	35.216
592.07	35.235
592.41	34.921
592.74	35.648
593.08	34.906
593.41	35.164
593.75	34.851
594.08	34.957
594.41	35.174
594.75	35.232
595.08	35.736
595.42	34.968
595.75	34.599
596.09	35.566
596.42	35.172
596.75	34.708
597.09	35.714
597.42	35.397
597.75	35.067
598.09	35.155
598.42	35.213
598.76	35.013
599.09	35.534
599.42	34.668
599.76	35.674
600.09	34.864
600.42	34.011
600.76	34.701
601.09	34.915
601.42	34.810
601.76	34.517
602.09	35.306
602.42	35.411
602.76	34.144
603.09	35.236
603.42	34.466
603.76	34.373
604.09	33.992
604.42	33.905
604.76	33.784
605.09	33.937
605.42	35.088
605.75	34.047
606.09	34.106
606.42	34.705
606.75	34.719
607.09	34.929
607.42	34.282
607.75	33.873
608.08	34.400
608.42	34.302
608.75	34.353
609.08	34.052
609.41	35.022
609.75	33.737
610.08	34.418
610.41	35.277
610.74	34.408
611.07	33.467
611.41	34.698
611.74	33.799
612.07	33.976
612.40	33.730
612.73	33.644
613.07	34.035
613.40	34.306
613.73	33.532
614.06	33.665
614.39	33.630
614.72	33.592
615.06	33.444
615.39	33.168
615.72	32.613
616.05	32.376
616.38	33.562
616.71	32.873
617.05	33.292
617.38	33.333
617.71	33.272
618.04	33.333
618.37	34.132
618.70	33.376
619.03	33.471
619.36	34.093
619.69	33.260
620.03	33.286
620.36	32.846
620.69	33.191
621.02	32.462
621.35	33.115
621.68	31.540
622.01	31.958
622.34	33.069
622.67	32.420
623.00	33.739
623.33	32.835
623.66	32.416
623.99	33.083
624.32	32.502
624.65	32.938
624.99	31.888
625.32	33.234
625.65	31.783
625.98	32.938
626.31	33.224
626.64	32.244
626.97	33.304
627.30	33.020
627.63	32.785
627.96	31.602
628.29	32.837
628.62	34.236
628.95	31.964
629.28	32.906
629.61	32.344
629.94	32.689
630.26	33.103
630.59	33.467
630.92	31.827
631.25	31.205
631.58	32.762
631.91	30.435
632.24	32.162
632.57	31.778
632.90	33.372
633.23	31.055
633.56	32.134
633.89	33.014
634.22	34.040
634.55	31.425
634.88	30.392
635.20	31.500
635.53	29.974
635.86	31.667
636.19	32.878
636.52	30.976
636.85	31.242
637.18	31.425
637.51	30.712
637.83	32.898
638.16	30.000
638.49	32.043
638.82	31.765
639.15	32.580
639.48	30.882
639.81	32.361
640.13	32.535
640.46	31.638
640.79	30.216
641.12	31.953
641.45	30.568
641.77	32.842
642.10	31.619
642.43	29.560
642.76	28.707
643.09	30.831
643.41	32.057
643.74	29.402
644.07	27.184
644.40	30.514
644.73	30.339
645.05	29.494
645.38	30.233
645.71	30.782
646.04	28.114
646.36	31.076
646.69	29.895
647.02	30.237
647.35	30.165
647.67	28.466
648.00	29.348
648.33	28.983
648.66	30.551
648.98	30.435
649.31	29.448
649.64	30.360
649.96	29.858
650.29	28.105
650.62	27.677
650.94	28.793
651.27	30.565
651.60	30.245
651.92	32.616
652.25	29.313
652.58	31.023
652.90	30.471
653.23	27.504
653.56	28.760
653.88	27.986
654.21	30.205
654.54	26.578
654.86	29.431
655.19	29.832
655.52	30.948
655.84	31.811
656.17	38.147
656.49	50.396
656.82	49.830
657.15	37.456
657.47	27.871
657.80	20.662
658.13	21.694
658.45	32.072
658.78	31.133
659.10	30.459
659.43	30.221
659.75	30.122
660.08	29.655
660.41	27.383
660.73	26.584
661.06	28.741
661.38	27.326
661.71	28.074
662.03	28.964
662.36	28.982
662.68	27.097
663.01	29.449
663.33	27.430
663.66	27.494
663.98	29.438
664.31	27.473
664.63	25.000
664.96	29.540
665.28	31.116
665.61	26.134
665.93	28.051
666.26	32.068
666.58	23.983
666.91	30.269
667.23	27.419
667.56	27.356
667.88	26.636
668.21	30.134
668.53	28.966
668.86	28.537
669.18	28.132
669.50	29.493
669.83	30.788
670.15	27.619
670.48	27.356
670.80	28.228
671.13	26.316
671.45	30.594
671.77	26.724
672.10	25.341
672.42	30.916
672.75	30.179
673.07	25.091
673.39	28.172
673.72	28.144
674.04	28.689
674.37	27.439
674.69	25.103
675.01	28.205
675.34	25.602
675.66	27.887
675.98	24.558
676.31	28.281
676.63	30.159
676.95	27.059
677.28	23.394
677.60	29.902
677.92	28.381
678.25	27.766
678.57	29.939
678.89	26.439
679.22	27.950
679.54	27.755
679.86	27.539
680.18	28.269
680.51	26.731
680.83	27.485
681.15	27.505
681.48	26.052
681.80	26.176
682.12	25.417
682.44	25.553
682.77	23.789
683.09	25.446
683.41	27.442
683.73	23.437
684.06	28.097
684.38	25.641
684.70	26.680
685.02	28.719
685.34	29.746
685.67	25.704
685.99	25.801
686.31	26.552
686.63	28.493
686.96	28.942
687.28	27.545
687.60	30.246
687.92	28.599
688.24	25.400
688.56	27.412
688.89	24.499
689.21	28.924
689.53	25.450
689.85	25.618
690.17	26.593
690.49	27.536
690.82	25.537
691.14	23.188
691.46	24.826
691.78	28.352
692.10	25.053
692.42	27.473
692.74	28.696
693.06	22.022
693.39	24.122
693.71	26.222
694.03	30.000
694.35	27.477
694.67	27.750
694.99	26.289
695.31	28.165
695.63	27.317
695.95	24.936
696.27	24.384
696.59	28.495
696.91	24.022
697.23	24.873
697.56	27.338
697.88	29.106
698.20	26.134
698.52	25.935
698.84	25.837
699.16	28.369
699.48	26.914
699.80	29.457
700.12	25.201
700.44	24.789
700.76	26.966
701.08	29.909
701.40	24.251
701.72	25.846
702.04	20.755
702.36	23.171
702.68	23.171
703.00	26.316
703.32	24.513
703.64	24.699
703.96	24.633
704.28	26.506
704.60	25.610
704.91	24.451
705.23	28.165
705.55	23.103
705.87	27.465
706.19	26.374
706.51	20.070
706.83	25.159
707.15	28.354
707.47	27.824
707.79	24.873
708.11	26.478
708.43	24.365
708.74	25.532
709.06	22.995
709.38	24.496
709.70	23.423
710.02	27.414
710.34	19.667
710.66	22.801
710.98	22.291
711.29	24.675
711.61	25.161
711.93	24.516
712.25	21.678
712.57	22.105
712.89	21.245
713.20	29.078
713.52	23.723
713.84	23.871
714.16	23.948
714.48	23.734
714.80	23.323
715.11	25.000
715.43	24.224
715.75	28.261
716.07	23.795
716.39	24.242
716.70	25.180
717.02	20.392
717.34	21.591
717.66	21.121
717.97	19.444
718.29	25.984
718.61	21.030
718.93	17.829
719.24	23.985
719.56	23.596
719.88	22.015
720.20	22.134
720.51	24.219
720.83	24.903
721.15	18.699
721.46	25.191
721.78	23.506
722.10	23.108
722.42	17.339
722.73	23.938
723.05	30.204
723.37	28.992
723.68	20.000
724.00	20.000
724.32	19.247
724.63	24.280
724.95	21.368
725.27	27.004
725.58	22.634
725.90	22.176
726.22	20.290
726.53	18.039
726.85	22.628
727.16	23.333
727.48	21.839
727.80	23.828
728.11	22.131
728.43	26.953
728.74	21.825
729.06	21.600
729.38	24.506
729.69	25.623
730.01	17.472
730.32	28.044
730.64	20.455
730.96	29.021
731.27	20.736
731.59	24.444
731.90	22.330
732.22	25.000
732.53	23.649
732.85	19.799
733.16	21.452
733.48	21.284
733.80	23.649
734.11	28.716
734.43	21.362
734.74	26.126
735.06	22.478
735.37	23.100
735.69	23.301
736.00	25.083
736.32	20.567
736.63	24.828
736.95	26.370
737.26	22.414
737.58	23.611
737.89	19.244
738.21	23.132
738.52	21.293
738.83	21.633
739.15	21.097
739.46	19.455
739.78	20.070
740.09	21.575
740.41	20.000
740.72	24.823
741.04	17.600
741.35	19.298
741.66	22.222
741.98	16.346
742.29	25.743
742.61	22.927
742.92	25.439
743.23	17.453
743.55	24.324
743.86	18.386
744.18	21.569
744.49	22.335
744.80	19.898
745.12	16.822
745.43	21.327
745.74	19.369
746.06	19.626
746.37	19.266
746.68	17.308
747.00	22.488
747.31	15.385
747.62	18.807
747.94	27.511
748.25	22.936
748.56	23.111
748.88	20.188
749.19	20.476
749.50	21.845
749.82	19.249
750.13	15.417
750.44	21.154
750.75	20.295
751.07	24.911
751.38	23.759
751.69	16.988
752.01	21.875
752.32	21.923
752.63	22.761
752.94	22.000
753.26	20.084
753.57	15.833
753.88	23.887
754.19	19.920
754.51	24.436
754.82	17.949
755.13	18.261
755.44	21.138
755.75	22.400
756.07	21.033
756.38	18.345
756.69	21.843
757.00	23.053
757.31	21.036
757.63	17.901
757.94	23.164
758.25	22.487
758.56	25.815
758.87	20.238
759.18	24.606
759.50	21.549
759.81	22.074
760.12	23.077
760.43	18.452
760.74	21.186
761.05	23.204
761.36	20.057
761.67	24.169
761.99	18.213
762.30	24.818
762.61	17.695
762.92	20.940
763.23	20.082
763.54	24.242
763.85	20.816
764.16	17.073
764.47	18.400
764.78	18.571
765.10	25.246
765.41	25.532
765.72	25.776
766.03	25.083
766.34	23.462
766.65	17.992
766.96	18.779
767.27	20.792
767.58	10.112
767.89	24.074
768.20	17.127
768.51	17.085
768.82	24.519
769.13	23.451
769.44	17.992
769.75	14.530
770.06	17.489
770.37	14.216
770.68	21.845
770.99	18.932
771.30	21.429
771.61	22.449
771.92	20.332
772.23	18.919
772.54	14.365
772.85	15.698
773.16	19.048
773.47	20.710
773.78	19.540
774.09	18.125
774.39	18.634
774.70	14.286
775.01	14.483
775.32	22.857
775.63	9.774
775.94	12.782
776.25	11.200
776.56	14.050
776.87	15.079
777.18	19.820
777.48	21.622
777.79	12.598
778.10	18.349
778.41	7.895
778.72	14.286
779.03	4.225
779.34	22.973
779.65	14.085
779.95	14.570
780.26	15.827
780.57	27.338
780.88	9.859
781.19	7.563
781.50	20.805
781.80	15.205
782.11	15.116
782.42	20.126
782.73	21.569
783.04	13.103
783.34	12.977
783.65	10.067
783.96	9.231
784.27	15.000
784.57	21.277
784.88	-5.769
785.19	24.545
785.50	16.364
785.81	7.619
786.11	16.807
786.42	19.469
786.73	12.264
787.04	11.927
787.34	11.881
787.65	24.167
787.96	17.355
788.26	14.493
788.57	18.254
788.88	21.138
789.19	13.600
789.49	6.870
789.80	17.424
790.11	5.660
790.41	13.861
790.72	8.511
791.03	8.696
791.33	7.059
791.64	17.284
791.95	15.217
792.25	11.364
792.56	10.256
792.87	-6.410
793.17	-10.256
793.48	7.143
793.79	8.750
794.09	22.115
794.40	19.792
794.70	10.811
795.01	14.063
795.32	6.957
795.62	3.261
795.93	13.208
796.23	12.121
796.54	-7.317
796.85	9.524
797.15	7.576
797.46	8.696
797.76	11.842
798.07	20.455
798.37	9.756
798.68	3.226
798.99	0.000
799.29	8.434
799.60	12.821
799.90	20.000
800.21	6.061
800.51	-5.333
800.82	24.000
801.12	-22.917
801.43	-10.000
801.73	2.703
802.04	0.000
802.34	0.000
802.65	-1.493
802.95	3.636
803.26	-12.069
803.56	12.308
803.87	15.094
804.17	-3.226
804.48	8.824
804.78	-2.439
805.09	11.594
805.39	2.941
805.70	-21.277
806.00	-1.754
806.30	8.974
806.61	14.474
806.91	16.216
807.22	9.211
807.52	18.182
807.83	-11.864
808.13	-15.152
808.43	-6.667
808.74	-20.690
809.04	-3.175
809.35	-10.204
809.65	13.333
809.95	-16.327
810.26	11.268
810.56	-20.833
810.86	-14.286
811.17	19.231
811.47	-12.766
811.77	-2.083
812.08	1.887
812.38	-9.375
812.69	14.545
812.99	-4.878
813.29	-48.649
813.59	-62.162
813.90	-29.091
814.20	10.909
814.50	-5.000
814.81	9.091
815.11	-14.035
815.41	9.302
815.72	-17.500
816.02	-5.714
816.32	-32.432
816.62	18.750
816.93	4.444
817.23	-13.333
817.53	-27.778
817.84	-8.108
818.14	-12.195
818.44	0.000
818.74	2.041
819.04	-7.317
819.35	-30.556
819.65	11.364
819.95	-133.333
820.25	-18.182
820.56	-16.667
820.86	-5.556
821.16	-29.545
821.46	-8.696
821.76	-8.621
822.07	4.348
822.37	12.121
822.67	24.390
822.97	5.405
823.27	-34.286
823.57	10.345
823.88	-44.118
824.18	-13.889
824.48	-2.857
824.78	-52.381
825.08	-3.571
825.38	-18.519
825.69	9.677
825.99	-7.317
826.29	0.000
826.59	9.375
826.89	-22.581
827.19	-34.783
827.49	-36.111
827.79	-43.478
828.09	-6.452
828.39	-2.083
828.70	-28.125
829.00	-68.966
829.30	-5.405
829.60	-91.667
829.90	3.704
830.20	-18.750
830.50	-31.818
830.80	-105.882
831.10	-31.818
831.40	-29.412
831.70	-46.154
832.00	-15.152
832.30	0.000
832.60	-21.622
832.90	1600.000
833.20	-17.857
833.50	-60.000
833.80	-34.211
834.10	-75.000
834.40	-86.364
834.70	-160.000
835.00	-100.000
835.30	-54.167
835.60	-42.857
835.90	-14.286
836.20	-32.000
836.50	-75.000
836.80	-63.158
837.10	16.216
837.40	26.667
837.70	-56.522
838.00	-33.333
838.30	-15.789
838.60	-210.000
838.90	-190.000
839.19	-141.667
839.49	-138.462
839.79	-52.632
840.09	-316.667
840.39	-150.000
840.69	-77.273
840.99	0.000
841.29	-29.167
841.59	-76.923
841.88	-60.000
842.18	0.000
842.48	-6.667
842.78	-242.857
843.08	-100.000
843.38	-150.000
843.68	-81.250
843.97	-35.714
844.27	-166.667
844.57	-209.091
844.87	-120.000
845.17	-18.182
845.47	766.667
845.76	-40.000
846.06	-41.667
846.36	-1150.000
846.66	-26.316
846.96	-95.455
847.25	-50.000
847.55	-188.889
847.85	-52.381
848.15	-69.231
848.44	-400.000
848.74	-116.667
849.04	-223.077
849.34	-325.000
849.63	-218.182
849.93	-128.571
850.23	5.000
850.53	-175.000
850.82	-16.667
851.12	-26.667
851.42	-58.824
851.71	-137.500
852.01	-11.765
852.31	-146.154
852.61	800.000
852.90	-23.529
853.20	-93.333
853.50	-56.250
853.79	-157.143
854.09	-300.000
854.39	-75.000
854.68	-10.000
854.98	-80.952
855.28	-52.000
855.57	-20.833
855.87	-16.667
856.17	-52.000
856.46	-15.625
856.76	-10.000
857.05	4.000
857.35	-83.333
857.65	-82.353
857.94	-175.000
858.24	-125.000
858.53	-50.000
858.83	-163.636
859.13	-8.000
859.42	-114.286
859.72	-337.500
860.01	-12.500
860.31	-125.000
860.60	-112.500
860.90	-200.000
861.20	-100.000
861.49	13.333
861.79	-81.250
862.08	150.000
862.38	-108.333
862.67	371.429
862.97	525.000
863.26	-172.727
863.56	-63.636
863.85	36.842
864.15	-41.176
864.44	-300.000
864.74	-120.000
865.03	-200.000
865.33	-57.143
865.62	171.429
865.92	-15.789
866.21	-83.333
866.51	-118.182
866.80	-166.667
867.10	-112.500
867.39	-43.750
867.69	-53.333
867.98	-10.000
868.27	-29.412
868.57	0.000
868.86	850.000
869.16	-375.000
869.45	-328.571
869.75	450.000
870.04	-50.000
870.33	-1900.000
870.63	-89.474
870.92	-175.000
871.22	-1300.000
871.51	-200.000
871.80	-333.333
872.10	-475.000
>>>>>End Processed Spectral Data<<<<<
