SpectraSuite Data File
++++++++++++++++++++++++++++++++++++
Date: Wed May 13 21:37:12 PDT 2015
User: schluterlab
Dark Spectrum Present: Yes
Reference Spectrum Present: Yes
Number of Sampled Component Spectra: 1
Spectrometers: USB2E3373
Integration Time (usec): 3000 (USB2E3373)
Spectra Averaged: 3 (USB2E3373)
Boxcar Smoothing: 0 (USB2E3373)
Correct for Electrical Dark: No (USB2E3373)
Strobe/Lamp Enabled: No (USB2E3373)
Correct for Detector Non-linearity: No (USB2E3373)
Correct for Stray Light: No (USB2E3373)
Number of Pixels in Processed Spectrum: 2048
>>>>>Begin Processed Spectral Data<<<<<
178.53	0.000
178.91	600.000
179.29	241.667
179.67	-850.000
180.04	-433.333
180.42	260.000
180.80	1100.000
181.18	333.333
181.56	-500.000
181.94	-350.000
182.31	0.000
182.69	146.154
183.07	-300.000
183.45	433.333
183.83	233.333
184.20	300.000
184.58	-500.000
184.96	400.000
185.34	171.429
185.72	0.000
186.09	-1000.000
186.47	-260.000
186.85	380.000
187.23	-550.000
187.61	550.000
187.98	1800.000
188.36	-125.000
188.74	0.000
189.12	-72.727
189.49	-40.000
189.87	141.667
190.25	520.000
190.63	1600.000
191.00	-60.000
191.38	200.000
191.76	225.000
192.14	166.667
192.51	-36.842
192.89	666.667
193.27	600.000
193.65	-400.000
194.02	254.545
194.40	300.000
194.78	-1100.000
195.15	200.000
195.53	-260.000
195.91	-100.000
196.29	-233.333
196.66	0.000
197.04	600.000
197.42	-80.000
197.79	-30.000
198.17	-187.500
198.55	-433.333
198.92	475.000
199.30	-666.667
199.68	-50.000
200.05	550.000
200.43	250.000
200.81	-1500.000
201.18	-380.000
201.56	-16.667
201.94	850.000
202.31	-17.391
202.69	-271.429
203.07	-766.667
203.44	-360.000
203.82	-766.667
204.19	-130.000
204.57	0.000
204.95	-250.000
205.32	0.000
205.70	-350.000
206.08	-400.000
206.45	-133.333
206.83	275.000
207.20	-266.667
207.58	-20.000
207.96	-2600.000
208.33	-257.143
208.71	-2100.000
209.08	312.500
209.46	850.000
209.84	0.000
210.21	160.000
210.59	2100.000
210.96	480.000
211.34	1600.000
211.71	-1350.000
212.09	-383.333
212.46	-140.000
212.84	-33.333
213.22	-200.000
213.59	-1100.000
213.97	-700.000
214.34	-650.000
214.72	-100.000
215.09	187.500
215.47	277.778
215.84	100.000
216.22	-137.500
216.59	-650.000
216.97	633.333
217.34	100.000
217.72	0.000
218.09	100.000
218.47	-1000.000
218.84	-257.143
219.22	-112.500
219.59	-400.000
219.97	-525.000
220.34	-187.500
220.72	-180.000
221.09	0.000
221.47	-316.667
221.84	-100.000
222.22	0.000
222.59	1600.000
222.97	-700.000
223.34	-75.000
223.72	-1600.000
224.09	-600.000
224.46	-54.545
224.84	-100.000
225.21	-228.571
225.59	-375.000
225.96	-233.333
226.34	-70.000
226.71	-357.143
227.08	500.000
227.46	-175.000
227.83	0.000
228.21	-75.000
228.58	-675.000
228.95	-58.824
229.33	-37.500
229.70	12.500
230.08	-53.846
230.45	-237.500
230.82	-133.333
231.20	271.429
231.57	-450.000
231.95	1500.000
232.32	-50.000
232.69	-41.176
233.07	-1800.000
233.44	-30.435
233.81	-950.000
234.19	-41.667
234.56	-100.000
234.93	-73.333
235.31	-68.421
235.68	-123.077
236.05	-207.692
236.43	-72.222
236.80	-30.303
237.17	-146.667
237.55	-105.882
237.92	-79.310
238.29	-51.852
238.67	-52.778
239.04	-74.194
239.41	-42.553
239.79	6.383
240.16	-18.605
240.53	-21.429
240.91	-23.214
241.28	-21.429
241.65	-11.290
242.02	-15.789
242.40	-10.145
242.77	-20.290
243.14	-21.795
243.51	-14.894
243.89	-14.423
244.26	-0.943
244.63	-12.500
245.00	-16.667
245.38	-5.042
245.75	-3.279
246.12	-1.504
246.49	-11.382
246.87	-28.571
247.24	1.351
247.61	-11.921
247.98	-7.051
248.36	-9.467
248.73	-10.112
249.10	-7.071
249.47	-10.215
249.84	-4.211
250.22	-12.438
250.59	-2.804
250.96	0.455
251.33	-11.005
251.70	2.510
252.08	0.000
252.45	-2.469
252.82	1.141
253.19	-4.669
253.56	-4.676
253.94	3.915
254.31	2.113
254.68	2.685
255.05	-0.990
255.42	-2.098
255.79	-1.840
256.16	0.315
256.54	-2.857
256.91	-3.481
257.28	0.629
257.65	-6.051
258.02	-2.346
258.39	0.000
258.76	-3.779
259.14	-2.557
259.51	-3.371
259.88	0.000
260.25	-2.778
260.62	-1.966
260.99	2.122
261.36	0.259
261.73	0.494
262.10	-2.290
262.47	-1.975
262.85	0.249
263.22	-2.308
263.59	-1.818
263.96	-1.703
264.33	-1.683
264.70	1.163
265.07	0.463
265.44	-0.690
265.81	-0.915
266.18	-1.367
266.55	-0.218
266.92	-2.331
267.29	-0.617
267.66	0.637
268.03	2.881
268.40	-2.966
268.77	-0.207
269.14	-0.408
269.51	1.437
269.88	-1.426
270.25	-0.636
270.62	-2.459
270.99	0.787
271.36	-0.794
271.73	-2.209
272.10	-1.714
272.47	-0.960
272.84	0.000
273.21	0.196
273.58	-1.844
273.95	-1.132
274.32	-0.933
274.69	1.093
275.06	2.120
275.43	0.565
275.80	1.596
276.17	-0.184
276.54	-0.178
276.91	-0.523
277.28	-1.986
277.65	1.049
278.02	1.429
278.39	-1.243
278.76	2.007
279.13	-0.343
279.50	0.000
279.87	-0.906
280.23	-1.622
280.60	-1.557
280.97	0.162
281.34	1.420
281.71	-0.163
282.08	-1.026
282.45	0.984
282.82	0.479
283.19	2.896
283.56	0.469
283.92	-1.988
284.29	0.312
284.66	-0.988
285.03	-1.954
285.40	-0.151
285.77	0.601
286.14	-0.912
286.51	1.649
286.87	-0.462
287.24	1.475
287.61	-0.301
287.98	0.588
288.35	-1.043
288.72	0.574
289.08	1.282
289.45	-0.734
289.82	2.118
290.19	0.842
290.56	0.000
290.93	0.829
291.29	0.958
291.66	0.820
292.03	0.954
292.40	0.135
292.77	2.008
293.13	-0.418
293.50	-0.654
293.87	-0.667
294.24	0.000
294.60	0.520
294.97	0.265
295.34	-0.264
295.71	-1.314
296.08	-0.524
296.44	-1.148
296.81	-0.365
297.18	0.000
297.55	1.179
297.91	0.373
298.28	0.242
298.65	-0.739
299.02	1.221
299.38	-0.982
299.75	-0.361
300.12	-0.814
300.48	0.351
300.85	0.346
301.22	0.465
301.59	-0.704
301.95	-0.465
302.32	0.117
302.69	-0.791
303.05	0.332
303.42	0.455
303.79	1.262
304.15	0.438
304.52	1.720
304.89	-1.329
305.25	-0.439
305.62	-0.217
305.99	0.979
306.35	0.418
306.72	0.814
307.09	0.209
307.45	0.000
307.82	-0.211
308.19	-0.522
308.55	0.205
308.92	1.179
309.29	0.100
309.65	0.000
310.02	1.093
310.38	0.508
310.75	-0.197
311.12	0.000
311.48	0.593
311.85	0.492
312.22	0.677
312.58	-0.870
312.95	0.896
313.31	1.928
313.68	1.622
314.05	1.418
314.41	1.729
314.78	2.372
315.14	1.667
315.51	2.379
315.87	2.873
316.24	2.938
316.61	2.740
316.97	1.852
317.34	2.317
317.70	4.103
318.07	4.170
318.43	3.162
318.80	2.792
319.16	2.034
319.53	2.957
319.89	3.975
320.26	3.974
320.62	3.522
320.99	5.136
321.35	4.022
321.72	4.427
322.08	5.720
322.45	6.383
322.81	4.898
323.18	5.814
323.54	5.235
323.91	6.143
324.27	6.931
324.64	5.401
325.00	6.299
325.37	7.594
325.73	7.155
326.10	7.317
326.46	8.361
326.83	7.282
327.19	7.805
327.56	8.703
327.92	8.850
328.29	8.598
328.65	8.852
329.01	8.355
329.38	10.261
329.74	9.528
330.11	8.025
330.47	8.767
330.84	9.386
331.20	9.223
331.56	8.877
331.93	10.422
332.29	9.991
332.66	8.729
333.02	10.078
333.38	10.526
333.75	10.068
334.11	10.330
334.48	10.288
334.84	9.276
335.20	9.434
335.57	9.922
335.93	9.107
336.29	9.545
336.66	10.171
337.02	9.043
337.38	9.312
337.75	10.594
338.11	9.394
338.47	9.503
338.84	10.223
339.20	9.788
339.56	9.642
339.93	10.285
340.29	9.906
340.65	10.950
341.02	11.065
341.38	9.459
341.74	9.748
342.11	10.652
342.47	9.540
342.83	10.703
343.20	10.237
343.56	10.630
343.92	9.667
344.28	10.471
344.65	10.286
345.01	9.766
345.37	10.937
345.73	10.621
346.10	11.236
346.46	10.081
346.82	9.069
347.19	9.415
347.55	10.985
347.91	9.743
348.27	10.489
348.63	9.696
349.00	9.906
349.36	11.303
349.72	10.750
350.08	10.296
350.45	9.475
350.81	10.642
351.17	11.701
351.53	10.134
351.89	9.929
352.26	9.112
352.62	10.000
352.98	10.623
353.34	9.662
353.70	11.059
354.07	9.647
354.43	10.342
354.79	9.696
355.15	10.171
355.51	10.782
355.87	11.650
356.24	9.711
356.60	10.242
356.96	10.361
357.32	11.223
357.68	11.765
358.04	10.628
358.40	11.550
358.77	9.786
359.13	11.128
359.49	10.220
359.85	11.600
360.21	10.640
360.57	10.722
360.93	11.381
361.29	11.991
361.66	11.465
362.02	11.193
362.38	11.300
362.74	10.515
363.10	11.497
363.46	11.455
363.82	11.899
364.18	10.370
364.54	12.035
364.90	11.220
365.26	11.182
365.62	11.151
365.98	11.174
366.35	12.482
366.71	11.270
367.07	11.410
367.43	11.638
367.79	11.953
368.15	12.799
368.51	11.744
368.87	13.050
369.23	11.601
369.59	12.755
369.95	11.829
370.31	12.134
370.67	12.310
371.03	12.843
371.39	12.420
371.75	12.643
372.11	13.177
372.47	12.761
372.83	12.968
373.19	12.374
373.55	12.789
373.91	13.225
374.27	12.725
374.63	13.869
374.99	13.022
375.35	13.904
375.71	12.976
376.07	13.845
376.42	14.305
376.78	14.663
377.14	13.966
377.50	14.863
377.86	14.143
378.22	14.159
378.58	14.313
378.94	15.438
379.30	14.491
379.66	15.413
380.02	15.748
380.38	14.398
380.74	15.660
381.09	15.682
381.45	16.385
381.81	15.527
382.17	16.194
382.53	16.000
382.89	15.380
383.25	16.728
383.61	16.525
383.97	15.812
384.32	16.257
384.68	16.841
385.04	16.555
385.40	17.186
385.76	17.518
386.12	18.399
386.48	17.179
386.83	18.023
387.19	17.829
387.55	18.210
387.91	18.389
388.27	17.941
388.62	18.727
388.98	18.461
389.34	18.546
389.70	18.376
390.06	18.937
390.42	18.750
390.77	19.411
391.13	19.318
391.49	19.608
391.85	19.169
392.20	18.546
392.56	18.540
392.92	19.193
393.28	19.698
393.64	19.572
393.99	19.278
394.35	19.444
394.71	20.192
395.07	18.994
395.42	21.328
395.78	20.142
396.14	21.053
396.50	20.862
396.85	21.033
397.21	21.036
397.57	20.932
397.92	20.898
398.28	21.489
398.64	21.615
399.00	20.926
399.35	21.793
399.71	20.210
400.07	20.904
400.42	22.006
400.78	21.994
401.14	20.907
401.49	21.809
401.85	21.314
402.21	23.096
402.57	21.704
402.92	22.591
403.28	21.951
403.63	22.195
403.99	22.393
404.35	22.880
404.70	22.296
405.06	22.431
405.42	21.922
405.77	22.005
406.13	22.686
406.49	23.367
406.84	23.382
407.20	22.795
407.55	23.312
407.91	22.105
408.27	22.832
408.62	23.757
408.98	23.921
409.34	22.587
409.69	24.107
410.05	23.259
410.40	23.189
410.76	23.646
411.11	24.254
411.47	24.486
411.83	23.830
412.18	23.741
412.54	24.123
412.89	23.135
413.25	23.717
413.60	24.201
413.96	23.596
414.31	24.784
414.67	24.190
415.03	23.884
415.38	23.844
415.74	23.977
416.09	25.446
416.45	24.129
416.80	24.362
417.16	25.439
417.51	23.778
417.87	24.405
418.22	24.370
418.58	24.573
418.93	24.043
419.29	24.554
419.64	25.445
420.00	24.825
420.35	25.403
420.71	24.802
421.06	25.461
421.42	24.878
421.77	24.335
422.12	24.986
422.48	24.973
422.83	24.749
423.19	25.187
423.54	26.148
423.90	25.713
424.25	25.997
424.61	24.399
424.96	25.310
425.31	25.182
425.67	25.985
426.02	26.148
426.38	25.124
426.73	25.351
427.09	25.078
427.44	25.778
427.79	25.831
428.15	25.321
428.50	25.559
428.85	26.384
429.21	25.661
429.56	25.824
429.92	25.768
430.27	25.869
430.62	26.653
430.98	26.124
431.33	26.061
431.68	26.518
432.04	26.254
432.39	25.577
432.74	25.015
433.10	26.148
433.45	26.154
433.80	26.264
434.16	26.161
434.51	26.522
434.86	26.384
435.22	26.429
435.57	26.351
435.92	26.236
436.28	26.306
436.63	26.270
436.98	26.910
437.34	27.167
437.69	26.151
438.04	26.033
438.39	26.526
438.75	26.579
439.10	27.299
439.45	27.421
439.81	27.094
440.16	27.072
440.51	26.635
440.86	26.497
441.22	27.022
441.57	26.952
441.92	26.542
442.27	26.894
442.63	25.727
442.98	26.447
443.33	26.806
443.68	26.199
444.03	26.180
444.39	26.525
444.74	25.842
445.09	26.542
445.44	27.606
445.79	26.278
446.15	27.232
446.50	26.322
446.85	26.937
447.20	26.503
447.55	26.581
447.91	26.404
448.26	26.529
448.61	26.812
448.96	26.595
449.31	26.842
449.66	26.605
450.02	26.038
450.37	26.675
450.72	26.636
451.07	27.273
451.42	27.012
451.77	26.780
452.12	25.728
452.47	26.598
452.83	26.710
453.18	26.544
453.53	26.734
453.88	26.084
454.23	26.391
454.58	26.961
454.93	26.748
455.28	25.947
455.63	26.138
455.98	26.537
456.34	26.128
456.69	26.454
457.04	26.563
457.39	26.699
457.74	25.613
458.09	25.533
458.44	25.382
458.79	25.920
459.14	25.056
459.49	27.317
459.84	25.761
460.19	25.090
460.54	25.487
460.89	25.901
461.24	25.894
461.59	25.845
461.94	26.233
462.29	25.490
462.64	26.055
462.99	25.218
463.34	26.174
463.69	25.966
464.04	24.910
464.39	25.564
464.74	25.799
465.09	25.232
465.44	25.477
465.79	25.992
466.14	25.770
466.49	25.279
466.84	24.985
467.19	24.968
467.54	26.377
467.89	25.141
468.24	24.770
468.59	24.602
468.94	25.543
469.29	25.050
469.64	25.662
469.99	26.069
470.34	25.354
470.68	25.502
471.03	25.388
471.38	24.270
471.73	25.377
472.08	24.536
472.43	25.000
472.78	25.085
473.13	23.351
473.48	24.331
473.83	24.859
474.17	25.260
474.52	23.689
474.87	23.341
475.22	24.396
475.57	24.763
475.92	24.591
476.27	24.126
476.61	24.802
476.96	24.158
477.31	24.164
477.66	24.237
478.01	23.407
478.36	23.324
478.70	23.738
479.05	24.306
479.40	23.505
479.75	23.433
480.10	23.763
480.45	23.786
480.79	24.241
481.14	24.063
481.49	23.878
481.84	23.186
482.19	22.974
482.53	23.571
482.88	23.298
483.23	22.714
483.58	23.204
483.92	22.422
484.27	23.010
484.62	23.835
484.97	23.725
485.31	22.726
485.66	22.770
486.01	22.274
486.36	23.133
486.70	23.169
487.05	23.174
487.40	22.937
487.75	22.883
488.09	22.615
488.44	22.292
488.79	22.559
489.13	21.948
489.48	22.232
489.83	22.599
490.17	22.015
490.52	22.440
490.87	22.021
491.22	21.809
491.56	22.041
491.91	21.555
492.26	21.809
492.60	21.212
492.95	22.595
493.30	22.045
493.64	21.391
493.99	22.415
494.34	21.869
494.68	21.432
495.03	21.393
495.37	21.509
495.72	21.454
496.07	22.017
496.41	21.338
496.76	21.709
497.11	21.315
497.45	21.790
497.80	21.201
498.14	21.763
498.49	20.171
498.84	21.103
499.18	21.254
499.53	20.729
499.87	20.427
500.22	21.453
500.56	20.963
500.91	21.529
501.26	21.133
501.60	20.000
501.95	20.556
502.29	20.874
502.64	20.926
502.98	20.520
503.33	20.146
503.67	20.107
504.02	19.706
504.36	20.505
504.71	20.427
505.06	20.071
505.40	20.103
505.75	20.753
506.09	20.031
506.44	19.052
506.78	20.772
507.13	21.466
507.47	20.520
507.82	19.728
508.16	19.736
508.51	19.215
508.85	19.855
509.19	19.206
509.54	19.946
509.88	19.140
510.23	18.737
510.57	19.597
510.92	19.612
511.26	20.297
511.61	19.484
511.95	19.184
512.30	19.267
512.64	19.977
512.98	19.778
513.33	19.493
513.67	19.478
514.02	19.042
514.36	19.045
514.70	19.746
515.05	18.958
515.39	18.337
515.74	18.946
516.08	18.112
516.42	18.260
516.77	19.098
517.11	18.812
517.46	19.208
517.80	20.036
518.14	19.535
518.49	17.722
518.83	18.317
519.17	19.277
519.52	18.818
519.86	18.944
520.20	18.435
520.55	18.035
520.89	17.584
521.23	18.974
521.58	18.963
521.92	18.479
522.26	18.282
522.61	18.681
522.95	18.264
523.29	17.968
523.64	19.008
523.98	18.043
524.32	18.273
524.66	18.701
525.01	19.397
525.35	18.038
525.69	18.489
526.04	17.199
526.38	18.611
526.72	17.883
527.06	17.988
527.41	17.406
527.75	17.423
528.09	18.039
528.43	18.046
528.78	17.571
529.12	17.141
529.46	17.083
529.80	17.411
530.15	17.246
530.49	16.307
530.83	17.536
531.17	17.055
531.51	16.521
531.86	16.463
532.20	16.816
532.54	16.966
532.88	17.427
533.22	17.374
533.57	16.026
533.91	17.613
534.25	17.513
534.59	17.375
534.93	16.837
535.27	17.197
535.62	16.118
535.96	17.502
536.30	17.487
536.64	15.995
536.98	15.907
537.32	15.302
537.66	16.361
538.01	15.395
538.35	16.229
538.69	15.719
539.03	16.376
539.37	14.956
539.71	16.576
540.05	15.992
540.39	16.105
540.73	16.201
541.07	15.034
541.42	15.960
541.76	15.968
542.10	14.557
542.44	14.276
542.78	14.990
543.12	15.162
543.46	15.342
543.80	15.954
544.14	15.348
544.48	14.267
544.82	15.131
545.16	16.024
545.50	15.395
545.84	15.007
546.18	14.937
546.52	15.173
546.86	15.053
547.20	14.725
547.54	14.510
547.88	15.520
548.22	15.309
548.56	15.277
548.90	15.020
549.24	15.556
549.58	13.594
549.92	15.407
550.26	15.646
550.60	15.541
550.94	14.627
551.28	14.232
551.62	14.887
551.96	14.714
552.30	13.246
552.64	13.206
552.98	14.347
553.32	14.131
553.66	14.894
554.00	14.759
554.34	13.846
554.68	15.063
555.02	14.820
555.36	13.843
555.69	13.620
556.03	13.867
556.37	14.083
556.71	13.174
557.05	14.096
557.39	13.640
557.73	12.935
558.07	13.489
558.41	14.232
558.75	14.550
559.08	13.312
559.42	13.847
559.76	13.914
560.10	13.836
560.44	14.223
560.78	12.806
561.12	13.665
561.45	13.810
561.79	13.824
562.13	13.783
562.47	13.929
562.81	13.276
563.15	12.606
563.48	13.627
563.82	13.543
564.16	13.947
564.50	13.569
564.84	13.446
565.17	12.914
565.51	13.102
565.85	13.058
566.19	12.450
566.52	13.434
566.86	12.453
567.20	13.378
567.54	12.953
567.88	12.654
568.21	12.656
568.55	12.885
568.89	12.512
569.23	13.107
569.56	13.350
569.90	13.037
570.24	12.708
570.57	12.282
570.91	12.983
571.25	12.484
571.59	12.117
571.92	12.878
572.26	12.652
572.60	12.442
572.93	12.621
573.27	12.754
573.61	12.669
573.95	12.295
574.28	12.606
574.62	12.515
574.96	12.156
575.29	12.538
575.63	11.960
575.97	12.283
576.30	11.702
576.64	12.051
576.98	12.563
577.31	12.008
577.65	11.774
577.98	12.001
578.32	12.362
578.66	12.244
578.99	12.066
579.33	12.019
579.67	12.016
580.00	11.876
580.34	11.997
580.67	11.808
581.01	12.080
581.35	12.127
581.68	11.868
582.02	12.072
582.35	12.128
582.69	11.961
583.02	11.706
583.36	11.849
583.70	11.753
584.03	11.917
584.37	11.667
584.70	11.638
585.04	11.423
585.37	11.543
585.71	11.867
586.04	11.604
586.38	11.629
586.72	11.239
587.05	11.506
587.39	11.702
587.72	11.303
588.06	11.710
588.39	11.363
588.73	11.492
589.06	10.702
589.40	11.318
589.73	10.995
590.07	11.265
590.40	11.473
590.73	11.669
591.07	11.199
591.40	11.130
591.74	10.894
592.07	11.410
592.41	11.454
592.74	11.806
593.08	11.077
593.41	10.983
593.75	10.917
594.08	11.192
594.41	10.786
594.75	11.132
595.08	10.680
595.42	10.988
595.75	10.882
596.09	11.162
596.42	10.621
596.75	10.531
597.09	12.193
597.42	11.171
597.75	10.667
598.09	10.974
598.42	11.365
598.76	10.537
599.09	10.724
599.42	11.140
599.76	11.003
600.09	11.220
600.42	11.036
600.76	10.791
601.09	11.224
601.42	10.623
601.76	11.081
602.09	11.390
602.42	10.400
602.76	10.067
603.09	11.294
603.42	10.196
603.76	10.366
604.09	10.672
604.42	11.134
604.76	10.607
605.09	10.195
605.42	10.661
605.75	9.893
606.09	9.892
606.42	10.266
606.75	9.784
607.09	10.284
607.42	10.771
607.75	9.409
608.08	10.866
608.42	9.794
608.75	9.795
609.08	10.191
609.41	10.780
609.75	10.439
610.08	10.651
610.41	10.350
610.74	10.683
611.07	9.770
611.41	10.235
611.74	10.352
612.07	10.839
612.40	10.595
612.73	9.769
613.07	9.590
613.40	10.132
613.73	10.834
614.06	9.342
614.39	9.394
614.72	9.994
615.06	10.111
615.39	10.430
615.72	9.287
616.05	9.234
616.38	10.367
616.71	8.938
617.05	9.705
617.38	9.982
617.71	10.172
618.04	9.445
618.37	9.968
618.70	9.767
619.03	9.347
619.36	9.964
619.69	9.357
620.03	9.894
620.36	9.395
620.69	9.422
621.02	8.846
621.35	9.567
621.68	9.617
622.01	9.142
622.34	9.278
622.67	9.397
623.00	10.182
623.33	9.424
623.66	8.476
623.99	9.602
624.32	9.318
624.65	9.421
624.99	9.772
625.32	10.157
625.65	10.000
625.98	9.005
626.31	9.796
626.64	9.286
626.97	8.478
627.30	9.068
627.63	9.343
627.96	8.831
628.29	8.930
628.62	9.478
628.95	8.617
629.28	8.867
629.61	9.665
629.94	9.574
630.26	9.557
630.59	8.292
630.92	8.534
631.25	9.578
631.58	8.458
631.91	7.423
632.24	8.013
632.57	7.778
632.90	8.401
633.23	8.153
633.56	9.832
633.89	10.766
634.22	10.483
634.55	9.501
634.88	9.559
635.20	10.625
635.53	7.623
635.86	7.821
636.19	8.313
636.52	7.683
636.85	7.600
637.18	6.821
637.51	7.990
637.83	7.833
638.16	8.667
638.49	8.545
638.82	7.974
639.15	9.309
639.48	8.556
639.81	8.889
640.13	6.901
640.46	8.333
640.79	6.187
641.12	6.509
641.45	8.297
641.77	7.069
642.10	8.472
642.43	8.019
642.76	8.202
643.09	6.709
643.41	8.293
643.74	6.462
644.07	6.472
644.40	6.633
644.73	7.119
645.05	5.410
645.38	7.641
645.71	7.653
646.04	6.734
646.36	7.986
646.69	6.993
647.02	6.740
647.35	8.410
647.67	6.839
648.00	8.696
648.33	7.458
648.66	5.843
648.98	8.385
649.31	8.742
649.64	10.485
649.96	8.373
650.29	6.046
650.62	6.425
650.94	7.414
651.27	6.714
651.60	7.168
651.92	8.423
652.25	9.380
652.58	7.591
652.90	6.566
653.23	6.791
653.56	5.289
653.88	4.266
654.21	5.119
654.54	4.983
654.86	6.341
655.19	6.162
655.52	10.123
655.84	8.681
656.17	10.565
656.49	13.954
656.82	13.660
657.15	10.072
657.47	7.437
657.80	5.521
658.13	5.788
658.45	8.227
658.78	8.162
659.10	8.281
659.43	8.044
659.75	8.117
660.08	6.759
660.41	7.099
660.73	6.474
661.06	7.143
661.38	6.977
661.71	6.557
662.03	6.554
662.36	2.876
662.68	6.452
663.01	10.381
663.33	4.752
663.66	4.213
663.98	7.640
664.31	5.055
664.63	0.676
664.96	6.565
665.28	6.652
665.61	3.672
665.93	5.353
666.26	7.173
666.58	5.782
666.91	5.830
667.23	6.452
667.56	5.977
667.88	3.972
668.21	7.812
668.53	4.828
668.86	6.954
669.18	5.437
669.50	7.834
669.83	5.251
670.15	5.714
670.48	6.207
670.80	11.160
671.13	6.178
671.45	7.991
671.77	4.310
672.10	4.678
672.42	4.962
672.75	5.000
673.07	4.000
673.39	5.970
673.72	6.786
674.04	6.148
674.37	6.911
674.69	5.967
675.01	6.197
675.34	4.158
675.66	6.100
675.98	4.867
676.31	5.204
676.63	9.070
676.95	4.000
677.28	5.505
677.60	3.676
677.92	8.204
678.25	8.460
678.57	8.554
678.89	3.625
679.22	4.969
679.54	6.531
679.86	6.641
680.18	5.769
680.51	6.346
680.83	5.653
681.15	6.483
681.48	6.212
681.80	4.703
682.12	3.750
682.44	5.030
682.77	2.947
683.09	2.009
683.41	3.953
683.73	3.571
684.06	5.088
684.38	5.983
684.70	4.073
685.02	7.231
685.34	6.458
685.67	6.567
685.99	4.448
686.31	6.552
686.63	6.250
686.96	7.792
687.28	5.389
687.60	8.129
687.92	4.475
688.24	6.200
688.56	7.018
688.89	4.677
689.21	7.399
689.53	3.829
689.85	4.270
690.17	6.593
690.49	3.865
690.82	4.057
691.14	4.831
691.46	4.408
691.78	6.813
692.10	5.520
692.42	5.495
692.74	6.957
693.06	3.596
693.39	3.279
693.71	6.444
694.03	5.682
694.35	6.757
694.67	6.000
694.99	4.639
695.31	3.876
695.63	4.390
695.95	5.344
696.27	-0.274
696.59	2.688
696.91	1.117
697.23	4.315
697.56	7.914
697.88	6.237
698.20	5.616
698.52	4.673
698.84	5.981
699.16	3.783
699.48	4.444
699.80	7.235
700.12	5.898
700.44	3.662
700.76	5.337
701.08	7.251
701.40	4.790
701.72	4.000
702.04	-0.629
702.36	1.524
702.68	0.000
703.00	6.140
703.32	3.900
703.64	5.422
703.96	3.226
704.28	2.410
704.60	3.049
704.91	2.821
705.23	1.266
705.55	3.448
705.87	4.577
706.19	0.000
706.51	1.761
706.83	-0.318
707.15	4.268
707.47	5.785
707.79	6.091
708.11	3.599
708.43	5.584
708.74	1.596
709.06	3.743
709.38	5.764
709.70	3.904
710.02	4.673
710.34	3.667
710.66	5.537
710.98	3.096
711.29	4.870
711.61	4.839
711.93	6.129
712.25	0.699
712.57	0.000
712.89	-0.366
713.20	6.028
713.52	3.650
713.84	1.935
714.16	2.265
714.48	3.797
714.80	-0.639
715.11	6.686
715.43	4.348
715.75	4.348
716.07	5.723
716.39	6.734
716.70	3.957
717.02	-1.569
717.34	4.545
717.66	1.724
717.97	4.365
718.29	0.787
718.61	-1.288
718.93	-1.938
719.24	4.428
719.56	4.494
719.88	-0.373
720.20	2.372
720.51	2.734
720.83	3.113
721.15	-2.033
721.46	2.290
721.78	3.187
722.10	-1.992
722.42	-3.226
722.73	4.633
723.05	0.816
723.37	3.782
723.68	-0.800
724.00	-1.277
724.32	-0.418
724.63	4.527
724.95	0.855
725.27	2.532
725.58	6.584
725.90	2.929
726.22	2.536
726.53	-1.569
726.85	3.650
727.16	3.333
727.48	8.429
727.80	3.125
728.11	3.689
728.43	1.563
728.74	2.381
729.06	0.400
729.38	2.767
729.69	2.135
730.01	-2.974
730.32	4.059
730.64	2.652
730.96	5.944
731.27	-0.669
731.59	4.444
731.90	3.560
732.22	0.641
732.53	1.014
732.85	1.007
733.16	5.611
733.48	2.365
733.80	2.027
734.11	1.689
734.43	1.858
734.74	6.006
735.06	0.288
735.37	3.951
735.69	3.560
736.00	1.980
736.32	0.000
736.63	1.379
736.95	6.849
737.26	0.690
737.58	3.819
737.89	4.124
738.21	1.423
738.52	0.760
738.83	6.122
739.15	4.219
739.46	0.778
739.78	-0.352
740.09	1.712
740.41	-1.071
740.72	3.191
741.04	1.200
741.35	-3.509
741.66	-0.889
741.98	3.365
742.29	8.416
742.61	4.390
742.92	4.825
743.23	-2.830
743.55	-0.901
743.86	2.242
744.18	0.000
744.49	1.015
744.80	-0.510
745.12	1.869
745.43	0.000
745.74	4.955
746.06	0.935
746.37	1.376
746.68	-2.885
747.00	5.263
747.31	-0.962
747.62	0.000
747.94	3.057
748.25	1.835
748.56	9.333
748.88	4.225
749.19	4.286
749.50	0.971
749.82	0.469
750.13	-4.167
750.44	0.000
750.75	2.583
751.07	1.779
751.38	6.028
751.69	1.931
752.01	1.953
752.32	3.462
752.63	1.866
752.94	1.200
753.26	4.184
753.57	1.250
753.88	1.619
754.19	-2.390
754.51	1.504
754.82	1.099
755.13	-2.174
755.44	1.626
755.75	-2.000
756.07	0.738
756.38	-0.360
756.69	4.096
757.00	4.361
757.31	3.560
757.63	2.469
757.94	1.695
758.25	3.968
758.56	1.087
758.87	3.274
759.18	3.155
759.50	3.367
759.81	1.672
760.12	5.846
760.43	2.083
760.74	3.672
761.05	3.867
761.36	1.433
761.67	2.719
761.99	-1.718
762.30	-2.555
762.61	-0.823
762.92	7.692
763.23	5.738
763.54	7.792
763.85	0.816
764.16	-1.220
764.47	3.200
764.78	2.500
765.10	6.885
765.41	7.599
765.72	4.658
766.03	4.950
766.34	5.000
766.65	-2.092
766.96	-0.469
767.27	3.465
767.58	-5.618
767.89	-1.852
768.20	0.000
768.51	-2.010
768.82	4.808
769.13	0.885
769.44	5.439
769.75	-5.983
770.06	0.448
770.37	-3.431
770.68	0.485
770.99	0.485
771.30	5.042
771.61	2.449
771.92	4.564
772.23	1.351
772.54	-4.420
772.85	-1.163
773.16	4.233
773.47	-8.284
773.78	2.299
774.09	-1.875
774.39	-3.727
774.70	0.680
775.01	0.000
775.32	-5.714
775.63	-10.526
775.94	-7.519
776.25	-9.600
776.56	-4.959
776.87	-1.587
777.18	-9.009
777.48	-1.802
777.79	1.575
778.10	-5.505
778.41	-13.158
778.72	-6.723
779.03	-9.155
779.34	4.730
779.65	-2.113
779.95	-3.311
780.26	-2.158
780.57	-1.439
780.88	-2.113
781.19	-12.605
781.50	4.698
781.80	-2.924
782.11	-8.721
782.42	4.403
782.73	4.575
783.04	-3.448
783.34	-12.214
783.65	-3.356
783.96	-2.308
784.27	1.429
784.57	0.000
784.88	-17.308
785.19	17.273
785.50	-5.455
785.81	-7.619
786.11	-11.765
786.42	-6.195
786.73	-5.660
787.04	-11.927
787.34	-16.832
787.65	1.667
787.96	0.000
788.26	-2.174
788.57	-4.762
788.88	-7.317
789.19	-6.400
789.49	-10.687
789.80	-0.758
790.11	-14.151
790.41	0.990
790.72	-3.191
791.03	-1.087
791.33	-1.176
791.64	-13.580
791.95	-4.348
792.25	-1.136
792.56	-15.385
792.87	-17.949
793.17	-19.231
793.48	-8.333
793.79	-7.500
794.09	-4.808
794.40	-4.167
794.70	-9.009
795.01	0.781
795.32	-6.957
795.62	-28.261
795.93	-6.604
796.23	2.020
796.54	-12.195
796.85	-7.143
797.15	-15.152
797.46	-15.942
797.76	-6.579
798.07	4.545
798.37	-8.537
798.68	-27.419
798.99	-22.973
799.29	-7.229
799.60	-7.692
799.90	1.538
800.21	-19.697
800.51	-12.000
800.82	1.333
801.12	-37.500
801.43	-33.333
801.73	-9.459
802.04	-7.143
802.34	-31.148
802.65	-10.448
802.95	-25.455
803.26	-5.172
803.56	-16.923
803.87	-9.434
804.17	-25.806
804.48	-11.765
804.78	-24.390
805.09	-1.449
805.39	-16.176
805.70	-42.553
806.00	-24.561
806.30	0.000
806.61	-14.474
806.91	-5.405
807.22	-14.474
807.52	-6.818
807.83	-18.644
808.13	-31.818
808.43	-15.000
808.74	-41.379
809.04	-9.524
809.35	-22.449
809.65	-15.000
809.95	-42.857
810.26	-8.451
810.56	-18.750
810.86	-46.939
811.17	0.000
811.47	-57.447
811.77	-33.333
812.08	-24.528
812.38	-34.375
812.69	-16.364
812.99	-29.268
813.29	-40.541
813.59	-32.432
813.90	-14.545
814.20	-10.909
814.50	-38.333
814.81	-23.636
815.11	-15.789
815.41	-32.558
815.72	-32.500
816.02	-28.571
816.32	-43.243
816.62	-12.500
816.93	-22.222
817.23	-28.889
817.53	-38.889
817.84	-27.027
818.14	-19.512
818.44	-8.000
818.74	-8.163
819.04	-19.512
819.35	-36.111
819.65	-13.636
819.95	-133.333
820.25	-42.424
820.56	-59.524
820.86	-36.111
821.16	-34.091
821.46	-21.739
821.76	-27.586
822.07	-13.043
822.37	-18.182
822.67	-19.512
822.97	-37.838
823.27	-62.857
823.57	3.448
823.88	-38.235
824.18	-16.667
824.48	-42.857
824.78	-52.381
825.08	-25.000
825.38	-22.222
825.69	-29.032
825.99	-2.439
826.29	-29.630
826.59	-53.125
826.89	-32.258
827.19	-17.391
827.49	-58.333
827.79	-104.348
828.09	-12.903
828.39	-12.500
828.70	-78.125
829.00	-34.483
829.30	-40.541
829.60	-125.000
829.90	-44.444
830.20	-25.000
830.50	-9.091
830.80	-205.882
831.10	-81.818
831.40	-41.176
831.70	-42.308
832.00	-42.424
832.30	-14.706
832.60	-8.108
832.90	800.000
833.20	-10.714
833.50	-105.000
833.80	0.000
834.10	-100.000
834.40	-81.818
834.70	-126.667
835.00	-240.000
835.30	-87.500
835.60	-38.095
835.90	-52.381
836.20	-96.000
836.50	-58.333
836.80	-100.000
837.10	-27.027
837.40	3.333
837.70	-43.478
838.00	-4.167
838.30	-105.263
838.60	-240.000
838.90	-140.000
839.19	-116.667
839.49	-46.154
839.79	-47.368
840.09	-350.000
840.39	-120.000
840.69	-40.909
840.99	-52.381
841.29	-29.167
841.59	-123.077
841.88	-106.667
842.18	-114.286
842.48	-30.000
842.78	-157.143
843.08	-107.143
843.38	-250.000
843.68	-81.250
843.97	-28.571
844.27	-244.444
844.57	-190.909
844.87	-100.000
845.17	-22.727
845.47	933.333
845.76	-60.000
846.06	-133.333
846.36	-1400.000
846.66	-94.737
846.96	-77.273
847.25	-111.111
847.55	-188.889
847.85	-61.905
848.15	-53.846
848.44	-400.000
848.74	-125.000
849.04	-61.538
849.34	-425.000
849.63	-254.545
849.93	-178.571
850.23	-75.000
850.53	-262.500
850.82	-88.889
851.12	-53.333
851.42	-64.706
851.71	-100.000
852.01	-35.294
852.31	-169.231
852.61	800.000
852.90	-64.706
853.20	-100.000
853.50	-56.250
853.79	-142.857
854.09	-400.000
854.39	-60.000
854.68	-27.500
854.98	-109.524
855.28	-48.000
855.57	-66.667
855.87	-54.167
856.17	-96.000
856.46	3.125
856.76	-15.000
857.05	-4.000
857.35	-166.667
857.65	-94.118
857.94	-133.333
858.24	-150.000
858.53	-80.000
858.83	-227.273
859.13	-20.000
859.42	-85.714
859.72	-250.000
860.01	-20.833
860.31	-287.500
860.60	-56.250
860.90	-283.333
861.20	-283.333
861.49	0.000
861.79	-112.500
862.08	500.000
862.38	-200.000
862.67	471.429
862.97	625.000
863.26	-136.364
863.56	-45.455
863.85	0.000
864.15	-82.353
864.44	-500.000
864.74	-200.000
865.03	-144.444
865.33	-64.286
865.62	164.286
865.92	-42.105
866.21	-88.889
866.51	-136.364
866.80	-133.333
867.10	-200.000
867.39	-87.500
867.69	-60.000
867.98	-130.000
868.27	-58.824
868.57	0.000
868.86	1000.000
869.16	-250.000
869.45	-271.429
869.75	700.000
870.04	-110.000
870.33	-1900.000
870.63	-73.684
870.92	-200.000
871.22	-2000.000
871.51	-285.714
871.80	-300.000
872.10	-525.000
>>>>>End Processed Spectral Data<<<<<
