SpectraSuite Data File
++++++++++++++++++++++++++++++++++++
Date: Wed May 13 20:26:33 PDT 2015
User: schluterlab
Dark Spectrum Present: Yes
Reference Spectrum Present: Yes
Number of Sampled Component Spectra: 1
Spectrometers: USB2E3373
Integration Time (usec): 3000 (USB2E3373)
Spectra Averaged: 3 (USB2E3373)
Boxcar Smoothing: 0 (USB2E3373)
Correct for Electrical Dark: No (USB2E3373)
Strobe/Lamp Enabled: No (USB2E3373)
Correct for Detector Non-linearity: No (USB2E3373)
Correct for Stray Light: No (USB2E3373)
Number of Pixels in Processed Spectrum: 2048
>>>>>Begin Processed Spectral Data<<<<<
178.53	0.000
178.91	-1025.000
179.29	-1250.000
179.67	-216.667
180.04	-1175.000
180.42	1800.000
180.80	880.000
181.18	-875.000
181.56	614.286
181.94	0.000
182.31	-557.143
182.69	1566.667
183.07	-437.500
183.45	-488.889
183.83	409.091
184.20	-350.000
184.58	2600.000
184.96	4500.000
185.34	-880.000
185.72	-575.000
186.09	-2200.000
186.47	2250.000
186.85	2550.000
187.23	4800.000
187.61	-1533.333
187.98	1375.000
188.36	527.273
188.74	400.000
189.12	-980.000
189.49	510.000
189.87	-3700.000
190.25	-875.000
190.63	378.571
191.00	392.308
191.38	850.000
191.76	-1000.000
192.14	1400.000
192.51	450.000
192.89	900.000
193.27	487.500
193.65	-1175.000
194.02	490.000
194.40	780.000
194.78	610.000
195.15	458.333
195.53	620.000
195.91	-2050.000
196.29	325.000
196.66	257.895
197.04	-280.000
197.42	0.000
197.79	570.000
198.17	-4200.000
198.55	671.429
198.92	675.000
199.30	680.000
199.68	0.000
200.05	300.000
200.43	800.000
200.81	3500.000
201.18	1566.667
201.56	-1266.667
201.94	566.667
202.31	544.444
202.69	366.667
203.07	440.000
203.44	0.000
203.82	1250.000
204.19	700.000
204.57	378.571
204.95	625.000
205.32	1166.667
205.70	500.000
206.08	342.857
206.45	2850.000
206.83	393.750
207.20	933.333
207.58	840.000
207.96	261.111
208.33	587.500
208.71	-733.333
209.08	714.286
209.46	566.667
209.84	354.545
210.21	-1366.667
210.59	1250.000
210.96	-362.500
211.34	2000.000
211.71	570.000
212.09	616.667
212.46	0.000
212.84	1400.000
213.22	1200.000
213.59	-4100.000
213.97	900.000
214.34	685.714
214.72	536.364
215.09	940.000
215.47	-2600.000
215.84	-2750.000
216.22	1466.667
216.59	307.143
216.97	1125.000
217.34	372.727
217.72	-633.333
218.09	0.000
218.47	-4200.000
218.84	588.889
219.22	642.857
219.59	1500.000
219.97	-542.857
220.34	740.000
220.72	-1566.667
221.09	457.143
221.47	1175.000
221.84	-616.667
222.22	0.000
222.59	1125.000
222.97	-2400.000
223.34	880.000
223.72	353.846
224.09	1100.000
224.46	2050.000
224.84	-3800.000
225.21	-680.000
225.59	-4200.000
225.96	550.000
226.34	245.000
226.71	2400.000
227.08	500.000
227.46	480.000
227.83	-900.000
228.21	-2000.000
228.58	588.889
228.95	-1650.000
229.33	-2400.000
229.70	1500.000
230.08	685.714
230.45	-720.000
230.82	391.667
231.20	850.000
231.57	585.714
231.95	450.000
232.32	172.727
232.69	372.727
233.07	557.143
233.44	346.154
233.81	-1166.667
234.19	284.211
234.56	425.000
234.93	300.000
235.31	445.455
235.68	261.538
236.05	328.571
236.43	184.848
236.80	210.526
237.17	3600.000
237.55	147.619
237.92	178.571
238.29	223.810
238.67	148.387
239.04	179.310
239.41	133.333
239.79	97.826
240.16	130.952
240.53	111.364
240.91	80.392
241.28	66.000
241.65	96.000
242.02	82.609
242.40	80.645
242.77	83.333
243.14	66.667
243.51	61.798
243.89	50.588
244.26	51.111
244.63	54.839
245.00	51.064
245.38	59.406
245.75	52.336
246.12	47.706
246.49	53.285
246.87	53.600
247.24	46.154
247.61	44.286
247.98	43.791
248.36	39.189
248.73	34.395
249.10	41.401
249.47	37.288
249.84	34.225
250.22	37.968
250.59	34.320
250.96	32.323
251.33	35.071
251.70	36.634
252.08	34.286
252.45	26.009
252.82	29.565
253.19	30.213
253.56	29.804
253.94	26.971
254.31	30.859
254.68	32.692
255.05	28.413
255.42	28.455
255.79	27.574
256.16	28.520
256.54	24.735
256.91	27.046
257.28	22.302
257.65	24.092
258.02	25.155
258.39	25.237
258.76	25.753
259.14	24.107
259.51	27.356
259.88	21.739
260.25	25.076
260.62	24.566
260.99	22.671
261.36	24.625
261.73	24.642
262.10	22.384
262.47	23.099
262.85	24.234
263.22	18.803
263.59	24.217
263.96	22.527
264.33	23.760
264.70	21.579
265.07	21.739
265.44	23.737
265.81	18.735
266.18	21.357
266.55	21.220
266.92	19.656
267.29	22.454
267.66	20.872
268.03	18.182
268.40	22.430
268.77	20.525
269.14	20.045
269.51	17.381
269.88	19.114
270.25	20.316
270.62	21.798
270.99	21.720
271.36	20.386
271.73	18.692
272.10	19.130
272.47	19.785
272.84	21.212
273.21	22.013
273.58	19.651
273.95	18.658
274.32	16.942
274.69	19.486
275.06	19.094
275.43	18.936
275.80	17.034
276.17	19.348
276.54	18.711
276.91	19.170
277.28	19.922
277.65	19.536
278.02	19.048
278.39	21.289
278.76	19.091
279.13	18.868
279.50	18.250
279.87	18.924
280.23	18.962
280.60	16.634
280.97	18.299
281.34	18.938
281.71	17.818
282.08	16.891
282.45	18.000
282.82	18.472
283.19	16.043
283.56	18.246
283.92	18.274
284.29	16.226
284.66	17.786
285.03	15.732
285.40	17.430
285.77	17.845
286.14	17.962
286.51	17.000
286.87	17.949
287.24	18.404
287.61	18.299
287.98	16.396
288.35	17.116
288.72	16.511
289.08	17.997
289.45	17.463
289.82	16.911
290.19	15.071
290.56	17.152
290.93	16.012
291.29	16.564
291.66	15.782
292.03	16.570
292.40	16.740
292.77	15.680
293.13	17.612
293.50	16.910
293.87	14.667
294.24	13.630
294.60	14.847
294.97	15.407
295.34	16.079
295.71	15.909
296.08	15.954
296.44	15.543
296.81	15.852
297.18	16.260
297.55	15.567
297.91	15.567
298.28	15.930
298.65	15.405
299.02	16.996
299.38	14.741
299.75	12.534
300.12	15.070
300.48	13.875
300.85	14.057
301.22	13.885
301.59	12.879
301.95	14.861
302.32	13.350
302.69	14.934
303.05	14.424
303.42	15.309
303.79	15.062
304.15	13.636
304.52	12.862
304.89	14.634
305.25	14.501
305.62	15.515
305.99	14.640
306.35	15.213
306.72	15.135
307.09	15.649
307.45	14.527
307.82	14.286
308.19	16.225
308.55	15.210
308.92	14.930
309.29	14.678
309.65	14.316
310.02	15.645
310.38	14.409
310.75	15.945
311.12	15.967
311.48	15.987
311.85	16.876
312.22	15.088
312.58	14.969
312.95	16.156
313.31	14.369
313.68	17.048
314.05	16.568
314.41	16.583
314.78	15.609
315.14	16.683
315.51	16.581
315.87	16.535
316.24	16.286
316.61	16.472
316.97	15.656
317.34	16.438
317.70	16.444
318.07	16.073
318.43	16.536
318.80	16.495
319.16	16.761
319.53	15.666
319.89	17.429
320.26	18.600
320.62	18.155
320.99	17.980
321.35	17.172
321.72	17.659
322.08	19.151
322.45	19.602
322.81	18.314
323.18	18.593
323.54	18.367
323.91	19.811
324.27	17.878
324.64	17.055
325.00	17.493
325.37	18.744
325.73	18.671
326.10	18.535
326.46	18.100
326.83	19.413
327.19	20.068
327.56	18.902
327.92	19.160
328.29	19.787
328.65	19.613
329.01	19.946
329.38	19.056
329.74	19.760
330.11	20.735
330.47	19.927
330.84	21.232
331.20	19.399
331.56	20.183
331.93	20.000
332.29	19.698
332.66	20.000
333.02	18.921
333.38	18.428
333.75	20.053
334.11	20.819
334.48	19.698
334.84	20.588
335.20	18.818
335.57	20.671
335.93	17.946
336.29	20.421
336.66	19.206
337.02	19.186
337.38	19.444
337.75	20.677
338.11	19.248
338.47	18.969
338.84	19.982
339.20	19.266
339.56	20.894
339.93	18.545
340.29	18.659
340.65	19.340
341.02	20.942
341.38	19.662
341.74	20.965
342.11	19.301
342.47	20.352
342.83	18.408
343.20	20.346
343.56	19.208
343.92	20.088
344.28	19.728
344.65	18.745
345.01	19.865
345.37	18.696
345.73	20.135
346.10	19.693
346.46	20.593
346.82	20.346
347.19	19.632
347.55	19.622
347.91	20.307
348.27	20.378
348.63	19.732
349.00	20.631
349.36	20.033
349.72	20.209
350.08	19.125
350.45	20.830
350.81	19.659
351.17	20.421
351.53	19.738
351.89	19.307
352.26	19.653
352.62	19.647
352.98	19.773
353.34	20.296
353.70	18.576
354.07	20.081
354.43	18.095
354.79	19.630
355.15	19.393
355.51	20.304
355.87	20.163
356.24	20.603
356.60	19.326
356.96	18.986
357.32	19.542
357.68	19.685
358.04	20.269
358.40	20.744
358.77	19.484
359.13	19.100
359.49	20.392
359.85	18.968
360.21	19.458
360.57	19.767
360.93	19.923
361.29	19.048
361.66	20.511
362.02	19.030
362.38	19.848
362.74	19.643
363.10	17.987
363.46	19.296
363.82	20.257
364.18	19.457
364.54	20.208
364.90	20.113
365.26	19.191
365.62	20.234
365.98	19.722
366.35	19.699
366.71	21.186
367.07	19.956
367.43	20.102
367.79	20.271
368.15	20.402
368.51	18.677
368.87	21.699
369.23	19.971
369.59	20.854
369.95	20.147
370.31	19.658
370.67	20.217
371.03	20.524
371.39	20.627
371.75	20.809
372.11	19.701
372.47	20.821
372.83	21.037
373.19	20.809
373.55	19.069
373.91	21.355
374.27	19.313
374.63	19.491
374.99	21.116
375.35	20.028
375.71	19.740
376.07	20.782
376.42	20.564
376.78	20.676
377.14	20.217
377.50	20.199
377.86	20.013
378.22	20.860
378.58	19.987
378.94	20.113
379.30	20.992
379.66	20.622
380.02	20.946
380.38	19.429
380.74	20.768
381.09	20.232
381.45	20.160
381.81	20.700
382.17	20.127
382.53	20.252
382.89	20.926
383.25	20.263
383.61	21.190
383.97	20.075
384.32	19.838
384.68	20.322
385.04	19.852
385.40	20.557
385.76	20.270
386.12	21.049
386.48	20.579
386.83	20.975
387.19	21.645
387.55	20.470
387.91	19.105
388.27	20.172
388.62	20.897
388.98	21.069
389.34	20.588
389.70	20.723
390.06	21.229
390.42	20.882
390.77	20.865
391.13	20.549
391.49	21.320
391.85	20.751
392.20	20.189
392.56	20.518
392.92	20.777
393.28	19.882
393.64	20.504
393.99	20.892
394.35	20.347
394.71	20.828
395.07	20.623
395.42	20.890
395.78	20.356
396.14	20.670
396.50	21.241
396.85	20.089
397.21	19.729
397.57	20.521
397.92	20.793
398.28	20.179
398.64	20.789
399.00	20.761
399.35	20.192
399.71	20.370
400.07	20.639
400.42	20.368
400.78	21.411
401.14	20.671
401.49	20.657
401.85	20.206
402.21	20.240
402.57	20.543
402.92	20.744
403.28	21.174
403.63	20.359
403.99	20.191
404.35	20.061
404.70	20.983
405.06	20.210
405.42	20.212
405.77	20.857
406.13	19.921
406.49	19.811
406.84	20.732
407.20	19.563
407.55	20.804
407.91	20.467
408.27	20.294
408.62	19.868
408.98	20.159
409.34	19.988
409.69	21.226
410.05	19.765
410.40	20.306
410.76	19.235
411.11	19.421
411.47	20.128
411.83	20.159
412.18	20.284
412.54	20.299
412.89	20.181
413.25	20.366
413.60	19.580
413.96	19.794
414.31	20.231
414.67	20.469
415.03	19.868
415.38	19.845
415.74	20.450
416.09	19.268
416.45	19.746
416.80	20.687
417.16	20.107
417.51	20.703
417.87	19.011
418.22	20.126
418.58	20.400
418.93	20.455
419.29	20.115
419.64	19.899
420.00	19.634
420.35	20.406
420.71	20.143
421.06	19.391
421.42	19.766
421.77	20.348
422.12	19.820
422.48	19.374
422.83	20.035
423.19	19.392
423.54	20.023
423.90	19.884
424.25	20.101
424.61	19.643
424.96	19.825
425.31	19.878
425.67	19.607
426.02	19.086
426.38	20.696
426.73	19.602
427.09	19.574
427.44	19.954
427.79	19.666
428.15	20.357
428.50	19.310
428.85	20.203
429.21	19.382
429.56	19.233
429.92	19.678
430.27	18.868
430.62	18.996
430.98	19.564
431.33	20.309
431.68	19.581
432.04	19.542
432.39	19.646
432.74	20.646
433.10	20.091
433.45	20.641
433.80	19.013
434.16	20.032
434.51	19.474
434.86	19.555
435.22	19.511
435.57	20.365
435.92	20.421
436.28	19.870
436.63	21.468
436.98	18.317
437.34	19.857
437.69	20.478
438.04	20.067
438.39	20.358
438.75	20.046
439.10	20.056
439.45	19.717
439.81	19.637
440.16	19.593
440.51	19.566
440.86	19.977
441.22	19.355
441.57	19.480
441.92	20.061
442.27	19.537
442.63	19.431
442.98	20.282
443.33	19.511
443.68	19.824
444.03	19.327
444.39	19.036
444.74	19.589
445.09	19.299
445.44	19.792
445.79	19.842
446.15	19.958
446.50	19.548
446.85	19.527
447.20	20.245
447.55	19.486
447.91	20.353
448.26	19.978
448.61	20.011
448.96	19.657
449.31	20.641
449.66	20.259
450.02	19.721
450.37	19.501
450.72	19.346
451.07	19.805
451.42	19.149
451.77	19.965
452.12	20.670
452.47	20.398
452.83	20.688
453.18	19.682
453.53	20.841
453.88	19.728
454.23	20.741
454.58	21.139
454.93	20.025
455.28	19.389
455.63	20.267
455.98	20.595
456.34	20.163
456.69	20.914
457.04	20.186
457.39	20.339
457.74	19.907
458.09	20.357
458.44	19.612
458.79	18.330
459.14	20.316
459.49	19.965
459.84	20.222
460.19	20.094
460.54	19.329
460.89	19.419
461.24	19.854
461.59	21.034
461.94	20.160
462.29	20.297
462.64	20.549
462.99	20.169
463.34	20.933
463.69	19.762
464.04	19.826
464.39	19.362
464.74	19.608
465.09	18.938
465.44	19.723
465.79	18.736
466.14	19.431
466.49	19.466
466.84	19.848
467.19	20.217
467.54	20.187
467.89	19.688
468.24	20.186
468.59	21.123
468.94	19.731
469.29	19.859
469.64	20.348
469.99	21.177
470.34	19.815
470.68	20.905
471.03	19.728
471.38	20.083
471.73	21.119
472.08	21.184
472.43	20.477
472.78	20.408
473.13	20.282
473.48	20.100
473.83	19.756
474.17	19.477
474.52	19.913
474.87	20.607
475.22	20.488
475.57	19.076
475.92	19.596
476.27	18.828
476.61	18.809
476.96	18.747
477.31	19.048
477.66	20.569
478.01	18.610
478.36	19.143
478.70	18.640
479.05	18.530
479.40	18.936
479.75	19.268
480.10	18.787
480.45	18.658
480.79	18.204
481.14	18.542
481.49	18.415
481.84	18.427
482.19	19.037
482.53	18.486
482.88	19.404
483.23	18.738
483.58	19.609
483.92	18.135
484.27	17.429
484.62	18.319
484.97	17.895
485.31	17.603
485.66	16.593
486.01	15.807
486.36	15.646
486.70	15.941
487.05	16.171
487.40	16.471
487.75	17.278
488.09	17.834
488.44	17.512
488.79	18.336
489.13	18.411
489.48	18.108
489.83	18.300
490.17	19.027
490.52	17.626
490.87	17.820
491.22	18.236
491.56	17.995
491.91	18.474
492.26	17.823
492.60	18.756
492.95	18.803
493.30	18.364
493.64	18.619
493.99	18.524
494.34	18.918
494.68	18.956
495.03	18.891
495.37	18.567
495.72	17.690
496.07	18.747
496.41	17.389
496.76	18.162
497.11	17.965
497.45	18.305
497.80	18.570
498.14	18.309
498.49	18.195
498.84	18.696
499.18	18.238
499.53	18.091
499.87	18.733
500.22	18.747
500.56	18.786
500.91	17.837
501.26	18.350
501.60	18.510
501.95	17.874
502.29	18.322
502.64	18.063
502.98	18.607
503.33	17.733
503.67	17.958
504.02	18.662
504.36	18.250
504.71	18.661
505.06	18.506
505.40	18.376
505.75	18.129
506.09	18.513
506.44	17.958
506.78	18.217
507.13	18.375
507.47	18.535
507.82	18.288
508.16	18.389
508.51	18.163
508.85	18.769
509.19	18.367
509.54	18.520
509.88	18.032
510.23	18.406
510.57	18.627
510.92	18.747
511.26	18.551
511.61	18.568
511.95	17.589
512.30	18.452
512.64	19.076
512.98	19.346
513.33	19.218
513.67	18.250
514.02	18.344
514.36	18.624
514.70	18.373
515.05	18.293
515.39	18.957
515.74	18.468
516.08	18.726
516.42	19.090
516.77	19.008
517.11	18.757
517.46	18.284
517.80	18.699
518.14	18.992
518.49	19.312
518.83	19.489
519.17	19.284
519.52	18.336
519.86	18.882
520.20	18.960
520.55	19.330
520.89	19.708
521.23	19.542
521.58	19.208
521.92	19.535
522.26	19.036
522.61	19.813
522.95	19.644
523.29	18.929
523.64	19.329
523.98	19.901
524.32	19.421
524.66	18.701
525.01	19.056
525.35	19.207
525.69	18.842
526.04	19.439
526.38	19.097
526.72	19.202
527.06	19.083
527.41	18.502
527.75	19.164
528.09	19.075
528.43	19.567
528.78	18.992
529.12	18.909
529.46	18.800
529.80	19.121
530.15	19.065
530.49	18.462
530.83	19.177
531.17	19.452
531.51	19.520
531.86	18.581
532.20	19.687
532.54	19.795
532.88	18.678
533.22	17.739
533.57	19.198
533.91	17.640
534.25	18.651
534.59	18.670
534.93	18.322
535.27	17.864
535.62	18.315
535.96	19.648
536.30	18.818
536.64	18.609
536.98	18.115
537.32	18.762
537.66	18.800
538.01	18.170
538.35	18.423
538.69	18.698
539.03	18.648
539.37	17.891
539.71	17.498
540.05	18.431
540.39	18.073
540.73	17.853
541.07	18.040
541.42	17.743
541.76	19.161
542.10	18.499
542.44	17.086
542.78	19.368
543.12	17.594
543.46	19.016
543.80	17.827
544.14	16.175
544.48	17.143
544.82	17.704
545.16	18.152
545.50	17.545
545.84	17.204
546.18	17.104
546.52	18.445
546.86	18.007
547.20	18.881
547.54	17.502
547.88	18.941
548.22	17.123
548.56	17.736
548.90	17.157
549.24	17.845
549.58	18.145
549.92	18.338
550.26	17.685
550.60	17.842
550.94	18.239
551.28	17.557
551.62	18.404
551.96	16.772
552.30	18.020
552.64	17.850
552.98	17.831
553.32	18.341
553.66	18.337
554.00	17.845
554.34	18.496
554.68	18.383
555.02	17.489
555.36	18.232
555.69	17.659
556.03	17.833
556.37	18.008
556.71	18.145
557.05	17.227
557.39	18.055
557.73	17.572
558.07	17.549
558.41	17.945
558.75	18.295
559.08	17.897
559.42	17.838
559.76	18.824
560.10	18.415
560.44	17.261
560.78	17.432
561.12	17.678
561.45	17.666
561.79	17.205
562.13	17.304
562.47	17.555
562.81	16.736
563.15	17.191
563.48	17.905
563.82	17.156
564.16	15.958
564.50	15.885
564.84	16.877
565.17	17.053
565.51	16.677
565.85	16.942
566.19	16.093
566.52	16.846
566.86	17.058
567.20	16.686
567.54	16.381
567.88	15.046
568.21	16.508
568.55	15.875
568.89	15.029
569.23	14.929
569.56	14.737
569.90	14.377
570.24	14.209
570.57	14.281
570.91	13.575
571.25	13.959
571.59	13.490
571.92	13.508
572.26	13.634
572.60	13.694
572.93	13.433
573.27	13.990
573.61	13.149
573.95	13.256
574.28	12.940
574.62	12.852
574.96	12.640
575.29	12.973
575.63	13.186
575.97	12.965
576.30	13.595
576.64	12.889
576.98	12.956
577.31	12.569
577.65	12.573
577.98	12.163
578.32	12.172
578.66	12.369
578.99	12.691
579.33	12.781
579.67	12.625
580.00	12.755
580.34	13.028
580.67	12.125
581.01	12.750
581.35	11.966
581.68	12.051
582.02	11.859
582.35	11.971
582.69	12.431
583.02	12.199
583.36	12.497
583.70	12.712
584.03	12.330
584.37	13.070
584.70	12.513
585.04	12.671
585.37	12.535
585.71	12.688
586.04	12.733
586.38	12.644
586.72	12.980
587.05	12.415
587.39	12.058
587.72	12.342
588.06	12.487
588.39	12.949
588.73	12.819
589.06	13.587
589.40	13.636
589.73	13.164
590.07	13.274
590.40	13.445
590.73	13.349
591.07	13.838
591.40	14.129
591.74	14.069
592.07	13.394
592.41	13.435
592.74	13.333
593.08	13.225
593.41	12.654
593.75	12.555
594.08	13.141
594.41	13.008
594.75	13.050
595.08	12.921
595.42	13.310
595.75	12.892
596.09	13.443
596.42	14.224
596.75	13.550
597.09	13.723
597.42	12.901
597.75	13.540
598.09	13.739
598.42	13.746
598.76	13.052
599.09	12.999
599.42	12.991
599.76	13.067
600.09	12.605
600.42	12.893
600.76	12.679
601.09	12.787
601.42	12.747
601.76	13.169
602.09	13.478
602.42	13.654
602.76	13.624
603.09	13.375
603.42	13.042
603.76	12.424
604.09	12.796
604.42	13.371
604.76	13.665
605.09	13.106
605.42	12.912
605.75	13.328
606.09	12.769
606.42	12.873
606.75	13.231
607.09	13.353
607.42	13.008
607.75	13.122
608.08	13.070
608.42	13.537
608.75	12.759
609.08	13.922
609.41	13.613
609.75	13.340
610.08	13.101
610.41	13.361
610.74	12.961
611.07	12.994
611.41	14.033
611.74	13.876
612.07	14.130
612.40	13.641
612.73	13.947
613.07	13.739
613.40	14.376
613.73	13.162
614.06	13.441
614.39	13.949
614.72	13.789
615.06	14.128
615.39	13.270
615.72	13.548
616.05	13.238
616.38	13.952
616.71	13.895
617.05	14.605
617.38	13.951
617.71	13.574
618.04	14.062
618.37	14.134
618.70	14.686
619.03	14.737
619.36	14.596
619.69	15.845
620.03	15.247
620.36	15.040
620.69	15.890
621.02	15.708
621.35	15.192
621.68	15.187
622.01	15.402
622.34	14.826
622.67	15.817
623.00	14.307
623.33	14.296
623.66	14.868
623.99	14.580
624.32	14.622
624.65	15.254
624.99	14.164
625.32	14.410
625.65	14.876
625.98	15.142
626.31	15.863
626.64	15.918
626.97	16.542
627.30	15.129
627.63	16.653
627.96	15.559
628.29	15.573
628.62	16.468
628.95	17.358
629.28	16.241
629.61	17.507
629.94	16.381
630.26	17.255
630.59	17.064
630.92	16.667
631.25	16.288
631.58	17.117
631.91	15.517
632.24	17.089
632.57	16.789
632.90	16.557
633.23	16.890
633.56	17.627
633.89	17.554
634.22	17.707
634.55	18.225
634.88	16.168
635.20	17.802
635.53	18.554
635.86	17.574
636.19	17.412
636.52	16.724
636.85	19.473
637.18	17.051
637.51	18.558
637.83	15.536
638.16	19.182
638.49	17.884
638.82	18.963
639.15	18.875
639.48	19.576
639.81	19.839
640.13	20.313
640.46	17.987
640.79	18.626
641.12	17.607
641.45	19.134
641.77	18.999
642.10	19.444
642.43	19.520
642.76	20.279
643.09	18.252
643.41	20.334
643.74	20.216
644.07	18.293
644.40	20.552
644.73	19.528
645.05	20.444
645.38	20.379
645.71	19.646
646.04	19.934
646.36	21.369
646.69	20.067
647.02	20.408
647.35	21.821
647.67	20.177
648.00	19.837
648.33	18.812
648.66	18.333
648.98	20.090
649.31	18.685
649.64	19.283
649.96	18.778
650.29	21.011
650.62	19.741
650.94	20.908
651.27	19.595
651.60	21.298
651.92	20.447
652.25	18.730
652.58	18.692
652.90	19.747
653.23	18.336
653.56	19.370
653.88	20.127
654.21	18.957
654.54	17.657
654.86	20.405
655.19	16.892
655.52	10.460
655.84	8.098
656.17	10.113
656.49	13.526
656.82	13.546
657.15	10.609
657.47	7.977
657.80	6.328
658.13	6.639
658.45	10.220
658.78	10.542
659.10	11.205
659.43	12.083
659.75	12.729
660.08	13.924
660.41	16.201
660.73	18.424
661.06	20.701
661.38	21.091
661.71	20.769
662.03	23.077
662.36	22.068
662.68	19.679
663.01	19.798
663.33	18.896
663.66	21.008
663.98	20.950
664.31	19.748
664.63	22.470
664.96	20.724
665.28	22.746
665.61	20.273
665.93	19.316
666.26	20.081
666.58	20.711
666.91	22.833
667.23	22.697
667.56	20.086
667.88	21.795
668.21	26.652
668.53	19.089
668.86	19.481
669.18	24.307
669.50	21.304
669.83	22.440
670.15	20.667
670.48	21.569
670.80	22.198
671.13	23.567
671.45	20.851
671.77	23.014
672.10	21.257
672.42	17.845
672.75	21.393
673.07	19.542
673.39	17.722
673.72	18.555
674.04	19.020
674.37	18.835
674.69	19.427
675.01	18.410
675.34	22.793
675.66	22.737
675.98	21.792
676.31	19.958
676.63	21.656
676.95	19.916
677.28	19.159
677.60	21.099
677.92	21.519
678.25	20.945
678.57	19.721
678.89	18.637
679.22	19.253
679.54	17.939
679.86	20.917
680.18	17.889
680.51	18.262
680.83	20.996
681.15	20.377
681.48	20.038
681.80	19.342
682.12	21.456
682.44	19.536
682.77	21.792
683.09	24.034
683.41	19.956
683.73	22.296
684.06	21.694
684.38	18.395
684.70	19.574
685.02	18.199
685.34	19.597
685.67	17.133
685.99	17.354
686.31	16.382
686.63	16.608
686.96	18.036
687.28	16.065
687.60	16.667
687.92	20.658
688.24	17.681
688.56	20.683
688.89	19.917
689.21	22.926
689.53	22.338
689.85	22.395
690.17	20.911
690.49	21.868
690.82	19.860
691.14	18.304
691.46	19.198
691.78	21.486
692.10	21.694
692.42	22.156
692.74	20.539
693.06	19.787
693.39	20.329
693.71	18.777
694.03	20.421
694.35	19.048
694.67	21.053
694.99	20.976
695.31	19.363
695.63	20.096
695.95	22.983
696.27	16.244
696.59	20.466
696.91	20.207
697.23	16.667
697.56	22.388
697.88	17.382
698.20	18.333
698.52	18.925
698.84	19.822
699.16	20.737
699.48	23.278
699.80	20.290
700.12	24.416
700.44	26.790
700.76	20.718
701.08	25.287
701.40	26.536
701.72	25.364
702.04	27.273
702.36	20.963
702.68	19.547
703.00	24.100
703.32	18.617
703.64	19.035
703.96	20.891
704.28	23.256
704.60	26.393
704.91	24.036
705.23	24.047
705.55	28.904
705.87	29.900
706.19	26.502
706.51	25.857
706.83	24.848
707.15	26.331
707.47	22.222
707.79	24.079
708.11	22.374
708.43	19.524
708.74	18.622
709.06	23.636
709.38	24.147
709.70	23.547
710.02	26.706
710.34	21.515
710.66	27.164
710.98	23.011
711.29	25.291
711.61	27.139
711.93	23.397
712.25	26.688
712.57	28.309
712.89	24.913
713.20	25.532
713.52	23.355
713.84	22.785
714.16	20.732
714.48	23.851
714.80	27.052
715.11	22.190
715.43	20.772
715.75	21.159
716.07	21.086
716.39	24.765
716.70	26.578
717.02	29.137
717.34	26.855
717.66	28.731
717.97	29.880
718.29	27.407
718.61	27.372
718.93	28.309
719.24	25.952
719.56	23.051
719.88	25.763
720.20	29.054
720.51	24.739
720.83	24.164
721.15	25.746
721.46	27.305
721.78	24.014
722.10	27.547
722.42	28.947
722.73	25.468
723.05	27.049
723.37	25.506
723.68	30.502
724.00	25.610
724.32	24.194
724.63	27.642
724.95	24.268
725.27	30.364
725.58	27.344
725.90	27.372
726.22	26.415
726.53	22.222
726.85	24.573
727.16	25.267
727.48	22.695
727.80	25.758
728.11	25.725
728.43	25.385
728.74	25.448
729.06	25.547
729.38	27.941
729.69	30.961
730.01	22.184
730.32	24.653
730.64	27.425
730.96	24.752
731.27	27.483
731.59	25.994
731.90	23.615
732.22	23.602
732.53	19.195
732.85	22.436
733.16	24.116
733.48	25.249
733.80	22.403
734.11	25.478
734.43	21.598
734.74	23.714
735.06	19.771
735.37	25.434
735.69	18.790
736.00	24.183
736.32	25.234
736.63	21.406
736.95	23.323
737.26	19.728
737.58	20.000
737.89	28.428
738.21	23.891
738.52	27.143
738.83	24.528
739.15	21.923
739.46	24.453
739.78	22.569
740.09	23.692
740.41	21.935
740.72	22.648
741.04	26.296
741.35	24.583
741.66	32.000
741.98	27.358
742.29	30.622
742.61	35.345
742.92	27.149
743.23	27.350
743.55	31.200
743.86	24.123
744.18	35.841
744.49	29.187
744.80	30.047
745.12	32.273
745.43	26.432
745.74	32.883
746.06	27.523
746.37	35.874
746.68	33.032
747.00	27.778
747.31	26.190
747.62	27.434
747.94	33.040
748.25	24.255
748.56	31.278
748.88	29.703
749.19	33.000
749.50	32.093
749.82	27.236
750.13	21.224
750.44	25.547
750.75	28.772
751.07	25.723
751.38	27.875
751.69	24.549
752.01	23.308
752.32	23.827
752.63	26.241
752.94	23.770
753.26	34.800
753.57	21.138
753.88	26.562
754.19	28.214
754.51	27.431
754.82	24.188
755.13	25.283
755.44	19.925
755.75	27.737
756.07	20.567
756.38	21.168
756.69	21.141
757.00	22.156
757.31	21.365
757.63	19.591
757.94	20.643
758.25	18.137
758.56	19.506
758.87	18.011
759.18	22.424
759.50	21.630
759.81	19.938
760.12	21.250
760.43	22.636
760.74	21.196
761.05	19.492
761.36	20.053
761.67	19.034
761.99	21.739
762.30	21.528
762.61	23.664
762.92	27.344
763.23	23.950
763.54	30.000
763.85	26.953
764.16	25.769
764.47	27.376
764.78	23.322
765.10	19.620
765.41	20.944
765.72	22.754
766.03	23.197
766.34	21.333
766.65	26.809
766.96	26.068
767.27	28.934
767.58	27.083
767.89	35.789
768.20	39.655
768.51	31.980
768.82	26.147
769.13	26.423
769.44	19.838
769.75	27.897
770.06	20.642
770.37	27.149
770.68	26.852
770.99	28.889
771.30	29.098
771.61	29.596
771.92	25.410
772.23	31.933
772.54	33.333
772.85	32.461
773.16	37.766
773.47	37.500
773.78	34.010
774.09	30.952
774.39	36.842
774.70	37.037
775.01	36.957
775.32	43.137
775.63	44.079
775.94	43.165
776.25	48.819
776.56	50.000
776.87	56.557
777.18	46.094
777.48	54.198
777.79	50.758
778.10	45.926
778.41	48.214
778.72	40.146
779.03	40.268
779.34	43.624
779.65	29.730
779.95	37.423
780.26	45.752
780.57	44.828
780.88	49.219
781.19	39.850
781.50	44.595
781.80	45.283
782.11	30.508
782.42	31.013
782.73	35.583
783.04	40.541
783.34	43.662
783.65	49.315
783.96	44.030
784.27	31.469
784.57	33.094
784.88	37.037
785.19	43.651
785.50	48.113
785.81	43.284
786.11	40.984
786.42	42.636
786.73	49.558
787.04	48.113
787.34	42.857
787.65	56.000
787.96	42.342
788.26	41.322
788.57	50.847
788.88	53.719
789.19	40.278
789.49	48.485
789.80	41.985
790.11	56.190
790.41	49.505
790.72	51.807
791.03	46.739
791.33	55.814
791.64	57.732
791.95	56.436
792.25	55.556
792.56	68.831
792.87	64.103
793.17	81.013
793.48	73.563
793.79	63.218
794.09	59.091
794.40	44.538
794.70	48.529
795.01	29.630
795.32	35.971
795.62	50.394
795.93	48.276
796.23	53.097
796.54	47.059
796.85	51.351
797.15	81.690
797.46	63.636
797.76	77.108
798.07	73.418
798.37	61.538
798.68	68.182
798.99	54.930
799.29	55.844
799.60	59.091
799.90	67.123
800.21	88.060
800.51	70.690
800.82	75.439
801.12	91.803
801.43	77.273
801.73	71.622
802.04	73.016
802.34	69.136
802.65	68.750
802.95	81.356
803.26	78.125
803.56	61.429
803.87	86.154
804.17	83.824
804.48	94.444
804.78	74.138
805.09	83.824
805.39	80.769
805.70	91.071
806.00	95.082
806.30	57.576
806.61	62.195
806.91	55.696
807.22	65.789
807.52	59.701
807.83	73.239
808.13	65.625
808.43	83.333
808.74	57.895
809.04	60.870
809.35	73.134
809.65	77.632
809.95	95.161
810.26	71.186
810.56	84.127
810.86	122.727
811.17	128.571
811.47	95.000
811.77	94.444
812.08	87.273
812.38	112.000
812.69	144.444
812.99	134.091
813.29	104.082
813.59	76.190
813.90	93.878
814.20	92.727
814.50	75.385
814.81	76.471
815.11	81.633
815.41	91.803
815.72	100.000
816.02	101.818
816.32	121.429
816.62	110.000
816.93	114.634
817.23	133.333
817.53	120.455
817.84	124.242
818.14	113.043
818.44	102.222
818.74	141.176
819.04	110.000
819.35	122.857
819.65	176.471
819.95	125.000
820.25	140.000
820.56	161.538
820.86	106.818
821.16	118.605
821.46	100.000
821.76	120.000
822.07	125.714
822.37	132.500
822.67	145.455
822.97	117.647
823.27	175.000
823.57	121.622
823.88	147.500
824.18	176.667
824.48	133.333
824.78	172.000
825.08	154.167
825.38	124.324
825.69	102.439
825.99	183.333
826.29	110.345
826.59	131.579
826.89	134.211
827.19	150.000
827.49	158.065
827.79	122.727
828.09	120.455
828.39	104.255
828.70	106.122
829.00	162.963
829.30	129.032
829.60	122.500
829.90	286.667
830.20	171.429
830.50	182.609
830.80	182.609
831.10	170.000
831.40	143.333
831.70	169.565
832.00	200.000
832.30	166.667
832.60	218.750
832.90	193.333
833.20	357.143
833.50	196.774
833.80	162.069
834.10	178.125
834.40	223.077
834.70	261.111
835.00	228.571
835.30	165.714
835.60	238.462
835.90	151.724
836.20	242.857
836.50	144.828
836.80	168.000
837.10	127.778
837.40	204.762
837.70	288.235
838.00	196.296
838.30	228.571
838.60	261.905
838.90	184.615
839.19	250.000
839.49	371.429
839.79	285.000
840.09	245.000
840.39	219.048
840.69	208.696
840.99	211.111
841.29	420.000
841.59	250.000
841.88	312.500
842.18	158.621
842.48	252.381
842.78	170.000
843.08	208.696
843.38	150.000
843.68	766.667
843.97	192.308
844.27	168.966
844.57	280.952
844.87	331.250
845.17	196.296
845.47	1233.333
845.76	455.556
846.06	300.000
846.36	475.000
846.66	242.857
846.96	250.000
847.25	336.364
847.55	354.545
847.85	256.522
848.15	470.000
848.44	350.000
848.74	227.778
849.04	276.471
849.34	460.000
849.63	247.368
849.93	272.727
850.23	900.000
850.53	364.286
850.82	2050.000
851.12	-4000.000
851.42	4300.000
851.71	220.000
852.01	-733.333
852.31	229.167
852.61	1666.667
852.90	247.619
853.20	248.000
853.50	335.294
853.79	200.000
854.09	175.000
854.39	237.500
854.68	159.459
854.98	161.290
855.28	183.333
855.57	200.000
855.87	170.370
856.17	200.000
856.46	160.000
856.76	241.176
857.05	162.069
857.35	233.333
857.65	233.333
857.94	243.478
858.24	200.000
858.53	170.000
858.83	281.818
859.13	373.333
859.42	0.000
859.72	488.889
860.01	454.545
860.31	195.455
860.60	268.421
860.90	226.087
861.20	433.333
861.49	391.667
861.79	-4300.000
862.08	612.500
862.38	300.000
862.67	276.923
862.97	305.882
863.26	366.667
863.56	261.111
863.85	366.667
864.15	400.000
864.44	293.333
864.74	800.000
865.03	575.000
865.33	236.842
865.62	263.636
865.92	369.231
866.21	391.667
866.51	0.000
866.80	400.000
867.10	1000.000
867.39	400.000
867.69	390.909
867.98	247.368
868.27	436.364
868.57	236.842
868.86	-3400.000
869.16	306.250
869.45	2000.000
869.75	-3400.000
870.04	350.000
870.33	600.000
870.63	725.000
870.92	2400.000
871.22	628.571
871.51	276.471
871.80	166.667
872.10	300.000
>>>>>End Processed Spectral Data<<<<<
