SpectraSuite Data File
++++++++++++++++++++++++++++++++++++
Date: Wed May 13 20:26:36 PDT 2015
User: schluterlab
Dark Spectrum Present: Yes
Reference Spectrum Present: Yes
Number of Sampled Component Spectra: 1
Spectrometers: USB2E3373
Integration Time (usec): 3000 (USB2E3373)
Spectra Averaged: 3 (USB2E3373)
Boxcar Smoothing: 0 (USB2E3373)
Correct for Electrical Dark: No (USB2E3373)
Strobe/Lamp Enabled: No (USB2E3373)
Correct for Detector Non-linearity: No (USB2E3373)
Correct for Stray Light: No (USB2E3373)
Number of Pixels in Processed Spectrum: 2048
>>>>>Begin Processed Spectral Data<<<<<
178.53	0.000
178.91	-1150.000
179.29	-1175.000
179.67	-216.667
180.04	-1075.000
180.42	2300.000
180.80	940.000
181.18	-900.000
181.56	600.000
181.94	0.000
182.31	-500.000
182.69	1566.667
183.07	-550.000
183.45	-477.778
183.83	363.636
184.20	-380.000
184.58	1850.000
184.96	4500.000
185.34	-700.000
185.72	-525.000
186.09	-1900.000
186.47	2150.000
186.85	1550.000
187.23	4500.000
187.61	-1633.333
187.98	975.000
188.36	500.000
188.74	454.545
189.12	-700.000
189.49	510.000
189.87	-4300.000
190.25	-950.000
190.63	407.143
191.00	400.000
191.38	666.667
191.76	-1150.000
192.14	1050.000
192.51	587.500
192.89	883.333
193.27	612.500
193.65	-1050.000
194.02	490.000
194.40	900.000
194.78	530.000
195.15	400.000
195.53	540.000
195.91	-1450.000
196.29	350.000
196.66	289.474
197.04	-200.000
197.42	0.000
197.79	530.000
198.17	-5000.000
198.55	642.857
198.92	462.500
199.30	820.000
199.68	0.000
200.05	305.556
200.43	642.857
200.81	3700.000
201.18	1433.333
201.56	-1133.333
201.94	522.222
202.31	522.222
202.69	441.667
203.07	460.000
203.44	0.000
203.82	1275.000
204.19	557.143
204.57	450.000
204.95	587.500
205.32	1366.667
205.70	445.455
206.08	385.714
206.45	2100.000
206.83	331.250
207.20	716.667
207.58	760.000
207.96	294.444
208.33	700.000
208.71	-833.333
209.08	657.143
209.46	533.333
209.84	454.545
210.21	-1433.333
210.59	1325.000
210.96	-512.500
211.34	2300.000
211.71	480.000
212.09	833.333
212.46	0.000
212.84	1833.333
213.22	1200.000
213.59	-5200.000
213.97	766.667
214.34	728.571
214.72	609.091
215.09	940.000
215.47	-1750.000
215.84	-2650.000
216.22	1633.333
216.59	350.000
216.97	1125.000
217.34	390.909
217.72	-683.333
218.09	0.000
218.47	-4200.000
218.84	588.889
219.22	642.857
219.59	1800.000
219.97	-557.143
220.34	900.000
220.72	-1400.000
221.09	400.000
221.47	1300.000
221.84	-650.000
222.22	0.000
222.59	1500.000
222.97	-1750.000
223.34	800.000
223.72	392.308
224.09	960.000
224.46	1950.000
224.84	-4600.000
225.21	-800.000
225.59	-3700.000
225.96	560.000
226.34	240.000
226.71	2350.000
227.08	525.000
227.46	450.000
227.83	-925.000
228.21	-1800.000
228.58	500.000
228.95	-2350.000
229.33	-2050.000
229.70	1366.667
230.08	728.571
230.45	-880.000
230.82	433.333
231.20	666.667
231.57	728.571
231.95	466.667
232.32	213.636
232.69	418.182
233.07	514.286
233.44	353.846
233.81	-1400.000
234.19	284.211
234.56	300.000
234.93	375.000
235.31	436.364
235.68	361.538
236.05	335.714
236.43	157.576
236.80	268.421
237.17	5200.000
237.55	257.143
237.92	203.571
238.29	261.905
238.67	177.419
239.04	200.000
239.41	141.667
239.79	119.565
240.16	150.000
240.53	120.455
240.91	107.843
241.28	110.000
241.65	112.000
242.02	86.957
242.40	101.613
242.77	100.000
243.14	83.871
243.51	98.876
243.89	74.118
244.26	73.333
244.63	64.516
245.00	73.404
245.38	75.248
245.75	69.159
246.12	57.798
246.49	75.182
246.87	68.000
247.24	67.692
247.61	57.857
247.98	60.784
248.36	52.027
248.73	57.325
249.10	64.331
249.47	58.192
249.84	52.406
250.22	50.802
250.59	50.296
250.96	54.545
251.33	54.028
251.70	60.396
252.08	48.571
252.45	51.121
252.82	47.391
253.19	48.511
253.56	49.804
253.94	49.793
254.31	48.438
254.68	50.000
255.05	44.280
255.42	48.780
255.79	48.162
256.16	45.126
256.54	44.876
256.91	48.399
257.28	44.604
257.65	41.584
258.02	44.410
258.39	43.218
258.76	38.796
259.14	41.369
259.51	41.337
259.88	40.062
260.25	43.202
260.62	45.954
260.99	44.720
261.36	42.643
261.73	43.553
262.10	42.733
262.47	40.000
262.85	42.061
263.22	36.467
263.59	41.595
263.96	41.484
264.33	39.687
264.70	43.684
265.07	40.409
265.44	37.121
265.81	36.983
266.18	39.196
266.55	38.780
266.92	41.032
267.29	41.667
267.66	37.156
268.03	39.545
268.40	39.252
268.77	38.663
269.14	39.414
269.51	41.535
269.88	40.093
270.25	37.246
270.62	38.876
270.99	38.925
271.36	36.266
271.73	38.551
272.10	39.348
272.47	41.075
272.84	37.662
273.21	40.252
273.58	39.738
273.95	36.478
274.32	38.430
274.69	38.758
275.06	35.630
275.43	39.362
275.80	40.281
276.17	35.642
276.54	41.372
276.91	36.364
277.28	37.695
277.65	35.590
278.02	37.888
278.39	38.477
278.76	39.091
279.13	38.868
279.50	37.058
279.87	35.857
280.23	38.922
280.60	34.623
280.97	34.566
281.34	35.752
281.71	37.273
282.08	37.620
282.45	34.727
282.82	34.636
283.19	34.938
283.56	36.316
283.92	38.409
284.29	36.332
284.66	35.753
285.03	36.347
285.40	36.444
285.77	34.680
286.14	35.579
286.51	36.333
286.87	34.017
287.24	36.971
287.61	33.708
287.98	33.766
288.35	35.024
288.72	32.710
289.08	34.116
289.45	34.596
289.82	33.008
290.19	33.281
290.56	32.312
290.93	31.873
291.29	31.902
291.66	31.858
292.03	32.122
292.40	33.921
292.77	32.249
293.13	30.299
293.50	33.236
293.87	31.556
294.24	31.259
294.60	29.694
294.97	31.831
295.34	31.171
295.71	29.687
296.08	29.487
296.44	30.536
296.81	28.402
297.18	29.539
297.55	29.551
297.91	31.003
298.28	30.254
298.65	28.721
299.02	28.986
299.38	28.951
299.75	26.685
300.12	28.097
300.48	27.625
300.85	28.483
301.22	28.790
301.59	27.652
301.95	28.715
302.32	28.626
302.69	28.196
303.05	27.394
303.42	26.173
303.79	26.614
304.15	26.340
304.52	26.999
304.89	26.481
305.25	27.610
305.62	26.840
305.99	27.509
306.35	27.517
306.72	26.345
307.09	27.081
307.45	27.140
307.82	26.339
308.19	26.932
308.55	27.508
308.92	26.745
309.29	25.977
309.65	24.708
310.02	26.850
310.38	27.312
310.75	26.610
311.12	26.714
311.48	27.168
311.85	27.673
312.22	26.119
312.58	26.403
312.95	27.455
313.31	26.019
313.68	28.067
314.05	29.093
314.41	26.030
314.78	27.291
315.14	27.607
315.51	27.600
315.87	28.119
316.24	27.408
316.61	27.388
316.97	27.593
317.34	25.440
317.70	28.394
318.07	26.949
318.43	28.571
318.80	28.304
319.16	27.872
319.53	27.298
319.89	29.333
320.26	29.000
320.62	27.282
320.99	27.879
321.35	28.182
321.72	28.131
322.08	29.121
322.45	30.348
322.81	27.616
323.18	28.035
323.54	29.035
323.91	28.396
324.27	27.725
324.64	27.959
325.00	27.773
325.37	28.935
325.73	29.443
326.10	28.861
326.46	27.330
326.83	28.991
327.19	28.693
327.56	27.787
327.92	28.171
328.29	29.104
328.65	29.558
329.01	27.166
329.38	28.215
329.74	28.070
330.11	29.500
330.47	29.201
330.84	28.952
331.20	27.505
331.56	28.165
331.93	27.315
332.29	27.684
332.66	28.142
333.02	28.154
333.38	27.733
333.75	27.897
334.11	28.470
334.48	27.152
334.84	27.941
335.20	27.909
335.57	27.471
335.93	26.875
336.29	27.106
336.66	28.855
337.02	27.059
337.38	27.778
337.75	25.668
338.11	27.574
338.47	26.888
338.84	28.048
339.20	26.239
339.56	28.102
339.93	25.818
340.29	26.721
340.65	27.005
341.02	28.098
341.38	27.669
341.74	26.404
342.11	27.074
342.47	27.137
342.83	26.027
343.20	26.926
343.56	26.369
343.92	26.140
344.28	26.786
344.65	26.913
345.01	25.842
345.37	25.729
345.73	25.296
346.10	26.087
346.46	26.525
346.82	25.700
347.19	25.230
347.55	26.026
347.91	26.699
348.27	26.952
348.63	26.672
349.00	25.728
349.36	25.123
349.72	25.742
350.08	26.418
350.45	26.200
350.81	25.751
351.17	25.689
351.53	26.618
351.89	24.340
352.26	26.677
352.62	25.421
352.98	25.041
353.34	26.048
353.70	24.714
354.07	24.919
354.43	24.048
354.79	24.537
355.15	24.820
355.51	25.899
355.87	26.286
356.24	25.489
356.60	25.020
356.96	24.537
357.32	25.593
357.68	24.331
358.04	25.574
358.40	25.178
358.77	24.961
359.13	24.862
359.49	24.863
359.85	23.254
360.21	24.880
360.57	25.292
360.93	26.385
361.29	24.868
361.66	24.071
362.02	24.552
362.38	25.247
362.74	24.628
363.10	25.685
363.46	24.725
363.82	24.792
364.18	24.670
364.54	25.334
364.90	24.433
365.26	24.706
365.62	24.836
365.98	24.251
366.35	24.427
366.71	25.163
367.07	24.618
367.43	25.399
367.79	24.697
368.15	24.784
368.51	23.692
368.87	25.767
369.23	25.384
369.59	24.620
369.95	25.294
370.31	24.074
370.67	25.000
371.03	24.719
371.39	25.364
371.75	24.118
372.11	24.467
372.47	25.513
372.83	24.856
373.19	23.410
373.55	24.464
373.91	25.479
374.27	24.261
374.63	24.364
374.99	24.364
375.35	23.796
375.71	24.400
376.07	25.171
376.42	24.553
376.78	24.652
377.14	24.084
377.50	24.238
377.86	23.936
378.22	24.210
378.58	22.932
378.94	23.759
379.30	24.555
379.66	25.127
380.02	24.079
380.38	23.801
380.74	24.250
381.09	25.306
381.45	24.770
381.81	25.246
382.17	24.459
382.53	24.025
382.89	24.259
383.25	24.453
383.61	24.659
383.97	24.515
384.32	24.205
384.68	24.721
385.04	25.507
385.40	25.139
385.76	24.570
386.12	24.352
386.48	24.418
386.83	24.631
387.19	25.974
387.55	24.799
387.91	24.486
388.27	24.157
388.62	25.507
388.98	24.570
389.34	25.469
389.70	24.096
390.06	24.715
390.42	25.681
390.77	25.573
391.13	25.718
391.49	25.254
391.85	25.016
392.20	23.344
392.56	25.189
392.92	24.544
393.28	23.787
393.64	24.640
393.99	24.679
394.35	24.504
394.71	25.094
395.07	23.925
395.42	24.598
395.78	24.364
396.14	25.078
396.50	25.188
396.85	25.366
397.21	25.092
397.57	24.923
397.92	24.339
398.28	24.439
398.64	25.329
399.00	23.447
399.35	23.858
399.71	24.653
400.07	24.423
400.42	25.092
400.78	25.392
401.14	25.549
401.49	25.552
401.85	24.017
402.21	24.311
402.57	23.998
402.92	25.410
403.28	25.109
403.63	24.938
403.99	25.541
404.35	24.727
404.70	24.820
405.06	24.520
405.42	25.140
405.77	23.086
406.13	24.492
406.49	24.423
406.84	25.044
407.20	25.000
407.55	25.144
407.91	25.933
408.27	25.399
408.62	24.865
408.98	25.123
409.34	24.785
409.69	25.548
410.05	25.465
410.40	25.199
410.76	25.030
411.11	26.236
411.47	25.431
411.83	26.084
412.18	24.242
412.54	25.903
412.89	25.482
413.25	25.325
413.60	26.251
413.96	25.440
414.31	25.091
414.67	25.602
415.03	25.298
415.38	25.387
415.74	25.145
416.09	25.735
416.45	24.967
416.80	25.050
417.16	26.139
417.51	25.547
417.87	25.241
418.22	25.615
418.58	25.307
418.93	25.184
419.29	25.461
419.64	25.819
420.00	25.976
420.35	25.217
420.71	26.360
421.06	25.477
421.42	25.556
421.77	25.841
422.12	24.930
422.48	24.069
422.83	25.102
423.19	25.525
423.54	25.421
423.90	25.449
424.25	25.851
424.61	25.179
424.96	25.889
425.31	25.914
425.67	25.393
426.02	24.914
426.38	26.435
426.73	25.395
427.09	26.201
427.44	26.509
427.79	25.992
428.15	26.369
428.50	25.805
428.85	26.818
429.21	25.400
429.56	25.868
429.92	25.466
430.27	25.124
430.62	25.550
430.98	26.207
431.33	25.412
431.68	26.492
432.04	26.571
432.39	25.871
432.74	26.691
433.10	26.429
433.45	26.006
433.80	25.610
434.16	25.641
434.51	25.737
434.86	26.967
435.22	25.792
435.57	25.593
435.92	25.336
436.28	26.097
436.63	26.545
436.98	26.102
437.34	26.655
437.69	26.371
438.04	26.138
438.39	26.806
438.75	26.089
439.10	26.313
439.45	26.033
439.81	26.284
440.16	26.313
440.51	27.124
440.86	26.983
441.22	26.085
441.57	26.274
441.92	26.663
442.27	26.857
442.63	26.066
442.98	27.211
443.33	26.141
443.68	26.433
444.03	27.086
444.39	25.706
444.74	27.273
445.09	26.415
445.44	26.736
445.79	26.472
446.15	26.840
446.50	26.333
446.85	26.465
447.20	26.619
447.55	27.973
447.91	26.917
448.26	26.989
448.61	27.021
448.96	27.298
449.31	27.447
449.66	27.462
450.02	26.351
450.37	27.324
450.72	26.904
451.07	27.544
451.42	26.869
451.77	27.716
452.12	27.136
452.47	27.550
452.83	27.681
453.18	27.873
453.53	28.448
453.88	27.407
454.23	27.794
454.58	27.983
454.93	28.735
455.28	26.995
455.63	27.063
455.98	28.452
456.34	28.392
456.69	29.054
457.04	27.802
457.39	27.528
457.74	27.916
458.09	27.430
458.44	28.905
458.79	27.007
459.14	27.935
459.49	28.255
459.84	28.421
460.19	27.814
460.54	26.852
460.89	27.647
461.24	29.144
461.59	29.343
461.94	27.805
462.29	28.546
462.64	28.526
462.99	28.497
463.34	29.333
463.69	28.143
464.04	29.101
464.39	28.116
464.74	28.580
465.09	28.589
465.44	28.421
465.79	27.796
466.14	28.462
466.49	26.919
466.84	27.788
467.19	28.244
467.54	28.500
467.89	27.671
468.24	28.563
468.59	28.755
468.94	28.772
469.29	29.049
469.64	30.388
469.99	29.364
470.34	29.128
470.68	29.454
471.03	28.980
471.38	31.063
471.73	30.380
472.08	30.132
472.43	30.151
472.78	28.769
473.13	29.525
473.48	29.401
473.83	29.329
474.17	28.563
474.52	29.777
474.87	29.422
475.22	29.425
475.57	28.802
475.92	29.634
476.27	28.861
476.61	29.454
476.96	29.192
477.31	29.461
477.66	29.759
478.01	28.542
478.36	29.191
478.70	29.543
479.05	29.073
479.40	28.506
479.75	29.080
480.10	29.722
480.45	28.891
480.79	28.189
481.14	28.767
481.49	29.283
481.84	28.304
482.19	29.214
482.53	28.257
482.88	29.037
483.23	29.206
483.58	29.618
483.92	29.194
484.27	27.974
484.62	28.578
484.97	28.025
485.31	26.815
485.66	25.688
486.01	24.245
486.36	23.493
486.70	24.231
487.05	25.259
487.40	25.766
487.75	25.958
488.09	26.479
488.44	26.951
488.79	28.137
489.13	28.495
489.48	28.467
489.83	28.399
490.17	29.636
490.52	29.097
490.87	28.991
491.22	28.649
491.56	28.656
491.91	28.758
492.26	29.306
492.60	30.323
492.95	29.373
493.30	28.925
493.64	29.398
493.99	28.923
494.34	29.926
494.68	29.350
495.03	29.652
495.37	29.828
495.72	28.947
496.07	29.466
496.41	29.248
496.76	29.464
497.11	29.446
497.45	29.949
497.80	29.846
498.14	29.227
498.49	29.463
498.84	29.914
499.18	30.238
499.53	30.152
499.87	29.823
500.22	29.958
500.56	30.971
500.91	29.567
501.26	29.587
501.60	30.185
501.95	29.239
502.29	30.553
502.64	30.726
502.98	29.547
503.33	29.388
503.67	28.863
504.02	30.355
504.36	29.995
504.71	29.897
505.06	30.410
505.40	30.092
505.75	29.701
506.09	30.175
506.44	31.031
506.78	31.271
507.13	31.449
507.47	31.212
507.82	31.611
508.16	30.902
508.51	31.811
508.85	29.990
509.19	31.480
509.54	30.357
509.88	30.706
510.23	31.465
510.57	32.147
510.92	31.331
511.26	30.987
511.61	31.535
511.95	30.950
512.30	31.601
512.64	31.166
512.98	31.672
513.33	31.638
513.67	32.070
514.02	31.439
514.36	32.605
514.70	32.097
515.05	32.181
515.39	32.025
515.74	31.532
516.08	31.638
516.42	33.407
516.77	32.497
517.11	32.464
517.46	32.111
517.80	32.288
518.14	32.889
518.49	33.431
518.83	33.068
519.17	33.949
519.52	33.560
519.86	33.485
520.20	34.104
520.55	33.453
520.89	33.577
521.23	33.957
521.58	33.493
521.92	34.476
522.26	33.557
522.61	34.143
522.95	33.395
523.29	34.632
523.64	34.695
523.98	33.333
524.32	34.318
524.66	34.035
525.01	33.456
525.35	33.395
525.69	33.374
526.04	34.081
526.38	33.801
526.72	33.681
527.06	33.584
527.41	33.663
527.75	34.791
528.09	34.682
528.43	33.779
528.78	34.726
529.12	33.030
529.46	33.190
529.80	33.911
530.15	34.642
530.49	31.815
530.83	33.608
531.17	34.530
531.51	35.733
531.86	33.806
532.20	34.355
532.54	33.056
532.88	33.376
533.22	32.917
533.57	32.778
533.91	32.751
534.25	33.293
534.59	33.801
534.93	33.314
535.27	32.046
535.62	32.234
535.96	33.898
536.30	32.549
536.64	33.484
536.98	33.179
537.32	32.521
537.66	33.333
538.01	33.772
538.35	33.290
538.69	34.333
539.03	31.384
539.37	32.141
539.71	32.728
540.05	33.007
540.39	32.691
540.73	32.342
541.07	33.744
541.42	33.725
541.76	32.774
542.10	32.794
542.44	32.848
542.78	33.729
543.12	31.798
543.46	33.115
543.80	33.182
544.14	32.863
544.48	33.333
544.82	32.585
545.16	32.661
545.50	32.712
545.84	32.661
546.18	33.266
546.52	33.517
546.86	32.921
547.20	33.311
547.54	33.333
547.88	31.888
548.22	32.005
548.56	32.579
548.90	31.306
549.24	32.727
549.58	33.083
549.92	32.624
550.26	33.665
550.60	32.365
550.94	33.732
551.28	32.334
551.62	34.148
551.96	32.561
552.30	33.242
552.64	33.739
552.98	33.220
553.32	34.120
553.66	33.742
554.00	32.944
554.34	33.885
554.68	33.834
555.02	33.357
555.36	33.055
555.69	32.476
556.03	32.638
556.37	33.220
556.71	32.128
557.05	33.683
557.39	32.400
557.73	32.816
558.07	34.083
558.41	33.285
558.75	34.166
559.08	34.228
559.42	33.485
559.76	33.529
560.10	34.190
560.44	32.565
560.78	31.737
561.12	33.047
561.45	32.269
561.79	32.037
562.13	32.529
562.47	33.743
562.81	33.333
563.15	32.375
563.48	32.626
563.82	32.355
564.16	31.589
564.50	31.641
564.84	31.290
565.17	31.660
565.51	31.438
565.85	31.218
566.19	30.369
566.52	32.236
566.86	30.078
567.20	31.014
567.54	30.765
567.88	28.626
568.21	29.683
568.55	29.272
568.89	27.870
569.23	27.496
569.56	26.559
569.90	26.642
570.24	26.480
570.57	25.332
570.91	25.242
571.25	24.830
571.59	24.595
571.92	24.510
572.26	24.668
572.60	24.985
572.93	24.318
573.27	24.194
573.61	24.428
573.95	24.186
574.28	23.894
574.62	23.567
574.96	22.605
575.29	23.957
575.63	23.628
575.97	23.405
576.30	23.898
576.64	23.326
576.98	23.408
577.31	22.897
577.65	22.975
577.98	22.879
578.32	22.299
578.66	22.914
578.99	22.986
579.33	23.481
579.67	22.793
580.00	22.896
580.34	23.303
580.67	22.879
581.01	23.297
581.35	22.459
581.68	21.927
582.02	21.322
582.35	21.664
582.69	22.266
583.02	22.264
583.36	22.688
583.70	23.626
584.03	23.642
584.37	23.900
584.70	23.694
585.04	22.896
585.37	22.903
585.71	22.909
586.04	22.614
586.38	23.485
586.72	23.529
587.05	23.282
587.39	22.691
587.72	22.958
588.06	23.372
588.39	23.841
588.73	23.409
589.06	23.933
589.40	24.040
589.73	24.498
590.07	24.520
590.40	24.662
590.73	25.332
591.07	24.827
591.40	25.517
591.74	26.797
592.07	25.698
592.41	25.465
592.74	24.757
593.08	24.184
593.41	24.106
593.75	23.392
594.08	23.701
594.41	23.966
594.75	24.288
595.08	24.266
595.42	23.713
595.75	24.181
596.09	25.272
596.42	24.990
596.75	25.580
597.09	25.498
597.42	24.747
597.75	25.356
598.09	25.261
598.42	25.344
598.76	24.848
599.09	24.173
599.42	23.472
599.76	24.378
600.09	23.971
600.42	24.032
600.76	23.607
601.09	24.117
601.42	24.353
601.76	24.478
602.09	24.269
602.42	25.557
602.76	24.305
603.09	24.469
603.42	24.639
603.76	24.009
604.09	24.467
604.42	24.134
604.76	25.095
605.09	24.552
605.42	24.198
605.75	23.882
606.09	24.278
606.42	23.989
606.75	24.554
607.09	24.906
607.42	24.604
607.75	23.924
608.08	24.620
608.42	25.190
608.75	25.338
609.08	24.746
609.41	25.226
609.75	25.250
610.08	25.401
610.41	24.814
610.74	25.024
611.07	25.000
611.41	25.810
611.74	26.295
612.07	26.190
612.40	26.390
612.73	26.158
613.07	26.347
613.40	26.330
613.73	25.642
614.06	25.484
614.39	25.328
614.72	25.842
615.06	25.893
615.39	24.947
615.72	25.613
616.05	25.518
616.38	26.292
616.71	27.138
617.05	26.855
617.38	26.939
617.71	26.366
618.04	26.743
618.37	27.735
618.70	27.256
619.03	27.895
619.36	27.495
619.69	28.310
620.03	28.365
620.36	28.075
620.69	28.425
621.02	27.729
621.35	28.504
621.68	28.349
622.01	29.257
622.34	29.652
622.67	28.517
623.00	27.660
623.33	28.735
623.66	28.377
623.99	29.602
624.32	28.031
624.65	28.884
624.99	27.975
625.32	28.385
625.65	29.376
625.98	29.285
626.31	30.327
626.64	29.959
626.97	30.175
627.30	30.175
627.63	29.286
627.96	30.614
628.29	30.796
628.62	30.741
628.95	32.736
629.28	31.296
629.61	32.631
629.94	32.381
630.26	30.505
630.59	32.984
630.92	31.801
631.25	30.503
631.58	33.634
631.91	32.759
632.24	31.857
632.57	32.844
632.90	35.197
633.23	34.787
633.56	34.802
633.89	33.975
634.22	33.485
634.55	36.450
634.88	36.048
635.20	34.289
635.53	34.458
635.86	36.139
636.19	34.118
636.52	34.371
636.85	33.562
637.18	33.756
637.51	32.742
637.83	32.676
638.16	36.061
638.49	35.516
638.82	35.019
639.15	34.750
639.48	35.287
639.81	37.399
640.13	36.328
640.46	34.228
640.79	35.535
641.12	34.663
641.45	35.196
641.77	37.997
642.10	37.281
642.43	37.538
642.76	37.616
643.09	40.491
643.41	37.481
643.74	39.043
644.07	38.110
644.40	39.571
644.73	39.843
645.05	39.937
645.38	38.705
645.71	38.969
646.04	39.535
646.36	42.070
646.69	40.134
647.02	38.946
647.35	40.722
647.67	38.938
648.00	41.463
648.33	38.119
648.66	35.303
648.98	36.432
649.31	35.127
649.64	37.668
649.96	35.171
650.29	36.651
650.62	36.570
650.94	37.277
651.27	38.176
651.60	39.101
651.92	36.422
652.25	38.274
652.58	37.695
652.90	37.441
653.23	37.442
653.56	37.795
653.88	37.401
654.21	37.441
654.54	36.799
654.86	34.891
655.19	34.459
655.52	20.801
655.84	16.338
656.17	20.175
656.49	26.805
656.82	27.007
657.15	20.684
657.47	15.445
657.80	12.003
658.13	12.147
658.45	18.579
658.78	19.020
659.10	19.556
659.43	20.422
659.75	22.063
660.08	25.316
660.41	27.840
660.73	32.274
661.06	35.350
661.38	39.636
661.71	38.462
662.03	42.012
662.36	36.382
662.68	40.964
663.01	43.434
663.33	39.703
663.66	42.227
663.98	44.060
664.31	42.227
664.63	38.866
664.96	40.241
665.28	39.344
665.61	38.402
665.93	38.833
666.26	41.582
666.58	41.423
666.91	43.129
667.23	44.045
667.56	38.661
667.88	43.376
668.21	40.725
668.53	39.696
668.86	40.260
669.18	43.923
669.50	42.609
669.83	44.880
670.15	41.778
670.48	40.741
670.80	41.595
671.13	40.764
671.45	41.915
671.77	38.697
672.10	39.187
672.42	35.336
672.75	34.826
673.07	34.331
673.39	35.624
673.72	36.328
674.04	39.216
674.37	38.641
674.69	38.037
675.01	35.565
675.34	40.246
675.66	42.316
675.98	39.919
676.31	41.597
676.63	40.977
676.95	38.155
677.28	42.290
677.60	41.099
677.92	40.084
678.25	37.988
678.57	37.849
678.89	39.279
679.22	36.739
679.54	38.359
679.86	38.899
680.18	36.494
680.51	36.525
680.83	36.299
681.15	36.226
681.48	39.698
681.80	36.364
682.12	36.973
682.44	34.043
682.77	38.900
683.09	41.202
683.41	40.576
683.73	39.073
684.06	40.496
684.38	36.595
684.70	35.659
685.02	39.400
685.34	35.348
685.67	32.867
685.99	32.818
686.31	34.812
686.63	31.979
686.96	34.821
687.28	33.394
687.60	34.420
687.92	37.660
688.24	35.171
688.56	37.751
688.89	38.382
689.21	41.485
689.53	37.996
689.85	39.246
690.17	37.060
690.49	39.490
690.82	39.720
691.14	37.054
691.46	35.232
691.78	36.345
692.10	36.157
692.42	35.928
692.74	35.477
693.06	37.234
693.39	37.577
693.71	35.371
694.03	36.000
694.35	35.714
694.67	33.638
694.99	41.951
695.31	36.765
695.63	37.560
695.95	41.076
696.27	37.310
696.59	38.601
696.91	41.192
697.23	37.089
697.56	37.953
697.88	34.765
698.20	33.750
698.52	35.699
698.84	36.303
699.16	38.940
699.48	38.480
699.80	37.681
700.12	45.974
700.44	37.666
700.76	39.227
701.08	43.966
701.40	39.944
701.72	44.898
702.04	46.307
702.36	39.943
702.68	42.210
703.00	44.875
703.32	36.968
703.64	41.287
703.96	41.226
704.28	46.221
704.60	42.815
704.91	41.840
705.23	40.762
705.55	44.518
705.87	49.834
706.19	46.290
706.51	41.433
706.83	42.121
707.15	42.297
707.47	38.384
707.79	35.135
708.11	38.813
708.43	36.190
708.74	36.735
709.06	40.000
709.38	39.895
709.70	40.988
710.02	42.433
710.34	39.394
710.66	39.701
710.98	41.477
711.29	40.116
711.61	41.888
711.93	38.462
712.25	42.122
712.57	44.853
712.89	39.792
713.20	42.553
713.52	42.763
713.84	39.873
714.16	41.159
714.48	38.506
714.80	39.210
715.11	37.464
715.43	38.576
715.75	39.420
716.07	40.895
716.39	40.439
716.70	44.186
717.02	42.806
717.34	42.756
717.66	46.269
717.97	47.809
718.29	42.222
718.61	45.255
718.93	47.059
719.24	40.830
719.56	42.712
719.88	45.085
720.20	43.919
720.51	43.206
720.83	43.123
721.15	42.910
721.46	40.071
721.78	45.161
722.10	41.887
722.42	48.120
722.73	46.442
723.05	49.180
723.37	45.344
723.68	45.946
724.00	45.935
724.32	45.565
724.63	50.000
724.95	44.351
725.27	47.368
725.58	43.359
725.90	45.620
726.22	41.132
726.53	43.750
726.85	41.980
727.16	41.281
727.48	39.716
727.80	42.424
728.11	40.217
728.43	43.077
728.74	38.351
729.06	43.431
729.38	47.426
729.69	45.196
730.01	39.590
730.32	40.278
730.64	40.803
730.96	38.944
731.27	40.397
731.59	40.061
731.90	40.233
732.22	37.888
732.53	36.842
732.85	37.500
733.16	38.585
733.48	39.203
733.80	38.636
734.11	37.580
734.43	39.941
734.74	35.429
735.06	38.968
735.37	39.017
735.69	33.758
736.00	42.157
736.32	37.072
736.63	36.422
736.95	37.700
737.26	35.374
737.58	39.032
737.89	40.134
738.21	39.249
738.52	38.571
738.83	34.340
739.15	40.000
739.46	41.606
739.78	38.194
740.09	39.692
740.41	40.968
740.72	39.721
741.04	43.704
741.35	39.583
741.66	50.667
741.98	51.887
742.29	46.890
742.61	50.862
742.92	42.081
743.23	45.299
743.55	41.200
743.86	46.053
744.18	51.770
744.49	51.196
744.80	49.296
745.12	50.909
745.43	48.018
745.74	52.252
746.06	47.706
746.37	50.224
746.68	46.154
747.00	49.074
747.31	45.238
747.62	41.593
747.94	44.934
748.25	42.553
748.56	46.256
748.88	49.505
749.19	53.000
749.50	46.047
749.82	39.837
750.13	38.367
750.44	41.971
750.75	40.351
751.07	40.193
751.38	39.721
751.69	42.238
752.01	44.361
752.32	39.350
752.63	43.617
752.94	44.672
753.26	42.000
753.57	45.528
753.88	45.312
754.19	41.071
754.51	44.444
754.82	39.350
755.13	43.019
755.44	42.857
755.75	38.686
756.07	37.943
756.38	38.321
756.69	38.591
757.00	36.228
757.31	36.202
757.63	35.088
757.94	32.976
758.25	29.412
758.56	31.358
758.87	33.871
759.18	35.758
759.50	36.050
759.81	39.564
760.12	32.500
760.43	32.951
760.74	36.141
761.05	36.441
761.36	32.353
761.67	33.239
761.99	33.230
762.30	36.806
762.61	35.115
762.92	49.609
763.23	41.176
763.54	44.000
763.85	39.453
764.16	43.077
764.47	38.783
764.78	41.696
765.10	36.076
765.41	35.693
765.72	37.425
766.03	35.423
766.34	38.667
766.65	42.553
766.96	47.009
767.27	47.716
767.58	49.479
767.89	51.053
768.20	51.149
768.51	53.299
768.82	44.954
769.13	45.935
769.44	39.271
769.75	38.627
770.06	37.156
770.37	43.891
770.68	44.907
770.99	37.333
771.30	36.475
771.61	45.291
771.92	38.115
772.23	47.479
772.54	47.179
772.85	49.215
773.16	45.213
773.47	49.457
773.78	46.701
774.09	47.024
774.39	47.368
774.70	50.000
775.01	55.072
775.32	56.863
775.63	51.974
775.94	55.396
776.25	64.567
776.56	58.955
776.87	61.475
777.18	65.625
777.48	67.176
777.79	59.848
778.10	63.704
778.41	61.607
778.72	56.204
779.03	51.678
779.34	45.638
779.65	56.757
779.95	53.374
780.26	57.516
780.57	59.310
780.88	64.844
781.19	57.143
781.50	60.811
781.80	59.119
782.11	40.678
782.42	51.266
782.73	42.331
783.04	56.081
783.34	53.521
783.65	58.219
783.96	64.179
784.27	52.448
784.57	47.482
784.88	61.111
785.19	65.079
785.50	66.981
785.81	61.194
786.11	62.295
786.42	61.240
786.73	68.142
787.04	61.321
787.34	67.857
787.65	72.000
787.96	65.766
788.26	59.504
788.57	66.949
788.88	71.074
789.19	57.639
789.49	59.848
789.80	62.595
790.11	68.571
790.41	69.307
790.72	81.928
791.03	66.304
791.33	80.233
791.64	65.979
791.95	65.347
792.25	91.111
792.56	85.714
792.87	97.436
793.17	84.810
793.48	86.207
793.79	79.310
794.09	69.318
794.40	61.345
794.70	64.706
795.01	44.444
795.32	52.518
795.62	53.543
795.93	58.621
796.23	58.407
796.54	69.412
796.85	68.919
797.15	111.268
797.46	86.364
797.76	79.518
798.07	81.013
798.37	84.615
798.68	93.939
798.99	74.648
799.29	84.416
799.60	77.273
799.90	95.890
800.21	95.522
800.51	117.241
800.82	115.789
801.12	100.000
801.43	106.061
801.73	83.784
802.04	104.762
802.34	86.420
802.65	81.250
802.95	113.559
803.26	95.312
803.56	71.429
803.87	90.769
804.17	79.412
804.48	120.370
804.78	89.655
805.09	102.941
805.39	103.846
805.70	105.357
806.00	103.279
806.30	84.848
806.61	79.268
806.91	83.544
807.22	84.211
807.52	65.672
807.83	100.000
808.13	95.312
808.43	93.333
808.74	68.421
809.04	104.348
809.35	95.522
809.65	82.895
809.95	108.065
810.26	89.831
810.56	88.889
810.86	115.909
811.17	130.952
811.47	116.667
811.77	109.259
812.08	103.636
812.38	122.000
812.69	158.333
812.99	152.273
813.29	120.408
813.59	95.238
813.90	126.531
814.20	112.727
814.50	89.231
814.81	101.471
815.11	108.163
815.41	91.803
815.72	130.952
816.02	116.364
816.32	133.333
816.62	130.000
816.93	134.146
817.23	135.714
817.53	120.455
817.84	163.636
818.14	110.870
818.44	135.556
818.74	170.588
819.04	125.000
819.35	162.857
819.65	150.000
819.95	153.571
820.25	190.000
820.56	146.154
820.86	136.364
821.16	141.860
821.46	151.282
821.76	110.000
822.07	140.000
822.37	142.500
822.67	157.576
822.97	105.882
823.27	200.000
823.57	148.649
823.88	147.500
824.18	176.667
824.48	145.238
824.78	224.000
825.08	154.167
825.38	143.243
825.69	153.659
825.99	208.333
826.29	148.276
826.59	155.263
826.89	160.526
827.19	155.882
827.49	193.548
827.79	122.727
828.09	131.818
828.39	110.638
828.70	130.612
829.00	174.074
829.30	164.516
829.60	132.500
829.90	286.667
830.20	185.714
830.50	191.304
830.80	204.348
831.10	190.000
831.40	180.000
831.70	204.348
832.00	165.385
832.30	174.074
832.60	281.250
832.90	196.667
833.20	357.143
833.50	200.000
833.80	186.207
834.10	206.250
834.40	203.846
834.70	250.000
835.00	271.429
835.30	131.429
835.60	323.077
835.90	193.103
836.20	378.571
836.50	189.655
836.80	144.000
837.10	169.444
837.40	252.381
837.70	264.706
838.00	218.519
838.30	271.429
838.60	319.048
838.90	230.769
839.19	285.000
839.49	457.143
839.79	310.000
840.09	295.000
840.39	257.143
840.69	252.174
840.99	250.000
841.29	450.000
841.59	283.333
841.88	381.250
842.18	182.759
842.48	247.619
842.78	170.000
843.08	234.783
843.38	193.750
843.68	650.000
843.97	242.308
844.27	175.862
844.57	266.667
844.87	293.750
845.17	159.259
845.47	1333.333
845.76	488.889
846.06	217.647
846.36	475.000
846.66	335.714
846.96	237.500
847.25	345.455
847.55	409.091
847.85	247.826
848.15	540.000
848.44	371.429
848.74	250.000
849.04	288.235
849.34	500.000
849.63	221.053
849.93	409.091
850.23	880.000
850.53	364.286
850.82	2650.000
851.12	-3900.000
851.42	3800.000
851.71	300.000
852.01	-1466.667
852.31	245.833
852.61	1200.000
852.90	271.429
853.20	200.000
853.50	370.588
853.79	219.048
854.09	233.333
854.39	275.000
854.68	167.568
854.98	203.226
855.28	156.667
855.57	186.207
855.87	211.111
856.17	210.526
856.46	186.667
856.76	258.824
857.05	203.448
857.35	216.667
857.65	293.333
857.94	217.391
858.24	215.385
858.53	280.000
858.83	222.727
859.13	360.000
859.42	0.000
859.72	522.222
860.01	463.636
860.31	209.091
860.60	247.368
860.90	200.000
861.20	533.333
861.49	541.667
861.79	-4200.000
862.08	650.000
862.38	242.857
862.67	292.308
862.97	329.412
863.26	511.111
863.56	222.222
863.85	425.000
864.15	500.000
864.44	366.667
864.74	816.667
865.03	575.000
865.33	268.421
865.62	427.273
865.92	423.077
866.21	416.667
866.51	0.000
866.80	418.182
867.10	920.000
867.39	376.923
867.69	345.455
867.98	252.632
868.27	454.545
868.57	294.737
868.86	-3900.000
869.16	262.500
869.45	1950.000
869.75	-3200.000
870.04	408.333
870.33	528.571
870.63	975.000
870.92	2100.000
871.22	728.571
871.51	329.412
871.80	204.762
872.10	407.143
>>>>>End Processed Spectral Data<<<<<
