SpectraSuite Data File
++++++++++++++++++++++++++++++++++++
Date: Wed May 13 20:26:13 PDT 2015
User: schluterlab
Dark Spectrum Present: Yes
Reference Spectrum Present: Yes
Number of Sampled Component Spectra: 1
Spectrometers: USB2E3373
Integration Time (usec): 3000 (USB2E3373)
Spectra Averaged: 3 (USB2E3373)
Boxcar Smoothing: 0 (USB2E3373)
Correct for Electrical Dark: No (USB2E3373)
Strobe/Lamp Enabled: No (USB2E3373)
Correct for Detector Non-linearity: No (USB2E3373)
Correct for Stray Light: No (USB2E3373)
Number of Pixels in Processed Spectrum: 2048
>>>>>Begin Processed Spectral Data<<<<<
178.53	0.000
178.91	-1275.000
179.29	-1225.000
179.67	-211.111
180.04	-1325.000
180.42	2350.000
180.80	920.000
181.18	-1125.000
181.56	614.286
181.94	0.000
182.31	-371.429
182.69	1566.667
183.07	-500.000
183.45	-455.556
183.83	527.273
184.20	-430.000
184.58	1900.000
184.96	6200.000
185.34	-720.000
185.72	-475.000
186.09	-2450.000
186.47	2650.000
186.85	2550.000
187.23	4700.000
187.61	-1533.333
187.98	1125.000
188.36	545.455
188.74	518.182
189.12	-860.000
189.49	460.000
189.87	-4300.000
190.25	-1400.000
190.63	335.714
191.00	384.615
191.38	616.667
191.76	-850.000
192.14	1200.000
192.51	537.500
192.89	850.000
193.27	500.000
193.65	-900.000
194.02	490.000
194.40	820.000
194.78	440.000
195.15	408.333
195.53	550.000
195.91	-1800.000
196.29	362.500
196.66	331.579
197.04	-340.000
197.42	0.000
197.79	580.000
198.17	-3700.000
198.55	585.714
198.92	775.000
199.30	760.000
199.68	0.000
200.05	283.333
200.43	700.000
200.81	4600.000
201.18	1800.000
201.56	-1666.667
201.94	533.333
202.31	522.222
202.69	375.000
203.07	540.000
203.44	0.000
203.82	1050.000
204.19	685.714
204.57	342.857
204.95	512.500
205.32	1633.333
205.70	400.000
206.08	407.143
206.45	2200.000
206.83	343.750
207.20	850.000
207.58	720.000
207.96	277.778
208.33	575.000
208.71	-883.333
209.08	642.857
209.46	555.556
209.84	427.273
210.21	-1266.667
210.59	1375.000
210.96	-425.000
211.34	2050.000
211.71	590.000
212.09	750.000
212.46	0.000
212.84	1633.333
213.22	1050.000
213.59	-4300.000
213.97	750.000
214.34	714.286
214.72	600.000
215.09	1020.000
215.47	-1800.000
215.84	-2150.000
216.22	1666.667
216.59	321.429
216.97	1025.000
217.34	545.455
217.72	-616.667
218.09	0.000
218.47	-3900.000
218.84	611.111
219.22	757.143
219.59	1266.667
219.97	-557.143
220.34	920.000
220.72	-1833.333
221.09	328.571
221.47	1325.000
221.84	-883.333
222.22	0.000
222.59	1300.000
222.97	-2400.000
223.34	880.000
223.72	315.385
224.09	980.000
224.46	1800.000
224.84	-4100.000
225.21	-960.000
225.59	-4300.000
225.96	530.000
226.34	275.000
226.71	2400.000
227.08	637.500
227.46	490.000
227.83	-1200.000
228.21	-2000.000
228.58	533.333
228.95	-2050.000
229.33	-2250.000
229.70	1400.000
230.08	842.857
230.45	-720.000
230.82	350.000
231.20	716.667
231.57	628.571
231.95	433.333
232.32	222.727
232.69	309.091
233.07	557.143
233.44	269.231
233.81	-1500.000
234.19	236.842
234.56	391.667
234.93	316.667
235.31	418.182
235.68	300.000
236.05	278.571
236.43	151.515
236.80	215.789
237.17	3000.000
237.55	219.048
237.92	185.714
238.29	180.952
238.67	135.484
239.04	158.621
239.41	102.778
239.79	102.174
240.16	109.524
240.53	102.273
240.91	66.667
241.28	98.000
241.65	84.000
242.02	79.710
242.40	58.065
242.77	58.333
243.14	59.140
243.51	61.798
243.89	43.529
244.26	38.889
244.63	39.785
245.00	31.915
245.38	46.535
245.75	35.514
246.12	27.523
246.49	42.336
246.87	34.400
247.24	33.077
247.61	33.571
247.98	26.797
248.36	27.027
248.73	26.752
249.10	33.758
249.47	24.859
249.84	27.273
250.22	22.460
250.59	24.852
250.96	22.222
251.33	25.118
251.70	28.218
252.08	22.381
252.45	21.076
252.82	22.609
253.19	22.979
253.56	21.176
253.94	14.938
254.31	19.141
254.68	20.385
255.05	22.140
255.42	15.041
255.79	18.382
256.16	18.412
256.54	12.721
256.91	16.726
257.28	10.791
257.65	13.531
258.02	15.528
258.39	14.511
258.76	14.381
259.14	15.774
259.51	13.374
259.88	12.422
260.25	15.408
260.62	15.318
260.99	9.317
261.36	15.916
261.73	11.461
262.10	14.826
262.47	14.366
262.85	14.485
263.22	11.966
263.59	14.245
263.96	13.462
264.33	12.794
264.70	10.789
265.07	12.532
265.44	10.354
265.81	9.976
266.18	11.307
266.55	11.463
266.92	11.302
267.29	14.352
267.66	11.009
268.03	9.773
268.40	11.682
268.77	10.740
269.14	9.910
269.51	11.964
269.88	10.723
270.25	12.415
270.62	9.438
270.99	12.903
271.36	11.803
271.73	9.579
272.10	10.652
272.47	12.258
272.84	8.874
273.21	10.901
273.58	7.860
273.95	9.224
274.32	10.744
274.69	9.636
275.06	9.449
275.43	11.277
275.80	7.415
276.17	11.202
276.54	9.563
276.91	9.486
277.28	9.766
277.65	9.865
278.02	9.524
278.39	9.375
278.76	10.727
279.13	9.057
279.50	9.311
279.87	7.570
280.23	10.180
280.60	9.284
280.97	7.024
281.34	8.496
281.71	9.636
282.08	8.829
282.45	7.636
282.82	7.815
283.19	8.556
283.56	8.596
283.92	8.291
284.29	8.642
284.66	8.167
285.03	6.510
285.40	8.451
285.77	8.586
286.14	7.772
286.51	8.833
286.87	8.547
287.24	8.795
287.61	8.026
287.98	7.955
288.35	7.448
288.72	8.100
289.08	8.920
289.45	6.590
289.82	6.667
290.19	6.436
290.56	7.044
290.93	5.136
291.29	9.202
291.66	8.702
292.03	8.140
292.40	9.545
292.77	5.030
293.13	6.866
293.50	8.163
293.87	6.519
294.24	6.222
294.60	5.677
294.97	7.413
295.34	7.616
295.71	7.670
296.08	6.410
296.44	7.015
296.81	5.020
297.18	6.504
297.55	3.826
297.91	5.145
298.28	7.898
298.65	6.136
299.02	7.378
299.38	4.648
299.75	4.582
300.12	4.725
300.48	4.875
300.85	6.289
301.22	5.732
301.59	4.924
301.95	5.416
302.32	4.878
302.69	6.093
303.05	5.818
303.42	4.568
303.79	4.870
304.15	5.711
304.52	4.403
304.89	4.762
305.25	5.336
305.62	6.002
305.99	6.139
306.35	5.034
306.72	6.614
307.09	5.549
307.45	5.518
307.82	4.018
308.19	4.967
308.55	5.825
308.92	4.941
309.29	5.069
309.65	5.090
310.02	4.545
310.38	4.624
310.75	4.963
311.12	5.834
311.48	5.225
311.85	5.975
312.22	5.619
312.58	3.950
312.95	5.069
313.31	4.175
313.68	5.613
314.05	6.706
314.41	5.226
314.78	5.035
315.14	4.767
315.51	5.149
315.87	5.743
316.24	4.767
316.61	4.191
316.97	4.990
317.34	3.327
317.70	4.876
318.07	5.294
318.43	4.599
318.80	5.342
319.16	5.179
319.53	4.784
319.89	6.095
320.26	5.100
320.62	4.762
320.99	4.949
321.35	5.152
321.72	4.620
322.08	6.515
322.45	5.771
322.81	5.717
323.18	5.780
323.54	5.566
323.91	6.698
324.27	5.449
324.64	4.287
325.00	4.869
325.37	5.641
325.73	5.925
326.10	5.825
326.46	4.122
326.83	6.471
327.19	5.465
327.56	5.749
327.92	5.074
328.29	5.856
328.65	4.972
329.01	5.415
329.38	4.348
329.74	5.263
330.11	4.053
330.47	5.693
330.84	6.250
331.20	5.464
331.56	5.321
331.93	4.444
332.29	5.590
332.66	6.106
333.02	5.393
333.38	5.691
333.75	6.061
334.11	6.406
334.48	5.945
334.84	4.779
335.20	5.364
335.57	4.352
335.93	5.000
336.29	4.945
336.66	6.222
337.02	4.072
337.38	5.556
337.75	5.169
338.11	5.282
338.47	4.696
338.84	5.958
339.20	4.862
339.56	6.022
339.93	4.909
340.29	5.072
340.65	4.545
341.02	5.846
341.38	6.139
341.74	4.561
342.11	5.328
342.47	5.198
342.83	5.223
343.20	5.887
343.56	4.549
343.92	4.561
344.28	5.187
344.65	5.417
345.01	4.798
345.37	5.146
345.73	4.822
346.10	4.774
346.46	4.831
346.82	5.272
347.19	4.261
347.55	4.680
347.91	5.016
348.27	5.177
348.63	5.686
349.00	4.935
349.36	4.762
349.72	4.330
350.08	4.376
350.45	4.882
350.81	4.955
351.17	5.835
351.53	4.013
351.89	4.043
352.26	5.998
352.62	4.731
352.98	5.024
353.34	4.519
353.70	3.846
354.07	4.597
354.43	4.524
354.79	3.862
355.15	4.469
355.51	5.356
355.87	4.490
356.24	5.619
356.60	4.571
356.96	4.425
357.32	4.415
357.68	4.409
358.04	5.701
358.40	4.830
358.77	4.617
359.13	4.104
359.49	4.706
359.85	3.016
360.21	4.147
360.57	4.981
360.93	4.615
361.29	4.082
361.66	4.025
362.02	4.776
362.38	4.487
362.74	3.943
363.10	4.515
363.46	3.522
363.82	3.930
364.18	4.332
364.54	5.052
364.90	5.595
365.26	4.412
365.62	4.529
365.98	3.506
366.35	3.367
366.71	3.905
367.07	4.006
367.43	4.572
367.79	4.640
368.15	4.885
368.51	3.416
368.87	3.854
369.23	4.462
369.59	4.852
369.95	4.412
370.31	3.632
370.67	3.478
371.03	5.393
371.39	4.373
371.75	4.118
372.11	4.410
372.47	4.619
372.83	4.035
373.19	4.118
373.55	3.622
373.91	4.566
374.27	3.986
374.63	2.618
374.99	4.096
375.35	3.768
375.71	3.496
376.07	4.527
376.42	3.714
376.78	4.838
377.14	3.799
377.50	4.106
377.86	3.324
378.22	3.982
378.58	3.070
378.94	3.268
379.30	2.417
379.66	3.173
380.02	4.054
380.38	2.854
380.74	3.601
381.09	4.156
381.45	3.995
381.81	3.870
382.17	3.312
382.53	3.899
382.89	3.827
383.25	3.502
383.61	3.346
383.97	4.003
384.32	3.993
384.68	3.408
385.04	2.889
385.40	3.467
385.76	3.808
386.12	3.627
386.48	4.154
386.83	3.656
387.19	4.205
387.55	3.958
387.91	3.144
388.27	3.004
388.62	3.934
388.98	3.256
389.34	4.068
389.70	3.250
390.06	4.246
390.42	3.048
390.77	4.326
391.13	3.446
391.49	4.061
391.85	3.883
392.20	2.587
392.56	3.472
392.92	3.708
393.28	2.899
393.64	3.477
393.99	4.520
394.35	3.226
394.71	3.576
395.07	4.050
395.42	3.090
395.78	3.562
396.14	3.786
396.50	3.634
396.85	3.878
397.21	3.144
397.57	3.720
397.92	3.365
398.28	2.691
398.64	3.524
399.00	4.029
399.35	3.215
399.71	3.241
400.07	4.435
400.42	3.558
400.78	3.438
401.14	3.110
401.49	3.642
401.85	3.448
402.21	3.413
402.57	3.393
402.92	3.657
403.28	3.935
403.63	3.280
403.99	2.803
404.35	3.818
404.70	3.657
405.06	3.262
405.42	3.369
405.77	3.314
406.13	3.160
406.49	3.962
406.84	4.312
407.20	2.128
407.55	3.510
407.91	3.267
408.27	3.701
408.62	3.371
408.98	2.451
409.34	3.629
409.69	3.871
410.05	2.478
410.40	3.792
410.76	3.345
411.11	3.739
411.47	3.706
411.83	3.665
412.18	3.587
412.54	3.487
412.89	3.795
413.25	3.483
413.60	4.015
413.96	3.643
414.31	3.341
414.67	3.802
415.03	3.510
415.38	4.059
415.74	3.666
416.09	3.788
416.45	3.280
416.80	3.305
417.16	4.088
417.51	3.782
417.87	2.762
418.22	4.353
418.58	3.744
418.93	3.993
419.29	3.947
419.64	4.534
420.00	3.659
420.35	3.594
420.71	3.407
421.06	3.282
421.42	3.684
421.77	3.531
422.12	2.864
422.48	2.860
422.83	3.378
423.19	3.757
423.54	2.670
423.90	3.884
424.25	3.797
424.61	3.631
424.96	3.673
425.31	3.654
425.67	3.427
426.02	3.429
426.38	3.968
426.73	3.277
427.09	2.918
427.44	3.738
427.79	3.220
428.15	3.988
428.50	3.511
428.85	4.291
429.21	2.761
429.56	3.110
429.92	3.171
430.27	2.979
430.62	2.611
430.98	3.321
431.33	3.093
431.68	3.298
432.04	3.301
432.39	3.312
432.74	3.651
433.10	3.169
433.45	3.324
433.80	3.271
434.16	3.632
434.51	3.579
434.86	3.763
435.22	3.280
435.57	2.979
435.92	2.633
436.28	3.381
436.63	4.029
436.98	3.663
437.34	3.757
437.69	3.209
438.04	3.654
438.39	4.239
438.75	3.428
439.10	3.352
439.45	3.306
439.81	3.263
440.16	3.219
440.51	3.281
440.86	4.111
441.22	3.560
441.57	3.503
441.92	3.173
442.27	3.660
442.63	3.265
442.98	3.775
443.33	3.696
443.68	3.098
444.03	3.319
444.39	2.726
444.74	2.976
445.09	3.450
445.44	3.445
445.79	3.859
446.15	4.129
446.50	4.093
446.85	3.083
447.20	3.111
447.55	3.908
447.91	3.640
448.26	3.339
448.61	3.787
448.96	4.208
449.31	3.937
449.66	3.995
450.02	2.841
450.37	3.685
450.72	3.666
451.07	2.986
451.42	3.161
451.77	4.228
452.12	4.099
452.47	3.794
452.83	3.089
453.18	4.034
453.53	4.576
453.88	3.249
454.23	3.706
454.58	4.482
454.93	4.005
455.28	3.304
455.63	3.337
455.98	3.810
456.34	3.832
456.69	4.008
457.04	3.839
457.39	3.507
457.74	3.424
458.09	4.485
458.44	3.820
458.79	2.711
459.14	3.499
459.49	4.028
459.84	3.435
460.19	3.771
460.54	3.762
460.89	4.224
461.24	3.825
461.59	4.765
461.94	3.699
462.29	4.095
462.64	3.893
462.99	3.513
463.34	4.933
463.69	3.565
464.04	4.116
464.39	4.406
464.74	3.981
465.09	3.257
465.44	3.269
465.79	3.523
466.14	4.160
466.49	3.949
466.84	4.203
467.19	4.345
467.54	4.438
467.89	4.082
468.24	4.130
468.59	4.090
468.94	3.849
469.29	3.985
469.64	4.485
469.99	4.330
470.34	3.633
470.68	4.023
471.03	3.741
471.38	4.587
471.73	4.397
472.08	4.934
472.43	3.706
472.78	3.028
473.13	4.429
473.48	4.494
473.83	4.573
474.17	3.236
474.52	4.653
474.87	4.553
475.22	3.772
475.57	4.138
475.92	2.974
476.27	3.946
476.61	4.082
476.96	3.683
477.31	3.349
477.66	3.829
478.01	3.136
478.36	4.125
478.70	3.375
479.05	3.461
479.40	3.378
479.75	3.559
480.10	2.982
480.45	3.379
480.79	3.106
481.14	3.082
481.49	3.654
481.84	3.109
482.19	3.635
482.53	3.440
482.88	3.164
483.23	3.224
483.58	3.412
483.92	3.515
484.27	2.745
484.62	2.974
484.97	2.523
485.31	2.432
485.66	2.163
486.01	1.861
486.36	1.692
486.70	1.940
487.05	2.143
487.40	2.196
487.75	2.218
488.09	2.548
488.44	2.201
488.79	2.604
489.13	2.597
489.48	2.488
489.83	3.064
490.17	2.280
490.52	3.410
490.87	3.166
491.22	3.456
491.56	2.916
491.91	2.932
492.26	3.353
492.60	2.949
492.95	2.619
493.30	3.224
493.64	3.546
493.99	3.157
494.34	3.423
494.68	3.251
495.03	3.148
495.37	3.118
495.72	3.216
496.07	3.666
496.41	3.186
496.76	3.166
497.11	3.287
497.45	3.260
497.80	3.407
498.14	2.802
498.49	2.537
498.84	3.212
499.18	3.190
499.53	2.659
499.87	3.308
500.22	3.344
500.56	4.223
500.91	3.365
501.26	3.129
501.60	3.322
501.95	3.437
502.29	3.468
502.64	3.352
502.98	2.992
503.33	3.428
503.67	3.619
504.02	3.555
504.36	4.024
504.71	3.029
505.06	3.133
505.40	3.452
505.75	2.748
506.09	3.158
506.44	3.059
506.78	3.312
507.13	3.079
507.47	3.838
507.82	3.597
508.16	3.343
508.51	3.856
508.85	3.625
509.19	2.959
509.54	3.571
509.88	2.988
510.23	3.548
510.57	3.818
510.92	3.729
511.26	3.237
511.61	3.786
511.95	3.497
512.30	3.128
512.64	3.976
512.98	3.591
513.33	3.961
513.67	3.735
514.02	2.976
514.36	3.714
514.70	3.818
515.05	3.458
515.39	4.150
515.74	3.491
516.08	4.528
516.42	4.218
516.77	4.236
517.11	3.441
517.46	4.402
517.80	3.833
518.14	3.532
518.49	3.734
518.83	4.602
519.17	4.099
519.52	3.565
519.86	4.392
520.20	4.277
520.55	4.428
520.89	4.197
521.23	4.403
521.58	3.962
521.92	4.103
522.26	3.783
522.61	3.988
522.95	4.236
523.29	3.652
523.64	3.963
523.98	3.758
524.32	3.920
524.66	4.029
525.01	3.983
525.35	3.284
525.69	3.571
526.04	4.174
526.38	4.332
526.72	4.540
527.06	3.829
527.41	3.342
527.75	4.437
528.09	3.982
528.43	3.442
528.78	4.917
529.12	4.303
529.46	4.042
529.80	4.579
530.15	5.047
530.49	3.569
530.83	4.557
531.17	4.439
531.51	4.734
531.86	3.548
532.20	5.411
532.54	5.125
532.88	5.199
533.22	3.998
533.57	4.136
533.91	4.335
534.25	3.949
534.59	4.271
534.93	4.283
535.27	4.285
535.62	4.151
535.96	3.704
536.30	3.878
536.64	4.057
536.98	4.380
537.32	3.423
537.66	4.000
538.01	4.608
538.35	4.331
538.69	5.297
539.03	4.094
539.37	3.259
539.71	3.694
540.05	4.183
540.39	4.452
540.73	4.398
541.07	4.737
541.42	4.436
541.76	4.839
542.10	4.398
542.44	4.238
542.78	5.007
543.12	3.711
543.46	5.115
543.80	4.424
544.14	3.979
544.48	4.254
544.82	3.913
545.16	3.904
545.50	4.049
545.84	4.368
546.18	4.377
546.52	4.336
546.86	4.330
547.20	4.518
547.54	4.476
547.88	4.783
548.22	4.732
548.56	4.528
548.90	3.969
549.24	3.838
549.58	4.366
549.92	4.533
550.26	4.688
550.60	4.357
550.94	4.296
551.28	3.511
551.62	4.457
551.96	3.789
552.30	4.983
552.64	5.139
552.98	4.881
553.32	4.653
553.66	4.840
554.00	4.942
554.34	5.176
554.68	4.578
555.02	4.161
555.36	4.384
555.69	3.654
556.03	4.711
556.37	4.434
556.71	4.025
557.05	3.782
557.39	4.759
557.73	3.599
558.07	4.423
558.41	4.848
558.75	4.115
559.08	4.773
559.42	4.535
559.76	4.926
560.10	3.854
560.44	5.101
560.78	4.125
561.12	4.288
561.45	4.759
561.79	3.757
562.13	4.158
562.47	4.167
562.81	4.463
563.15	3.880
563.48	4.310
563.82	4.044
564.16	3.401
564.50	3.776
564.84	4.235
565.17	3.475
565.51	4.281
565.85	4.124
566.19	3.193
566.52	4.433
566.86	3.737
567.20	4.953
567.54	3.767
567.88	3.476
568.21	4.074
568.55	3.488
568.89	3.064
569.23	3.431
569.56	3.603
569.90	2.717
570.24	3.086
570.57	2.992
570.91	2.489
571.25	2.656
571.59	2.533
571.92	2.333
572.26	2.860
572.60	2.853
572.93	2.879
573.27	3.106
573.61	2.652
573.95	2.558
574.28	2.387
574.62	2.478
574.96	2.342
575.29	2.498
575.63	2.363
575.97	2.551
576.30	2.708
576.64	2.401
576.98	2.431
577.31	2.287
577.65	2.324
577.98	2.111
578.32	2.045
578.66	2.600
578.99	2.283
579.33	2.227
579.67	2.238
580.00	2.541
580.34	2.302
580.67	2.340
581.01	2.676
581.35	2.311
581.68	2.176
582.02	2.047
582.35	1.953
582.69	2.407
583.02	2.030
583.36	2.513
583.70	2.572
584.03	2.482
584.37	2.609
584.70	1.881
585.04	2.520
585.37	2.400
585.71	2.679
586.04	2.585
586.38	2.534
586.72	2.679
587.05	2.445
587.39	2.296
587.72	2.628
588.06	2.268
588.39	2.798
588.73	2.464
589.06	2.805
589.40	2.997
589.73	2.816
590.07	3.096
590.40	2.338
590.73	3.123
591.07	3.093
591.40	3.205
591.74	3.290
592.07	2.923
592.41	3.266
592.74	2.959
593.08	3.231
593.41	2.910
593.75	2.498
594.08	3.285
594.41	3.005
594.75	2.736
595.08	3.436
595.42	3.082
595.75	2.885
596.09	3.004
596.42	3.576
596.75	3.377
597.09	3.593
597.42	2.909
597.75	3.320
598.09	3.130
598.42	2.878
598.76	2.756
599.09	3.117
599.42	2.584
599.76	3.001
600.09	3.133
600.42	2.739
600.76	3.143
601.09	3.169
601.42	3.082
601.76	3.378
602.09	3.083
602.42	3.941
602.76	3.748
603.09	2.832
603.42	3.631
603.76	2.706
604.09	2.831
604.42	2.935
604.76	4.007
605.09	2.971
605.42	2.993
605.75	2.856
606.09	3.091
606.42	2.902
606.75	3.111
607.09	3.725
607.42	2.910
607.75	3.207
608.08	3.040
608.42	3.362
608.75	3.246
609.08	3.191
609.41	3.760
609.75	3.573
610.08	3.911
610.41	3.073
610.74	3.027
611.07	3.508
611.41	3.729
611.74	4.475
612.07	4.400
612.40	3.778
612.73	3.632
613.07	3.933
613.40	4.318
613.73	3.041
614.06	4.140
614.39	3.880
614.72	4.474
615.06	4.202
615.39	3.238
615.72	3.681
616.05	3.456
616.38	3.613
616.71	4.157
617.05	4.122
617.38	3.548
617.71	3.544
618.04	4.687
618.37	3.962
618.70	4.294
619.03	4.671
619.36	4.616
619.69	4.577
620.03	4.945
620.36	4.278
620.69	4.932
621.02	4.720
621.35	4.464
621.68	4.595
622.01	4.644
622.34	5.598
622.67	4.411
623.00	4.769
623.33	4.217
623.66	5.575
623.99	4.639
624.32	5.492
624.65	4.308
624.99	4.533
625.32	4.127
625.65	5.034
625.98	4.689
626.31	6.143
626.64	5.143
626.97	4.821
627.30	4.738
627.63	4.922
627.96	6.056
628.29	5.074
628.62	6.953
628.95	7.075
629.28	5.657
629.61	6.966
629.94	5.714
630.26	5.434
630.59	6.101
630.92	6.226
631.25	5.133
631.58	6.507
631.91	5.477
632.24	5.696
632.57	6.191
632.90	7.675
633.23	6.488
633.56	5.763
633.89	7.814
634.22	7.832
634.55	7.692
634.88	5.868
635.20	7.766
635.53	6.867
635.86	6.683
636.19	6.471
636.52	6.690
636.85	6.644
637.18	6.106
637.51	8.511
637.83	4.562
638.16	8.056
638.49	6.927
638.82	6.448
639.15	7.125
639.48	7.980
639.81	6.971
640.13	7.552
640.46	7.919
640.79	6.869
641.12	6.465
641.45	7.682
641.77	7.364
642.10	8.187
642.43	7.357
642.76	6.966
643.09	8.589
643.41	6.829
643.74	9.259
644.07	8.994
644.40	9.816
644.73	8.819
645.05	9.984
645.38	6.951
645.71	9.340
646.04	8.306
646.36	10.684
646.69	9.532
647.02	9.864
647.35	9.622
647.67	9.027
648.00	10.081
648.33	6.271
648.66	7.879
648.98	8.696
649.31	7.623
649.64	7.623
649.96	8.346
650.29	8.215
650.62	6.311
650.94	9.562
651.27	8.784
651.60	9.151
651.92	9.105
652.25	7.003
652.58	9.813
652.90	8.531
653.23	8.629
653.56	8.661
653.88	7.290
654.21	8.847
654.54	8.086
654.86	7.788
655.19	6.757
655.52	4.065
655.84	1.844
656.17	1.970
656.49	2.495
656.82	2.572
657.15	1.993
657.47	1.621
657.80	1.374
658.13	1.283
658.45	2.109
658.78	2.416
659.10	2.246
659.43	3.165
659.75	2.724
660.08	3.291
660.41	4.842
660.73	6.989
661.06	7.325
661.38	10.182
661.71	9.615
662.03	11.045
662.36	7.157
662.68	9.036
663.01	11.717
663.33	9.130
663.66	13.025
663.98	9.071
664.31	9.874
664.63	11.336
664.96	8.249
665.28	10.451
665.61	9.747
665.93	9.859
666.26	9.939
666.58	8.996
666.91	10.782
667.23	10.787
667.56	7.991
667.88	11.966
668.21	11.514
668.53	10.412
668.86	9.740
669.18	12.793
669.50	9.348
669.83	13.072
670.15	11.778
670.48	9.586
670.80	12.500
671.13	11.465
671.45	10.000
671.77	12.220
672.10	9.982
672.42	9.364
672.75	9.619
673.07	7.570
673.39	8.137
673.72	8.203
674.04	10.588
674.37	10.097
674.69	7.157
675.01	8.787
675.34	12.320
675.66	12.421
675.98	10.794
676.31	11.975
676.63	11.677
676.95	11.530
677.28	8.178
677.60	9.231
677.92	11.181
678.25	11.294
678.57	12.351
678.89	10.621
679.22	10.020
679.54	9.733
679.86	8.073
680.18	7.156
680.51	9.220
680.83	11.388
681.15	11.132
681.48	11.342
681.80	9.284
682.12	9.004
682.44	8.511
682.77	10.387
683.09	11.159
683.41	11.308
683.73	9.272
684.06	10.331
684.38	10.568
684.70	9.496
685.02	11.445
685.34	10.073
685.67	7.692
685.99	7.388
686.31	9.044
686.63	7.244
686.96	11.071
687.28	7.581
687.60	8.696
687.92	7.678
688.24	9.125
688.56	11.847
688.89	10.581
689.21	12.664
689.53	9.812
689.85	9.534
690.17	10.352
690.49	12.527
690.82	11.916
691.14	10.714
691.46	9.283
691.78	10.241
692.10	9.917
692.42	10.579
692.74	9.129
693.06	10.851
693.39	12.731
693.71	11.354
694.03	11.789
694.35	10.390
694.67	9.382
694.99	13.902
695.31	9.804
695.63	12.919
695.95	11.247
696.27	8.629
696.59	10.104
696.91	11.140
697.23	10.798
697.56	11.087
697.88	8.998
698.20	9.375
698.52	9.677
698.84	13.808
699.16	10.829
699.48	11.401
699.80	11.353
700.12	14.805
700.44	12.202
700.76	14.917
701.08	14.368
701.40	12.849
701.72	13.994
702.04	18.750
702.36	13.031
702.68	12.181
703.00	13.850
703.32	12.500
703.64	11.260
703.96	12.535
704.28	13.372
704.60	13.196
704.91	13.947
705.23	16.422
705.55	19.269
705.87	18.937
706.19	13.781
706.51	16.822
706.83	16.667
707.15	17.087
707.47	10.606
707.79	12.039
708.11	12.557
708.43	11.667
708.74	9.949
709.06	15.065
709.38	12.336
709.70	15.988
710.02	15.134
710.34	16.061
710.66	13.731
710.98	17.898
711.29	15.988
711.61	17.994
711.93	13.141
712.25	16.720
712.57	16.544
712.89	14.879
713.20	17.021
713.52	15.789
713.84	12.658
714.16	16.159
714.48	13.506
714.80	15.805
715.11	14.986
715.43	14.243
715.75	13.623
716.07	14.696
716.39	13.166
716.70	18.272
717.02	17.266
717.34	16.254
717.66	19.403
717.97	21.912
718.29	16.296
718.61	18.248
718.93	20.221
719.24	15.571
719.56	15.932
719.88	16.610
720.20	18.581
720.51	18.118
720.83	19.331
721.15	15.672
721.46	14.894
721.78	19.713
722.10	20.755
722.42	19.173
722.73	18.352
723.05	15.164
723.37	17.409
723.68	20.077
724.00	19.919
724.32	16.129
724.63	15.041
724.95	15.900
725.27	19.433
725.58	19.922
725.90	20.438
726.22	17.736
726.53	17.361
726.85	19.113
727.16	19.217
727.48	13.475
727.80	18.182
728.11	16.667
728.43	18.846
728.74	17.204
729.06	20.073
729.38	18.750
729.69	17.438
730.01	14.334
730.32	14.583
730.64	18.395
730.96	13.531
731.27	15.563
731.59	16.820
731.90	15.743
732.22	13.975
732.53	11.455
732.85	13.462
733.16	14.148
733.48	15.947
733.80	16.883
734.11	14.013
734.43	14.201
734.74	12.857
735.06	13.754
735.37	17.630
735.69	13.376
736.00	17.320
736.32	17.134
736.63	16.613
736.95	16.933
737.26	11.565
737.58	12.258
737.89	18.060
738.21	18.771
738.52	15.714
738.83	16.981
739.15	16.923
739.46	18.978
739.78	16.667
740.09	12.923
740.41	16.452
740.72	14.286
741.04	18.148
741.35	17.500
741.66	25.333
741.98	20.755
742.29	22.488
742.61	20.690
742.92	15.837
743.23	18.376
743.55	21.200
743.86	21.491
744.18	23.009
744.49	21.053
744.80	29.108
745.12	21.364
745.43	20.264
745.74	23.874
746.06	22.936
746.37	20.179
746.68	17.647
747.00	21.296
747.31	23.810
747.62	17.257
747.94	20.264
748.25	17.447
748.56	21.145
748.88	18.317
749.19	25.500
749.50	17.674
749.82	19.512
750.13	12.653
750.44	16.788
750.75	17.895
751.07	19.614
751.38	18.118
751.69	17.329
752.01	18.421
752.32	16.968
752.63	17.021
752.94	18.033
753.26	22.400
753.57	15.447
753.88	17.969
754.19	15.357
754.51	19.792
754.82	17.690
755.13	21.132
755.44	18.797
755.75	16.423
756.07	18.794
756.38	11.679
756.69	16.443
757.00	14.970
757.31	15.430
757.63	13.450
757.94	12.601
758.25	13.725
758.56	13.333
758.87	13.172
759.18	13.333
759.50	16.614
759.81	15.265
760.12	14.687
760.43	15.759
760.74	12.228
761.05	15.254
761.36	14.439
761.67	16.761
761.99	15.528
762.30	15.278
762.61	13.740
762.92	23.047
763.23	17.647
763.54	21.600
763.85	15.234
764.16	19.615
764.47	19.772
764.78	16.961
765.10	12.025
765.41	16.224
765.72	17.964
766.03	15.987
766.34	16.000
766.65	24.681
766.96	23.077
767.27	29.442
767.58	27.604
767.89	30.526
768.20	26.437
768.51	19.797
768.82	20.642
769.13	15.854
769.44	18.219
769.75	17.167
770.06	14.220
770.37	22.624
770.68	25.463
770.99	17.778
771.30	19.262
771.61	19.283
771.92	20.082
772.23	22.269
772.54	18.974
772.85	26.702
773.16	29.787
773.47	30.435
773.78	30.964
774.09	23.810
774.39	26.316
774.70	25.926
775.01	39.130
775.32	43.791
775.63	33.553
775.94	34.532
776.25	40.157
776.56	35.821
776.87	39.344
777.18	26.563
777.48	37.405
777.79	40.152
778.10	42.222
778.41	37.500
778.72	24.818
779.03	34.899
779.34	29.530
779.65	27.027
779.95	37.423
780.26	35.948
780.57	31.034
780.88	36.719
781.19	32.331
781.50	34.459
781.80	28.302
782.11	25.424
782.42	24.051
782.73	26.380
783.04	36.486
783.34	37.324
783.65	35.616
783.96	32.090
784.27	30.769
784.57	31.655
784.88	30.556
785.19	46.825
785.50	37.736
785.81	41.791
786.11	35.246
786.42	37.984
786.73	35.398
787.04	44.340
787.34	42.857
787.65	45.000
787.96	32.432
788.26	36.364
788.57	48.305
788.88	39.669
789.19	39.583
789.49	36.364
789.80	38.168
790.11	46.667
790.41	40.594
790.72	46.988
791.03	57.609
791.33	53.488
791.64	36.082
791.95	44.554
792.25	56.667
792.56	49.351
792.87	67.949
793.17	62.025
793.48	64.368
793.79	56.322
794.09	51.136
794.40	39.496
794.70	43.382
795.01	29.630
795.32	30.935
795.62	40.157
795.93	32.759
796.23	43.363
796.54	42.353
796.85	66.216
797.15	61.972
797.46	57.576
797.76	66.265
798.07	63.291
798.37	58.462
798.68	65.152
798.99	57.746
799.29	68.831
799.60	53.409
799.90	69.863
800.21	65.672
800.51	67.241
800.82	84.211
801.12	75.410
801.43	86.364
801.73	62.162
802.04	85.714
802.34	70.370
802.65	93.750
802.95	84.746
803.26	89.063
803.56	60.000
803.87	66.154
804.17	60.294
804.48	88.889
804.78	74.138
805.09	60.294
805.39	75.000
805.70	64.286
806.00	73.770
806.30	53.030
806.61	63.415
806.91	50.633
807.22	56.579
807.52	55.224
807.83	71.831
808.13	78.125
808.43	75.000
808.74	48.684
809.04	76.812
809.35	59.701
809.65	68.421
809.95	83.871
810.26	71.186
810.56	84.127
810.86	115.909
811.17	126.190
811.47	88.333
811.77	85.185
812.08	96.364
812.38	116.000
812.69	116.667
812.99	134.091
813.29	118.367
813.59	76.190
813.90	108.163
814.20	72.727
814.50	64.615
814.81	88.235
815.11	114.286
815.41	80.328
815.72	107.143
816.02	103.636
816.32	119.048
816.62	110.000
816.93	114.634
817.23	133.333
817.53	109.091
817.84	142.424
818.14	80.435
818.44	91.111
818.74	135.294
819.04	117.500
819.35	111.429
819.65	155.882
819.95	132.143
820.25	180.000
820.56	112.821
820.86	100.000
821.16	111.628
821.46	102.564
821.76	114.000
822.07	125.714
822.37	122.500
822.67	154.545
822.97	101.961
823.27	182.143
823.57	116.216
823.88	180.000
824.18	153.333
824.48	128.571
824.78	160.000
825.08	145.833
825.38	124.324
825.69	121.951
825.99	166.667
826.29	110.345
826.59	160.526
826.89	115.789
827.19	135.294
827.49	151.613
827.79	104.545
828.09	115.909
828.39	114.894
828.70	110.204
829.00	151.852
829.30	135.484
829.60	100.000
829.90	280.000
830.20	164.286
830.50	182.609
830.80	191.304
831.10	153.333
831.40	183.333
831.70	152.174
832.00	215.385
832.30	155.556
832.60	237.500
832.90	216.667
833.20	342.857
833.50	164.516
833.80	155.172
834.10	196.875
834.40	176.923
834.70	277.778
835.00	238.095
835.30	137.143
835.60	315.385
835.90	155.172
836.20	414.286
836.50	158.621
836.80	148.000
837.10	138.889
837.40	200.000
837.70	247.059
838.00	203.704
838.30	209.524
838.60	233.333
838.90	250.000
839.19	250.000
839.49	314.286
839.79	240.000
840.09	240.000
840.39	214.286
840.69	221.739
840.99	244.444
841.29	250.000
841.59	258.333
841.88	281.250
842.18	168.966
842.48	223.810
842.78	183.333
843.08	200.000
843.38	140.625
843.68	800.000
843.97	200.000
844.27	151.724
844.57	280.952
844.87	275.000
845.17	192.593
845.47	1133.333
845.76	366.667
846.06	252.941
846.36	587.500
846.66	328.571
846.96	262.500
847.25	300.000
847.55	427.273
847.85	226.087
848.15	330.000
848.44	342.857
848.74	183.333
849.04	205.882
849.34	450.000
849.63	189.474
849.93	327.273
850.23	900.000
850.53	371.429
850.82	1950.000
851.12	-3700.000
851.42	4400.000
851.71	160.000
852.01	-1066.667
852.31	233.333
852.61	1600.000
852.90	252.381
853.20	200.000
853.50	258.824
853.79	204.762
854.09	208.333
854.39	262.500
854.68	159.459
854.98	154.839
855.28	146.667
855.57	165.517
855.87	185.185
856.17	215.789
856.46	213.333
856.76	241.176
857.05	189.655
857.35	216.667
857.65	333.333
857.94	221.739
858.24	219.231
858.53	280.000
858.83	186.364
859.13	293.333
859.42	0.000
859.72	555.556
860.01	472.727
860.31	213.636
860.60	200.000
860.90	182.609
861.20	511.111
861.49	475.000
861.79	-4400.000
862.08	587.500
862.38	257.143
862.67	330.769
862.97	370.588
863.26	422.222
863.56	272.222
863.85	391.667
864.15	387.500
864.44	320.000
864.74	783.333
865.03	487.500
865.33	289.474
865.62	454.545
865.92	361.538
866.21	325.000
866.51	0.000
866.80	390.909
867.10	940.000
867.39	407.692
867.69	372.727
867.98	236.842
868.27	436.364
868.57	278.947
868.86	-3700.000
869.16	343.750
869.45	1850.000
869.75	-4000.000
870.04	475.000
870.33	585.714
870.63	800.000
870.92	2050.000
871.22	585.714
871.51	270.588
871.80	228.571
872.10	342.857
>>>>>End Processed Spectral Data<<<<<
