SpectraSuite Data File
++++++++++++++++++++++++++++++++++++
Date: Wed May 13 20:26:10 PDT 2015
User: schluterlab
Dark Spectrum Present: Yes
Reference Spectrum Present: Yes
Number of Sampled Component Spectra: 1
Spectrometers: USB2E3373
Integration Time (usec): 3000 (USB2E3373)
Spectra Averaged: 3 (USB2E3373)
Boxcar Smoothing: 0 (USB2E3373)
Correct for Electrical Dark: No (USB2E3373)
Strobe/Lamp Enabled: No (USB2E3373)
Correct for Detector Non-linearity: No (USB2E3373)
Correct for Stray Light: No (USB2E3373)
Number of Pixels in Processed Spectrum: 2048
>>>>>Begin Processed Spectral Data<<<<<
178.53	0.000
178.91	-1275.000
179.29	-1175.000
179.67	-244.444
180.04	-1125.000
180.42	2550.000
180.80	920.000
181.18	-875.000
181.56	700.000
181.94	0.000
182.31	-585.714
182.69	1733.333
183.07	-637.500
183.45	-511.111
183.83	518.182
184.20	-320.000
184.58	1900.000
184.96	5100.000
185.34	-920.000
185.72	-587.500
186.09	-2050.000
186.47	2250.000
186.85	2300.000
187.23	4900.000
187.61	-1333.333
187.98	1175.000
188.36	554.545
188.74	481.818
189.12	-800.000
189.49	530.000
189.87	-4700.000
190.25	-1050.000
190.63	414.286
191.00	392.308
191.38	783.333
191.76	-875.000
192.14	1200.000
192.51	650.000
192.89	816.667
193.27	575.000
193.65	-1150.000
194.02	500.000
194.40	820.000
194.78	480.000
195.15	433.333
195.53	650.000
195.91	-1600.000
196.29	312.500
196.66	268.421
197.04	-320.000
197.42	0.000
197.79	520.000
198.17	-4300.000
198.55	585.714
198.92	537.500
199.30	960.000
199.68	0.000
200.05	338.889
200.43	642.857
200.81	4700.000
201.18	1500.000
201.56	-1300.000
201.94	522.222
202.31	588.889
202.69	433.333
203.07	430.000
203.44	0.000
203.82	1000.000
204.19	714.286
204.57	442.857
204.95	637.500
205.32	1466.667
205.70	418.182
206.08	378.571
206.45	2450.000
206.83	300.000
207.20	783.333
207.58	740.000
207.96	255.556
208.33	675.000
208.71	-550.000
209.08	800.000
209.46	555.556
209.84	400.000
210.21	-1733.333
210.59	1275.000
210.96	-500.000
211.34	2400.000
211.71	460.000
212.09	716.667
212.46	0.000
212.84	1366.667
213.22	1150.000
213.59	-4800.000
213.97	800.000
214.34	685.714
214.72	554.545
215.09	760.000
215.47	-1750.000
215.84	-1800.000
216.22	1366.667
216.59	342.857
216.97	1125.000
217.34	363.636
217.72	-616.667
218.09	0.000
218.47	-4100.000
218.84	566.667
219.22	585.714
219.59	1600.000
219.97	-642.857
220.34	920.000
220.72	-1600.000
221.09	435.714
221.47	1225.000
221.84	-683.333
222.22	0.000
222.59	1075.000
222.97	-1950.000
223.34	960.000
223.72	384.615
224.09	980.000
224.46	2050.000
224.84	-4200.000
225.21	-1000.000
225.59	-4300.000
225.96	490.000
226.34	295.000
226.71	2100.000
227.08	637.500
227.46	440.000
227.83	-1075.000
228.21	-1800.000
228.58	622.222
228.95	-2200.000
229.33	-2100.000
229.70	1733.333
230.08	757.143
230.45	-660.000
230.82	333.333
231.20	633.333
231.57	728.571
231.95	391.667
232.32	186.364
232.69	381.818
233.07	585.714
233.44	292.308
233.81	-1400.000
234.19	221.053
234.56	400.000
234.93	350.000
235.31	436.364
235.68	269.231
236.05	292.857
236.43	157.576
236.80	278.947
237.17	3800.000
237.55	200.000
237.92	167.857
238.29	185.714
238.67	151.613
239.04	151.724
239.41	108.333
239.79	91.304
240.16	92.857
240.53	109.091
240.91	90.196
241.28	76.000
241.65	74.000
242.02	76.812
242.40	61.290
242.77	66.667
243.14	53.763
243.51	58.427
243.89	51.765
244.26	34.444
244.63	47.312
245.00	31.915
245.38	43.564
245.75	33.645
246.12	27.523
246.49	45.985
246.87	41.600
247.24	37.692
247.61	35.714
247.98	31.373
248.36	25.676
248.73	26.752
249.10	29.936
249.47	24.859
249.84	27.273
250.22	22.995
250.59	26.036
250.96	27.778
251.33	25.118
251.70	21.782
252.08	18.571
252.45	22.870
252.82	14.783
253.19	18.723
253.56	22.353
253.94	19.502
254.31	19.141
254.68	20.385
255.05	18.819
255.42	19.106
255.79	17.647
256.16	17.690
256.54	13.074
256.91	17.794
257.28	15.468
257.65	13.201
258.02	16.460
258.39	14.196
258.76	13.043
259.14	15.476
259.51	14.894
259.88	11.491
260.25	16.314
260.62	13.584
260.99	13.354
261.36	16.216
261.73	14.040
262.10	11.337
262.47	13.803
262.85	13.928
263.22	7.977
263.59	12.251
263.96	13.462
264.33	13.838
264.70	13.947
265.07	11.253
265.44	14.394
265.81	11.192
266.18	13.065
266.55	11.463
266.92	11.548
267.29	13.657
267.66	11.927
268.03	12.273
268.40	11.916
268.77	10.740
269.14	10.811
269.51	11.512
269.88	11.888
270.25	10.158
270.62	10.562
270.99	11.613
271.36	12.446
271.73	8.879
272.10	10.870
272.47	11.613
272.84	10.823
273.21	11.530
273.58	8.734
273.95	9.015
274.32	8.058
274.69	10.493
275.06	8.465
275.43	10.638
275.80	8.617
276.17	7.943
276.54	8.108
276.91	9.091
277.28	9.570
277.65	10.445
278.02	7.867
278.39	10.937
278.76	10.364
279.13	11.509
279.50	11.173
279.87	9.163
280.23	8.782
280.60	9.284
280.97	6.470
281.34	9.735
281.71	9.455
282.08	11.324
282.45	6.364
282.82	7.460
283.19	7.665
283.56	8.070
283.92	8.460
284.29	8.818
284.66	6.715
285.03	5.967
285.40	8.979
285.77	8.249
286.14	6.736
286.51	8.500
286.87	7.692
287.24	8.958
287.61	7.544
287.98	7.143
288.35	5.547
288.72	8.411
289.08	6.103
289.45	7.249
289.82	8.943
290.19	5.651
290.56	9.035
290.93	6.344
291.29	7.362
291.66	6.932
292.03	10.465
292.40	10.132
292.77	7.249
293.13	8.507
293.50	5.685
293.87	5.630
294.24	8.000
294.60	6.259
294.97	6.250
295.34	8.039
295.71	6.392
296.08	6.838
296.44	6.327
296.81	5.812
297.18	6.911
297.55	5.409
297.91	5.937
298.28	6.693
298.65	6.789
299.02	7.115
299.38	6.242
299.75	3.908
300.12	6.003
300.48	5.875
300.85	6.658
301.22	5.605
301.59	4.798
301.95	6.297
302.32	5.905
302.69	6.213
303.05	4.242
303.42	4.321
303.79	6.116
304.15	3.846
304.52	4.403
304.89	5.226
305.25	4.292
305.62	5.776
305.99	6.257
306.35	5.257
306.72	5.157
307.09	5.993
307.45	5.856
307.82	4.799
308.19	5.850
308.55	5.286
308.92	4.941
309.29	5.069
309.65	5.726
310.02	5.814
310.38	5.484
310.75	5.069
311.12	5.118
311.48	4.911
311.85	6.604
312.22	4.995
312.58	4.366
312.95	4.963
313.31	4.660
313.68	4.678
314.05	6.706
314.41	4.824
314.78	5.740
315.14	5.065
315.51	5.252
315.87	5.149
316.24	4.568
316.61	4.678
316.97	5.186
317.34	4.305
317.70	5.258
318.07	5.582
318.43	4.501
318.80	5.342
319.16	6.121
319.53	4.597
319.89	5.143
320.26	5.700
320.62	5.060
320.99	5.051
321.35	4.949
321.72	5.544
322.08	6.219
322.45	4.975
322.81	5.426
323.18	4.817
323.54	4.917
323.91	6.415
324.27	3.728
324.64	3.821
325.00	3.427
325.37	5.641
325.73	5.655
326.10	4.678
326.46	3.315
326.83	5.004
327.19	5.124
327.56	4.965
327.92	4.899
328.29	3.549
328.65	4.328
329.01	4.332
329.38	3.885
329.74	5.078
330.11	4.241
330.47	5.326
330.84	6.710
331.20	4.098
331.56	5.872
331.93	2.778
332.29	4.880
332.66	5.133
333.02	4.662
333.38	4.788
333.75	5.793
334.11	4.893
334.48	4.082
334.84	4.779
335.20	5.182
335.57	4.261
335.93	4.464
336.29	4.762
336.66	4.599
337.02	3.258
337.38	4.352
337.75	3.832
338.11	3.939
338.47	4.512
338.84	5.225
339.20	3.119
339.56	4.471
339.93	4.727
340.29	4.076
340.65	4.189
341.02	4.799
341.38	4.804
341.74	3.947
342.11	5.153
342.47	3.789
342.83	3.853
343.20	4.502
343.56	4.381
343.92	4.211
344.28	5.442
344.65	4.299
345.01	3.956
345.37	4.631
345.73	5.668
346.10	5.030
346.46	4.322
346.82	4.613
347.19	3.759
347.55	4.762
347.91	4.612
348.27	5.423
348.63	5.100
349.00	3.317
349.36	4.269
349.72	4.731
350.08	4.700
350.45	5.777
350.81	4.712
351.17	3.971
351.53	3.522
351.89	3.053
352.26	4.736
352.62	4.812
352.98	4.700
353.34	3.615
353.70	3.764
354.07	4.355
354.43	4.286
354.79	3.540
355.15	4.310
355.51	5.356
355.87	3.265
356.24	3.583
356.60	4.330
356.96	4.344
357.32	4.170
357.68	4.409
358.04	4.434
358.40	5.146
358.77	4.617
359.13	3.631
359.49	4.000
359.85	3.016
360.21	2.951
360.57	4.280
360.93	3.385
361.29	4.837
361.66	4.025
362.02	4.254
362.38	3.574
362.74	4.688
363.10	3.331
363.46	3.668
363.82	3.930
364.18	3.965
364.54	4.309
364.90	4.249
365.26	3.824
365.62	4.310
365.98	3.214
366.35	2.794
366.71	4.121
367.07	3.860
367.43	3.193
367.79	4.211
368.15	4.741
368.51	3.125
368.87	4.211
369.23	3.292
369.59	3.910
369.95	3.456
370.31	4.630
370.67	3.913
371.03	3.895
371.39	3.207
371.75	3.529
372.11	3.343
372.47	3.959
372.83	4.251
373.19	3.324
373.55	3.400
373.91	4.492
374.27	3.299
374.63	3.055
374.99	4.096
375.35	2.791
375.71	2.673
376.07	3.909
376.42	3.508
376.78	3.844
377.14	3.189
377.50	3.576
377.86	3.125
378.22	3.287
378.58	2.945
378.94	3.206
379.30	3.244
379.66	3.109
380.02	4.054
380.38	2.793
380.74	2.701
381.09	4.462
381.45	3.626
381.81	3.686
382.17	3.376
382.53	3.648
382.89	3.889
383.25	3.315
383.61	3.841
383.97	2.752
384.32	3.805
384.68	3.036
385.04	3.073
385.40	2.601
385.76	3.133
386.12	3.109
386.48	3.650
386.83	3.335
387.19	3.834
387.55	3.711
387.91	3.023
388.27	2.882
388.62	3.995
388.98	2.764
389.34	3.817
389.70	3.433
390.06	3.802
390.42	3.632
390.77	3.626
391.13	2.872
391.49	3.617
391.85	3.310
392.20	2.271
392.56	2.967
392.92	3.414
393.28	2.189
393.64	3.417
393.99	3.787
394.35	3.536
394.71	2.886
395.07	3.240
395.42	2.967
395.78	2.863
396.14	3.104
396.50	3.634
396.85	3.115
397.21	3.637
397.57	3.410
397.92	3.005
398.28	3.195
398.64	3.345
399.00	3.581
399.35	2.369
399.71	3.588
400.07	3.371
400.42	3.681
400.78	3.679
401.14	2.683
401.49	3.104
401.85	2.662
402.21	3.114
402.57	2.838
402.92	3.405
403.28	3.873
403.63	3.094
403.99	2.038
404.35	2.788
404.70	2.218
405.06	2.854
405.42	3.493
405.77	2.800
406.13	2.991
406.49	3.193
406.84	3.308
407.20	2.778
407.55	2.744
407.91	3.400
408.27	2.297
408.62	3.010
408.98	3.002
409.34	2.399
409.69	2.903
410.05	2.602
410.40	3.242
410.76	2.569
411.11	4.162
411.47	3.514
411.83	3.299
412.18	3.154
412.54	2.989
412.89	2.711
413.25	2.597
413.60	3.891
413.96	3.218
414.31	2.916
414.67	3.992
415.03	2.517
415.38	3.479
415.74	2.637
416.09	3.135
416.45	3.079
416.80	2.974
417.16	3.954
417.51	4.048
417.87	2.762
418.22	3.407
418.58	3.551
418.93	3.686
419.29	3.183
419.64	3.526
420.00	3.902
420.35	3.826
420.71	3.168
421.06	2.446
421.42	3.158
421.77	3.643
422.12	1.909
422.48	2.105
422.83	2.737
423.19	3.425
423.54	3.308
423.90	2.841
424.25	3.071
424.61	3.333
424.96	2.624
425.31	2.824
425.67	3.034
426.02	2.800
426.38	2.686
426.73	3.101
427.09	3.040
427.44	2.933
427.79	2.818
428.15	3.393
428.50	2.165
428.85	3.397
429.21	3.258
429.56	2.592
429.92	2.869
430.27	2.681
430.62	2.253
430.98	2.750
431.33	2.423
431.68	2.723
432.04	2.769
432.39	1.999
432.74	2.513
433.10	3.056
433.45	3.557
433.80	2.439
434.16	2.938
434.51	3.000
434.86	3.079
435.22	3.057
435.57	2.310
435.92	2.750
436.28	3.203
436.63	3.642
436.98	2.862
437.34	3.160
437.69	3.267
438.04	2.754
438.39	3.164
438.75	3.544
439.10	2.737
439.45	3.129
439.81	2.477
440.16	3.162
440.51	2.519
440.86	2.837
441.22	2.892
441.57	2.548
441.92	2.917
442.27	2.422
442.63	2.422
442.98	3.324
443.33	2.554
443.68	2.581
444.03	3.416
444.39	2.093
444.74	2.219
445.09	3.342
445.44	3.007
445.79	2.721
446.15	3.494
446.50	2.262
446.85	2.467
447.20	3.162
447.55	3.406
447.91	3.034
448.26	2.727
448.61	3.053
448.96	3.322
449.31	2.756
449.66	3.208
450.02	2.284
450.37	2.154
450.72	2.933
451.07	2.742
451.42	2.736
451.77	3.230
452.12	3.349
452.47	3.545
452.83	2.681
453.18	3.178
453.53	2.783
453.88	2.717
454.23	3.168
454.58	3.574
454.93	3.751
455.28	2.431
455.63	3.095
455.98	3.036
456.34	3.329
456.69	3.507
457.04	3.715
457.39	2.513
457.74	2.902
458.09	3.163
458.44	2.851
458.79	2.495
459.14	3.217
459.49	3.503
459.84	2.715
460.19	2.770
460.54	3.356
460.89	3.236
461.24	3.218
461.59	4.009
461.94	3.761
462.29	3.561
462.64	2.680
462.99	2.537
463.34	3.600
463.69	2.689
464.04	3.710
464.39	3.420
464.74	3.030
465.09	3.136
465.44	2.992
465.79	2.461
466.14	3.065
466.49	2.670
466.84	3.503
467.19	2.957
467.54	3.938
467.89	2.941
468.24	3.083
468.59	4.151
468.94	3.054
469.29	3.663
469.64	3.681
469.99	3.112
470.34	2.576
470.68	3.807
471.03	2.857
471.38	3.197
471.73	3.264
472.08	3.947
472.43	3.204
472.78	3.489
473.13	3.979
473.48	3.620
473.83	3.354
474.17	2.987
474.52	3.784
474.87	3.269
475.22	3.540
475.57	2.794
475.92	2.762
476.27	2.875
476.61	3.475
476.96	2.584
477.31	2.355
477.66	3.228
478.01	3.450
478.36	2.961
478.70	2.440
479.05	3.195
479.40	3.173
479.75	2.847
480.10	2.485
480.45	2.951
480.79	2.102
481.14	2.544
481.49	2.895
481.84	2.606
482.19	3.180
482.53	2.982
482.88	2.745
483.23	2.523
483.58	2.821
483.92	2.530
484.27	2.179
484.62	2.328
484.97	2.523
485.31	1.884
485.66	1.352
486.01	1.069
486.36	1.176
486.70	1.281
487.05	1.466
487.40	1.430
487.75	1.643
488.09	1.759
488.44	1.868
488.79	2.170
489.13	2.139
489.48	2.447
489.83	1.985
490.17	2.499
490.52	2.214
490.87	2.759
491.22	2.365
491.56	2.096
491.91	2.513
492.26	2.435
492.60	2.903
492.95	1.964
493.30	2.523
493.64	2.147
493.99	2.414
494.34	2.729
494.68	2.747
495.03	2.867
495.37	2.606
495.72	2.193
496.07	2.738
496.41	1.991
496.76	2.595
497.11	2.747
497.45	2.888
497.80	2.687
498.14	2.367
498.49	2.146
498.84	2.733
499.18	2.333
499.53	2.659
499.87	2.796
500.22	3.156
500.56	2.718
500.91	2.500
501.26	2.703
501.60	2.183
501.95	2.566
502.29	3.140
502.64	2.374
502.98	2.618
503.33	2.742
503.67	2.831
504.02	2.666
504.36	2.714
504.71	2.931
505.06	2.940
505.40	2.382
505.75	2.700
506.09	1.798
506.44	2.417
506.78	2.971
507.13	2.675
507.47	3.030
507.82	3.293
508.16	2.381
508.51	3.298
508.85	2.582
509.19	2.398
509.54	2.755
509.88	2.215
510.23	2.211
510.57	3.560
510.92	2.848
511.26	2.672
511.61	3.527
511.95	2.453
512.30	2.174
512.64	3.063
512.98	2.733
513.33	3.373
513.67	3.308
514.02	2.327
514.36	3.168
514.70	2.933
515.05	2.900
515.39	3.085
515.74	2.984
516.08	3.466
516.42	3.219
516.77	3.066
517.11	2.497
517.46	3.104
517.80	2.846
518.14	2.490
518.49	3.034
518.83	3.295
519.17	3.580
519.52	2.773
519.86	2.966
520.20	3.121
520.55	3.890
520.89	3.041
521.23	3.800
521.58	2.941
521.92	3.491
522.26	1.952
522.61	3.053
522.95	3.131
523.29	2.861
523.64	3.049
523.98	3.019
524.32	3.197
524.66	3.848
525.01	3.615
525.35	3.036
525.69	3.140
526.04	3.364
526.38	3.600
526.72	4.110
527.06	3.578
527.41	2.228
527.75	3.730
528.09	3.532
528.43	3.505
528.78	3.626
529.12	3.455
529.46	3.980
529.80	3.403
530.15	3.925
530.49	2.892
530.83	3.987
531.17	3.721
531.51	4.150
531.86	3.290
532.20	3.716
532.54	3.972
532.88	3.851
533.22	2.998
533.57	3.765
533.91	3.552
534.25	3.463
534.59	3.356
534.93	3.569
535.27	3.259
535.62	3.968
535.96	3.076
536.30	3.242
536.64	4.250
536.98	3.052
537.32	3.292
537.66	2.733
538.01	3.621
538.35	4.331
538.69	3.829
539.03	3.509
539.37	2.875
539.71	2.333
540.05	3.595
540.39	3.189
540.73	3.752
541.07	3.764
541.42	3.523
541.76	4.065
542.10	3.234
542.44	3.510
542.78	3.491
543.12	3.135
543.46	3.934
543.80	4.294
544.14	3.017
544.48	3.492
544.82	3.271
545.16	3.188
545.50	3.021
545.84	3.024
546.18	3.165
546.52	4.198
546.86	3.436
547.20	4.316
547.54	4.008
547.88	3.763
548.22	3.487
548.56	3.396
548.90	3.329
549.24	2.963
549.58	3.547
549.92	3.091
550.26	3.196
550.60	3.250
550.94	3.028
551.28	2.707
551.62	3.163
551.96	3.579
552.30	4.232
552.64	3.854
552.98	4.136
553.32	3.709
553.66	4.499
554.00	3.638
554.34	2.968
554.68	4.363
555.02	4.020
555.36	3.967
555.69	3.518
556.03	3.096
556.37	3.411
556.71	2.933
557.05	3.221
557.39	3.989
557.73	3.529
558.07	3.191
558.41	3.039
558.75	3.380
559.08	4.176
559.42	2.872
559.76	3.824
560.10	3.283
560.44	3.145
560.78	3.260
561.12	3.694
561.45	3.585
561.79	4.285
562.13	3.152
562.47	3.074
562.81	2.929
563.15	4.147
563.48	3.515
563.82	3.262
564.16	3.336
564.50	2.474
564.84	4.046
565.17	2.960
565.51	3.003
565.85	3.871
566.19	2.880
566.52	3.293
566.86	3.376
567.20	3.420
567.54	2.911
567.88	2.825
568.21	3.439
568.55	3.387
568.89	2.383
569.23	2.629
569.56	2.186
569.90	2.151
570.24	1.830
570.57	1.802
570.91	2.036
571.25	1.915
571.59	2.091
571.92	1.901
572.26	1.646
572.60	1.802
572.93	1.919
573.27	2.100
573.61	1.647
573.95	1.835
574.28	1.558
574.62	1.579
574.96	1.673
575.29	1.528
575.63	1.804
575.97	1.640
576.30	1.859
576.64	1.440
576.98	1.458
577.31	1.340
577.65	1.412
577.98	1.387
578.32	1.450
578.66	1.719
578.99	1.621
579.33	1.598
579.67	1.387
580.00	1.391
580.34	1.471
580.67	1.607
581.01	1.776
581.35	1.432
581.68	1.432
582.02	1.224
582.35	1.338
582.69	1.611
583.02	1.423
583.36	1.545
583.70	1.523
584.03	1.594
584.37	1.897
584.70	1.463
585.04	1.884
585.37	1.631
585.71	1.762
586.04	1.715
586.38	1.750
586.72	2.154
587.05	1.576
587.39	1.636
587.72	1.881
588.06	1.654
588.39	1.975
588.73	1.525
589.06	2.150
589.40	1.919
589.73	1.795
590.07	2.278
590.40	1.717
590.73	2.030
591.07	2.483
591.40	2.446
591.74	2.944
592.07	2.051
592.41	2.274
592.74	2.509
593.08	2.298
593.41	1.930
593.75	1.999
594.08	2.280
594.41	2.192
594.75	2.181
595.08	2.362
595.42	2.452
595.75	2.315
596.09	2.140
596.42	2.750
596.75	2.659
597.09	2.814
597.42	2.277
597.75	2.630
598.09	2.652
598.42	2.405
598.76	2.067
599.09	1.976
599.42	2.220
599.76	2.123
600.09	1.676
600.42	2.155
600.76	2.179
601.09	2.004
601.42	2.093
601.76	2.467
602.09	2.055
602.42	2.588
602.76	2.781
603.09	2.439
603.42	2.070
603.76	2.477
604.09	2.288
604.42	2.038
604.76	2.784
605.09	2.534
605.42	2.864
605.75	2.939
606.09	2.359
606.42	2.043
606.75	2.447
607.09	2.972
607.42	1.840
607.75	2.152
608.08	2.301
608.42	2.958
608.75	2.885
609.08	2.544
609.41	2.808
609.75	2.430
610.08	3.063
610.41	2.095
610.74	2.460
611.07	2.372
611.41	2.993
611.74	3.369
612.07	3.106
612.40	3.148
612.73	2.737
613.07	2.963
613.40	3.581
613.73	2.202
614.06	2.957
614.39	2.832
614.72	2.737
615.06	3.624
615.39	2.654
615.72	2.914
616.05	2.605
616.38	3.391
616.71	2.850
617.05	3.121
617.38	3.428
617.71	2.823
618.04	3.425
618.37	3.903
618.70	3.547
619.03	4.079
619.36	4.209
619.69	3.239
620.03	4.739
620.36	4.345
620.69	4.452
621.02	4.351
621.35	3.681
621.68	3.193
622.01	3.947
622.34	4.614
622.67	3.270
623.00	3.448
623.33	3.503
623.66	3.931
623.99	3.756
624.32	3.495
624.65	4.096
624.99	3.258
625.32	3.548
625.65	3.681
625.98	3.689
626.31	4.899
626.64	4.082
626.97	4.156
627.30	3.658
627.63	4.676
627.96	5.046
628.29	4.549
628.62	5.398
628.95	6.226
629.28	5.109
629.61	5.408
629.94	4.667
630.26	3.908
630.59	4.671
630.92	5.172
631.25	4.936
631.58	4.805
631.91	4.665
632.24	4.641
632.57	4.932
632.90	5.373
633.23	4.474
633.56	4.859
633.89	5.210
634.22	6.016
634.55	6.154
634.88	4.311
635.20	6.571
635.53	6.747
635.86	5.693
636.19	6.118
636.52	5.998
636.85	5.269
637.18	5.530
637.51	6.265
637.83	4.192
638.16	4.220
638.49	7.431
638.82	6.827
639.15	7.250
639.48	7.107
639.81	6.434
640.13	6.901
640.46	5.638
640.79	7.133
641.12	5.365
641.45	6.704
641.77	6.333
642.10	6.871
642.43	5.706
642.76	6.811
643.09	8.742
643.41	7.587
643.74	7.716
644.07	6.250
644.40	8.129
644.73	8.504
645.05	9.667
645.38	6.161
645.71	7.246
646.04	7.973
646.36	9.683
646.69	8.863
647.02	8.333
647.35	8.076
647.67	8.142
648.00	10.244
648.33	5.611
648.66	7.727
648.98	7.496
649.31	7.175
649.64	7.175
649.96	6.706
650.29	8.373
650.62	7.282
650.94	9.076
651.27	8.446
651.60	8.319
651.92	9.425
652.25	7.655
652.58	7.944
652.90	7.741
653.23	4.777
653.56	9.134
653.88	7.448
654.21	9.479
654.54	7.921
654.86	8.255
655.19	6.622
655.52	3.646
655.84	1.109
656.17	1.010
656.49	1.290
656.82	1.273
657.15	1.085
657.47	1.018
657.80	0.755
658.13	0.787
658.45	1.216
658.78	1.340
659.10	1.718
659.43	2.008
659.75	2.590
660.08	3.101
660.41	4.097
660.73	7.116
661.06	6.688
661.38	8.727
661.71	9.808
662.03	9.862
662.36	8.350
662.68	9.237
663.01	9.293
663.33	10.191
663.66	11.555
663.98	7.343
664.31	8.613
664.63	9.514
664.96	7.445
665.28	9.016
665.61	9.552
665.93	8.048
666.26	9.128
666.58	7.950
666.91	9.725
667.23	11.236
667.56	8.207
667.88	10.897
668.21	12.580
668.53	7.375
668.86	11.255
669.18	11.940
669.50	11.304
669.83	11.329
670.15	10.667
670.48	10.675
670.80	11.853
671.13	11.253
671.45	8.511
671.77	10.387
672.10	9.982
672.42	8.127
672.75	9.121
673.07	9.683
673.39	6.691
673.72	5.469
674.04	9.020
674.37	9.515
674.69	8.180
675.01	8.787
675.34	12.731
675.66	10.526
675.98	12.424
676.31	9.874
676.63	10.828
676.95	9.853
677.28	8.879
677.60	9.890
677.92	11.603
678.25	12.115
678.57	9.163
678.89	10.020
679.22	8.841
679.54	9.160
679.86	8.991
680.18	9.302
680.51	8.688
680.83	9.786
681.15	9.245
681.48	9.641
681.80	7.350
682.12	9.962
682.44	7.350
682.77	8.758
683.09	13.734
683.41	10.421
683.73	9.051
684.06	10.744
684.38	8.219
684.70	8.721
685.02	8.818
685.34	8.974
685.67	7.343
685.99	9.278
686.31	8.874
686.63	5.654
686.96	8.571
687.28	9.206
687.60	7.065
687.92	9.872
688.24	7.605
688.56	9.036
688.89	11.826
689.21	10.917
689.53	10.856
689.85	8.426
690.17	8.696
690.49	12.739
690.82	9.579
691.14	10.045
691.46	9.494
691.78	9.237
692.10	9.298
692.42	11.976
692.74	9.129
693.06	9.149
693.39	11.704
693.71	10.262
694.03	11.368
694.35	9.740
694.67	10.297
694.99	11.463
695.31	9.069
695.63	11.244
695.95	12.225
696.27	9.898
696.59	12.435
696.91	12.435
697.23	10.798
697.56	12.154
697.88	6.135
698.20	9.375
698.52	11.183
698.84	9.800
699.16	10.138
699.48	9.739
699.80	11.594
700.12	11.948
700.44	14.324
700.76	13.536
701.08	13.218
701.40	11.732
701.72	11.662
702.04	17.614
702.36	9.348
702.68	10.765
703.00	13.019
703.32	13.298
703.64	10.456
703.96	13.649
704.28	15.407
704.60	12.610
704.91	15.134
705.23	13.196
705.55	12.625
705.87	14.618
706.19	12.721
706.51	14.953
706.83	14.545
707.15	14.846
707.47	11.364
707.79	11.302
708.11	12.785
708.43	10.238
708.74	10.969
709.06	12.208
709.38	13.648
709.70	14.535
710.02	14.837
710.34	10.000
710.66	14.328
710.98	12.784
711.29	14.826
711.61	19.174
711.93	11.218
712.25	12.862
712.57	13.235
712.89	12.803
713.20	16.717
713.52	12.500
713.84	12.342
714.16	10.366
714.48	14.943
714.80	14.894
715.11	14.409
715.43	13.650
715.75	15.942
716.07	13.419
716.39	15.361
716.70	14.286
717.02	19.424
717.34	18.021
717.66	16.418
717.97	17.928
718.29	16.296
718.61	16.058
718.93	17.647
719.24	14.187
719.56	13.898
719.88	14.915
720.20	17.230
720.51	18.467
720.83	20.074
721.15	16.418
721.46	17.730
721.78	16.487
722.10	17.358
722.42	17.293
722.73	12.734
723.05	12.705
723.37	17.004
723.68	18.919
724.00	16.260
724.32	17.339
724.63	15.854
724.95	15.900
725.27	17.409
725.58	16.406
725.90	16.423
726.22	17.736
726.53	13.889
726.85	19.454
727.16	16.726
727.48	18.085
727.80	14.773
728.11	17.754
728.43	17.692
728.74	15.771
729.06	21.898
729.38	18.750
729.69	18.505
730.01	11.945
730.32	14.583
730.64	15.719
730.96	11.551
731.27	17.219
731.59	13.150
731.90	13.994
732.22	14.286
732.53	12.693
732.85	14.744
733.16	13.505
733.48	15.282
733.80	13.312
734.11	12.739
734.43	16.864
734.74	13.143
735.06	10.315
735.37	15.029
735.69	10.828
736.00	14.052
736.32	19.003
736.63	12.460
736.95	16.933
737.26	8.503
737.58	13.548
737.89	17.391
738.21	14.676
738.52	15.714
738.83	14.340
739.15	15.385
739.46	15.328
739.78	15.278
740.09	16.000
740.41	13.871
740.72	16.028
741.04	15.185
741.35	17.917
741.66	20.444
741.98	14.151
742.29	22.010
742.61	26.293
742.92	17.195
743.23	18.376
743.55	20.000
743.86	20.614
744.18	21.681
744.49	22.488
744.80	23.944
745.12	25.455
745.43	23.348
745.74	21.622
746.06	22.018
746.37	21.525
746.68	20.814
747.00	21.296
747.31	23.810
747.62	17.699
747.94	16.740
748.25	14.468
748.56	20.705
748.88	20.297
749.19	26.000
749.50	20.930
749.82	20.325
750.13	14.286
750.44	16.423
750.75	15.789
751.07	18.328
751.38	19.164
751.69	17.329
752.01	16.541
752.32	13.357
752.63	15.603
752.94	12.295
753.26	22.800
753.57	17.073
753.88	19.141
754.19	15.714
754.51	18.750
754.82	16.245
755.13	16.226
755.44	14.286
755.75	16.423
756.07	17.021
756.38	12.409
756.69	16.107
757.00	15.868
757.31	17.507
757.63	13.743
757.94	13.405
758.25	13.235
758.56	13.086
758.87	14.247
759.18	16.667
759.50	15.361
759.81	14.642
760.12	14.687
760.43	14.613
760.74	10.598
761.05	13.842
761.36	12.834
761.67	16.193
761.99	13.354
762.30	15.972
762.61	19.466
762.92	21.484
763.23	19.748
763.54	22.000
763.85	20.312
764.16	21.538
764.47	21.673
764.78	13.074
765.10	15.190
765.41	11.504
765.72	15.569
766.03	13.793
766.34	15.000
766.65	17.872
766.96	22.650
767.27	18.274
767.58	27.604
767.89	28.947
768.20	24.713
768.51	22.335
768.82	23.394
769.13	13.821
769.44	14.980
769.75	17.597
770.06	11.009
770.37	18.100
770.68	24.537
770.99	16.000
771.30	16.803
771.61	23.318
771.92	20.082
772.23	23.950
772.54	24.615
772.85	24.607
773.16	20.745
773.47	23.370
773.78	27.919
774.09	30.952
774.39	28.655
774.70	27.778
775.01	33.333
775.32	37.255
775.63	37.500
775.94	25.899
776.25	46.457
776.56	33.582
776.87	39.344
777.18	32.031
777.48	37.405
777.79	36.364
778.10	40.000
778.41	33.929
778.72	32.847
779.03	35.570
779.34	32.886
779.65	25.676
779.95	28.834
780.26	33.333
780.57	31.034
780.88	46.094
781.19	29.323
781.50	33.784
781.80	27.044
782.11	29.944
782.42	25.949
782.73	27.607
783.04	37.838
783.34	34.507
783.65	42.466
783.96	34.328
784.27	33.566
784.57	25.180
784.88	25.000
785.19	34.921
785.50	40.566
785.81	38.806
786.11	44.262
786.42	46.512
786.73	33.628
787.04	35.849
787.34	30.357
787.65	43.000
787.96	41.441
788.26	34.711
788.57	42.373
788.88	35.537
789.19	33.333
789.49	42.424
789.80	40.458
790.11	45.714
790.41	42.574
790.72	38.554
791.03	42.391
791.33	44.186
791.64	50.515
791.95	45.545
792.25	57.778
792.56	57.143
792.87	60.256
793.17	55.696
793.48	57.471
793.79	60.920
794.09	52.273
794.40	44.538
794.70	38.235
795.01	37.778
795.32	29.496
795.62	37.008
795.93	45.690
796.23	39.823
796.54	38.824
796.85	58.108
797.15	77.465
797.46	57.576
797.76	74.699
798.07	63.291
798.37	55.385
798.68	54.545
798.99	52.113
799.29	64.935
799.60	46.591
799.90	68.493
800.21	68.657
800.51	67.241
800.82	85.965
801.12	70.492
801.43	57.576
801.73	56.757
802.04	79.365
802.34	79.012
802.65	76.563
802.95	93.220
803.26	71.875
803.56	51.429
803.87	66.154
804.17	64.706
804.48	94.444
804.78	68.966
805.09	58.824
805.39	78.846
805.70	64.286
806.00	91.803
806.30	56.061
806.61	62.195
806.91	48.101
807.22	61.842
807.52	47.761
807.83	74.648
808.13	68.750
808.43	78.333
808.74	57.895
809.04	76.812
809.35	68.657
809.65	65.789
809.95	83.871
810.26	88.136
810.56	85.714
810.86	100.000
811.17	111.905
811.47	93.333
811.77	70.370
812.08	83.636
812.38	100.000
812.69	113.889
812.99	125.000
813.29	89.796
813.59	73.810
813.90	104.082
814.20	85.455
814.50	78.462
814.81	73.529
815.11	100.000
815.41	86.885
815.72	126.190
816.02	98.182
816.32	109.524
816.62	107.500
816.93	85.366
817.23	111.905
817.53	102.273
817.84	121.212
818.14	100.000
818.44	100.000
818.74	141.176
819.04	115.000
819.35	128.571
819.65	117.647
819.95	150.000
820.25	180.000
820.56	130.769
820.86	86.364
821.16	113.953
821.46	105.128
821.76	104.000
822.07	120.000
822.37	132.500
822.67	115.152
822.97	92.157
823.27	146.429
823.57	124.324
823.88	120.000
824.18	143.333
824.48	128.571
824.78	196.000
825.08	137.500
825.38	154.054
825.69	114.634
825.99	187.500
826.29	134.483
826.59	139.474
826.89	110.526
827.19	123.529
827.49	187.097
827.79	129.545
828.09	125.000
828.39	78.723
828.70	100.000
829.00	140.741
829.30	141.935
829.60	145.000
829.90	286.667
830.20	178.571
830.50	173.913
830.80	178.261
831.10	153.333
831.40	130.000
831.70	156.522
832.00	219.231
832.30	192.593
832.60	318.750
832.90	190.000
833.20	378.571
833.50	187.097
833.80	158.621
834.10	162.500
834.40	184.615
834.70	255.556
835.00	242.857
835.30	131.429
835.60	246.154
835.90	182.759
836.20	307.143
836.50	165.517
836.80	156.000
837.10	150.000
837.40	242.857
837.70	252.941
838.00	181.481
838.30	214.286
838.60	214.286
838.90	226.923
839.19	250.000
839.49	321.429
839.79	270.000
840.09	215.000
840.39	252.381
840.69	191.304
840.99	322.222
841.29	420.000
841.59	275.000
841.88	281.250
842.18	155.172
842.48	195.238
842.78	150.000
843.08	173.913
843.38	171.875
843.68	700.000
843.97	203.846
844.27	155.172
844.57	252.381
844.87	281.250
845.17	162.963
845.47	1166.667
845.76	422.222
846.06	247.059
846.36	512.500
846.66	300.000
846.96	300.000
847.25	345.455
847.55	309.091
847.85	226.087
848.15	390.000
848.44	407.143
848.74	183.333
849.04	252.941
849.34	460.000
849.63	247.368
849.93	427.273
850.23	1160.000
850.53	364.286
850.82	1900.000
851.12	-5000.000
851.42	3200.000
851.71	225.000
852.01	-1000.000
852.31	216.667
852.61	1466.667
852.90	200.000
853.20	188.000
853.50	235.294
853.79	242.857
854.09	170.833
854.39	318.750
854.68	175.676
854.98	158.065
855.28	166.667
855.57	186.207
855.87	159.259
856.17	157.895
856.46	213.333
856.76	294.118
857.05	155.172
857.35	179.167
857.65	306.667
857.94	178.261
858.24	219.231
858.53	215.000
858.83	218.182
859.13	273.333
859.42	0.000
859.72	488.889
860.01	309.091
860.31	222.727
860.60	268.421
860.90	208.696
861.20	466.667
861.49	441.667
861.79	-4900.000
862.08	550.000
862.38	238.095
862.67	330.769
862.97	294.118
863.26	477.778
863.56	238.889
863.85	366.667
864.15	525.000
864.44	313.333
864.74	633.333
865.03	600.000
865.33	294.737
865.62	400.000
865.92	376.923
866.21	275.000
866.51	0.000
866.80	436.364
867.10	980.000
867.39	353.846
867.69	418.182
867.98	221.053
868.27	481.818
868.57	336.842
868.86	-3600.000
869.16	287.500
869.45	1800.000
869.75	-4100.000
870.04	358.333
870.33	542.857
870.63	925.000
870.92	2100.000
871.22	614.286
871.51	241.176
871.80	238.095
872.10	328.571
>>>>>End Processed Spectral Data<<<<<
