SpectraSuite Data File
++++++++++++++++++++++++++++++++++++
Date: Wed May 13 20:28:15 PDT 2015
User: schluterlab
Dark Spectrum Present: Yes
Reference Spectrum Present: Yes
Number of Sampled Component Spectra: 1
Spectrometers: USB2E3373
Integration Time (usec): 3000 (USB2E3373)
Spectra Averaged: 3 (USB2E3373)
Boxcar Smoothing: 0 (USB2E3373)
Correct for Electrical Dark: No (USB2E3373)
Strobe/Lamp Enabled: No (USB2E3373)
Correct for Detector Non-linearity: No (USB2E3373)
Correct for Stray Light: No (USB2E3373)
Number of Pixels in Processed Spectrum: 2048
>>>>>Begin Processed Spectral Data<<<<<
178.53	0.000
178.91	-1200.000
179.29	-875.000
179.67	-133.333
180.04	-925.000
180.42	2150.000
180.80	1080.000
181.18	-725.000
181.56	557.143
181.94	0.000
182.31	-628.571
182.69	1266.667
183.07	-437.500
183.45	-533.333
183.83	481.818
184.20	-340.000
184.58	2000.000
184.96	4000.000
185.34	-780.000
185.72	-475.000
186.09	-1400.000
186.47	2450.000
186.85	1850.000
187.23	4400.000
187.61	-1366.667
187.98	1025.000
188.36	381.818
188.74	400.000
189.12	-680.000
189.49	440.000
189.87	-4300.000
190.25	-925.000
190.63	364.286
191.00	376.923
191.38	650.000
191.76	-925.000
192.14	1150.000
192.51	587.500
192.89	833.333
193.27	437.500
193.65	-850.000
194.02	400.000
194.40	800.000
194.78	420.000
195.15	433.333
195.53	520.000
195.91	-1850.000
196.29	331.250
196.66	305.263
197.04	-360.000
197.42	0.000
197.79	400.000
198.17	-3500.000
198.55	314.286
198.92	612.500
199.30	920.000
199.68	0.000
200.05	277.778
200.43	657.143
200.81	3700.000
201.18	1500.000
201.56	-1266.667
201.94	411.111
202.31	555.556
202.69	350.000
203.07	490.000
203.44	0.000
203.82	1000.000
204.19	571.429
204.57	350.000
204.95	587.500
205.32	1433.333
205.70	518.182
206.08	342.857
206.45	2600.000
206.83	350.000
207.20	783.333
207.58	720.000
207.96	322.222
208.33	600.000
208.71	-633.333
209.08	785.714
209.46	466.667
209.84	318.182
210.21	-1066.667
210.59	1000.000
210.96	-437.500
211.34	2050.000
211.71	580.000
212.09	683.333
212.46	0.000
212.84	1400.000
213.22	1250.000
213.59	-3800.000
213.97	600.000
214.34	714.286
214.72	445.455
215.09	900.000
215.47	-1950.000
215.84	-2400.000
216.22	1500.000
216.59	342.857
216.97	1250.000
217.34	500.000
217.72	-550.000
218.09	0.000
218.47	-3900.000
218.84	444.444
219.22	757.143
219.59	1633.333
219.97	-700.000
220.34	700.000
220.72	-1333.333
221.09	342.857
221.47	1275.000
221.84	-783.333
222.22	0.000
222.59	1025.000
222.97	-2350.000
223.34	940.000
223.72	407.692
224.09	840.000
224.46	1950.000
224.84	-3200.000
225.21	-780.000
225.59	-4400.000
225.96	570.000
226.34	300.000
226.71	2200.000
227.08	462.500
227.46	450.000
227.83	-875.000
228.21	-2200.000
228.58	533.333
228.95	-2300.000
229.33	-1900.000
229.70	1433.333
230.08	700.000
230.45	-760.000
230.82	375.000
231.20	750.000
231.57	614.286
231.95	308.333
232.32	236.364
232.69	327.273
233.07	442.857
233.44	284.615
233.81	-1533.333
234.19	257.895
234.56	391.667
234.93	350.000
235.31	372.727
235.68	269.231
236.05	300.000
236.43	160.606
236.80	263.158
237.17	4300.000
237.55	238.095
237.92	232.143
238.29	271.429
238.67	148.387
239.04	213.793
239.41	144.444
239.79	130.435
240.16	161.905
240.53	154.545
240.91	125.490
241.28	124.000
241.65	144.000
242.02	123.188
242.40	108.065
242.77	116.667
243.14	79.570
243.51	107.865
243.89	96.471
244.26	93.333
244.63	72.043
245.00	86.170
245.38	89.109
245.75	80.374
246.12	81.651
246.49	76.642
246.87	92.800
247.24	84.615
247.61	82.143
247.98	73.856
248.36	60.811
248.73	77.707
249.10	82.803
249.47	65.537
249.84	76.471
250.22	68.449
250.59	72.781
250.96	77.778
251.33	68.720
251.70	70.792
252.08	70.952
252.45	65.919
252.82	63.043
253.19	68.511
253.56	63.529
253.94	61.826
254.31	65.625
254.68	64.615
255.05	65.314
255.42	66.260
255.79	70.221
256.16	68.953
256.54	61.484
256.91	66.548
257.28	61.151
257.65	62.376
258.02	62.733
258.39	60.568
258.76	61.873
259.14	60.119
259.51	61.094
259.88	59.006
260.25	59.517
260.62	56.647
260.99	62.112
261.36	62.162
261.73	56.734
262.10	56.105
262.47	61.690
262.85	57.660
263.22	56.410
263.59	59.829
263.96	56.044
264.33	57.702
264.70	58.684
265.07	56.777
265.44	59.596
265.81	55.718
266.18	61.809
266.55	57.561
266.92	57.985
267.29	56.713
267.66	53.440
268.03	55.227
268.40	55.841
268.77	54.177
269.14	55.856
269.51	53.725
269.88	55.478
270.25	56.208
270.62	55.506
270.99	55.699
271.36	54.721
271.73	58.178
272.10	55.435
272.47	55.054
272.84	54.978
273.21	51.782
273.58	54.803
273.95	50.524
274.32	54.339
274.69	56.103
275.06	53.740
275.43	55.106
275.80	52.906
276.17	54.175
276.54	55.925
276.91	54.545
277.28	53.320
277.65	52.805
278.02	52.588
278.39	52.539
278.76	53.091
279.13	51.887
279.50	50.838
279.87	50.996
280.23	52.695
280.60	50.484
280.97	53.420
281.34	52.389
281.71	50.545
282.08	54.127
282.45	49.818
282.82	51.687
283.19	52.050
283.56	48.596
283.92	52.623
284.29	50.794
284.66	52.632
285.03	49.729
285.40	51.408
285.77	50.168
286.14	48.877
286.51	49.833
286.87	49.915
287.24	51.140
287.61	49.920
287.98	46.916
288.35	46.910
288.72	47.975
289.08	46.948
289.45	49.259
289.82	46.016
290.19	46.468
290.56	47.320
290.93	44.260
291.29	45.092
291.66	45.133
292.03	45.640
292.40	44.787
292.77	43.491
293.13	42.537
293.50	44.898
293.87	43.111
294.24	41.481
294.60	41.921
294.97	42.878
295.34	42.877
295.71	42.756
296.08	40.171
296.44	42.916
296.81	40.026
297.18	42.141
297.55	39.446
297.91	37.731
298.28	41.365
298.65	38.512
299.02	40.843
299.38	38.911
299.75	38.949
300.12	38.570
300.48	40.000
300.85	38.224
301.22	39.236
301.59	37.753
301.95	38.791
302.32	38.511
302.69	36.679
303.05	37.455
303.42	36.049
303.79	36.240
304.15	35.431
304.52	37.543
304.89	37.747
305.25	33.527
305.62	35.334
305.99	36.009
306.35	35.235
306.72	36.435
307.09	34.850
307.45	36.149
307.82	32.031
308.19	35.762
308.55	36.462
308.92	35.768
309.29	34.213
309.65	33.722
310.02	34.038
310.38	33.978
310.75	34.636
311.12	33.777
311.48	34.796
311.85	35.325
312.22	35.172
312.58	33.472
312.95	34.319
313.31	32.233
313.68	34.927
314.05	35.010
314.41	33.869
314.78	34.240
315.14	33.962
315.51	33.265
315.87	33.861
316.24	33.267
316.61	32.359
316.97	33.659
317.34	31.409
317.70	33.270
318.07	33.975
318.43	33.072
318.80	33.927
319.16	32.863
319.53	33.583
319.89	33.429
320.26	34.100
320.62	33.333
320.99	34.242
321.35	33.232
321.72	33.265
322.08	33.268
322.45	34.328
322.81	32.074
323.18	33.044
323.54	33.488
323.91	33.491
324.27	32.696
324.64	32.246
325.00	33.544
325.37	33.667
325.73	33.393
326.10	32.480
326.46	31.810
326.83	33.736
327.19	32.365
327.56	32.840
327.92	32.808
328.29	34.073
328.65	31.860
329.01	32.401
329.38	33.488
329.74	32.964
330.11	33.553
330.47	33.425
330.84	33.364
331.20	32.332
331.56	32.477
331.93	31.944
332.29	31.322
332.66	33.097
333.02	33.638
333.38	31.707
333.75	32.175
334.11	32.117
334.48	32.919
334.84	33.548
335.20	31.545
335.57	31.550
335.93	31.250
336.29	31.593
336.66	32.011
337.02	31.674
337.38	32.315
337.75	31.194
338.11	32.319
338.47	32.228
338.84	32.172
339.20	30.367
339.56	32.391
339.93	29.727
340.29	31.069
340.65	32.175
341.02	31.850
341.38	31.139
341.74	31.930
342.11	32.402
342.47	30.925
342.83	30.394
343.20	31.255
343.56	30.244
343.92	31.842
344.28	30.357
344.65	31.384
345.01	31.229
345.37	31.561
345.73	30.034
346.10	30.776
346.46	30.339
346.82	30.313
347.19	29.156
347.55	30.131
347.91	30.259
348.27	30.485
348.63	30.602
349.00	30.583
349.36	28.982
349.72	30.794
350.08	29.417
350.45	29.618
350.81	30.869
351.17	29.984
351.53	29.238
351.89	28.465
352.26	29.992
352.62	29.030
352.98	29.579
353.34	30.074
353.70	28.642
354.07	29.516
354.43	29.206
354.79	28.238
355.15	28.093
355.51	30.056
355.87	30.367
356.24	29.397
356.60	29.511
356.96	29.123
357.32	28.291
357.68	28.346
358.04	28.504
358.40	28.741
358.77	29.186
359.13	27.072
359.49	28.627
359.85	26.984
360.21	27.352
360.57	28.482
360.93	28.231
361.29	27.664
361.66	27.012
362.02	28.284
362.38	28.973
362.74	28.348
363.10	27.535
363.46	27.733
363.82	28.193
364.18	27.753
364.54	28.900
364.90	27.904
365.26	27.941
365.62	28.707
365.98	27.392
366.35	26.648
366.71	27.332
367.07	28.041
367.43	27.794
367.79	27.623
368.15	28.233
368.51	27.471
368.87	28.908
369.23	27.579
369.59	27.878
369.95	27.574
370.31	27.208
370.67	27.536
371.03	28.390
371.39	27.551
371.75	26.912
372.11	27.169
372.47	28.812
372.83	27.810
373.19	27.529
373.55	27.716
373.91	28.130
374.27	26.186
374.63	26.036
374.99	26.695
375.35	26.169
375.71	26.799
376.07	26.475
376.42	26.823
376.78	26.508
377.14	26.119
377.50	27.219
377.86	26.197
378.22	26.612
378.58	25.501
378.94	25.833
379.30	26.399
379.66	26.459
380.02	25.860
380.38	25.258
380.74	26.170
381.09	27.078
381.45	26.675
381.81	26.904
382.17	25.860
382.53	26.289
382.89	26.605
383.25	25.829
383.61	26.394
383.97	26.016
384.32	25.577
384.68	25.093
385.04	26.122
385.40	25.759
385.76	25.307
386.12	25.842
386.48	26.621
386.83	26.684
387.19	27.211
387.55	26.221
387.91	25.937
388.27	26.180
388.62	25.691
388.98	25.061
389.34	26.220
389.70	25.812
390.06	26.743
390.42	25.746
390.77	25.445
391.13	25.718
391.49	26.015
391.85	25.016
392.20	25.615
392.56	25.884
392.92	24.838
393.28	24.320
393.64	25.839
393.99	25.535
394.35	24.876
394.71	25.910
395.07	24.486
395.42	25.340
395.78	24.746
396.14	25.140
396.50	26.065
396.85	25.429
397.21	25.277
397.57	24.861
397.92	25.361
398.28	24.608
398.64	25.388
399.00	24.231
399.35	24.760
399.71	24.074
400.07	25.370
400.42	25.828
400.78	24.970
401.14	24.939
401.49	25.433
401.85	24.803
402.21	24.251
402.57	24.306
402.92	25.284
403.28	25.609
403.63	25.371
403.99	24.904
404.35	25.212
404.70	24.580
405.06	24.869
405.42	24.704
405.77	24.514
406.13	24.605
406.49	24.719
406.84	24.690
407.20	23.168
407.55	25.016
407.91	24.667
408.27	24.123
408.62	24.142
408.98	24.939
409.34	23.985
409.69	25.677
410.05	25.279
410.40	25.443
410.76	25.329
411.11	24.427
411.47	24.345
411.83	24.313
412.18	24.181
412.54	24.408
412.89	24.458
413.25	24.911
413.60	24.830
413.96	24.651
414.31	24.970
414.67	24.842
415.03	23.311
415.38	24.613
415.74	24.759
416.09	24.298
416.45	24.297
416.80	24.719
417.16	25.670
417.51	24.419
417.87	23.314
418.22	24.543
418.58	25.371
418.93	24.263
419.29	25.080
419.64	25.189
420.00	23.963
420.35	25.159
420.71	24.985
421.06	24.165
421.42	24.912
421.77	24.776
422.12	24.031
422.48	23.475
422.83	25.102
423.19	24.254
423.54	24.028
423.90	24.000
424.25	24.344
424.61	23.631
424.96	25.190
425.31	23.367
425.67	23.146
426.02	24.629
426.38	24.725
426.73	23.406
427.09	23.647
427.44	23.232
427.79	24.094
428.15	25.179
428.50	24.517
428.85	24.017
429.21	23.633
429.56	24.883
429.92	24.056
430.27	23.684
430.62	23.297
430.98	23.819
431.33	22.835
431.68	23.717
432.04	23.482
432.39	24.043
432.74	23.519
433.10	24.335
433.45	23.965
433.80	24.335
434.16	24.359
434.51	23.632
434.86	24.287
435.22	25.181
435.57	24.195
435.92	22.996
436.28	24.852
436.63	23.344
436.98	24.556
437.34	24.150
437.69	24.271
438.04	23.946
438.39	24.597
438.75	24.288
439.10	23.352
439.45	23.849
439.81	22.900
440.16	23.377
440.51	24.429
440.86	24.146
441.22	23.415
441.57	23.673
441.92	23.900
442.27	24.058
442.63	24.855
442.98	24.113
443.33	23.967
443.68	23.335
444.03	24.061
444.39	23.272
444.74	23.972
445.09	23.827
445.44	23.893
445.79	23.602
446.15	23.928
446.50	24.125
446.85	24.101
447.20	23.559
447.55	24.456
447.91	23.828
448.26	24.430
448.61	23.403
448.96	24.086
449.31	23.903
449.66	24.254
450.02	23.900
450.37	24.206
450.72	23.294
451.07	23.888
451.42	24.134
451.77	24.427
452.12	23.903
452.47	24.192
452.83	23.718
453.18	23.594
453.53	24.119
453.88	23.627
454.23	24.029
454.58	24.591
454.93	24.412
455.28	24.127
455.63	23.847
455.98	23.929
456.34	23.807
456.69	23.920
457.04	23.529
457.39	23.378
457.74	23.447
458.09	23.289
458.44	23.888
458.79	23.590
459.14	23.758
459.49	24.402
459.84	24.432
460.19	23.925
460.54	22.975
460.89	23.313
461.24	23.679
461.59	24.114
461.94	24.353
462.29	24.748
462.64	23.676
462.99	23.813
463.34	24.600
463.69	24.765
464.04	23.652
464.39	23.536
464.74	23.767
465.09	23.945
465.44	23.767
465.79	22.651
466.14	23.645
466.49	22.247
466.84	23.234
467.19	23.597
467.54	23.688
467.89	23.169
468.24	23.153
468.59	23.504
468.94	22.969
469.29	22.943
469.64	24.900
469.99	23.951
470.34	22.853
470.68	23.779
471.03	23.469
471.38	24.322
471.73	23.118
472.08	24.013
472.43	22.299
472.78	23.239
473.13	24.005
473.48	23.034
473.83	23.293
474.17	23.211
474.52	24.566
474.87	24.168
475.22	23.041
475.57	21.977
475.92	22.889
476.27	22.604
476.61	23.166
476.96	22.980
477.31	22.972
477.66	22.812
478.01	22.687
478.36	23.321
478.70	23.001
479.05	23.056
479.40	23.081
479.75	22.928
480.10	22.565
480.45	22.703
480.79	22.074
481.14	22.554
481.49	23.113
481.84	22.497
482.19	22.581
482.53	22.294
482.88	22.429
483.23	22.477
483.58	21.884
483.92	22.634
484.27	21.307
484.62	22.112
484.97	21.719
485.31	22.363
485.66	22.271
486.01	22.623
486.36	22.108
486.70	22.017
487.05	22.192
487.40	21.834
487.75	21.824
488.09	22.293
488.44	21.681
488.79	22.495
489.13	22.002
489.48	21.615
489.83	21.407
490.17	22.359
490.52	22.099
490.87	21.483
491.22	21.783
491.56	21.412
491.91	22.010
492.26	21.957
492.60	21.705
492.95	22.123
493.30	21.589
493.64	22.025
493.99	21.588
494.34	21.878
494.68	21.932
495.03	21.852
495.37	22.057
495.72	21.735
496.07	21.810
496.41	20.841
496.76	21.240
497.11	21.477
497.45	21.099
497.80	21.641
498.14	20.580
498.49	21.610
498.84	21.716
499.18	21.095
499.53	21.415
499.87	21.715
500.22	21.573
500.56	21.990
500.91	21.058
501.26	21.859
501.60	22.117
501.95	22.090
502.29	22.352
502.64	21.508
502.98	21.646
503.33	21.389
503.67	21.995
504.02	21.983
504.36	21.432
504.71	21.397
505.06	21.542
505.40	21.390
505.75	20.829
506.09	21.380
506.44	21.510
506.78	21.529
507.13	21.302
507.47	20.859
507.82	21.479
508.16	21.277
508.51	21.969
508.85	21.351
509.19	20.816
509.54	21.531
509.88	21.484
510.23	21.337
510.57	22.291
510.92	21.336
511.26	20.812
511.61	21.317
511.95	20.981
512.30	21.315
512.64	21.762
512.98	20.847
513.33	21.199
513.67	20.704
514.02	20.184
514.36	20.972
514.70	20.974
515.05	21.194
515.39	20.864
515.74	21.284
516.08	21.409
516.42	21.143
516.77	22.018
517.11	20.477
517.46	21.106
517.80	20.732
518.14	20.498
518.49	21.587
518.83	21.080
519.17	21.247
519.52	21.732
519.86	20.936
520.20	21.214
520.55	21.065
520.89	21.350
521.23	21.773
521.58	21.188
521.92	21.923
522.26	20.378
522.61	21.433
522.95	21.240
523.29	20.450
523.64	21.220
523.98	20.518
524.32	21.532
524.66	21.167
525.01	20.159
525.35	20.818
525.69	21.121
526.04	20.935
526.38	20.988
526.72	20.307
527.06	20.590
527.41	20.421
527.75	21.415
528.09	21.387
528.43	21.606
528.78	22.065
529.12	20.970
529.46	22.596
529.80	21.968
530.15	22.056
530.49	20.677
530.83	20.443
531.17	21.214
531.51	22.438
531.86	21.355
532.20	20.860
532.54	21.781
532.88	21.566
533.22	20.612
533.57	21.914
533.91	21.132
534.25	21.810
534.59	21.721
534.93	21.178
535.27	21.123
535.62	22.344
535.96	22.034
536.30	21.615
536.64	21.571
536.98	21.035
537.32	20.803
537.66	20.133
538.01	21.527
538.35	21.461
538.69	22.655
539.03	20.338
539.37	20.383
539.71	19.831
540.05	20.719
540.39	20.797
540.73	20.310
541.07	22.128
541.42	22.048
541.76	21.226
542.10	21.216
542.44	21.722
542.78	22.266
543.12	19.578
543.46	21.836
543.80	21.601
544.14	21.694
544.48	21.841
544.82	21.745
545.16	21.991
545.50	20.887
545.84	21.438
546.18	21.279
546.52	21.886
546.86	21.306
547.20	21.713
547.54	20.908
547.88	22.577
548.22	21.046
548.56	21.258
548.90	20.935
549.24	20.404
549.58	21.692
549.92	22.184
550.26	22.088
550.60	21.577
550.94	21.408
551.28	20.775
551.62	20.776
551.96	21.263
552.30	22.389
552.64	21.839
552.98	21.898
553.32	20.566
553.66	22.631
554.00	21.208
554.34	21.394
554.68	21.173
555.02	21.227
555.36	21.294
555.69	21.110
556.03	20.929
556.37	20.805
556.71	20.668
557.05	21.008
557.39	20.784
557.73	21.665
558.07	21.900
558.41	20.695
558.75	21.161
559.08	21.178
559.42	21.844
559.76	20.956
560.10	20.628
560.44	20.685
560.78	20.825
561.12	21.042
561.45	21.904
561.79	20.962
562.13	20.791
562.47	22.063
562.81	22.106
563.15	20.602
563.48	21.485
563.82	21.918
564.16	21.452
564.50	21.419
564.84	21.176
565.17	21.300
565.51	21.470
565.85	20.876
566.19	21.165
566.52	21.469
566.86	21.640
567.20	21.698
567.54	21.804
567.88	21.076
568.21	21.587
568.55	21.537
568.89	21.595
569.23	21.390
569.56	21.984
569.90	21.660
570.24	21.457
570.57	21.557
570.91	21.429
571.25	21.062
571.59	21.649
571.92	21.429
572.26	21.577
572.60	21.351
572.93	20.690
573.27	21.503
573.61	21.776
573.95	21.809
574.28	21.055
574.62	21.574
574.96	21.290
575.29	21.217
575.63	21.138
575.97	21.297
576.30	21.535
576.64	20.824
576.98	20.953
577.31	21.072
577.65	21.911
577.98	21.452
578.32	21.366
578.66	21.656
578.99	21.525
579.33	20.673
579.67	20.603
580.00	20.834
580.34	21.001
580.67	20.681
581.01	21.228
581.35	21.579
581.68	21.927
582.02	21.637
582.35	21.863
582.69	21.679
583.02	21.155
583.36	20.913
583.70	20.954
584.03	20.768
584.37	21.054
584.70	21.082
585.04	20.890
585.37	21.365
585.71	21.828
586.04	21.817
586.38	21.630
586.72	22.010
587.05	20.701
587.39	20.607
587.72	21.412
588.06	21.612
588.39	21.564
588.73	20.915
589.06	21.315
589.40	21.313
589.73	21.084
590.07	20.996
590.40	20.607
590.73	21.429
591.07	21.368
591.40	21.088
591.74	21.905
592.07	20.637
592.41	21.124
592.74	21.311
593.08	21.452
593.41	22.018
593.75	21.549
594.08	21.488
594.41	21.315
594.75	20.924
595.08	21.725
595.42	21.471
595.75	21.368
596.09	21.142
596.42	21.061
596.75	21.233
597.09	21.602
597.42	21.164
597.75	21.087
598.09	21.304
598.42	20.919
598.76	21.038
599.09	21.437
599.42	21.689
599.76	21.230
600.09	21.311
600.42	21.293
600.76	21.000
601.09	21.056
601.42	21.613
601.76	21.252
602.09	21.739
602.42	21.616
602.76	21.241
603.09	20.810
603.42	21.359
603.76	20.998
604.09	20.628
604.42	20.995
604.76	21.721
605.09	21.276
605.42	21.548
605.75	21.399
606.09	21.187
606.42	21.087
606.75	21.277
607.09	21.264
607.42	21.181
607.75	21.097
608.08	20.886
608.42	20.843
608.75	21.326
609.08	20.675
609.41	21.038
609.75	21.582
610.08	21.772
610.41	21.508
610.74	21.334
611.07	21.443
611.41	21.443
611.74	21.870
612.07	20.807
612.40	21.563
612.73	20.632
613.07	21.013
613.40	21.748
613.73	20.294
614.06	20.860
614.39	20.923
614.72	21.263
615.06	21.534
615.39	20.648
615.72	20.961
616.05	19.777
616.38	20.511
616.71	20.606
617.05	21.555
617.38	22.069
617.71	20.901
618.04	21.755
618.37	20.993
618.70	21.220
619.03	21.382
619.36	22.132
619.69	21.549
620.03	21.223
620.36	21.123
620.69	22.192
621.02	20.796
621.35	21.457
621.68	20.639
622.01	21.440
622.34	22.012
622.67	21.293
623.00	20.836
623.33	21.372
623.66	21.229
623.99	20.987
624.32	21.541
624.65	21.893
624.99	21.388
625.32	20.710
625.65	21.112
625.98	20.907
626.31	21.928
626.64	21.878
626.97	20.283
627.30	19.867
627.63	21.739
627.96	21.531
628.29	22.222
628.62	21.775
628.95	21.321
629.28	21.807
629.61	22.181
629.94	19.810
630.26	20.686
630.59	20.877
630.92	21.839
631.25	21.422
631.58	21.421
631.91	19.270
632.24	20.781
632.57	20.462
632.90	21.053
633.23	21.253
633.56	22.486
633.89	20.725
634.22	22.020
634.55	21.538
634.88	19.641
635.20	22.342
635.53	20.602
635.86	22.030
636.19	21.412
636.52	22.145
636.85	22.108
637.18	19.240
637.51	21.749
637.83	20.099
638.16	22.251
638.49	22.292
638.82	23.515
639.15	21.875
639.48	22.319
639.81	23.861
640.13	22.786
640.46	20.537
640.79	21.004
641.12	20.083
641.45	22.486
641.77	21.797
642.10	21.930
642.43	21.622
642.76	22.136
643.09	20.706
643.41	21.244
643.74	23.611
644.07	21.037
644.40	23.313
644.73	21.575
645.05	22.979
645.38	23.223
645.71	22.866
646.04	21.595
646.36	23.205
646.69	21.070
647.02	22.959
647.35	22.852
647.67	24.602
648.00	22.276
648.33	21.452
648.66	23.485
648.98	22.789
649.31	23.169
649.64	23.318
649.96	23.100
650.29	23.539
650.62	21.683
650.94	24.635
651.27	24.662
651.60	23.128
651.92	23.962
652.25	20.684
652.58	22.274
652.90	24.329
653.23	21.572
653.56	22.835
653.88	24.881
654.21	23.855
654.54	21.617
654.86	22.586
655.19	21.757
655.52	19.725
655.84	21.083
656.17	27.409
656.49	36.258
656.82	35.444
657.15	25.738
657.47	18.245
657.80	13.716
658.13	13.570
658.45	19.738
658.78	19.042
659.10	19.160
659.43	19.197
659.75	19.786
660.08	20.443
660.41	20.857
660.73	22.109
661.06	21.815
661.38	25.455
661.71	22.115
662.03	23.866
662.36	20.676
662.68	23.695
663.01	22.424
663.33	21.656
663.66	23.109
663.98	23.758
664.31	23.109
664.63	23.482
664.96	22.736
665.28	24.180
665.61	23.977
665.93	21.932
666.26	22.110
666.58	22.803
666.91	23.890
667.23	22.472
667.56	22.030
667.88	25.214
668.21	24.094
668.53	22.777
668.86	23.810
669.18	23.881
669.50	22.391
669.83	25.054
670.15	23.778
670.48	25.272
670.80	23.276
671.13	26.115
671.45	21.702
671.77	24.644
672.10	24.030
672.42	25.442
672.75	24.378
673.07	22.535
673.39	24.412
673.72	23.633
674.04	21.961
674.37	21.748
674.69	21.677
675.01	23.222
675.34	23.614
675.66	25.263
675.98	24.847
676.31	24.370
676.63	25.265
676.95	25.157
677.28	25.000
677.60	23.516
677.92	26.793
678.25	26.489
678.57	24.502
678.89	23.246
679.22	26.326
679.54	24.809
679.86	24.954
680.18	22.182
680.51	22.872
680.83	22.242
681.15	23.585
681.48	24.386
681.80	25.145
682.12	24.330
682.44	21.857
682.77	24.644
683.09	27.253
683.41	25.055
683.73	24.945
684.06	24.174
684.38	23.288
684.70	26.163
685.02	25.141
685.34	25.092
685.67	22.902
685.99	21.993
686.31	23.379
686.63	22.968
686.96	23.036
687.28	25.993
687.60	23.913
687.92	25.046
688.24	22.624
688.56	27.108
688.89	23.859
689.21	26.419
689.53	26.305
689.85	25.055
690.17	21.946
690.49	26.115
690.82	25.234
691.14	25.670
691.46	23.207
691.78	24.900
692.10	25.000
692.42	25.948
692.74	24.689
693.06	26.383
693.39	26.078
693.71	26.638
694.03	23.789
694.35	24.242
694.67	24.943
694.99	24.878
695.31	23.284
695.63	22.488
695.95	26.650
696.27	23.858
696.59	26.166
696.91	26.166
697.23	25.352
697.56	28.571
697.88	24.131
698.20	23.333
698.52	24.731
698.84	24.722
699.16	25.115
699.48	24.703
699.80	25.121
700.12	26.494
700.44	28.117
700.76	29.006
701.08	30.460
701.40	25.698
701.72	23.324
702.04	33.523
702.36	27.195
702.68	26.346
703.00	25.762
703.32	25.266
703.64	23.861
703.96	26.184
704.28	23.547
704.60	28.446
704.91	29.080
705.23	27.859
705.55	30.233
705.87	31.894
706.19	24.382
706.51	28.972
706.83	29.394
707.15	28.571
707.47	28.283
707.79	30.221
708.11	27.626
708.43	28.571
708.74	25.255
709.06	29.351
709.38	28.084
709.70	29.360
710.02	28.487
710.34	25.758
710.66	28.358
710.98	26.705
711.29	30.233
711.61	26.844
711.93	25.962
712.25	30.868
712.57	26.103
712.89	29.066
713.20	27.964
713.52	31.579
713.84	29.114
714.16	29.878
714.48	29.310
714.80	32.219
715.11	33.141
715.43	26.113
715.75	26.957
716.07	32.588
716.39	29.467
716.70	32.226
717.02	32.014
717.34	26.502
717.66	30.224
717.97	34.263
718.29	31.852
718.61	32.482
718.93	30.515
719.24	30.450
719.56	30.169
719.88	29.153
720.20	32.432
720.51	32.056
720.83	32.342
721.15	31.716
721.46	30.851
721.78	31.541
722.10	29.434
722.42	37.218
722.73	31.461
723.05	33.197
723.37	33.198
723.68	31.660
724.00	34.959
724.32	33.468
724.63	30.488
724.95	27.197
725.27	32.794
725.58	33.594
725.90	33.212
726.22	31.698
726.53	31.250
726.85	31.399
727.16	31.673
727.48	30.142
727.80	31.061
728.11	31.884
728.43	30.769
728.74	30.466
729.06	35.036
729.38	37.868
729.69	34.875
730.01	28.328
730.32	30.208
730.64	33.110
730.96	30.363
731.27	27.483
731.59	29.052
731.90	29.738
732.22	31.366
732.53	26.006
732.85	32.372
733.16	29.904
733.48	28.571
733.80	31.818
734.11	30.892
734.43	27.515
734.74	28.571
735.06	32.378
735.37	33.526
735.69	27.707
736.00	31.373
736.32	33.022
736.63	30.990
736.95	32.588
737.26	28.231
737.58	26.129
737.89	31.773
738.21	31.741
738.52	30.000
738.83	28.302
739.15	33.846
739.46	35.036
739.78	28.819
740.09	30.462
740.41	30.000
740.72	29.268
741.04	35.926
741.35	29.583
741.66	36.889
741.98	32.547
742.29	36.842
742.61	35.776
742.92	33.032
743.23	34.615
743.55	34.000
743.86	31.579
744.18	38.938
744.49	40.191
744.80	38.967
745.12	41.364
745.43	33.921
745.74	36.937
746.06	34.404
746.37	38.565
746.68	29.412
747.00	36.574
747.31	36.190
747.62	33.628
747.94	31.278
748.25	28.085
748.56	33.040
748.88	39.109
749.19	40.500
749.50	36.279
749.82	36.992
750.13	34.694
750.44	32.117
750.75	30.877
751.07	36.656
751.38	32.056
751.69	33.574
752.01	32.331
752.32	32.130
752.63	31.560
752.94	30.738
753.26	35.200
753.57	33.333
753.88	35.547
754.19	29.286
754.51	32.986
754.82	34.657
755.13	33.962
755.44	36.842
755.75	31.022
756.07	34.043
756.38	33.212
756.69	31.544
757.00	29.940
757.31	28.783
757.63	30.994
757.94	29.491
758.25	31.618
758.56	26.420
758.87	27.688
759.18	28.788
759.50	30.408
759.81	29.907
760.12	26.875
760.43	30.086
760.74	30.435
761.05	33.333
761.36	29.144
761.67	29.830
761.99	29.814
762.30	35.069
762.61	30.153
762.92	36.328
763.23	36.555
763.54	38.400
763.85	28.516
764.16	36.154
764.47	35.361
764.78	32.862
765.10	30.063
765.41	29.794
765.72	31.437
766.03	33.229
766.34	28.667
766.65	33.191
766.96	37.179
767.27	46.193
767.58	35.938
767.89	40.000
768.20	39.655
768.51	38.579
768.82	40.367
769.13	39.837
769.44	34.413
769.75	34.335
770.06	27.982
770.37	39.367
770.68	39.815
770.99	39.111
771.30	30.738
771.61	38.117
771.92	36.475
772.23	41.597
772.54	38.974
772.85	43.979
773.16	36.170
773.47	40.761
773.78	38.071
774.09	38.095
774.39	46.199
774.70	47.531
775.01	50.000
775.32	50.327
775.63	50.658
775.94	41.007
776.25	48.819
776.56	51.493
776.87	45.902
777.18	56.250
777.48	54.198
777.79	47.727
778.10	52.593
778.41	48.214
778.72	55.474
779.03	48.993
779.34	38.255
779.65	46.622
779.95	39.877
780.26	52.288
780.57	41.379
780.88	57.031
781.19	36.842
781.50	43.243
781.80	48.428
782.11	34.463
782.42	44.304
782.73	44.172
783.04	44.595
783.34	39.437
783.65	46.575
783.96	52.985
784.27	39.860
784.57	48.201
784.88	48.148
785.19	58.730
785.50	50.000
785.81	52.985
786.11	46.721
786.42	48.062
786.73	45.133
787.04	50.000
787.34	56.250
787.65	51.000
787.96	63.964
788.26	44.628
788.57	60.169
788.88	57.851
789.19	48.611
789.49	53.030
789.80	50.382
790.11	60.000
790.41	59.406
790.72	54.217
791.03	53.261
791.33	61.628
791.64	55.670
791.95	64.356
792.25	51.111
792.56	80.519
792.87	66.667
793.17	64.557
793.48	65.517
793.79	51.724
794.09	65.909
794.40	47.059
794.70	56.618
795.01	45.926
795.32	46.763
795.62	53.543
795.93	51.724
796.23	51.327
796.54	60.000
796.85	74.324
797.15	88.732
797.46	65.152
797.76	74.699
798.07	65.823
798.37	67.692
798.68	62.121
798.99	60.563
799.29	74.026
799.60	59.091
799.90	83.562
800.21	80.597
800.51	86.207
800.82	98.246
801.12	80.328
801.43	75.758
801.73	78.378
802.04	100.000
802.34	70.370
802.65	78.125
802.95	103.390
803.26	82.813
803.56	70.000
803.87	70.769
804.17	86.765
804.48	107.407
804.78	81.034
805.09	64.706
805.39	90.385
805.70	71.429
806.00	93.443
806.30	77.273
806.61	73.171
806.91	68.354
807.22	64.474
807.52	70.149
807.83	80.282
808.13	85.938
808.43	96.667
808.74	77.632
809.04	69.565
809.35	82.090
809.65	72.368
809.95	117.742
810.26	62.712
810.56	90.476
810.86	115.909
811.17	133.333
811.47	101.667
811.77	114.815
812.08	94.545
812.38	96.000
812.69	111.111
812.99	120.455
813.29	106.122
813.59	83.333
813.90	104.082
814.20	94.545
814.50	70.769
814.81	92.647
815.11	110.204
815.41	91.803
815.72	126.190
816.02	110.909
816.32	109.524
816.62	102.500
816.93	119.512
817.23	138.095
817.53	113.636
817.84	154.545
818.14	106.522
818.44	111.111
818.74	141.176
819.04	117.500
819.35	120.000
819.65	138.235
819.95	164.286
820.25	150.000
820.56	123.077
820.86	125.000
821.16	111.628
821.46	128.205
821.76	118.000
822.07	142.857
822.37	122.500
822.67	136.364
822.97	105.882
823.27	185.714
823.57	121.622
823.88	115.000
824.18	140.000
824.48	123.810
824.78	184.000
825.08	154.167
825.38	151.351
825.69	121.951
825.99	175.000
826.29	134.483
826.59	107.895
826.89	97.368
827.19	138.235
827.49	164.516
827.79	122.727
828.09	106.818
828.39	114.894
828.70	124.490
829.00	125.926
829.30	119.355
829.60	125.000
829.90	300.000
830.20	157.143
830.50	139.130
830.80	217.391
831.10	166.667
831.40	160.000
831.70	147.826
832.00	211.538
832.30	162.963
832.60	281.250
832.90	176.667
833.20	321.429
833.50	187.097
833.80	100.000
834.10	162.500
834.40	180.769
834.70	250.000
835.00	242.857
835.30	114.286
835.60	300.000
835.90	193.103
836.20	292.857
836.50	186.207
836.80	140.000
837.10	138.889
837.40	219.048
837.70	252.941
838.00	166.667
838.30	219.048
838.60	233.333
838.90	215.385
839.19	205.000
839.49	321.429
839.79	300.000
840.09	205.000
840.39	247.619
840.69	221.739
840.99	216.667
841.29	370.000
841.59	250.000
841.88	250.000
842.18	158.621
842.48	223.810
842.78	163.333
843.08	204.348
843.38	153.125
843.68	716.667
843.97	188.462
844.27	155.172
844.57	276.190
844.87	268.750
845.17	177.778
845.47	900.000
845.76	388.889
846.06	288.235
846.36	425.000
846.66	285.714
846.96	268.750
847.25	336.364
847.55	336.364
847.85	186.957
848.15	320.000
848.44	307.143
848.74	238.889
849.04	264.706
849.34	460.000
849.63	205.263
849.93	490.909
850.23	720.000
850.53	335.714
850.82	1500.000
851.12	-3800.000
851.42	3400.000
851.71	235.000
852.01	-866.667
852.31	216.667
852.61	1533.333
852.90	228.571
853.20	152.000
853.50	264.706
853.79	238.095
854.09	208.333
854.39	250.000
854.68	154.054
854.98	151.613
855.28	126.667
855.57	196.552
855.87	203.704
856.17	200.000
856.46	200.000
856.76	276.471
857.05	175.862
857.35	191.667
857.65	300.000
857.94	239.130
858.24	176.923
858.53	245.000
858.83	254.545
859.13	286.667
859.42	0.000
859.72	544.444
860.01	372.727
860.31	195.455
860.60	215.789
860.90	217.391
861.20	500.000
861.49	466.667
861.79	-2800.000
862.08	525.000
862.38	214.286
862.67	269.231
862.97	335.294
863.26	377.778
863.56	238.889
863.85	258.333
864.15	475.000
864.44	393.333
864.74	816.667
865.03	562.500
865.33	236.842
865.62	345.455
865.92	400.000
866.21	316.667
866.51	0.000
866.80	427.273
867.10	860.000
867.39	400.000
867.69	372.727
867.98	226.316
868.27	390.909
868.57	231.579
868.86	-4400.000
869.16	281.250
869.45	1650.000
869.75	-3000.000
870.04	366.667
870.33	742.857
870.63	975.000
870.92	2150.000
871.22	714.286
871.51	229.412
871.80	223.810
872.10	385.714
>>>>>End Processed Spectral Data<<<<<
