SpectraSuite Data File
++++++++++++++++++++++++++++++++++++
Date: Wed May 13 20:29:24 PDT 2015
User: schluterlab
Dark Spectrum Present: Yes
Reference Spectrum Present: Yes
Number of Sampled Component Spectra: 1
Spectrometers: USB2E3373
Integration Time (usec): 3000 (USB2E3373)
Spectra Averaged: 3 (USB2E3373)
Boxcar Smoothing: 0 (USB2E3373)
Correct for Electrical Dark: No (USB2E3373)
Strobe/Lamp Enabled: No (USB2E3373)
Correct for Detector Non-linearity: No (USB2E3373)
Correct for Stray Light: No (USB2E3373)
Number of Pixels in Processed Spectrum: 2048
>>>>>Begin Processed Spectral Data<<<<<
178.53	0.000
178.91	-950.000
179.29	-1200.000
179.67	-166.667
180.04	-1125.000
180.42	1900.000
180.80	680.000
181.18	-1075.000
181.56	528.571
181.94	0.000
182.31	-371.429
182.69	1500.000
183.07	-450.000
183.45	-400.000
183.83	400.000
184.20	-350.000
184.58	2100.000
184.96	3900.000
185.34	-640.000
185.72	-550.000
186.09	-1650.000
186.47	2700.000
186.85	1850.000
187.23	4600.000
187.61	-1233.333
187.98	1225.000
188.36	445.455
188.74	427.273
189.12	-720.000
189.49	440.000
189.87	-3500.000
190.25	-900.000
190.63	328.571
191.00	369.231
191.38	683.333
191.76	-925.000
192.14	1250.000
192.51	625.000
192.89	666.667
193.27	450.000
193.65	-875.000
194.02	370.000
194.40	800.000
194.78	450.000
195.15	416.667
195.53	440.000
195.91	-2000.000
196.29	243.750
196.66	210.526
197.04	-340.000
197.42	0.000
197.79	580.000
198.17	-4100.000
198.55	557.143
198.92	612.500
199.30	780.000
199.68	0.000
200.05	244.444
200.43	628.571
200.81	3700.000
201.18	1533.333
201.56	-1533.333
201.94	577.778
202.31	522.222
202.69	358.333
203.07	440.000
203.44	0.000
203.82	1025.000
204.19	628.571
204.57	378.571
204.95	400.000
205.32	1466.667
205.70	490.909
206.08	321.429
206.45	2150.000
206.83	306.250
207.20	750.000
207.58	540.000
207.96	277.778
208.33	475.000
208.71	-666.667
209.08	628.571
209.46	455.556
209.84	427.273
210.21	-1166.667
210.59	1025.000
210.96	-387.500
211.34	2250.000
211.71	530.000
212.09	816.667
212.46	0.000
212.84	1133.333
213.22	1100.000
213.59	-2600.000
213.97	583.333
214.34	614.286
214.72	454.545
215.09	760.000
215.47	-1850.000
215.84	-2050.000
216.22	1633.333
216.59	271.429
216.97	1025.000
217.34	363.636
217.72	-633.333
218.09	0.000
218.47	-4000.000
218.84	544.444
219.22	571.429
219.59	1100.000
219.97	-471.429
220.34	760.000
220.72	-1300.000
221.09	350.000
221.47	1200.000
221.84	-816.667
222.22	0.000
222.59	1325.000
222.97	-2050.000
223.34	920.000
223.72	369.231
224.09	880.000
224.46	1750.000
224.84	-3600.000
225.21	-860.000
225.59	-3100.000
225.96	520.000
226.34	295.000
226.71	2650.000
227.08	562.500
227.46	420.000
227.83	-1125.000
228.21	-1250.000
228.58	477.778
228.95	-2200.000
229.33	-1850.000
229.70	1366.667
230.08	642.857
230.45	-580.000
230.82	341.667
231.20	533.333
231.57	571.429
231.95	408.333
232.32	236.364
232.69	263.636
233.07	614.286
233.44	276.923
233.81	-1400.000
234.19	242.105
234.56	300.000
234.93	300.000
235.31	363.636
235.68	269.231
236.05	314.286
236.43	139.394
236.80	205.263
237.17	3800.000
237.55	190.476
237.92	146.429
238.29	209.524
238.67	125.806
239.04	148.276
239.41	111.111
239.79	73.913
240.16	104.762
240.53	106.818
240.91	92.157
241.28	92.000
241.65	60.000
242.02	76.812
242.40	67.742
242.77	43.333
243.14	61.290
243.51	58.427
243.89	62.353
244.26	40.000
244.63	38.710
245.00	39.362
245.38	39.604
245.75	31.776
246.12	33.028
246.49	42.336
246.87	38.400
247.24	36.923
247.61	33.571
247.98	24.183
248.36	22.297
248.73	33.758
249.10	28.662
249.47	18.644
249.84	29.947
250.22	31.551
250.59	27.811
250.96	25.253
251.33	30.806
251.70	24.257
252.08	21.429
252.45	21.973
252.82	19.130
253.19	23.830
253.56	20.784
253.94	21.992
254.31	22.656
254.68	23.077
255.05	22.509
255.42	16.667
255.79	18.750
256.16	20.939
256.54	17.314
256.91	18.861
257.28	14.748
257.65	15.512
258.02	17.702
258.39	15.142
258.76	16.722
259.14	19.345
259.51	17.933
259.88	14.286
260.25	15.106
260.62	15.029
260.99	13.975
261.36	15.916
261.73	14.327
262.10	11.337
262.47	13.803
262.85	15.320
263.22	10.541
263.59	16.239
263.96	13.462
264.33	14.883
264.70	15.000
265.07	14.322
265.44	12.879
265.81	11.679
266.18	13.819
266.55	13.659
266.92	14.251
267.29	14.352
267.66	12.615
268.03	12.500
268.40	11.215
268.77	11.695
269.14	13.063
269.51	12.641
269.88	12.354
270.25	10.835
270.62	13.708
270.99	14.409
271.36	14.592
271.73	12.850
272.10	11.957
272.47	13.548
272.84	11.688
273.21	13.208
273.58	11.572
273.95	10.901
274.32	11.570
274.69	10.707
275.06	9.252
275.43	13.404
275.80	11.824
276.17	11.609
276.54	13.514
276.91	10.079
277.28	10.156
277.65	12.766
278.02	8.903
278.39	13.672
278.76	12.000
279.13	11.509
279.50	11.359
279.87	9.761
280.23	10.379
280.60	9.284
280.97	10.536
281.34	11.327
281.71	11.091
282.08	11.132
282.45	10.545
282.82	11.723
283.19	10.695
283.56	11.930
283.92	11.168
284.29	9.524
284.66	8.348
285.03	7.052
285.40	12.324
285.77	8.081
286.14	9.326
286.51	11.333
286.87	10.256
287.24	9.609
287.61	9.149
287.98	11.201
288.35	9.984
288.72	9.502
289.08	9.546
289.45	11.203
289.82	9.593
290.19	7.064
290.56	10.260
290.93	8.610
291.29	8.436
291.66	8.407
292.03	12.064
292.40	9.545
292.77	8.728
293.13	9.254
293.50	9.038
293.87	8.444
294.24	9.185
294.60	8.006
294.97	9.738
295.34	10.155
295.71	8.807
296.08	9.829
296.44	10.041
296.81	9.775
297.18	10.705
297.55	6.464
297.91	8.575
298.28	9.103
298.65	10.574
299.02	10.013
299.38	8.632
299.75	6.739
300.12	8.046
300.48	9.250
300.85	10.481
301.22	7.771
301.59	9.470
301.95	8.438
302.32	9.628
302.69	7.885
303.05	9.576
303.42	8.519
303.79	8.381
304.15	7.809
304.52	7.995
304.89	8.479
305.25	9.165
305.62	10.646
305.99	8.264
306.35	8.166
306.72	10.538
307.09	9.434
307.45	9.797
307.82	8.259
308.19	9.382
308.55	9.817
308.92	9.130
309.29	8.870
309.65	9.120
310.02	8.879
310.38	9.462
310.75	9.081
311.12	10.645
311.48	9.822
311.85	10.273
312.22	10.094
312.58	9.667
312.95	10.771
313.31	10.097
313.68	10.083
314.05	11.637
314.41	10.050
314.78	9.970
315.14	10.626
315.51	10.711
315.87	10.495
316.24	11.619
316.61	10.331
316.97	10.078
317.34	9.393
317.70	11.090
318.07	10.972
318.43	11.840
318.80	11.996
319.16	11.017
319.53	11.445
319.89	11.048
320.26	11.500
320.62	11.409
320.99	12.626
321.35	11.515
321.72	11.294
322.08	12.438
322.45	12.139
322.81	12.403
323.18	12.717
323.54	12.059
323.91	13.019
324.27	12.811
324.64	12.768
325.00	11.632
325.37	13.376
325.73	13.734
326.10	12.357
326.46	13.082
326.83	13.805
327.19	13.664
327.56	13.240
327.92	13.211
328.29	12.777
328.65	14.088
329.01	14.350
329.38	13.228
329.74	13.296
330.11	13.572
330.47	13.682
330.84	14.063
331.20	13.570
331.56	13.119
331.93	12.593
332.29	13.665
332.66	14.425
333.02	14.534
333.38	14.002
333.75	13.725
334.11	14.146
334.48	13.753
334.84	13.603
335.20	14.636
335.57	13.509
335.93	12.589
336.29	13.095
336.66	13.255
337.02	12.308
337.38	13.889
337.75	13.369
338.11	12.892
338.47	14.365
338.84	14.940
339.20	11.743
339.56	13.686
339.93	13.091
340.29	13.134
340.65	13.636
341.02	14.136
341.38	13.523
341.74	13.596
342.11	14.236
342.47	14.009
342.83	14.212
343.20	14.286
343.56	12.468
343.92	13.860
344.28	14.626
344.65	13.929
345.01	13.636
345.37	13.979
345.73	13.367
346.10	13.811
346.46	13.136
346.82	13.591
347.19	12.865
347.55	13.957
347.91	13.511
348.27	14.462
348.63	14.381
349.00	14.239
349.36	13.300
349.72	13.071
350.08	12.480
350.45	14.158
350.81	14.460
351.17	14.100
351.53	13.268
351.89	13.449
352.26	14.680
352.62	13.633
352.98	13.695
353.34	14.051
353.70	12.930
354.07	14.677
354.43	13.095
354.79	13.596
355.15	14.046
355.51	14.548
355.87	14.612
356.24	14.251
356.60	13.152
356.96	14.401
357.32	13.491
357.68	13.937
358.04	14.648
358.40	15.044
358.77	14.319
359.13	14.207
359.49	12.706
359.85	11.746
360.21	13.557
360.57	13.619
360.93	14.462
361.29	12.850
361.66	12.307
362.02	14.030
362.38	13.992
362.74	14.062
363.10	12.657
363.46	13.280
363.82	13.076
364.18	13.069
364.54	13.967
364.90	15.297
365.26	13.603
365.62	13.733
365.98	13.440
366.35	12.966
366.71	13.883
367.07	13.547
367.43	14.441
367.79	14.989
368.15	15.589
368.51	13.953
368.87	13.205
369.23	13.168
369.59	14.844
369.95	13.603
370.31	13.960
370.67	12.754
371.03	14.157
371.39	13.776
371.75	14.044
372.11	13.727
372.47	14.663
372.83	14.481
373.19	13.367
373.55	13.599
373.91	14.728
374.27	14.364
374.63	12.873
374.99	14.054
375.35	13.329
375.71	13.914
376.07	13.992
376.42	13.618
376.78	14.314
377.14	13.297
377.50	13.709
377.86	12.832
378.22	14.665
378.58	13.221
378.94	13.262
379.30	13.232
379.66	13.706
380.02	13.452
380.38	12.568
380.74	13.806
381.09	14.120
381.45	13.829
381.81	15.111
382.17	13.439
382.53	13.836
382.89	14.444
383.25	13.383
383.61	14.436
383.97	13.258
384.32	14.473
384.68	13.197
385.04	13.829
385.40	14.180
385.76	13.452
386.12	13.795
386.48	15.230
386.83	14.561
387.19	14.719
387.55	13.667
387.91	13.785
388.27	13.979
388.62	14.014
388.98	14.066
389.34	14.768
389.70	14.040
390.06	14.829
390.42	13.748
390.77	14.631
391.13	14.167
391.49	15.292
391.85	13.749
392.20	13.186
392.56	13.952
392.92	14.067
393.28	13.195
393.64	13.369
393.99	14.844
394.35	14.206
394.71	13.990
395.07	13.894
395.42	14.462
395.78	14.122
396.14	14.773
396.50	14.098
396.85	14.304
397.21	13.995
397.57	14.755
397.92	14.784
398.28	13.453
398.64	14.636
399.00	13.542
399.35	13.706
399.71	13.657
400.07	14.666
400.42	14.049
400.78	14.656
401.14	13.293
401.49	14.090
401.85	13.733
402.21	13.353
402.57	13.819
402.92	14.124
403.28	13.929
403.63	13.614
403.99	13.567
404.35	13.818
404.70	13.609
405.06	13.395
405.42	13.038
405.77	13.543
406.13	13.149
406.49	13.779
406.84	14.117
407.20	14.243
407.55	14.422
407.91	14.200
408.27	13.465
408.62	13.907
408.98	13.603
409.34	13.715
409.69	13.742
410.05	13.693
410.40	13.639
410.76	13.680
411.11	14.475
411.47	13.163
411.83	13.745
412.18	12.801
412.54	13.200
412.89	13.313
413.25	13.932
413.60	13.218
413.96	13.358
414.31	13.183
414.67	13.245
415.03	13.245
415.38	13.853
415.74	13.762
416.09	13.717
416.45	13.454
416.80	13.748
417.16	14.343
417.51	13.139
417.87	12.717
418.22	13.438
418.58	14.267
418.93	13.268
419.29	12.667
419.64	13.287
420.00	13.232
420.35	13.449
420.71	13.449
421.06	13.186
421.42	13.509
421.77	13.733
422.12	12.690
422.48	11.657
422.83	12.755
423.19	13.149
423.54	12.420
423.90	13.623
424.25	12.898
424.61	13.214
424.96	13.061
425.31	12.846
425.67	12.416
426.02	12.400
426.38	13.492
426.73	12.815
427.09	13.678
427.44	13.341
427.79	12.421
428.15	13.274
428.50	12.815
428.85	12.753
429.21	12.093
429.56	12.908
429.92	12.733
430.27	12.612
430.62	12.186
430.98	12.403
431.33	12.629
431.68	13.403
432.04	12.673
432.39	12.393
432.74	12.567
433.10	12.564
433.45	12.711
433.80	12.417
434.16	12.073
434.51	12.474
434.86	12.486
435.22	12.451
435.57	12.827
435.92	11.703
436.28	12.633
436.63	13.190
436.98	12.593
437.34	12.761
437.69	13.361
438.04	12.704
438.39	12.478
438.75	12.435
439.10	12.291
439.45	12.810
439.81	12.628
440.16	12.366
440.51	12.361
440.86	12.797
441.22	12.347
441.57	11.996
441.92	12.334
442.27	12.379
442.63	11.848
442.98	12.338
443.33	12.283
443.68	11.977
444.03	11.957
444.39	11.928
444.74	11.634
445.09	11.914
445.44	12.411
445.79	11.925
446.15	13.023
446.50	11.847
446.85	12.127
447.20	12.137
447.55	11.781
447.91	11.914
448.26	12.187
448.61	11.984
448.96	12.348
449.31	12.655
449.66	12.662
450.02	11.253
450.37	11.338
450.72	11.619
451.07	11.395
451.42	11.489
451.77	12.507
452.12	11.085
452.47	11.878
452.83	10.956
453.18	11.002
453.53	11.750
453.88	11.223
454.23	11.656
454.58	11.872
454.93	12.270
455.28	11.160
455.63	11.772
455.98	11.488
456.34	11.683
456.69	11.146
457.04	10.960
457.39	10.754
457.74	11.376
458.09	11.558
458.44	11.631
458.79	10.954
459.14	11.795
459.49	10.917
459.84	11.025
460.19	10.784
460.54	10.938
460.89	10.752
461.24	10.929
461.59	12.260
461.94	10.851
462.29	10.504
462.64	11.551
462.99	10.540
463.34	12.000
463.69	11.132
464.04	11.188
464.39	11.072
464.74	10.695
465.09	10.917
465.44	10.748
465.79	10.235
466.14	10.509
466.49	10.679
466.84	10.858
467.19	10.984
467.54	11.500
467.89	11.044
468.24	11.227
468.59	11.477
468.94	10.202
469.29	10.797
469.64	11.981
469.99	10.487
470.34	10.634
470.68	10.920
471.03	10.340
471.38	11.049
471.73	10.726
472.08	10.526
472.43	10.050
472.78	10.204
473.13	11.040
473.48	10.362
473.83	10.244
474.17	9.521
474.52	10.174
474.87	10.391
475.22	10.273
475.57	9.618
475.92	9.825
476.27	10.316
476.61	10.039
476.96	9.291
477.31	9.838
477.66	9.354
478.01	10.037
478.36	9.677
478.70	9.450
479.05	9.372
479.40	9.826
479.75	9.253
480.10	9.046
480.45	9.472
480.79	8.935
481.14	9.785
481.49	9.397
481.84	9.465
482.19	9.087
482.53	9.679
482.88	9.307
483.23	9.159
483.58	9.281
483.92	9.185
484.27	7.887
484.62	8.922
484.97	8.553
485.31	8.630
485.66	8.038
486.01	7.590
486.36	7.573
486.70	7.485
487.05	7.691
487.40	8.018
487.75	8.050
488.09	8.129
488.44	8.072
488.79	8.463
489.13	9.053
489.48	8.361
489.83	8.114
490.17	8.417
490.52	8.282
490.87	8.955
491.22	8.640
491.56	8.018
491.91	8.469
492.26	8.085
492.60	8.479
492.95	8.279
493.30	8.084
493.64	8.073
493.99	8.217
494.34	8.973
494.68	8.425
495.03	8.741
495.37	8.283
495.72	8.187
496.07	8.399
496.41	7.699
496.76	8.179
497.11	8.465
497.45	7.918
497.80	8.589
498.14	8.261
498.49	7.610
498.84	8.150
499.18	8.524
499.53	8.120
499.87	7.829
500.22	8.573
500.56	8.252
500.91	8.221
501.26	8.298
501.60	8.590
501.95	7.791
502.29	8.247
502.64	8.054
502.98	8.088
503.33	8.090
503.67	8.260
504.02	8.092
504.36	8.189
504.71	7.914
505.06	8.096
505.40	7.487
505.75	7.715
506.09	8.309
506.44	7.745
506.78	7.940
507.13	8.329
507.47	8.434
507.82	7.700
508.16	8.713
508.51	8.422
508.85	8.342
509.19	7.347
509.54	7.755
509.88	7.883
510.23	8.329
510.57	8.411
510.92	8.338
511.26	7.965
511.61	7.884
511.95	8.038
512.30	7.953
512.64	7.362
512.98	8.360
513.33	8.298
513.67	7.951
514.02	6.981
514.36	8.083
514.70	7.914
515.05	7.697
515.39	7.964
515.74	8.164
516.08	8.440
516.42	7.991
516.77	8.027
517.11	7.991
517.46	7.901
517.80	8.130
518.14	7.759
518.49	8.110
518.83	8.409
519.17	8.256
519.52	8.149
519.86	8.500
520.20	8.786
520.55	8.199
520.89	7.786
521.23	8.263
521.58	8.223
521.92	8.696
522.26	7.566
522.61	8.474
522.95	8.349
523.29	7.547
523.64	7.866
523.98	7.887
524.32	8.323
524.66	8.238
525.01	8.824
525.35	8.055
525.69	7.882
526.04	7.539
526.38	8.176
526.72	7.853
527.06	7.972
527.41	7.054
527.75	8.617
528.09	8.092
528.43	7.839
528.78	8.175
529.12	7.152
529.46	7.961
529.80	7.983
530.15	8.660
530.49	8.246
530.83	8.228
531.17	8.551
531.51	8.755
531.86	7.871
532.20	8.475
532.54	7.880
532.88	8.472
533.22	8.120
533.57	8.025
533.91	7.465
534.25	8.748
534.59	7.383
534.93	7.317
535.27	8.027
535.62	7.692
535.96	7.784
536.30	7.819
536.64	7.791
536.98	8.029
537.32	8.295
537.66	8.067
538.01	8.163
538.35	8.339
538.69	8.105
539.03	6.953
539.37	7.029
539.71	7.064
540.05	7.386
540.39	7.841
540.73	7.439
541.07	8.306
541.42	7.828
541.76	8.323
542.10	7.503
542.44	7.550
542.78	8.827
543.12	7.997
543.46	7.803
543.80	7.612
544.14	7.381
544.48	7.619
544.82	7.761
545.16	7.482
545.50	7.969
545.84	7.191
546.18	7.475
546.52	7.777
546.86	7.285
547.20	8.699
547.54	8.083
547.88	8.163
548.22	7.721
548.56	8.176
548.90	7.554
549.24	6.734
549.58	8.458
549.92	7.692
550.26	8.026
550.60	7.469
550.94	7.324
551.28	7.315
551.62	7.764
551.96	8.000
552.30	8.464
552.64	7.776
552.98	8.136
553.32	7.687
553.66	8.521
554.00	7.412
554.34	8.282
554.68	7.797
555.02	8.039
555.36	8.142
555.69	7.307
556.03	7.873
556.37	7.503
556.71	7.162
557.05	7.563
557.39	8.258
557.73	7.904
558.07	7.397
558.41	7.887
558.75	7.641
559.08	7.830
559.42	7.105
559.76	8.529
560.10	7.281
560.44	7.338
560.78	7.518
561.12	7.388
561.45	7.627
561.79	7.976
562.13	7.780
562.47	7.514
562.81	7.392
563.15	7.692
563.48	7.493
563.82	7.306
564.16	6.475
564.50	6.836
564.84	7.206
565.17	6.692
565.51	7.540
565.85	7.805
566.19	6.450
566.52	7.156
566.86	6.992
567.20	8.078
567.54	6.849
567.88	6.790
568.21	8.095
568.55	6.876
568.89	6.080
569.23	6.239
569.56	6.437
569.90	6.000
570.24	6.351
570.57	5.848
570.91	6.206
571.25	6.146
571.59	6.392
571.92	5.876
572.26	6.095
572.60	6.096
572.93	6.027
573.27	6.122
573.61	6.058
573.95	5.891
574.28	5.553
574.62	5.564
574.96	5.615
575.29	5.723
575.63	5.920
575.97	5.858
576.30	6.134
576.64	5.534
576.98	5.542
577.31	5.337
577.65	5.559
577.98	5.468
578.32	5.222
578.66	5.807
578.99	5.570
579.33	5.810
579.67	5.595
580.00	5.754
580.34	5.624
580.67	5.531
581.01	5.982
581.35	5.604
581.68	5.635
582.02	5.352
582.35	5.335
582.69	5.514
583.02	5.524
583.36	5.764
583.70	5.969
584.03	5.669
584.37	5.903
584.70	5.408
585.04	5.749
585.37	5.778
585.71	5.592
586.04	5.726
586.38	5.773
586.72	6.159
587.05	5.460
587.39	5.224
587.72	5.952
588.06	5.603
588.39	5.844
588.73	6.131
589.06	5.952
589.40	5.993
589.73	5.773
590.07	6.014
590.40	5.590
590.73	6.128
591.07	6.105
591.40	6.326
591.74	6.710
592.07	6.326
592.41	6.242
592.74	6.105
593.08	5.996
593.41	5.758
593.75	5.746
594.08	5.800
594.41	6.080
594.75	6.174
595.08	5.941
595.42	6.165
595.75	6.303
596.09	6.046
596.42	6.680
596.75	6.290
597.09	6.883
597.42	6.492
597.75	6.727
598.09	6.609
598.42	6.615
598.76	6.080
599.09	6.271
599.42	6.223
599.76	6.772
600.09	6.230
600.42	5.369
600.76	5.929
601.09	6.047
601.42	5.860
601.76	6.641
602.09	5.850
602.42	6.568
602.76	6.247
603.09	5.940
603.42	6.091
603.76	5.907
604.09	6.049
604.42	6.400
604.76	6.580
605.09	6.509
605.42	6.413
605.75	6.374
606.09	5.815
606.42	5.803
606.75	6.221
607.09	6.865
607.42	5.349
607.75	5.865
608.08	6.296
608.42	6.634
608.75	6.132
609.08	6.753
609.41	6.330
609.75	5.955
610.08	6.739
610.41	5.773
610.74	5.771
611.07	6.818
611.41	6.526
611.74	6.938
612.07	6.832
612.40	7.345
612.73	6.263
613.07	6.843
613.40	7.214
613.73	6.397
614.06	6.828
614.39	6.765
614.72	6.579
615.06	6.670
615.39	5.892
615.72	6.595
616.05	6.592
616.38	6.392
616.71	6.591
617.05	7.656
617.38	6.855
617.71	7.387
618.04	6.611
618.37	6.742
618.70	7.654
619.03	7.105
619.36	6.653
619.69	7.113
620.03	7.143
620.36	8.088
620.69	7.397
621.02	7.743
621.35	7.048
621.68	7.710
622.01	6.811
622.34	8.548
622.67	6.768
623.00	7.337
623.33	7.005
623.66	7.291
623.99	7.069
624.32	7.561
624.65	7.486
624.99	5.524
625.32	6.879
625.65	7.363
625.98	7.302
626.31	7.776
626.64	8.816
626.97	7.149
627.30	8.146
627.63	8.121
627.96	7.906
628.29	7.874
628.62	8.326
628.95	9.245
629.28	8.668
629.61	8.249
629.94	7.810
630.26	8.389
630.59	7.817
630.92	7.950
631.25	8.292
631.58	8.008
631.91	7.911
632.24	8.439
632.57	8.814
632.90	8.224
633.23	8.725
633.56	9.040
633.89	8.607
634.22	9.535
634.55	9.231
634.88	9.820
635.20	9.797
635.53	8.916
635.86	9.406
636.19	10.471
636.52	9.343
636.85	8.935
637.18	9.562
637.51	11.229
637.83	8.015
638.16	10.742
638.49	8.060
638.82	10.493
639.15	9.250
639.48	10.723
639.81	9.383
640.13	10.026
640.46	9.799
640.79	9.643
641.12	9.216
641.45	9.916
641.77	9.131
642.10	10.526
642.43	8.559
642.76	10.062
643.09	8.742
643.41	10.015
643.74	10.494
644.07	10.518
644.40	11.503
644.73	11.969
645.05	11.727
645.38	10.742
645.71	10.789
646.04	10.963
646.36	12.521
646.69	13.043
647.02	11.054
647.35	11.684
647.67	11.327
648.00	13.008
648.33	9.571
648.66	9.697
648.98	12.744
649.31	9.118
649.64	10.314
649.96	10.730
650.29	10.269
650.62	10.032
650.94	10.859
651.27	11.149
651.60	9.817
651.92	12.141
652.25	11.564
652.58	9.813
652.90	9.637
653.23	10.324
653.56	9.606
653.88	12.203
654.21	10.111
654.54	9.736
654.86	8.879
655.19	9.865
655.52	5.021
655.84	4.333
656.17	5.214
656.49	6.890
656.82	7.172
657.15	5.521
657.47	4.235
657.80	3.376
658.13	3.417
658.45	5.319
658.78	5.337
659.10	5.920
659.43	5.854
659.75	6.297
660.08	6.519
660.41	8.566
660.73	9.657
661.06	9.554
661.38	11.455
661.71	13.846
662.03	13.609
662.36	9.940
662.68	10.241
663.01	11.717
663.33	12.739
663.66	10.924
663.98	12.311
664.31	12.395
664.63	10.931
664.96	9.658
665.28	13.934
665.61	12.671
665.93	12.072
666.26	8.925
666.58	12.343
666.91	14.165
667.23	12.135
667.56	10.799
667.88	14.103
668.21	13.859
668.53	11.063
668.86	10.390
669.18	13.859
669.50	15.435
669.83	14.161
670.15	14.444
670.48	11.111
670.80	12.716
671.13	13.163
671.45	12.766
671.77	13.849
672.10	12.200
672.42	10.071
672.75	11.111
673.07	10.035
673.39	9.042
673.72	10.742
674.04	11.765
674.37	13.204
674.69	9.202
675.01	13.389
675.34	14.784
675.66	12.632
675.98	12.424
676.31	12.395
676.63	12.951
676.95	13.208
677.28	11.449
677.60	12.747
677.92	13.080
678.25	12.115
678.57	13.147
678.89	10.822
679.22	12.181
679.54	12.023
679.86	12.110
680.18	11.270
680.51	11.348
680.83	11.922
681.15	11.132
681.48	11.909
681.80	12.766
682.12	11.303
682.44	8.897
682.77	13.646
683.09	15.880
683.41	13.082
683.73	14.570
684.06	14.050
684.38	11.937
684.70	10.659
685.02	12.946
685.34	11.355
685.67	9.615
685.99	10.137
686.31	11.604
686.63	10.777
686.96	10.714
687.28	11.552
687.60	11.232
687.92	12.980
688.24	11.217
688.56	12.450
688.89	12.656
689.21	14.410
689.53	13.361
689.85	13.969
690.17	11.801
690.49	14.225
690.82	10.514
691.14	10.045
691.46	12.236
691.78	11.847
692.10	11.983
692.42	13.373
692.74	12.448
693.06	13.404
693.39	12.936
693.71	10.044
694.03	13.263
694.35	12.771
694.67	12.128
694.99	15.122
695.31	12.010
695.63	13.636
695.95	13.692
696.27	10.914
696.59	12.953
696.91	13.731
697.23	11.268
697.56	14.712
697.88	9.407
698.20	13.958
698.52	12.258
698.84	12.695
699.16	12.212
699.48	11.164
699.80	14.010
700.12	16.104
700.44	14.058
700.76	15.470
701.08	14.655
701.40	13.128
701.72	16.618
702.04	16.193
702.36	12.465
702.68	13.881
703.00	13.850
703.32	14.894
703.64	19.303
703.96	15.599
704.28	14.244
704.60	17.595
704.91	14.243
705.23	17.595
705.55	14.618
705.87	21.595
706.19	13.074
706.51	17.757
706.83	11.515
707.15	15.406
707.47	13.636
707.79	16.462
708.11	15.982
708.43	14.048
708.74	11.990
709.06	12.468
709.38	15.748
709.70	15.698
710.02	14.540
710.34	15.758
710.66	18.209
710.98	14.773
711.29	17.733
711.61	18.879
711.93	13.141
712.25	20.257
712.57	17.647
712.89	14.533
713.20	16.109
713.52	18.421
713.84	17.722
714.16	16.768
714.48	14.943
714.80	17.325
715.11	15.562
715.43	14.837
715.75	15.652
716.07	12.780
716.39	17.868
716.70	19.601
717.02	21.223
717.34	17.668
717.66	17.910
717.97	20.319
718.29	20.000
718.61	19.343
718.93	19.118
719.24	19.031
719.56	15.932
719.88	16.271
720.20	20.946
720.51	17.422
720.83	18.216
721.15	13.060
721.46	18.085
721.78	18.280
722.10	16.604
722.42	22.556
722.73	19.101
723.05	18.033
723.37	17.814
723.68	21.236
724.00	19.106
724.32	16.129
724.63	15.041
724.95	16.736
725.27	19.838
725.58	19.531
725.90	20.438
726.22	19.245
726.53	18.750
726.85	19.454
727.16	22.064
727.48	18.794
727.80	19.697
728.11	14.493
728.43	15.769
728.74	15.054
729.06	21.898
729.38	15.074
729.69	19.573
730.01	18.771
730.32	17.014
730.64	15.050
730.96	14.191
731.27	19.536
731.59	17.125
731.90	18.950
732.22	16.770
732.53	15.789
732.85	15.385
733.16	17.042
733.48	16.611
733.80	18.506
734.11	19.427
734.43	21.006
734.74	13.714
735.06	14.900
735.37	17.630
735.69	17.197
736.00	18.954
736.32	18.380
736.63	16.933
736.95	15.655
737.26	17.007
737.58	15.806
737.89	17.391
738.21	19.113
738.52	18.929
738.83	16.226
739.15	19.231
739.46	18.978
739.78	18.403
740.09	15.692
740.41	20.323
740.72	11.847
741.04	17.407
741.35	18.333
741.66	22.222
741.98	12.264
742.29	28.230
742.61	31.034
742.92	22.624
743.23	22.650
743.55	23.600
743.86	21.491
744.18	26.549
744.49	25.837
744.80	22.066
745.12	25.909
745.43	22.467
745.74	24.324
746.06	26.147
746.37	26.009
746.68	23.529
747.00	22.685
747.31	27.619
747.62	14.602
747.94	24.670
748.25	18.298
748.56	19.824
748.88	20.297
749.19	28.500
749.50	25.116
749.82	20.325
750.13	14.286
750.44	20.438
750.75	15.439
751.07	20.579
751.38	22.300
751.69	17.690
752.01	17.669
752.32	19.856
752.63	22.340
752.94	20.082
753.26	22.400
753.57	14.228
753.88	21.484
754.19	19.286
754.51	21.875
754.82	16.968
755.13	18.491
755.44	18.797
755.75	17.153
756.07	17.021
756.38	13.504
756.69	14.094
757.00	15.269
757.31	16.617
757.63	14.620
757.94	13.941
758.25	14.951
758.56	15.309
758.87	14.516
759.18	17.273
759.50	16.614
759.81	14.330
760.12	17.188
760.43	15.186
760.74	13.859
761.05	16.949
761.36	14.706
761.67	18.182
761.99	14.596
762.30	18.056
762.61	18.702
762.92	22.656
763.23	17.647
763.54	21.600
763.85	18.750
764.16	20.385
764.47	22.053
764.78	16.254
765.10	15.823
765.41	15.044
765.72	17.066
766.03	15.047
766.34	20.000
766.65	17.021
766.96	25.214
767.27	24.873
767.58	22.917
767.89	29.474
768.20	31.609
768.51	24.365
768.82	22.018
769.13	17.480
769.44	22.672
769.75	16.738
770.06	15.596
770.37	24.434
770.68	24.074
770.99	18.667
771.30	19.672
771.61	20.628
771.92	22.541
772.23	28.151
772.54	27.692
772.85	27.225
773.16	26.064
773.47	23.913
773.78	32.487
774.09	28.571
774.39	27.485
774.70	26.543
775.01	28.986
775.32	35.948
775.63	34.868
775.94	27.338
776.25	32.283
776.56	39.552
776.87	40.164
777.18	35.156
777.48	38.168
777.79	30.303
778.10	34.815
778.41	31.250
778.72	32.847
779.03	33.557
779.34	31.544
779.65	25.676
779.95	28.834
780.26	37.908
780.57	33.103
780.88	50.000
781.19	32.331
781.50	30.405
781.80	35.220
782.11	28.249
782.42	31.013
782.73	22.086
783.04	33.108
783.34	33.099
783.65	39.041
783.96	29.104
784.27	30.769
784.57	21.583
784.88	29.630
785.19	39.683
785.50	40.566
785.81	45.522
786.11	40.164
786.42	34.884
786.73	37.168
787.04	33.962
787.34	37.500
787.65	46.000
787.96	32.432
788.26	33.884
788.57	40.678
788.88	42.149
789.19	38.889
789.49	43.939
789.80	36.641
790.11	50.476
790.41	39.604
790.72	43.373
791.03	50.000
791.33	43.023
791.64	42.268
791.95	41.584
792.25	56.667
792.56	59.740
792.87	61.538
793.17	58.228
793.48	57.471
793.79	57.471
794.09	43.182
794.40	45.378
794.70	42.647
795.01	32.593
795.32	38.129
795.62	31.496
795.93	39.655
796.23	39.823
796.54	42.353
796.85	45.946
797.15	60.563
797.46	54.545
797.76	62.651
798.07	54.430
798.37	50.769
798.68	60.606
798.99	39.437
799.29	58.442
799.60	56.818
799.90	67.123
800.21	53.731
800.51	68.966
800.82	80.702
801.12	54.098
801.43	74.242
801.73	44.595
802.04	68.254
802.34	69.136
802.65	62.500
802.95	69.492
803.26	92.188
803.56	52.857
803.87	73.846
804.17	52.941
804.48	81.481
804.78	55.172
805.09	57.353
805.39	69.231
805.70	62.500
806.00	70.492
806.30	62.121
806.61	62.195
806.91	56.962
807.22	46.053
807.52	47.761
807.83	69.014
808.13	67.188
808.43	80.000
808.74	60.526
809.04	62.319
809.35	67.164
809.65	61.842
809.95	90.323
810.26	64.407
810.56	58.730
810.86	95.455
811.17	83.333
811.47	88.333
811.77	79.630
812.08	80.000
812.38	84.000
812.69	125.000
812.99	120.455
813.29	93.878
813.59	54.762
813.90	95.918
814.20	78.182
814.50	58.462
814.81	69.118
815.11	106.122
815.41	78.689
815.72	100.000
816.02	85.455
816.32	80.952
816.62	80.000
816.93	100.000
817.23	92.857
817.53	84.091
817.84	127.273
818.14	106.522
818.44	95.556
818.74	114.706
819.04	75.000
819.35	97.143
819.65	132.353
819.95	125.000
820.25	155.000
820.56	130.769
820.86	88.636
821.16	83.721
821.46	102.564
821.76	100.000
822.07	117.143
822.37	110.000
822.67	112.121
822.97	96.078
823.27	150.000
823.57	110.811
823.88	120.000
824.18	153.333
824.48	109.524
824.78	192.000
825.08	137.500
825.38	127.027
825.69	95.122
825.99	175.000
826.29	134.483
826.59	142.105
826.89	136.842
827.19	135.294
827.49	177.419
827.79	109.091
828.09	90.909
828.39	106.383
828.70	100.000
829.00	107.407
829.30	119.355
829.60	100.000
829.90	173.333
830.20	75.000
830.50	152.174
830.80	165.217
831.10	146.667
831.40	133.333
831.70	169.565
832.00	192.308
832.30	148.148
832.60	212.500
832.90	153.333
833.20	321.429
833.50	151.613
833.80	162.069
834.10	121.875
834.40	176.923
834.70	216.667
835.00	209.524
835.30	117.143
835.60	223.077
835.90	141.379
836.20	235.714
836.50	165.517
836.80	132.000
837.10	130.556
837.40	214.286
837.70	235.294
838.00	129.630
838.30	200.000
838.60	219.048
838.90	184.615
839.19	225.000
839.49	314.286
839.79	270.000
840.09	225.000
840.39	166.667
840.69	165.217
840.99	216.667
841.29	290.000
841.59	300.000
841.88	256.250
842.18	175.862
842.48	209.524
842.78	190.000
843.08	208.696
843.38	137.500
843.68	616.667
843.97	169.231
844.27	158.621
844.57	223.810
844.87	275.000
845.17	155.556
845.47	1133.333
845.76	333.333
846.06	229.412
846.36	400.000
846.66	328.571
846.96	250.000
847.25	309.091
847.55	236.364
847.85	191.304
848.15	310.000
848.44	285.714
848.74	155.556
849.04	241.176
849.34	380.000
849.63	184.211
849.93	445.455
850.23	720.000
850.53	321.429
850.82	2300.000
851.12	-3700.000
851.42	2800.000
851.71	200.000
852.01	-766.667
852.31	191.667
852.61	1433.333
852.90	257.143
853.20	200.000
853.50	294.118
853.79	214.286
854.09	175.000
854.39	300.000
854.68	148.649
854.98	135.484
855.28	156.667
855.57	144.828
855.87	181.481
856.17	142.105
856.46	200.000
856.76	200.000
857.05	186.207
857.35	158.333
857.65	233.333
857.94	234.783
858.24	176.923
858.53	195.000
858.83	213.636
859.13	306.667
859.42	0.000
859.72	477.778
860.01	236.364
860.31	190.909
860.60	215.789
860.90	173.913
861.20	400.000
861.49	441.667
861.79	-4100.000
862.08	487.500
862.38	252.381
862.67	246.154
862.97	311.765
863.26	555.556
863.56	227.778
863.85	333.333
864.15	500.000
864.44	366.667
864.74	600.000
865.03	575.000
865.33	200.000
865.62	400.000
865.92	338.462
866.21	333.333
866.51	0.000
866.80	290.909
867.10	940.000
867.39	330.769
867.69	336.364
867.98	263.158
868.27	336.364
868.57	247.368
868.86	-3700.000
869.16	268.750
869.45	1050.000
869.75	-3100.000
870.04	350.000
870.33	585.714
870.63	675.000
870.92	2400.000
871.22	585.714
871.51	235.294
871.80	176.190
872.10	285.714
>>>>>End Processed Spectral Data<<<<<
