SpectraSuite Data File
++++++++++++++++++++++++++++++++++++
Date: Wed May 13 20:29:10 PDT 2015
User: schluterlab
Dark Spectrum Present: Yes
Reference Spectrum Present: Yes
Number of Sampled Component Spectra: 1
Spectrometers: USB2E3373
Integration Time (usec): 3000 (USB2E3373)
Spectra Averaged: 3 (USB2E3373)
Boxcar Smoothing: 0 (USB2E3373)
Correct for Electrical Dark: No (USB2E3373)
Strobe/Lamp Enabled: No (USB2E3373)
Correct for Detector Non-linearity: No (USB2E3373)
Correct for Stray Light: No (USB2E3373)
Number of Pixels in Processed Spectrum: 2048
>>>>>Begin Processed Spectral Data<<<<<
178.53	0.000
178.91	-1125.000
179.29	-1025.000
179.67	-200.000
180.04	-1200.000
180.42	1700.000
180.80	900.000
181.18	-900.000
181.56	600.000
181.94	0.000
182.31	-557.143
182.69	1333.333
183.07	-337.500
183.45	-444.444
183.83	472.727
184.20	-330.000
184.58	1750.000
184.96	4200.000
185.34	-620.000
185.72	-587.500
186.09	-1850.000
186.47	2650.000
186.85	1800.000
187.23	3600.000
187.61	-1466.667
187.98	1075.000
188.36	318.182
188.74	345.455
189.12	-720.000
189.49	500.000
189.87	-4000.000
190.25	-900.000
190.63	350.000
191.00	407.692
191.38	733.333
191.76	-1125.000
192.14	1275.000
192.51	500.000
192.89	883.333
193.27	487.500
193.65	-975.000
194.02	380.000
194.40	700.000
194.78	490.000
195.15	350.000
195.53	450.000
195.91	-1800.000
196.29	262.500
196.66	305.263
197.04	-280.000
197.42	0.000
197.79	560.000
198.17	-3500.000
198.55	485.714
198.92	600.000
199.30	800.000
199.68	0.000
200.05	283.333
200.43	757.143
200.81	2700.000
201.18	1400.000
201.56	-1500.000
201.94	533.333
202.31	555.556
202.69	366.667
203.07	450.000
203.44	0.000
203.82	950.000
204.19	514.286
204.57	364.286
204.95	587.500
205.32	1233.333
205.70	427.273
206.08	328.571
206.45	2200.000
206.83	275.000
207.20	900.000
207.58	540.000
207.96	338.889
208.33	575.000
208.71	-733.333
209.08	714.286
209.46	522.222
209.84	336.364
210.21	-1033.333
210.59	1175.000
210.96	-387.500
211.34	1950.000
211.71	450.000
212.09	800.000
212.46	0.000
212.84	1466.667
213.22	975.000
213.59	-5100.000
213.97	750.000
214.34	728.571
214.72	563.636
215.09	880.000
215.47	-1850.000
215.84	-1950.000
216.22	1700.000
216.59	321.429
216.97	1200.000
217.34	400.000
217.72	-600.000
218.09	0.000
218.47	-3800.000
218.84	544.444
219.22	600.000
219.59	1100.000
219.97	-500.000
220.34	1000.000
220.72	-1500.000
221.09	350.000
221.47	950.000
221.84	-783.333
222.22	0.000
222.59	1200.000
222.97	-2550.000
223.34	1000.000
223.72	292.308
224.09	1020.000
224.46	2250.000
224.84	-5000.000
225.21	-880.000
225.59	-3900.000
225.96	480.000
226.34	205.000
226.71	2550.000
227.08	462.500
227.46	410.000
227.83	-900.000
228.21	-1500.000
228.58	555.556
228.95	-2200.000
229.33	-1550.000
229.70	1566.667
230.08	771.429
230.45	-720.000
230.82	358.333
231.20	666.667
231.57	471.429
231.95	425.000
232.32	213.636
232.69	400.000
233.07	628.571
233.44	238.462
233.81	-1466.667
234.19	205.263
234.56	366.667
234.93	325.000
235.31	354.545
235.68	284.615
236.05	300.000
236.43	139.394
236.80	252.632
237.17	4200.000
237.55	219.048
237.92	203.571
238.29	200.000
238.67	151.613
239.04	172.414
239.41	141.667
239.79	113.043
240.16	133.333
240.53	122.727
240.91	100.000
241.28	110.000
241.65	100.000
242.02	72.464
242.40	82.258
242.77	83.333
243.14	83.871
243.51	82.022
243.89	72.941
244.26	82.222
244.63	61.290
245.00	71.277
245.38	65.347
245.75	58.879
246.12	63.303
246.49	61.314
246.87	65.600
247.24	59.231
247.61	65.000
247.98	61.438
248.36	53.378
248.73	55.414
249.10	56.051
249.47	52.542
249.84	56.150
250.22	52.941
250.59	55.030
250.96	47.980
251.33	57.820
251.70	51.980
252.08	53.333
252.45	48.879
252.82	45.652
253.19	48.511
253.56	46.667
253.94	48.963
254.31	47.656
254.68	45.385
255.05	44.280
255.42	47.561
255.79	45.956
256.16	48.014
256.54	40.989
256.91	43.060
257.28	40.647
257.65	41.584
258.02	42.547
258.39	42.902
258.76	40.803
259.14	44.345
259.51	39.514
259.88	44.410
260.25	43.505
260.62	39.595
260.99	41.304
261.36	42.943
261.73	42.407
262.10	41.860
262.47	42.535
262.85	38.440
263.22	38.746
263.59	43.305
263.96	41.484
264.33	40.209
264.70	38.947
265.07	38.875
265.44	39.141
265.81	39.416
266.18	41.206
266.55	37.561
266.92	40.541
267.29	38.889
267.66	37.385
268.03	37.955
268.40	38.318
268.77	34.845
269.14	40.991
269.51	36.343
269.88	41.492
270.25	37.698
270.62	37.753
270.99	38.280
271.36	38.627
271.73	37.383
272.10	35.652
272.47	40.645
272.84	38.528
273.21	36.059
273.58	37.555
273.95	35.430
274.32	35.331
274.69	38.758
275.06	35.827
275.43	37.660
275.80	35.471
276.17	38.086
276.54	38.877
276.91	38.735
277.28	37.109
277.65	37.331
278.02	33.954
278.39	37.305
278.76	34.182
279.13	36.604
279.50	35.382
279.87	35.657
280.23	38.723
280.60	35.977
280.97	35.120
281.34	37.699
281.71	37.818
282.08	36.660
282.45	34.182
282.82	35.702
283.19	32.620
283.56	35.439
283.92	36.379
284.29	35.273
284.66	33.938
285.03	34.901
285.40	36.972
285.77	34.175
286.14	34.197
286.51	34.500
286.87	34.359
287.24	34.365
287.61	34.350
287.98	34.253
288.35	33.597
288.72	34.112
289.08	32.081
289.45	30.313
289.82	31.545
290.19	32.339
290.56	30.475
290.93	31.118
291.29	30.521
291.66	30.531
292.03	33.140
292.40	31.424
292.77	30.769
293.13	28.955
293.50	29.009
293.87	29.481
294.24	29.333
294.60	28.530
294.97	29.360
295.34	30.465
295.71	28.977
296.08	27.778
296.44	28.748
296.81	28.930
297.18	27.642
297.55	26.385
297.91	27.309
298.28	28.246
298.65	28.198
299.02	26.614
299.38	27.756
299.75	26.415
300.12	26.054
300.48	26.500
300.85	28.237
301.22	26.115
301.59	25.631
301.95	27.456
302.32	28.241
302.69	26.284
303.05	28.485
303.42	26.173
303.79	26.840
304.15	25.874
304.52	25.840
304.89	26.713
305.25	25.754
305.62	26.387
305.99	27.155
306.35	25.615
306.72	25.448
307.09	25.971
307.45	25.788
307.82	24.665
308.19	27.042
308.55	25.243
308.92	27.282
309.29	24.710
309.65	25.451
310.02	26.744
310.38	25.806
310.75	26.082
311.12	26.612
311.48	25.287
311.85	26.415
312.22	26.639
312.58	26.611
312.95	28.194
313.31	25.437
313.68	28.482
314.05	28.895
314.41	26.935
314.78	27.090
315.14	27.706
315.51	28.939
315.87	28.020
316.24	29.593
316.61	28.363
316.97	29.159
317.34	27.593
317.70	30.210
318.07	29.066
318.43	31.703
318.80	30.928
319.16	31.262
319.53	31.051
319.89	31.810
320.26	33.400
320.62	33.135
320.99	33.737
321.35	34.141
321.72	34.394
322.08	34.748
322.45	37.214
322.81	37.016
323.18	36.513
323.54	37.662
323.91	36.887
324.27	37.763
324.64	39.143
325.00	37.421
325.37	40.218
325.73	40.575
326.10	40.335
326.46	41.219
326.83	41.933
327.19	42.613
327.56	43.467
327.92	44.882
328.29	43.922
328.65	44.475
329.01	46.300
329.38	45.606
329.74	45.060
330.11	45.806
330.47	48.944
330.84	48.621
331.20	47.177
331.56	47.890
331.93	48.889
332.29	48.270
332.66	48.761
333.02	49.177
333.38	49.051
333.75	49.465
334.11	50.089
334.48	49.335
334.84	51.011
335.20	50.818
335.57	49.592
335.93	49.375
336.29	50.366
336.66	50.135
337.02	51.041
337.38	51.111
337.75	51.159
338.11	48.075
338.47	51.842
338.84	52.062
339.20	52.110
339.56	52.555
339.93	50.818
340.29	51.178
340.65	52.496
341.02	52.182
341.38	50.267
341.74	50.789
342.11	51.441
342.47	53.216
342.83	51.284
343.20	52.468
343.56	49.200
343.92	51.930
344.28	50.510
344.65	52.365
345.01	49.579
345.37	51.029
345.73	52.538
346.10	51.066
346.46	51.186
346.82	50.577
347.19	51.629
347.55	50.575
347.91	50.728
348.27	51.520
348.63	51.087
349.00	50.809
349.36	49.672
349.72	50.200
350.08	49.271
350.45	51.424
350.81	51.097
351.17	50.405
351.53	50.778
351.89	49.587
352.26	50.592
352.62	50.601
352.98	49.433
353.34	49.712
353.70	50.327
354.07	48.952
354.43	48.175
354.79	49.477
355.15	48.603
355.51	50.600
355.87	50.531
356.24	49.756
356.60	51.002
356.96	49.638
357.32	51.022
357.68	50.236
358.04	48.139
358.40	48.614
358.77	48.826
359.13	47.987
359.49	48.941
359.85	49.127
360.21	50.000
360.57	49.961
360.93	50.462
361.29	48.450
361.66	49.381
362.02	50.075
362.38	48.669
362.74	48.810
363.10	48.631
363.46	49.230
363.82	49.433
364.18	48.458
364.54	48.960
364.90	49.363
365.26	48.309
365.62	48.868
365.98	48.649
366.35	48.424
366.71	50.759
367.07	48.070
367.43	49.419
367.79	49.393
368.15	50.575
368.51	47.529
368.87	49.536
369.23	49.525
369.59	48.733
369.95	48.162
370.31	48.647
370.67	47.754
371.03	48.989
371.39	48.688
371.75	48.088
372.11	47.297
372.47	47.947
372.83	50.072
373.19	48.483
373.55	48.485
373.91	50.221
374.27	47.285
374.63	47.345
374.99	49.011
375.35	48.779
375.71	49.006
376.07	48.491
376.42	48.349
376.78	47.714
377.14	47.897
377.50	48.675
377.86	48.271
378.22	47.598
378.58	47.243
378.94	47.454
379.30	48.919
379.66	49.683
380.02	47.727
380.38	47.541
380.74	48.019
381.09	47.188
381.45	48.617
381.81	48.710
382.17	47.898
382.53	47.736
382.89	47.222
383.25	47.530
383.61	48.265
383.97	47.967
384.32	46.538
384.68	46.902
385.04	47.880
385.40	47.307
385.76	47.236
386.12	48.251
386.48	47.074
386.83	48.300
387.19	48.547
387.55	47.557
387.91	48.670
388.27	47.701
388.62	48.125
388.98	46.867
389.34	47.810
389.70	47.394
390.06	46.705
390.42	47.795
390.77	47.646
391.13	48.309
391.49	48.096
391.85	46.595
392.20	45.300
392.56	47.412
392.92	47.322
393.28	46.450
393.64	47.902
393.99	46.549
394.35	46.154
394.71	46.863
395.07	46.417
395.42	47.837
395.78	46.374
396.14	46.369
396.50	47.619
396.85	47.552
397.21	46.363
397.57	46.869
397.92	45.913
398.28	45.684
398.64	46.834
399.00	46.279
399.35	45.798
399.71	46.875
400.07	46.245
400.42	46.564
400.78	46.622
401.14	46.768
401.49	45.731
401.85	47.066
402.21	46.287
402.57	46.453
402.92	47.793
403.28	47.158
403.63	47.277
403.99	47.197
404.35	47.273
404.70	46.043
405.06	45.778
405.42	45.727
405.77	46.171
406.13	45.485
406.49	46.422
406.84	45.245
407.20	45.449
407.55	45.884
407.91	47.267
408.27	46.075
408.62	45.334
408.98	45.956
409.34	46.002
409.69	46.129
410.05	46.406
410.40	47.523
410.76	46.655
411.11	45.537
411.47	45.623
411.83	45.999
412.18	45.702
412.54	46.575
412.89	45.181
413.25	46.576
413.60	46.757
413.96	45.537
414.31	45.261
414.67	46.008
415.03	45.430
415.38	45.039
415.74	45.145
416.09	46.767
416.45	45.984
416.80	46.530
417.16	47.051
417.51	46.317
417.87	46.821
418.22	48.013
418.58	46.223
418.93	46.007
419.29	47.040
419.64	46.788
420.00	45.183
420.35	46.551
420.71	45.786
421.06	45.406
421.42	45.673
421.77	46.917
422.12	45.649
422.48	45.602
422.83	46.651
423.19	44.807
423.54	45.270
423.90	45.391
424.25	44.947
424.61	45.714
424.96	45.889
425.31	45.792
425.67	44.551
426.02	45.771
426.38	47.131
426.73	45.816
427.09	45.350
427.44	45.601
427.79	46.348
428.15	47.321
428.50	46.109
428.85	46.722
429.21	45.665
429.56	44.894
429.92	45.294
430.27	45.581
430.62	45.059
430.98	45.719
431.33	45.052
431.68	45.969
432.04	45.580
432.39	46.431
432.74	47.636
433.10	45.727
433.45	47.114
433.80	46.729
434.16	45.620
434.51	46.211
434.86	47.491
435.22	45.803
435.57	46.869
435.92	46.109
436.28	47.212
436.63	46.799
436.98	47.167
437.34	47.406
437.69	47.433
438.04	47.330
438.39	47.284
438.75	47.763
439.10	47.318
439.45	47.757
439.81	47.915
440.16	46.640
440.51	47.803
440.86	47.829
441.22	47.219
441.57	48.301
441.92	47.134
442.27	47.309
442.63	46.656
442.98	47.211
443.33	47.283
443.68	47.703
444.03	48.267
444.39	46.884
444.74	47.078
445.09	48.302
445.44	48.879
445.79	47.402
446.15	47.697
446.50	47.765
446.85	47.071
447.20	47.680
447.55	48.967
447.91	48.704
448.26	47.858
448.61	49.180
448.96	48.837
449.31	48.988
449.66	47.777
450.02	47.799
450.37	49.036
450.72	49.859
451.07	48.507
451.42	48.754
451.77	49.383
452.12	49.769
452.47	48.445
452.83	50.058
453.18	49.511
453.53	49.536
453.88	49.734
454.23	48.416
454.58	49.485
454.93	50.477
455.28	49.439
455.63	50.182
455.98	51.488
456.34	49.183
456.69	50.470
457.04	51.765
457.39	48.802
457.74	50.087
458.09	49.971
458.44	49.658
458.79	49.024
459.14	50.508
459.49	49.971
459.84	50.360
460.19	49.381
460.54	48.958
460.89	50.960
461.24	51.002
461.59	51.772
461.94	50.185
462.29	50.623
462.64	51.946
462.99	50.358
463.34	51.333
463.69	50.907
464.04	50.551
464.39	51.420
464.74	50.683
465.09	50.965
465.44	50.194
465.79	49.832
466.14	49.206
466.49	50.556
466.84	51.489
467.19	50.211
467.54	51.250
467.89	50.420
468.24	50.553
468.59	51.709
468.94	50.092
469.29	52.699
469.64	51.473
469.99	52.909
470.34	52.378
470.68	51.796
471.03	50.816
471.38	53.023
471.73	52.099
472.08	52.500
472.43	52.450
472.78	51.415
473.13	51.476
473.48	51.685
473.83	52.927
474.17	52.147
474.52	52.109
474.87	51.372
475.22	51.248
475.57	51.585
475.92	51.567
476.27	52.311
476.61	52.068
476.96	52.172
477.31	51.230
477.66	52.681
478.01	51.176
478.36	52.142
478.70	52.129
479.05	51.384
479.40	52.508
479.75	51.703
480.10	51.590
480.45	50.405
480.79	50.788
481.14	52.348
481.49	52.587
481.84	51.532
482.19	52.794
482.53	52.248
482.88	52.815
483.23	52.009
483.58	53.412
483.92	52.952
484.27	51.024
484.62	51.121
484.97	51.005
485.31	51.062
485.66	49.164
486.01	48.968
486.36	48.340
486.70	48.682
487.05	49.684
487.40	49.617
487.75	49.671
488.09	50.925
488.44	50.934
488.79	51.646
489.13	51.184
489.48	51.713
489.83	51.877
490.17	52.828
490.52	52.480
490.87	52.646
491.22	52.660
491.56	52.301
491.91	52.490
492.26	51.952
492.60	51.751
492.95	52.152
493.30	52.897
493.64	52.870
493.99	52.786
494.34	53.284
494.68	53.617
495.03	54.182
495.37	52.769
495.72	54.094
496.07	52.900
496.41	51.681
496.76	52.287
497.11	53.219
497.45	53.144
497.80	53.791
498.14	52.174
498.49	54.683
498.84	54.171
499.18	53.667
499.53	53.419
499.87	54.287
500.22	53.556
500.56	55.680
500.91	52.885
501.26	53.438
501.60	54.627
501.95	53.346
502.29	55.436
502.64	53.352
502.98	52.922
503.33	53.565
503.67	53.503
504.02	54.303
504.36	53.861
504.71	54.568
505.06	54.458
505.40	53.525
505.75	53.327
506.09	54.713
506.44	54.465
506.78	54.652
507.13	55.528
507.47	54.091
507.82	55.927
508.16	55.522
508.51	55.911
508.85	54.618
509.19	56.224
509.54	55.969
509.88	55.229
510.23	55.681
510.57	57.018
510.92	55.308
511.26	55.139
511.61	54.876
511.95	55.585
512.30	55.355
512.64	55.293
512.98	55.895
513.33	56.156
513.67	55.496
514.02	55.952
514.36	56.800
514.70	57.167
515.05	56.832
515.39	55.917
515.74	55.912
516.08	56.288
516.42	57.214
516.77	57.692
517.11	56.049
517.46	57.393
517.80	58.188
518.14	56.514
518.49	58.810
518.83	56.250
519.17	57.390
519.52	57.329
519.86	57.045
520.20	57.630
520.55	57.690
520.89	59.063
521.23	58.022
521.58	58.283
521.92	58.543
522.26	57.108
522.61	58.879
522.95	58.072
523.29	58.125
523.64	58.354
523.98	58.164
524.32	58.866
524.66	59.050
525.01	57.598
525.35	59.294
525.69	58.190
526.04	58.941
526.38	57.962
526.72	58.037
527.06	60.389
527.41	57.611
527.75	60.836
528.09	59.859
528.43	59.720
528.78	59.680
529.12	58.727
529.46	59.400
529.80	58.725
530.15	58.941
530.49	57.354
530.83	59.430
531.17	60.313
531.51	60.311
531.86	60.323
532.20	59.778
532.54	59.641
532.88	59.820
533.22	57.464
533.57	58.642
533.91	58.579
534.25	58.445
534.59	59.060
534.93	58.180
535.27	59.083
535.62	59.280
535.96	59.887
536.30	57.915
536.64	59.498
536.98	59.390
537.32	58.460
537.66	61.133
538.01	59.974
538.35	59.858
538.69	59.349
539.03	58.545
539.37	58.594
539.71	58.782
540.05	60.327
540.39	60.066
540.73	58.344
541.07	59.961
541.42	60.600
541.76	60.516
542.10	60.285
542.44	60.993
542.78	61.462
543.12	59.373
543.46	60.852
543.80	60.052
544.14	59.371
544.48	60.317
544.82	60.680
545.16	60.117
545.50	59.447
545.84	59.812
546.18	60.808
546.52	62.010
546.86	61.512
547.20	60.620
547.54	60.588
547.88	60.651
548.22	59.651
548.56	60.000
548.90	59.411
549.24	59.327
549.58	60.641
549.92	60.714
550.26	62.216
550.60	60.858
550.94	59.930
551.28	60.644
551.62	61.538
551.96	60.491
552.30	61.433
552.64	60.852
552.98	60.610
553.32	60.688
553.66	61.213
554.00	60.947
554.34	61.146
554.68	62.732
555.02	62.623
555.36	60.682
555.69	59.134
556.03	60.431
556.37	61.801
556.71	60.164
557.05	61.204
557.39	60.952
557.73	61.538
558.07	62.654
558.41	61.795
558.75	63.262
559.08	64.131
559.42	63.265
559.76	61.250
560.10	60.671
560.44	60.657
560.78	61.610
561.12	61.148
561.45	61.082
561.79	61.503
562.13	61.704
562.47	62.910
562.81	62.413
563.15	61.672
563.48	62.533
563.82	60.861
564.16	60.628
564.50	61.589
564.84	61.757
565.17	62.098
565.51	61.981
565.85	61.231
566.19	61.553
566.52	62.635
566.86	60.518
567.20	61.262
567.54	62.329
567.88	61.325
568.21	60.741
568.55	59.808
568.89	59.874
569.23	59.225
569.56	57.490
569.90	59.057
570.24	58.306
570.57	58.041
570.91	56.852
571.25	56.763
571.59	56.878
571.92	56.999
572.26	57.712
572.60	57.688
572.93	57.091
573.27	56.818
573.61	57.286
573.95	56.925
574.28	57.035
574.62	57.167
574.96	55.818
575.29	56.741
575.63	56.529
575.97	56.678
576.30	57.515
576.64	56.634
576.98	57.146
577.31	56.331
577.65	56.678
577.98	56.614
578.32	55.620
578.66	56.918
578.99	56.585
579.33	57.008
579.67	56.045
580.00	56.557
580.34	56.763
580.67	57.315
581.01	56.982
581.35	56.862
581.68	56.537
582.02	55.903
582.35	56.781
582.69	57.305
583.02	56.937
583.36	57.321
583.70	58.516
584.03	58.020
584.37	58.155
584.70	58.595
585.04	56.972
585.37	58.201
585.71	57.965
586.04	57.405
586.38	58.725
586.72	58.879
587.05	57.430
587.39	58.074
587.72	58.464
588.06	59.072
588.39	58.272
588.73	58.492
589.06	58.803
589.40	59.630
589.73	60.049
590.07	59.431
590.40	58.750
590.73	61.319
591.07	62.352
591.40	60.354
591.74	61.861
592.07	60.166
592.41	60.810
592.74	59.738
593.08	59.527
593.41	59.981
593.75	58.526
594.08	58.867
594.41	60.092
594.75	61.035
595.08	60.379
595.42	60.070
595.75	60.292
596.09	61.810
596.42	60.943
596.75	61.207
597.09	61.472
597.42	58.938
597.75	62.225
598.09	60.826
598.42	61.125
598.76	60.519
599.09	60.053
599.42	60.007
599.76	61.274
600.09	60.692
600.42	61.249
600.76	60.250
601.09	60.401
601.42	60.731
601.76	61.252
602.09	61.660
602.42	61.465
602.76	61.951
603.09	60.818
603.42	62.515
603.76	60.366
604.09	61.380
604.42	60.946
604.76	61.957
605.09	61.555
605.42	61.950
605.75	61.424
606.09	61.610
606.42	62.117
606.75	61.842
607.09	61.197
607.42	61.703
607.75	61.477
608.08	61.311
608.42	61.811
608.75	61.317
609.08	62.812
609.41	62.446
609.75	62.125
610.08	63.619
610.41	62.989
610.74	63.150
611.07	63.488
611.41	62.856
611.74	63.801
612.07	63.302
612.40	64.271
612.73	63.737
613.07	65.302
613.40	63.823
613.73	63.660
614.06	65.376
614.39	63.450
614.72	63.684
615.06	63.866
615.39	64.066
615.72	62.168
616.05	63.583
616.38	64.036
616.71	65.736
617.05	65.901
617.38	64.642
617.71	65.526
618.04	66.046
618.37	64.518
618.70	65.588
619.03	67.763
619.36	67.481
619.69	66.338
620.03	67.582
620.36	66.778
620.69	67.397
621.02	67.404
621.35	67.659
621.68	67.523
622.01	67.802
622.34	67.776
622.67	69.734
623.00	67.572
623.33	66.905
623.66	68.120
623.99	69.367
624.32	66.619
624.65	67.161
624.99	65.652
625.32	68.067
625.65	68.445
625.98	70.792
626.31	68.740
626.64	68.898
626.97	70.740
627.30	69.909
627.63	69.729
627.96	70.816
628.29	69.729
628.62	68.527
628.95	71.604
629.28	69.617
629.61	69.753
629.94	71.905
630.26	72.259
630.59	70.829
630.92	69.636
631.25	72.063
631.58	70.871
631.91	71.095
632.24	72.046
632.57	73.347
632.90	72.807
633.23	73.602
633.56	74.463
633.89	73.160
634.22	74.007
634.55	77.988
634.88	72.814
635.20	76.464
635.53	73.855
635.86	75.743
636.19	73.529
636.52	74.856
636.85	72.394
637.18	74.194
637.51	74.232
637.83	72.133
638.16	74.680
638.49	73.426
638.82	74.716
639.15	77.000
639.48	73.691
639.81	78.016
640.13	76.693
640.46	75.168
640.79	75.561
641.12	72.627
641.45	77.793
641.77	79.529
642.10	78.363
642.43	75.826
642.76	78.019
643.09	78.374
643.41	75.873
643.74	79.938
644.07	75.915
644.40	77.301
644.73	78.740
645.05	79.081
645.38	77.725
645.71	77.295
646.04	81.728
646.36	82.304
646.69	79.431
647.02	80.102
647.35	79.553
647.67	82.832
648.00	78.211
648.33	81.188
648.66	76.212
648.98	77.061
649.31	77.130
649.64	77.728
649.96	73.770
650.29	77.725
650.62	78.317
650.94	76.985
651.27	79.899
651.60	77.704
651.92	77.636
652.25	75.570
652.58	78.193
652.90	79.463
653.23	75.039
653.56	76.535
653.88	74.960
654.21	77.409
654.54	79.373
654.86	76.636
655.19	73.784
655.52	58.936
655.84	56.028
656.17	69.789
656.49	92.838
656.82	92.989
657.15	70.785
657.47	53.047
657.80	40.478
658.13	42.046
658.45	61.968
658.78	62.069
659.10	63.478
659.43	64.534
659.75	65.163
660.08	69.177
660.41	70.764
660.73	76.366
661.06	78.025
661.38	80.545
661.71	81.731
662.03	81.262
662.36	75.348
662.68	79.317
663.01	80.606
663.33	83.227
663.66	77.731
663.98	83.153
664.31	81.933
664.63	77.126
664.96	77.264
665.28	82.787
665.61	79.532
665.93	83.099
666.26	80.527
666.58	83.473
666.91	83.932
667.23	85.393
667.56	78.402
667.88	83.974
668.21	81.663
668.53	81.128
668.86	79.437
669.18	82.516
669.50	80.652
669.83	82.353
670.15	82.667
670.48	80.610
670.80	81.466
671.13	79.830
671.45	79.149
671.77	81.670
672.10	76.710
672.42	78.092
672.75	76.617
673.07	76.761
673.39	76.492
673.72	84.375
674.04	80.196
674.37	80.194
674.69	78.732
675.01	79.707
675.34	82.341
675.66	83.579
675.98	78.819
676.31	80.252
676.63	82.378
676.95	79.245
677.28	84.813
677.60	81.319
677.92	84.599
678.25	78.850
678.57	81.474
678.89	80.962
679.22	78.978
679.54	77.099
679.86	78.532
680.18	76.208
680.51	75.887
680.83	73.665
681.15	81.509
681.48	77.316
681.80	78.723
682.12	76.820
682.44	74.855
682.77	79.430
683.09	81.330
683.41	81.818
683.73	84.327
684.06	81.198
684.38	76.125
684.70	80.233
685.02	77.486
685.34	76.374
685.67	72.552
685.99	72.509
686.31	76.792
686.63	74.912
686.96	75.536
687.28	76.534
687.60	73.732
687.92	76.965
688.24	75.665
688.56	76.506
688.89	79.668
689.21	82.969
689.53	79.123
689.85	81.375
690.17	76.398
690.49	78.769
690.82	81.308
691.14	81.027
691.46	76.793
691.78	77.108
692.10	78.926
692.42	76.447
692.74	79.253
693.06	77.234
693.39	80.082
693.71	78.384
694.03	78.316
694.35	78.355
694.67	78.947
694.99	80.732
695.31	82.598
695.63	82.057
695.95	83.863
696.27	81.218
696.59	83.161
696.91	81.606
697.23	76.291
697.56	76.759
697.88	73.824
698.20	75.000
698.52	77.634
698.84	77.728
699.16	78.341
699.48	80.285
699.80	79.710
700.12	84.156
700.44	86.737
700.76	82.044
701.08	84.770
701.40	83.240
701.72	83.382
702.04	86.932
702.36	81.586
702.68	82.436
703.00	84.211
703.32	78.723
703.64	77.748
703.96	80.501
704.28	85.465
704.60	80.645
704.91	84.570
705.23	84.457
705.55	90.033
705.87	91.362
706.19	86.572
706.51	82.243
706.83	81.212
707.15	83.754
707.47	77.525
707.79	80.590
708.11	73.973
708.43	78.571
708.74	79.847
709.06	78.961
709.38	80.052
709.70	85.756
710.02	82.789
710.34	82.424
710.66	80.299
710.98	82.386
711.29	82.558
711.61	82.006
711.93	80.128
712.25	83.923
712.57	90.441
712.89	88.235
713.20	79.635
713.52	83.224
713.84	78.165
714.16	82.012
714.48	81.034
714.80	92.401
715.11	79.539
715.43	77.745
715.75	80.000
716.07	81.150
716.39	81.818
716.70	80.066
717.02	85.252
717.34	81.625
717.66	88.433
717.97	89.641
718.29	85.556
718.61	85.766
718.93	87.868
719.24	81.315
719.56	79.322
719.88	80.000
720.20	83.446
720.51	84.669
720.83	88.848
721.15	81.716
721.46	82.270
721.78	82.796
722.10	85.283
722.42	84.962
722.73	79.775
723.05	95.082
723.37	83.401
723.68	83.398
724.00	86.179
724.32	85.081
724.63	87.805
724.95	88.703
725.27	88.664
725.58	89.844
725.90	86.131
726.22	83.396
726.53	77.431
726.85	81.570
727.16	80.783
727.48	78.723
727.80	84.091
728.11	78.623
728.43	84.231
728.74	78.136
729.06	81.022
729.38	87.868
729.69	82.918
730.01	80.205
730.32	82.292
730.64	83.946
730.96	77.228
731.27	83.444
731.59	83.792
731.90	78.426
732.22	75.776
732.53	77.090
732.85	83.013
733.16	73.312
733.48	81.063
733.80	77.922
734.11	78.662
734.43	78.402
734.74	75.429
735.06	79.656
735.37	76.879
735.69	79.299
736.00	81.699
736.32	75.389
736.63	82.109
736.95	78.914
737.26	74.150
737.58	77.742
737.89	83.278
738.21	79.522
738.52	80.000
738.83	78.491
739.15	78.462
739.46	79.927
739.78	78.472
740.09	74.769
740.41	81.613
740.72	78.746
741.04	87.037
741.35	82.500
741.66	92.000
741.98	89.623
742.29	93.780
742.61	82.328
742.92	87.330
743.23	86.325
743.55	81.200
743.86	80.263
744.18	88.938
744.49	90.431
744.80	89.671
745.12	87.727
745.43	80.176
745.74	86.937
746.06	88.991
746.37	82.960
746.68	82.353
747.00	88.889
747.31	90.476
747.62	88.053
747.94	83.260
748.25	78.723
748.56	88.106
748.88	86.634
749.19	100.000
749.50	87.442
749.82	82.520
750.13	82.857
750.44	77.737
750.75	78.246
751.07	77.814
751.38	81.533
751.69	85.199
752.01	80.075
752.32	77.617
752.63	78.014
752.94	85.246
753.26	86.000
753.57	75.203
753.88	83.984
754.19	78.929
754.51	78.472
754.82	76.173
755.13	78.868
755.44	77.444
755.75	75.912
756.07	75.887
756.38	77.372
756.69	73.826
757.00	74.551
757.31	72.107
757.63	74.854
757.94	69.169
758.25	64.706
758.56	68.642
758.87	69.892
759.18	76.970
759.50	75.235
759.81	76.947
760.12	70.937
760.43	73.639
760.74	73.913
761.05	74.294
761.36	69.786
761.67	74.148
761.99	73.292
762.30	76.042
762.61	77.099
762.92	77.734
763.23	79.832
763.54	78.000
763.85	76.953
764.16	85.000
764.47	80.608
764.78	74.205
765.10	71.519
765.41	74.041
765.72	72.754
766.03	74.608
766.34	67.000
766.65	80.851
766.96	80.342
767.27	88.832
767.58	89.583
767.89	89.474
768.20	87.356
768.51	88.325
768.82	84.404
769.13	82.114
769.44	75.304
769.75	82.403
770.06	76.147
770.37	81.448
770.68	79.630
770.99	79.556
771.30	72.951
771.61	83.408
771.92	79.918
772.23	78.571
772.54	86.154
772.85	88.482
773.16	85.106
773.47	90.761
773.78	82.741
774.09	90.476
774.39	93.567
774.70	92.593
775.01	98.551
775.32	94.771
775.63	92.105
775.94	100.000
776.25	100.000
776.56	100.746
776.87	90.984
777.18	100.781
777.48	101.527
777.79	87.879
778.10	100.000
778.41	105.357
778.72	83.212
779.03	85.906
779.34	97.987
779.65	85.811
779.95	90.798
780.26	89.542
780.57	97.931
780.88	107.031
781.19	99.248
781.50	95.270
781.80	88.050
782.11	81.356
782.42	85.443
782.73	83.436
783.04	89.189
783.34	93.662
783.65	93.836
783.96	97.761
784.27	81.119
784.57	85.612
784.88	99.074
785.19	92.063
785.50	102.830
785.81	91.045
786.11	102.459
786.42	101.550
786.73	94.690
787.04	101.887
787.34	104.464
787.65	105.000
787.96	99.099
788.26	93.388
788.57	104.237
788.88	111.570
789.19	84.722
789.49	90.152
789.80	95.420
790.11	98.095
790.41	109.901
790.72	126.506
791.03	120.652
791.33	125.581
791.64	107.216
791.95	100.990
792.25	113.333
792.56	137.662
792.87	119.231
793.17	156.962
793.48	111.494
793.79	103.448
794.09	121.591
794.40	88.235
794.70	92.647
795.01	87.407
795.32	84.892
795.62	90.551
795.93	101.724
796.23	91.150
796.54	110.588
796.85	118.919
797.15	115.493
797.46	131.818
797.76	108.434
798.07	122.785
798.37	133.846
798.68	127.273
798.99	107.042
799.29	112.987
799.60	104.545
799.90	127.397
800.21	143.284
800.51	141.379
800.82	140.351
801.12	142.623
801.43	119.697
801.73	118.919
802.04	146.032
802.34	108.642
802.65	129.688
802.95	140.678
803.26	123.438
803.56	107.143
803.87	132.308
804.17	117.647
804.48	170.370
804.78	122.414
805.09	120.588
805.39	128.846
805.70	128.571
806.00	131.148
806.30	110.606
806.61	101.220
806.91	106.329
807.22	111.842
807.52	120.896
807.83	115.493
808.13	139.063
808.43	126.667
808.74	94.737
809.04	137.681
809.35	132.836
809.65	102.632
809.95	133.871
810.26	120.339
810.56	128.571
810.86	147.727
811.17	180.952
811.47	138.333
811.77	144.444
812.08	145.455
812.38	144.000
812.69	227.778
812.99	161.364
813.29	161.224
813.59	147.619
813.90	146.939
814.20	116.364
814.50	100.000
814.81	111.765
815.11	128.571
815.41	132.787
815.72	178.571
816.02	149.091
816.32	152.381
816.62	172.500
816.93	175.610
817.23	159.524
817.53	138.636
817.84	196.970
818.14	165.217
818.44	133.333
818.74	176.471
819.04	167.500
819.35	182.857
819.65	197.059
819.95	225.000
820.25	230.000
820.56	143.590
820.86	156.818
821.16	190.698
821.46	187.179
821.76	142.000
822.07	191.429
822.37	177.500
822.67	181.818
822.97	139.216
823.27	210.714
823.57	189.189
823.88	160.000
824.18	173.333
824.48	188.095
824.78	204.000
825.08	229.167
825.38	162.162
825.69	170.732
825.99	250.000
826.29	203.448
826.59	181.579
826.89	197.368
827.19	179.412
827.49	225.806
827.79	161.364
828.09	136.364
828.39	131.915
828.70	138.776
829.00	200.000
829.30	170.968
829.60	147.500
829.90	373.333
830.20	196.429
830.50	213.043
830.80	230.435
831.10	246.667
831.40	216.667
831.70	156.522
832.00	273.077
832.30	177.778
832.60	281.250
832.90	226.667
833.20	392.857
833.50	212.903
833.80	182.759
834.10	190.625
834.40	200.000
834.70	377.778
835.00	323.810
835.30	165.714
835.60	338.462
835.90	220.690
836.20	342.857
836.50	210.345
836.80	224.000
837.10	197.222
837.40	233.333
837.70	300.000
838.00	225.926
838.30	257.143
838.60	285.714
838.90	226.923
839.19	250.000
839.49	450.000
839.79	280.000
840.09	300.000
840.39	280.952
840.69	234.783
840.99	244.444
841.29	400.000
841.59	375.000
841.88	356.250
842.18	165.517
842.48	266.667
842.78	173.333
843.08	278.261
843.38	171.875
843.68	750.000
843.97	200.000
844.27	179.310
844.57	276.190
844.87	337.500
845.17	203.704
845.47	1533.333
845.76	522.222
846.06	305.882
846.36	537.500
846.66	392.857
846.96	368.750
847.25	445.455
847.55	445.455
847.85	234.783
848.15	450.000
848.44	357.143
848.74	255.556
849.04	323.529
849.34	470.000
849.63	236.842
849.93	400.000
850.23	1000.000
850.53	357.143
850.82	2200.000
851.12	-4300.000
851.42	4500.000
851.71	230.000
852.01	-1233.333
852.31	212.500
852.61	1533.333
852.90	242.857
853.20	232.000
853.50	335.294
853.79	257.143
854.09	191.667
854.39	287.500
854.68	178.378
854.98	177.419
855.28	180.000
855.57	189.655
855.87	218.519
856.17	263.158
856.46	206.667
856.76	294.118
857.05	196.552
857.35	208.333
857.65	380.000
857.94	200.000
858.24	238.462
858.53	290.000
858.83	254.545
859.13	333.333
859.42	0.000
859.72	533.333
860.01	390.909
860.31	218.182
860.60	194.737
860.90	226.087
861.20	533.333
861.49	491.667
861.79	-3300.000
862.08	537.500
862.38	276.190
862.67	361.538
862.97	335.294
863.26	477.778
863.56	288.889
863.85	416.667
864.15	575.000
864.44	360.000
864.74	800.000
865.03	537.500
865.33	315.789
865.62	327.273
865.92	338.462
866.21	291.667
866.51	0.000
866.80	409.091
867.10	820.000
867.39	453.846
867.69	409.091
867.98	273.684
868.27	436.364
868.57	289.474
868.86	-4400.000
869.16	293.750
869.45	2250.000
869.75	-3500.000
870.04	325.000
870.33	585.714
870.63	850.000
870.92	2450.000
871.22	628.571
871.51	317.647
871.80	185.714
872.10	300.000
>>>>>End Processed Spectral Data<<<<<
