SpectraSuite Data File
++++++++++++++++++++++++++++++++++++
Date: Wed May 13 20:28:59 PDT 2015
User: schluterlab
Dark Spectrum Present: Yes
Reference Spectrum Present: Yes
Number of Sampled Component Spectra: 1
Spectrometers: USB2E3373
Integration Time (usec): 3000 (USB2E3373)
Spectra Averaged: 3 (USB2E3373)
Boxcar Smoothing: 0 (USB2E3373)
Correct for Electrical Dark: No (USB2E3373)
Strobe/Lamp Enabled: No (USB2E3373)
Correct for Detector Non-linearity: No (USB2E3373)
Correct for Stray Light: No (USB2E3373)
Number of Pixels in Processed Spectrum: 2048
>>>>>Begin Processed Spectral Data<<<<<
178.53	0.000
178.91	-1075.000
179.29	-1025.000
179.67	-227.778
180.04	-1250.000
180.42	1800.000
180.80	880.000
181.18	-950.000
181.56	500.000
181.94	0.000
182.31	-471.429
182.69	1333.333
183.07	-387.500
183.45	-488.889
183.83	500.000
184.20	-240.000
184.58	1600.000
184.96	4100.000
185.34	-560.000
185.72	-450.000
186.09	-2600.000
186.47	2100.000
186.85	1950.000
187.23	3600.000
187.61	-1500.000
187.98	1150.000
188.36	454.545
188.74	445.455
189.12	-700.000
189.49	430.000
189.87	-4300.000
190.25	-1050.000
190.63	371.429
191.00	330.769
191.38	850.000
191.76	-1100.000
192.14	925.000
192.51	575.000
192.89	750.000
193.27	575.000
193.65	-1075.000
194.02	430.000
194.40	820.000
194.78	420.000
195.15	425.000
195.53	560.000
195.91	-1750.000
196.29	275.000
196.66	331.579
197.04	-360.000
197.42	0.000
197.79	520.000
198.17	-5300.000
198.55	614.286
198.92	537.500
199.30	820.000
199.68	0.000
200.05	294.444
200.43	585.714
200.81	3700.000
201.18	1866.667
201.56	-1500.000
201.94	333.333
202.31	466.667
202.69	325.000
203.07	460.000
203.44	0.000
203.82	1050.000
204.19	628.571
204.57	371.429
204.95	512.500
205.32	1166.667
205.70	463.636
206.08	407.143
206.45	2400.000
206.83	281.250
207.20	683.333
207.58	460.000
207.96	316.667
208.33	500.000
208.71	-733.333
209.08	728.571
209.46	477.778
209.84	345.455
210.21	-1033.333
210.59	1125.000
210.96	-387.500
211.34	2150.000
211.71	550.000
212.09	700.000
212.46	0.000
212.84	1666.667
213.22	1250.000
213.59	-3400.000
213.97	633.333
214.34	714.286
214.72	536.364
215.09	800.000
215.47	-1650.000
215.84	-2050.000
216.22	1433.333
216.59	314.286
216.97	1050.000
217.34	390.909
217.72	-600.000
218.09	0.000
218.47	-4000.000
218.84	600.000
219.22	557.143
219.59	1166.667
219.97	-557.143
220.34	760.000
220.72	-1433.333
221.09	321.429
221.47	1175.000
221.84	-950.000
222.22	0.000
222.59	1200.000
222.97	-1750.000
223.34	900.000
223.72	346.154
224.09	700.000
224.46	1550.000
224.84	-4100.000
225.21	-840.000
225.59	-3300.000
225.96	550.000
226.34	300.000
226.71	2200.000
227.08	662.500
227.46	510.000
227.83	-800.000
228.21	-2400.000
228.58	600.000
228.95	-1900.000
229.33	-1900.000
229.70	1566.667
230.08	628.571
230.45	-680.000
230.82	358.333
231.20	633.333
231.57	642.857
231.95	333.333
232.32	209.091
232.69	390.909
233.07	571.429
233.44	269.231
233.81	-1366.667
234.19	278.947
234.56	333.333
234.93	283.333
235.31	400.000
235.68	346.154
236.05	257.143
236.43	148.485
236.80	300.000
237.17	4700.000
237.55	219.048
237.92	203.571
238.29	257.143
238.67	132.258
239.04	189.655
239.41	136.111
239.79	113.043
240.16	145.238
240.53	152.273
240.91	105.882
241.28	116.000
241.65	102.000
242.02	101.449
242.40	93.548
242.77	93.333
243.14	95.699
243.51	89.888
243.89	84.706
244.26	65.556
244.63	74.194
245.00	76.596
245.38	77.228
245.75	68.224
246.12	77.982
246.49	63.504
246.87	78.400
247.24	70.000
247.61	60.714
247.98	56.863
248.36	54.730
248.73	56.051
249.10	64.331
249.47	49.718
249.84	56.150
250.22	49.733
250.59	58.580
250.96	52.525
251.33	52.607
251.70	52.475
252.08	56.190
252.45	51.570
252.82	47.391
253.19	51.489
253.56	49.020
253.94	51.452
254.31	48.828
254.68	50.000
255.05	50.185
255.42	52.846
255.79	48.897
256.16	48.736
256.54	44.523
256.91	47.331
257.28	46.043
257.65	44.224
258.02	45.031
258.39	45.741
258.76	49.498
259.14	44.345
259.51	44.985
259.88	43.478
260.25	47.734
260.62	42.486
260.99	41.925
261.36	44.745
261.73	43.266
262.10	40.698
262.47	48.169
262.85	44.568
263.22	38.746
263.59	44.729
263.96	42.308
264.33	44.909
264.70	43.947
265.07	42.711
265.44	40.909
265.81	40.146
266.18	44.221
266.55	42.195
266.92	44.963
267.29	42.361
267.66	41.284
268.03	42.273
268.40	40.654
268.77	37.709
269.14	39.189
269.51	39.052
269.88	44.289
270.25	38.826
270.62	43.596
270.99	40.645
271.36	38.627
271.73	40.888
272.10	44.130
272.47	40.860
272.84	40.476
273.21	43.606
273.58	39.301
273.95	37.736
274.32	38.636
274.69	42.184
275.06	37.008
275.43	41.489
275.80	39.078
276.17	39.715
276.54	39.501
276.91	40.119
277.28	38.477
277.65	38.685
278.02	40.166
278.39	40.625
278.76	37.455
279.13	40.755
279.50	37.803
279.87	37.450
280.23	37.126
280.60	37.524
280.97	38.632
281.34	36.814
281.71	38.000
282.08	40.691
282.45	38.364
282.82	37.123
283.19	37.433
283.56	34.912
283.92	39.594
284.29	37.390
284.66	36.661
285.03	37.251
285.40	35.739
285.77	35.522
286.14	34.370
286.51	36.333
286.87	36.410
287.24	36.319
287.61	34.350
287.98	35.390
288.35	35.182
288.72	35.047
289.08	34.585
289.45	33.773
289.82	32.195
290.19	32.182
290.56	33.997
290.93	30.816
291.29	33.282
291.66	31.858
292.03	33.576
292.40	34.802
292.77	32.840
293.13	32.836
293.50	31.633
293.87	32.148
294.24	32.593
294.60	30.422
294.97	31.105
295.34	30.889
295.71	30.114
296.08	29.772
296.44	30.124
296.81	29.458
297.18	29.404
297.55	29.024
297.91	29.683
298.28	29.719
298.65	27.546
299.02	28.854
299.38	29.216
299.75	26.819
300.12	28.480
300.48	26.125
300.85	26.880
301.22	26.497
301.59	27.399
301.95	27.204
302.32	27.343
302.69	27.240
303.05	27.758
303.42	26.790
303.79	27.860
304.15	26.457
304.52	26.072
304.89	26.597
305.25	26.798
305.62	26.161
305.99	27.037
306.35	27.181
306.72	26.457
307.09	28.413
307.45	27.928
307.82	24.107
308.19	25.828
308.55	27.077
308.92	26.853
309.29	24.287
309.65	25.875
310.02	25.370
310.38	25.806
310.75	25.132
311.12	25.179
311.48	25.810
311.85	26.415
312.22	24.037
312.58	25.468
312.95	26.399
313.31	24.854
313.68	25.260
314.05	27.515
314.41	26.533
314.78	25.076
315.14	26.713
315.51	26.468
315.87	26.040
316.24	25.521
316.61	26.803
316.97	25.245
317.34	25.245
317.70	26.099
318.07	26.275
318.43	26.223
318.80	26.992
319.16	26.742
319.53	27.205
319.89	27.333
320.26	28.100
320.62	26.091
320.99	27.273
321.35	27.677
321.72	27.310
322.08	29.418
322.45	30.547
322.81	29.070
323.18	29.672
323.54	29.406
323.91	29.340
324.27	29.828
324.64	28.798
325.00	27.502
325.37	29.663
325.73	29.892
326.10	28.332
326.46	28.584
326.83	30.716
327.19	29.889
327.56	29.791
327.92	30.884
328.29	31.145
328.65	31.860
329.01	32.130
329.38	31.545
329.74	31.579
330.11	32.422
330.47	32.140
330.84	32.996
331.20	31.603
331.56	32.477
331.93	32.593
332.29	32.298
332.66	32.743
333.02	32.815
333.38	33.966
333.75	33.244
334.11	33.452
334.48	32.831
334.84	32.169
335.20	33.818
335.57	33.001
335.93	32.411
336.29	32.784
336.66	32.462
337.02	31.765
337.38	34.167
337.75	32.264
338.11	32.408
338.47	33.794
338.84	34.280
339.20	32.110
339.56	34.580
339.93	33.455
340.29	31.069
340.65	32.799
341.02	32.984
341.38	33.363
341.74	32.281
342.11	32.140
342.47	33.128
342.83	32.877
343.20	33.853
343.56	32.603
343.92	33.158
344.28	32.908
344.65	33.878
345.01	32.744
345.37	31.818
345.73	33.164
346.10	31.202
346.46	33.305
346.82	33.443
347.19	32.247
347.55	31.281
347.91	32.767
348.27	33.854
348.63	33.445
349.00	31.796
349.36	33.744
349.72	31.596
350.08	32.010
350.45	33.523
350.81	32.250
351.17	31.361
351.53	32.023
351.89	32.013
352.26	33.149
352.62	32.398
352.98	32.658
353.34	32.539
353.70	31.506
354.07	33.871
354.43	30.714
354.79	32.261
355.15	31.365
355.51	32.774
355.87	32.816
356.24	32.085
356.60	31.355
356.96	32.904
357.32	32.543
357.68	32.441
358.04	31.829
358.40	31.512
358.77	32.786
359.13	31.097
359.49	31.843
359.85	30.873
360.21	32.376
360.57	32.296
360.93	32.846
361.29	31.444
361.66	30.882
362.02	32.537
362.38	32.852
362.74	31.473
363.10	31.458
363.46	30.448
363.82	31.444
364.18	31.571
364.54	32.689
364.90	32.224
365.26	33.162
365.62	31.337
365.98	32.140
366.35	31.017
366.71	31.598
367.07	32.702
367.43	31.930
367.79	32.120
368.15	33.836
368.51	31.904
368.87	32.548
369.23	31.675
369.59	33.020
369.95	31.618
370.31	32.051
370.67	32.464
371.03	32.659
371.39	32.507
371.75	32.647
372.11	31.935
372.47	33.211
372.83	33.573
373.19	32.514
373.55	33.777
373.91	33.211
374.27	31.065
374.63	32.436
374.99	32.345
375.35	31.682
375.71	32.488
376.07	32.922
376.42	33.494
376.78	32.671
377.14	32.429
377.50	32.781
377.86	31.516
378.22	32.680
378.58	31.015
378.94	32.244
379.30	31.997
379.66	32.805
380.02	32.371
380.38	31.633
380.74	32.413
381.09	32.824
381.45	33.313
381.81	32.924
382.17	32.994
382.53	31.950
382.89	32.654
383.25	33.458
383.61	33.333
383.97	33.083
384.32	32.065
384.68	32.094
385.04	32.637
385.40	31.889
385.76	32.494
386.12	33.031
386.48	32.851
386.83	33.483
387.19	34.447
387.55	32.900
387.91	33.495
388.27	33.231
388.62	33.313
388.98	33.108
389.34	33.855
389.70	33.170
390.06	33.460
390.42	32.555
390.77	34.033
391.13	34.525
391.49	33.249
391.85	33.609
392.20	32.555
392.56	33.270
392.92	32.843
393.28	32.367
393.64	32.974
393.99	33.903
394.35	33.871
394.71	33.312
395.07	32.710
395.42	33.684
395.78	34.160
396.14	34.016
396.50	33.459
396.85	34.584
397.21	33.662
397.57	33.540
397.92	34.014
398.28	32.623
398.64	33.513
399.00	33.744
399.35	33.333
399.71	33.391
400.07	33.826
400.42	34.356
400.78	33.112
401.14	34.329
401.49	34.269
401.85	33.031
402.21	32.994
402.57	33.374
402.92	34.931
403.28	33.666
403.63	33.292
403.99	33.631
404.35	34.000
404.70	34.173
405.06	34.071
405.42	34.373
405.77	34.000
406.13	32.957
406.49	34.181
406.84	34.318
407.20	34.338
407.55	32.610
407.91	34.200
408.27	33.823
408.62	33.353
408.98	33.578
409.34	33.764
409.69	35.161
410.05	33.333
410.40	33.578
410.76	33.871
411.11	34.138
411.47	33.546
411.83	34.087
412.18	33.148
412.54	34.184
412.89	34.096
413.25	33.766
413.60	33.601
413.96	33.151
414.31	32.989
414.67	33.777
415.03	34.172
415.38	34.407
415.74	34.405
416.09	35.075
416.45	34.739
416.80	33.245
417.16	34.584
417.51	35.036
417.87	33.911
418.22	34.826
418.58	33.376
418.93	34.521
419.29	34.373
419.64	35.139
420.00	34.878
420.35	35.362
420.71	34.848
421.06	33.831
421.42	34.094
421.77	34.529
422.12	34.363
422.48	33.891
422.83	34.595
423.19	34.862
423.54	35.055
423.90	34.667
424.25	35.734
424.61	34.583
424.96	34.227
425.31	35.050
425.67	34.157
426.02	33.486
426.38	36.264
426.73	34.640
427.09	35.319
427.44	34.043
427.79	34.963
428.15	35.000
428.50	36.044
428.85	35.638
429.21	34.567
429.56	33.904
429.92	34.826
430.27	34.806
430.62	34.511
430.98	35.236
431.33	34.536
431.68	36.178
432.04	35.197
432.39	35.123
432.74	35.966
433.10	35.427
433.45	36.093
433.80	35.809
434.16	34.936
434.51	35.211
434.86	36.089
435.22	36.242
435.57	35.988
435.92	35.108
436.28	36.477
436.63	36.148
436.98	35.890
437.34	36.434
437.69	36.639
438.04	36.594
438.39	38.448
438.75	37.420
439.10	36.760
439.45	37.485
439.81	36.435
440.16	37.211
440.51	37.551
440.86	37.290
441.22	36.541
441.57	37.739
441.92	37.973
442.27	37.998
442.63	37.809
442.98	38.761
443.33	37.663
443.68	37.377
444.03	37.677
444.39	37.780
444.74	37.554
445.09	38.113
445.44	38.819
445.79	37.853
446.15	38.010
446.50	38.288
446.85	37.667
447.20	38.909
447.55	38.582
447.91	38.831
448.26	38.509
448.61	38.892
448.96	38.649
449.31	38.470
449.66	38.604
450.02	39.109
450.37	39.116
450.72	39.594
451.07	39.062
451.42	38.906
451.77	38.990
452.12	38.799
452.47	39.117
452.83	40.501
453.18	39.120
453.53	39.208
453.88	38.689
454.23	39.510
454.58	40.339
454.93	39.797
455.28	37.968
455.63	39.806
455.98	40.119
456.34	40.452
456.69	41.077
457.04	40.000
457.39	41.029
457.74	39.466
458.09	39.045
458.44	40.080
458.79	39.425
459.14	39.955
459.49	40.280
459.84	39.889
460.19	39.717
460.54	39.005
460.89	40.592
461.24	40.923
461.59	40.383
461.94	39.951
462.29	41.128
462.64	40.523
462.99	40.013
463.34	39.933
463.69	40.838
464.04	41.217
464.39	40.058
464.74	38.740
465.09	38.842
465.44	38.338
465.79	39.262
466.14	39.792
466.49	39.210
466.84	40.689
467.19	39.409
467.54	40.062
467.89	40.336
468.24	39.558
468.59	40.415
468.94	39.951
469.29	40.553
469.64	40.495
469.99	41.475
470.34	40.951
470.68	41.523
471.03	40.204
471.38	41.348
471.73	40.640
472.08	40.987
472.43	40.264
472.78	40.421
473.13	40.693
473.48	41.011
473.83	40.854
474.17	39.950
474.52	41.315
474.87	41.681
475.22	40.104
475.57	40.247
475.92	39.883
476.27	39.741
476.61	40.706
476.96	39.637
477.31	40.502
477.66	39.497
478.01	39.467
478.36	39.714
478.70	39.356
479.05	39.776
479.40	40.328
479.75	41.179
480.10	40.507
480.45	39.362
480.79	38.605
481.14	40.020
481.49	39.867
481.84	39.415
482.19	40.391
482.53	39.450
482.88	39.228
483.23	40.374
483.58	39.354
483.92	41.050
484.27	38.867
484.62	38.922
484.97	39.101
485.31	38.390
485.66	35.964
486.01	35.169
486.36	35.305
486.70	36.731
487.05	37.325
487.40	38.151
487.75	38.171
488.09	39.308
488.44	39.993
488.79	40.542
489.13	40.145
489.48	39.519
489.83	39.361
490.17	39.719
490.52	39.283
490.87	38.987
491.22	39.927
491.56	38.679
491.91	40.112
492.26	39.458
492.60	39.585
492.95	39.242
493.30	39.626
493.64	40.224
493.99	39.694
494.34	39.685
494.68	40.522
495.03	40.367
495.37	39.926
495.72	39.815
496.07	39.675
496.41	38.230
496.76	38.478
497.11	39.352
497.45	40.708
497.80	39.683
498.14	39.952
498.49	40.098
498.84	39.885
499.18	40.286
499.53	39.934
499.87	38.537
500.22	39.802
500.56	41.068
500.91	39.760
501.26	39.877
501.60	41.101
501.95	40.055
502.29	40.675
502.64	40.317
502.98	38.943
503.33	39.717
503.67	40.278
504.02	39.616
504.36	40.431
504.71	40.547
505.06	39.663
505.40	39.815
505.75	39.151
506.09	40.428
506.44	40.701
506.78	40.526
507.13	41.191
507.47	41.061
507.82	41.185
508.16	40.679
508.51	41.299
508.85	40.417
509.19	41.837
509.54	40.510
509.88	40.392
510.23	41.131
510.57	41.950
510.92	40.186
511.26	40.031
511.61	40.975
511.95	40.188
512.30	40.827
512.64	40.677
512.98	41.426
513.33	40.953
513.67	40.768
514.02	41.937
514.36	42.108
514.70	42.003
515.05	42.276
515.39	41.391
515.74	40.597
516.08	42.873
516.42	41.565
516.77	42.085
517.11	41.010
517.46	42.043
517.80	42.102
518.14	40.880
518.49	42.590
518.83	42.159
519.17	43.072
519.52	41.313
519.86	41.472
520.20	41.965
520.55	42.729
520.89	42.762
521.23	43.185
521.58	42.857
521.92	42.498
522.26	41.794
522.61	42.305
522.95	40.945
523.29	41.570
523.64	42.622
523.98	42.083
524.32	41.978
524.66	42.153
525.01	42.708
525.35	42.069
525.69	41.441
526.04	43.364
526.38	41.489
526.72	42.454
527.06	42.812
527.41	41.151
527.75	43.280
528.09	43.610
528.43	42.575
528.78	42.409
529.12	40.667
529.46	42.070
529.80	42.327
530.15	42.866
530.49	41.538
530.83	43.354
531.17	43.016
531.51	43.709
531.86	42.839
532.20	42.308
532.54	41.704
532.88	42.555
533.22	41.099
533.57	42.346
533.91	41.240
534.25	41.677
534.59	42.221
534.93	40.393
535.27	41.098
535.62	40.537
535.96	41.933
536.30	41.767
536.64	43.207
536.98	41.938
537.32	42.660
537.66	42.333
538.01	42.725
538.35	41.694
538.69	43.523
539.03	41.391
539.37	41.406
539.71	42.126
540.05	42.549
540.39	42.126
540.73	41.268
541.07	43.738
541.42	42.661
541.76	41.806
542.10	41.397
542.44	42.384
542.78	42.951
543.12	40.499
543.46	41.049
543.80	40.729
544.14	41.078
544.48	41.524
544.82	40.411
545.16	41.379
545.50	41.003
545.84	41.062
546.18	41.953
546.52	41.982
546.86	41.856
547.20	41.942
547.54	41.617
547.88	41.390
548.22	40.473
548.56	40.943
548.90	41.613
549.24	41.279
549.58	42.428
549.92	41.827
550.26	42.756
550.60	42.531
550.94	42.394
551.28	41.770
551.62	42.703
551.96	40.351
552.30	42.457
552.64	41.717
552.98	41.220
553.32	40.998
553.66	41.377
554.00	41.386
554.34	41.684
554.68	42.632
555.02	41.114
555.36	41.475
555.69	40.528
556.03	40.579
556.37	41.269
556.71	40.655
557.05	40.826
557.39	41.498
557.73	40.438
558.07	42.132
558.41	41.317
558.75	41.881
559.08	40.268
559.42	42.706
559.76	41.324
560.10	41.113
560.44	39.832
560.78	40.120
561.12	39.908
561.45	40.482
561.79	40.277
562.13	40.040
562.47	41.120
562.81	41.423
563.15	39.666
563.48	40.650
563.82	40.117
564.16	39.568
564.50	39.779
564.84	39.633
565.17	40.090
565.51	41.150
565.85	39.086
566.19	39.324
566.52	39.645
566.86	39.180
567.20	39.623
567.54	39.783
567.88	37.968
568.21	38.836
568.55	38.675
568.89	38.521
569.23	36.943
569.56	36.640
569.90	36.528
570.24	36.132
570.57	36.042
570.91	34.195
571.25	35.022
571.59	34.875
571.92	34.591
572.26	35.355
572.60	35.586
572.93	35.292
573.27	34.990
573.61	35.511
573.95	35.116
574.28	34.724
574.62	34.232
574.96	34.050
575.29	34.360
575.63	34.527
575.97	34.470
576.30	34.148
576.64	34.091
576.98	34.443
577.31	34.450
577.65	33.485
577.98	33.554
578.32	33.102
578.66	34.109
578.99	33.919
579.33	34.398
579.67	33.836
580.00	34.284
580.34	34.433
580.67	33.893
581.01	34.270
581.35	33.402
581.68	33.048
582.02	33.164
582.35	33.689
582.69	33.599
583.02	34.066
583.36	34.540
583.70	34.840
584.03	35.293
584.37	35.231
584.70	34.718
585.04	33.953
585.37	33.877
585.71	34.046
586.04	33.849
586.38	34.979
586.72	34.521
587.05	34.203
587.39	33.694
587.72	34.089
588.06	34.658
588.39	34.376
588.73	34.556
589.06	35.276
589.40	35.522
589.73	35.551
590.07	35.480
590.40	35.404
590.73	36.378
591.07	36.956
591.40	36.440
591.74	36.277
592.07	36.169
592.41	35.138
592.74	35.019
593.08	33.744
593.41	34.356
593.75	33.385
594.08	34.395
594.41	35.914
594.75	35.231
595.08	35.075
595.42	35.517
595.75	35.506
596.09	36.538
596.42	36.464
596.75	35.965
597.09	36.364
597.42	34.654
597.75	35.921
598.09	36.087
598.42	35.223
598.76	35.184
599.09	34.930
599.42	34.207
599.76	34.151
600.09	33.661
600.42	34.222
600.76	33.821
601.09	34.718
601.42	34.361
601.76	34.801
602.09	35.099
602.42	35.470
602.76	35.631
603.09	34.186
603.42	34.908
603.76	34.756
604.09	34.083
604.42	34.774
604.76	36.145
605.09	35.736
605.42	34.587
605.75	34.727
606.09	34.933
606.42	34.123
606.75	34.550
607.09	34.952
607.42	34.403
607.75	34.304
608.08	34.477
608.42	35.276
608.75	34.941
609.08	34.736
609.41	34.460
609.75	34.826
610.08	35.580
610.41	34.544
610.74	34.957
611.07	35.573
611.41	36.310
611.74	36.099
612.07	37.008
612.40	36.411
612.73	36.263
613.07	35.614
613.40	36.704
613.73	35.291
614.06	36.022
614.39	35.711
614.72	34.842
615.06	35.609
615.39	35.244
615.72	34.560
616.05	35.673
616.38	36.076
616.71	36.520
617.05	36.219
617.38	36.320
617.71	36.156
618.04	35.697
618.37	36.132
618.70	36.279
619.03	37.434
619.36	36.999
619.69	37.746
620.03	37.157
620.36	36.430
620.69	37.808
621.02	37.832
621.35	37.510
621.68	37.305
622.01	37.848
622.34	37.141
622.67	38.175
623.00	37.271
623.33	35.954
623.66	37.169
623.99	37.776
624.32	36.305
624.65	36.229
624.99	36.544
625.32	37.075
625.65	37.415
625.98	37.279
626.31	38.180
626.64	38.449
626.97	38.404
627.30	37.656
627.63	38.474
627.96	38.856
628.29	39.545
628.62	38.426
628.95	38.585
629.28	37.774
629.61	39.047
629.94	39.810
630.26	38.894
630.59	38.418
630.92	38.889
631.25	37.808
631.58	39.540
631.91	38.540
632.24	39.135
632.57	39.140
632.90	40.241
633.23	41.723
633.56	41.017
633.89	39.977
634.22	40.182
634.55	42.485
634.88	40.240
635.20	40.741
635.53	40.241
635.86	40.470
636.19	39.882
636.52	39.100
636.85	39.404
637.18	39.631
637.51	40.307
637.83	41.184
638.16	42.583
638.49	42.695
638.82	42.604
639.15	42.125
639.48	42.020
639.81	42.627
640.13	40.885
640.46	40.000
640.79	41.876
641.12	38.790
641.45	40.223
641.77	44.183
642.10	43.421
642.43	40.841
642.76	43.808
643.09	42.331
643.41	41.578
643.74	45.833
644.07	41.311
644.40	42.331
644.73	42.362
645.05	44.057
645.38	41.706
645.71	43.478
646.04	43.189
646.36	47.245
646.69	41.304
647.02	43.027
647.35	42.784
647.67	44.602
648.00	42.764
648.33	41.089
648.66	38.788
648.98	42.129
649.31	40.508
649.64	41.106
649.96	40.686
650.29	41.390
650.62	44.337
650.94	42.139
651.27	44.595
651.60	43.095
651.92	42.812
652.25	39.577
652.58	39.875
652.90	43.760
653.23	39.291
653.56	41.260
653.88	42.314
654.21	42.812
654.54	43.069
654.86	39.875
655.19	39.189
655.52	27.077
655.84	24.191
656.17	31.103
656.49	41.943
656.82	44.042
657.15	34.676
657.47	26.256
657.80	20.477
658.13	21.244
658.45	32.523
658.78	33.363
659.10	34.963
659.43	36.045
659.75	36.132
660.08	38.228
660.41	41.155
660.73	42.948
661.06	42.357
661.38	44.182
661.71	44.231
662.03	46.746
662.36	44.135
662.68	42.972
663.01	42.424
663.33	45.011
663.66	44.538
663.98	45.140
664.31	42.647
664.63	43.320
664.96	41.650
665.28	43.238
665.61	41.326
665.93	40.040
666.26	45.436
666.58	45.607
666.91	46.934
667.23	47.191
667.56	41.685
667.88	42.521
668.21	44.989
668.53	43.601
668.86	43.506
669.18	42.644
669.50	44.565
669.83	45.752
670.15	43.778
670.48	45.969
670.80	45.259
671.13	42.463
671.45	40.851
671.77	44.807
672.10	43.623
672.42	39.223
672.75	38.972
673.07	41.021
673.39	40.687
673.72	42.383
674.04	43.137
674.37	42.524
674.69	42.127
675.01	42.259
675.34	43.943
675.66	44.632
675.98	41.752
676.31	44.538
676.63	42.463
676.95	41.300
677.28	40.187
677.60	45.934
677.92	46.414
678.25	43.532
678.57	44.622
678.89	41.483
679.22	40.864
679.54	38.931
679.86	40.367
680.18	39.177
680.51	39.894
680.83	40.214
681.15	42.642
681.48	42.344
681.80	39.845
682.12	40.805
682.44	39.265
682.77	43.788
683.09	45.708
683.41	45.455
683.73	40.618
684.06	41.942
684.38	39.139
684.70	42.248
685.02	41.088
685.34	39.560
685.67	38.287
685.99	39.347
686.31	39.420
686.63	38.163
686.96	36.429
687.28	40.253
687.60	39.493
687.92	39.305
688.24	40.494
688.56	40.361
688.89	39.627
689.21	45.633
689.53	42.171
689.85	39.911
690.17	39.752
690.49	42.463
690.82	42.056
691.14	39.509
691.46	37.975
691.78	39.558
692.10	35.331
692.42	38.723
692.74	39.212
693.06	41.064
693.39	40.657
693.71	41.703
694.03	39.368
694.35	40.260
694.67	40.275
694.99	40.976
695.31	41.422
695.63	40.191
695.95	41.320
696.27	39.340
696.59	43.523
696.91	39.637
697.23	38.028
697.56	39.872
697.88	36.810
698.20	39.167
698.52	39.355
698.84	42.094
699.16	40.783
699.48	41.805
699.80	41.787
700.12	43.117
700.44	44.562
700.76	44.751
701.08	46.264
701.40	43.017
701.72	45.481
702.04	47.443
702.36	41.076
702.68	42.776
703.00	44.598
703.32	41.755
703.64	41.555
703.96	41.226
704.28	43.314
704.60	42.522
704.91	43.917
705.23	44.282
705.55	46.179
705.87	50.498
706.19	48.410
706.51	45.483
706.83	47.879
707.15	42.857
707.47	38.636
707.79	40.786
708.11	39.954
708.43	39.286
708.74	39.031
709.06	40.779
709.38	43.045
709.70	40.988
710.02	44.214
710.34	40.606
710.66	44.179
710.98	41.761
711.29	42.733
711.61	45.133
711.93	40.705
712.25	47.267
712.57	46.691
712.89	43.945
713.20	44.681
713.52	46.053
713.84	43.354
714.16	42.073
714.48	43.103
714.80	45.289
715.11	44.380
715.43	35.608
715.75	39.130
716.07	43.450
716.39	41.066
716.70	47.841
717.02	42.806
717.34	46.996
717.66	47.388
717.97	47.809
718.29	44.074
718.61	46.715
718.93	45.956
719.24	43.599
719.56	45.763
719.88	44.068
720.20	46.959
720.51	42.509
720.83	47.212
721.15	40.299
721.46	43.262
721.78	49.462
722.10	47.547
722.42	43.233
722.73	45.318
723.05	46.721
723.37	45.749
723.68	50.193
724.00	44.715
724.32	44.355
724.63	51.220
724.95	48.117
725.27	48.178
725.58	44.141
725.90	48.175
726.22	41.509
726.53	42.708
726.85	44.710
727.16	45.552
727.48	48.936
727.80	41.667
728.11	40.942
728.43	40.000
728.74	44.444
729.06	45.620
729.38	44.853
729.69	42.349
730.01	36.519
730.32	45.486
730.64	39.130
730.96	38.944
731.27	42.384
731.59	39.755
731.90	41.108
732.22	42.236
732.53	37.461
732.85	38.782
733.16	39.871
733.48	41.528
733.80	44.805
734.11	41.401
734.43	41.124
734.74	39.429
735.06	38.109
735.37	41.908
735.69	39.172
736.00	44.118
736.32	40.498
736.63	37.700
736.95	40.895
737.26	38.776
737.58	40.000
737.89	39.799
738.21	45.392
738.52	39.643
738.83	43.019
739.15	40.769
739.46	43.796
739.78	40.278
740.09	43.077
740.41	40.323
740.72	39.373
741.04	43.704
741.35	44.167
741.66	54.667
741.98	47.642
742.29	51.196
742.61	45.690
742.92	43.439
743.23	46.581
743.55	45.200
743.86	40.789
744.18	52.655
744.49	49.761
744.80	48.357
745.12	43.182
745.43	47.577
745.74	49.099
746.06	45.413
746.37	45.740
746.68	42.986
747.00	48.611
747.31	49.048
747.62	43.805
747.94	45.815
748.25	41.277
748.56	48.458
748.88	43.069
749.19	52.500
749.50	44.186
749.82	36.179
750.13	43.673
750.44	42.701
750.75	43.158
751.07	41.479
751.38	42.160
751.69	43.682
752.01	39.098
752.32	40.072
752.63	40.426
752.94	46.721
753.26	46.800
753.57	44.309
753.88	42.187
754.19	40.000
754.51	42.361
754.82	39.711
755.13	38.491
755.44	40.977
755.75	41.241
756.07	38.298
756.38	35.401
756.69	39.933
757.00	38.623
757.31	37.982
757.63	37.427
757.94	34.316
758.25	32.843
758.56	34.074
758.87	37.903
759.18	39.394
759.50	38.245
759.81	37.383
760.12	36.562
760.43	37.536
760.74	36.141
761.05	36.723
761.36	38.235
761.67	40.341
761.99	39.130
762.30	42.014
762.61	40.840
762.92	43.750
763.23	44.538
763.54	44.400
763.85	42.188
764.16	41.154
764.47	43.346
764.78	37.456
765.10	33.544
765.41	40.708
765.72	39.521
766.03	37.618
766.34	36.000
766.65	42.979
766.96	45.726
767.27	44.162
767.58	47.917
767.89	48.421
768.20	52.299
768.51	42.132
768.82	44.954
769.13	41.870
769.44	40.486
769.75	44.206
770.06	38.073
770.37	45.701
770.68	48.148
770.99	44.889
771.30	38.525
771.61	48.430
771.92	40.164
772.23	44.538
772.54	42.564
772.85	46.073
773.16	48.404
773.47	56.522
773.78	49.239
774.09	44.048
774.39	51.462
774.70	48.148
775.01	55.072
775.32	52.941
775.63	47.368
775.94	51.079
776.25	65.354
776.56	54.478
776.87	63.115
777.18	53.906
777.48	64.122
777.79	60.606
778.10	57.778
778.41	74.107
778.72	56.204
779.03	56.376
779.34	51.007
779.65	45.946
779.95	53.988
780.26	53.595
780.57	53.103
780.88	62.500
781.19	54.887
781.50	58.784
781.80	50.314
782.11	52.542
782.42	43.038
782.73	51.534
783.04	54.730
783.34	62.676
783.65	67.123
783.96	55.970
784.27	50.350
784.57	51.799
784.88	62.037
785.19	61.905
785.50	64.151
785.81	59.701
786.11	62.295
786.42	67.442
786.73	61.947
787.04	73.585
787.34	50.893
787.65	65.000
787.96	60.360
788.26	59.504
788.57	64.407
788.88	67.769
789.19	54.861
789.49	59.848
789.80	52.672
790.11	63.810
790.41	61.386
790.72	71.084
791.03	73.913
791.33	76.744
791.64	70.103
791.95	72.277
792.25	74.444
792.56	79.221
792.87	80.769
793.17	94.937
793.48	73.563
793.79	74.713
794.09	71.591
794.40	57.983
794.70	58.824
795.01	49.630
795.32	53.237
795.62	55.118
795.93	62.931
796.23	62.832
796.54	71.765
796.85	68.919
797.15	97.183
797.46	87.879
797.76	80.723
798.07	84.810
798.37	90.769
798.68	81.818
798.99	73.239
799.29	79.221
799.60	68.182
799.90	101.370
800.21	97.015
800.51	94.828
800.82	112.281
801.12	80.328
801.43	98.485
801.73	74.324
802.04	90.476
802.34	90.123
802.65	82.813
802.95	111.864
803.26	82.813
803.56	72.857
803.87	89.231
804.17	108.824
804.48	105.556
804.78	108.621
805.09	86.765
805.39	103.846
805.70	89.286
806.00	108.197
806.30	75.758
806.61	75.610
806.91	72.152
807.22	75.000
807.52	65.672
807.83	88.732
808.13	98.437
808.43	93.333
808.74	92.105
809.04	91.304
809.35	80.597
809.65	85.526
809.95	114.516
810.26	69.492
810.56	92.063
810.86	125.000
811.17	119.048
811.47	90.000
811.77	105.556
812.08	105.455
812.38	114.000
812.69	141.667
812.99	152.273
813.29	122.449
813.59	92.857
813.90	110.204
814.20	98.182
814.50	83.077
814.81	91.176
815.11	95.918
815.41	96.721
815.72	121.429
816.02	121.818
816.32	130.952
816.62	125.000
816.93	119.512
817.23	111.905
817.53	118.182
817.84	157.576
818.14	119.565
818.44	113.333
818.74	161.765
819.04	117.500
819.35	128.571
819.65	138.235
819.95	167.857
820.25	180.000
820.56	130.769
820.86	122.727
821.16	130.233
821.46	133.333
821.76	118.000
822.07	145.714
822.37	120.000
822.67	142.424
822.97	119.608
823.27	178.571
823.57	178.378
823.88	157.500
824.18	176.667
824.48	128.571
824.78	196.000
825.08	154.167
825.38	145.946
825.69	126.829
825.99	216.667
826.29	172.414
826.59	142.105
826.89	115.789
827.19	129.412
827.49	174.194
827.79	109.091
828.09	129.545
828.39	104.255
828.70	116.327
829.00	162.963
829.30	125.806
829.60	125.000
829.90	313.333
830.20	153.571
830.50	217.391
830.80	208.696
831.10	193.333
831.40	180.000
831.70	200.000
832.00	184.615
832.30	166.667
832.60	225.000
832.90	160.000
833.20	378.571
833.50	180.645
833.80	186.207
834.10	171.875
834.40	226.923
834.70	244.444
835.00	238.095
835.30	140.000
835.60	276.923
835.90	196.552
836.20	300.000
836.50	158.621
836.80	124.000
837.10	169.444
837.40	228.571
837.70	294.118
838.00	181.481
838.30	219.048
838.60	242.857
838.90	192.308
839.19	230.000
839.49	300.000
839.79	290.000
840.09	190.000
840.39	157.143
840.69	243.478
840.99	216.667
841.29	320.000
841.59	216.667
841.88	337.500
842.18	158.621
842.48	276.190
842.78	200.000
843.08	195.652
843.38	171.875
843.68	766.667
843.97	230.769
844.27	148.276
844.57	233.333
844.87	281.250
845.17	211.111
845.47	1333.333
845.76	377.778
846.06	305.882
846.36	412.500
846.66	357.143
846.96	287.500
847.25	363.636
847.55	318.182
847.85	239.130
848.15	410.000
848.44	300.000
848.74	277.778
849.04	317.647
849.34	590.000
849.63	257.895
849.93	400.000
850.23	920.000
850.53	385.714
850.82	2350.000
851.12	-3300.000
851.42	4700.000
851.71	230.000
852.01	-866.667
852.31	179.167
852.61	1266.667
852.90	195.238
853.20	184.000
853.50	288.235
853.79	209.524
854.09	179.167
854.39	268.750
854.68	132.432
854.98	174.194
855.28	140.000
855.57	200.000
855.87	177.778
856.17	200.000
856.46	246.667
856.76	252.941
857.05	179.310
857.35	158.333
857.65	293.333
857.94	234.783
858.24	215.385
858.53	250.000
858.83	227.273
859.13	266.667
859.42	0.000
859.72	444.444
860.01	354.545
860.31	218.182
860.60	236.842
860.90	213.043
861.20	366.667
861.49	466.667
861.79	-3800.000
862.08	550.000
862.38	214.286
862.67	276.923
862.97	264.706
863.26	433.333
863.56	244.444
863.85	350.000
864.15	525.000
864.44	340.000
864.74	733.333
865.03	587.500
865.33	257.895
865.62	372.727
865.92	315.385
866.21	316.667
866.51	0.000
866.80	327.273
867.10	900.000
867.39	423.077
867.69	363.636
867.98	236.842
868.27	400.000
868.57	200.000
868.86	-3600.000
869.16	287.500
869.45	1750.000
869.75	-3300.000
870.04	383.333
870.33	542.857
870.63	725.000
870.92	1800.000
871.22	614.286
871.51	276.471
871.80	166.667
872.10	285.714
>>>>>End Processed Spectral Data<<<<<
