SpectraSuite Data File
++++++++++++++++++++++++++++++++++++
Date: Wed May 13 20:30:18 PDT 2015
User: schluterlab
Dark Spectrum Present: Yes
Reference Spectrum Present: Yes
Number of Sampled Component Spectra: 1
Spectrometers: USB2E3373
Integration Time (usec): 3000 (USB2E3373)
Spectra Averaged: 3 (USB2E3373)
Boxcar Smoothing: 0 (USB2E3373)
Correct for Electrical Dark: No (USB2E3373)
Strobe/Lamp Enabled: No (USB2E3373)
Correct for Detector Non-linearity: No (USB2E3373)
Correct for Stray Light: No (USB2E3373)
Number of Pixels in Processed Spectrum: 2048
>>>>>Begin Processed Spectral Data<<<<<
178.53	0.000
178.91	-875.000
179.29	-1000.000
179.67	-227.778
180.04	-950.000
180.42	2500.000
180.80	580.000
181.18	-900.000
181.56	514.286
181.94	0.000
182.31	-642.857
182.69	1200.000
183.07	-425.000
183.45	-344.444
183.83	345.455
184.20	-280.000
184.58	1900.000
184.96	5200.000
185.34	-540.000
185.72	-450.000
186.09	-2000.000
186.47	2250.000
186.85	1950.000
187.23	4200.000
187.61	-1266.667
187.98	950.000
188.36	409.091
188.74	490.909
189.12	-940.000
189.49	450.000
189.87	-4300.000
190.25	-1250.000
190.63	328.571
191.00	315.385
191.38	733.333
191.76	-850.000
192.14	1200.000
192.51	487.500
192.89	833.333
193.27	437.500
193.65	-1050.000
194.02	440.000
194.40	680.000
194.78	470.000
195.15	450.000
195.53	600.000
195.91	-1600.000
196.29	262.500
196.66	294.737
197.04	-150.000
197.42	0.000
197.79	500.000
198.17	-3600.000
198.55	557.143
198.92	662.500
199.30	960.000
199.68	0.000
200.05	355.556
200.43	657.143
200.81	2800.000
201.18	1100.000
201.56	-1033.333
201.94	422.222
202.31	522.222
202.69	325.000
203.07	500.000
203.44	0.000
203.82	875.000
204.19	642.857
204.57	342.857
204.95	537.500
205.32	1066.667
205.70	363.636
206.08	300.000
206.45	2400.000
206.83	300.000
207.20	766.667
207.58	600.000
207.96	272.222
208.33	550.000
208.71	-650.000
209.08	800.000
209.46	566.667
209.84	363.636
210.21	-1200.000
210.59	1325.000
210.96	-425.000
211.34	1950.000
211.71	470.000
212.09	650.000
212.46	0.000
212.84	1033.333
213.22	1150.000
213.59	-3000.000
213.97	750.000
214.34	628.571
214.72	427.273
215.09	760.000
215.47	-1800.000
215.84	-1900.000
216.22	1266.667
216.59	292.857
216.97	1100.000
217.34	327.273
217.72	-666.667
218.09	0.000
218.47	-3700.000
218.84	488.889
219.22	600.000
219.59	1233.333
219.97	-357.143
220.34	720.000
220.72	-1633.333
221.09	335.714
221.47	1250.000
221.84	-616.667
222.22	0.000
222.59	1225.000
222.97	-1900.000
223.34	1020.000
223.72	353.846
224.09	860.000
224.46	1500.000
224.84	-3700.000
225.21	-780.000
225.59	-4300.000
225.96	450.000
226.34	210.000
226.71	1950.000
227.08	512.500
227.46	420.000
227.83	-775.000
228.21	-2150.000
228.58	555.556
228.95	-2100.000
229.33	-1900.000
229.70	1166.667
230.08	714.286
230.45	-560.000
230.82	325.000
231.20	700.000
231.57	471.429
231.95	366.667
232.32	231.818
232.69	381.818
233.07	614.286
233.44	307.692
233.81	-1300.000
234.19	278.947
234.56	433.333
234.93	300.000
235.31	381.818
235.68	246.154
236.05	350.000
236.43	124.242
236.80	252.632
237.17	3400.000
237.55	200.000
237.92	178.571
238.29	228.571
238.67	122.581
239.04	175.862
239.41	147.222
239.79	119.565
240.16	119.048
240.53	120.455
240.91	94.118
241.28	94.000
241.65	100.000
242.02	101.449
242.40	75.806
242.77	100.000
243.14	70.968
243.51	78.652
243.89	84.706
244.26	80.000
244.63	69.892
245.00	65.957
245.38	72.277
245.75	66.355
246.12	61.468
246.49	65.693
246.87	73.600
247.24	66.923
247.61	65.714
247.98	62.092
248.36	55.405
248.73	60.510
249.10	57.962
249.47	57.062
249.84	57.219
250.22	50.267
250.59	59.763
250.96	52.020
251.33	51.659
251.70	59.406
252.08	53.333
252.45	47.085
252.82	54.783
253.19	51.064
253.56	49.412
253.94	45.643
254.31	50.391
254.68	55.000
255.05	48.708
255.42	45.935
255.79	48.897
256.16	44.043
256.54	45.230
256.91	48.043
257.28	43.885
257.65	51.815
258.02	46.894
258.39	47.319
258.76	40.803
259.14	49.702
259.51	44.377
259.88	43.478
260.25	45.921
260.62	44.509
260.99	45.963
261.36	48.649
261.73	42.407
262.10	46.512
262.47	46.479
262.85	42.340
263.22	39.601
263.59	42.735
263.96	43.407
264.33	40.731
264.70	43.684
265.07	41.944
265.44	45.455
265.81	40.389
266.18	44.221
266.55	42.439
266.92	44.963
267.29	43.287
267.66	41.972
268.03	42.955
268.40	41.589
268.77	37.709
269.14	40.766
269.51	41.309
269.88	43.590
270.25	41.535
270.62	40.899
270.99	39.785
271.36	42.060
271.73	40.187
272.10	41.522
272.47	44.086
272.84	43.074
273.21	41.090
273.58	40.175
273.95	39.413
274.32	39.876
274.69	43.469
275.06	38.780
275.43	41.489
275.80	40.681
276.17	40.122
276.54	38.046
276.91	40.514
277.28	40.430
277.65	39.072
278.02	38.716
278.39	39.648
278.76	38.545
279.13	39.623
279.50	39.665
279.87	38.048
280.23	38.323
280.60	40.426
280.97	38.262
281.34	37.699
281.71	36.909
282.08	38.196
282.45	40.182
282.82	38.721
283.19	36.720
283.56	37.719
283.92	39.086
284.29	38.272
284.66	37.024
285.03	36.890
285.40	38.028
285.77	36.027
286.14	36.788
286.51	36.000
286.87	38.291
287.24	36.808
287.61	35.955
287.98	34.903
288.35	33.914
288.72	34.268
289.08	34.429
289.45	35.750
289.82	34.959
290.19	34.223
290.56	33.844
290.93	30.967
291.29	33.896
291.66	34.808
292.03	34.012
292.40	33.186
292.77	31.805
293.13	31.045
293.50	34.257
293.87	32.889
294.24	30.963
294.60	30.277
294.97	31.250
295.34	31.735
295.71	32.670
296.08	29.060
296.44	30.812
296.81	29.987
297.18	31.843
297.55	27.968
297.91	28.364
298.28	29.050
298.65	27.676
299.02	29.644
299.38	28.420
299.75	26.280
300.12	25.670
300.48	27.625
300.85	28.977
301.22	28.280
301.59	27.020
301.95	27.456
302.32	26.444
302.69	27.479
303.05	27.515
303.42	26.296
303.79	26.954
304.15	26.457
304.52	26.419
304.89	25.319
305.25	26.102
305.62	27.180
305.99	27.391
306.35	27.629
306.72	25.112
307.09	26.748
307.45	28.378
307.82	24.888
308.19	25.828
308.55	26.753
308.92	25.242
309.29	25.132
309.65	26.087
310.02	25.899
310.38	24.624
310.75	25.343
311.12	23.746
311.48	26.019
311.85	26.939
312.22	24.558
312.58	24.116
312.95	25.766
313.31	24.175
313.68	26.611
314.05	25.345
314.41	25.528
314.78	24.773
315.14	23.535
315.51	25.026
315.87	25.545
316.24	24.230
316.61	22.807
316.97	24.168
317.34	24.266
317.70	24.474
318.07	24.735
318.43	23.288
318.80	23.805
319.16	23.446
319.53	22.702
319.89	24.286
320.26	23.600
320.62	24.405
320.99	23.333
321.35	24.747
321.72	24.846
322.08	24.778
322.45	24.677
322.81	24.322
323.18	25.048
323.54	23.748
323.91	24.906
324.27	24.092
324.64	23.858
325.00	23.715
325.37	25.387
325.73	24.776
326.10	23.831
326.46	24.373
326.83	25.194
327.19	24.167
327.56	23.868
327.92	25.197
328.29	25.200
328.65	25.599
329.01	23.556
329.38	24.237
329.74	24.469
330.11	24.317
330.47	24.702
330.84	25.735
331.20	24.681
331.56	24.037
331.93	23.981
332.29	22.804
332.66	23.717
333.02	24.223
333.38	25.294
333.75	25.134
334.11	24.733
334.48	23.602
334.84	25.092
335.20	24.364
335.57	23.209
335.93	22.857
336.29	24.542
336.66	23.895
337.02	23.167
337.38	24.815
337.75	22.638
338.11	24.351
338.47	23.204
338.84	24.015
339.20	22.385
339.56	24.635
339.93	22.909
340.29	22.011
340.65	23.262
341.02	24.607
341.38	23.577
341.74	22.193
342.11	24.192
342.47	24.141
342.83	23.630
343.20	23.030
343.56	23.083
343.92	22.719
344.28	22.619
344.65	23.474
345.01	21.801
345.37	21.955
345.73	23.435
346.10	23.103
346.46	23.305
346.82	21.829
347.19	21.303
347.55	22.906
347.91	23.058
348.27	23.090
348.63	23.411
349.00	22.573
349.36	22.250
349.72	23.095
350.08	22.934
350.45	23.434
350.81	22.340
351.17	20.989
351.53	21.376
351.89	21.700
352.26	23.204
352.62	22.935
352.98	22.447
353.34	21.939
353.70	21.931
354.07	23.145
354.43	21.984
354.79	21.480
355.15	21.947
355.51	22.542
355.87	22.939
356.24	22.313
356.60	21.893
356.96	22.124
357.32	21.341
357.68	22.835
358.04	21.298
358.40	22.169
358.77	21.987
359.13	22.021
359.49	21.725
359.85	20.635
360.21	20.973
360.57	21.634
360.93	21.538
361.29	20.408
361.66	20.743
362.02	20.746
362.38	21.521
362.74	20.908
363.10	20.133
363.46	21.277
363.82	20.862
364.18	20.778
364.54	22.140
364.90	21.742
365.26	20.662
365.62	20.964
365.98	20.161
366.35	20.057
366.71	21.114
367.07	21.486
367.43	21.408
367.79	20.557
368.15	21.336
368.51	21.584
368.87	20.628
369.23	21.287
369.59	21.579
369.95	19.044
370.31	20.370
370.67	20.290
371.03	20.824
371.39	19.898
371.75	20.956
372.11	20.341
372.47	20.894
372.83	20.821
373.19	20.665
373.55	20.621
373.91	22.312
374.27	19.725
374.63	19.709
374.99	20.621
375.35	19.958
375.71	20.288
376.07	20.165
376.42	21.527
376.78	20.345
377.14	19.878
377.50	20.530
377.86	19.880
378.22	19.912
378.58	18.985
378.94	19.233
379.30	19.020
379.66	19.416
380.02	19.902
380.38	19.490
380.74	20.108
381.09	19.010
381.45	20.467
381.81	20.393
382.17	19.873
382.53	19.874
382.89	20.062
383.25	19.450
383.61	19.579
383.97	19.887
384.32	20.025
384.68	19.393
385.04	19.484
385.40	19.443
385.76	18.059
386.12	19.041
386.48	19.257
386.83	19.179
387.19	20.408
387.55	19.171
387.91	19.287
388.27	18.761
388.62	19.299
388.98	18.857
389.34	20.526
389.70	19.988
390.06	19.899
390.42	19.844
390.77	19.784
391.13	18.698
391.49	19.543
391.85	18.651
392.20	18.801
392.56	18.497
392.92	18.952
393.28	18.402
393.64	19.125
393.99	19.487
394.35	19.045
394.71	19.699
395.07	18.255
395.42	19.530
395.78	19.975
396.14	19.367
396.50	19.612
396.85	19.771
397.21	18.742
397.57	19.033
397.92	19.050
398.28	18.386
398.64	19.474
399.00	18.858
399.35	18.161
399.71	18.808
400.07	19.338
400.42	18.896
400.78	18.577
401.14	17.927
401.49	19.104
401.85	18.512
402.21	18.623
402.57	18.014
402.92	19.231
403.28	19.425
403.63	18.874
403.99	18.025
404.35	18.788
404.70	19.245
405.06	18.404
405.42	19.339
405.77	17.200
406.13	19.131
406.49	18.569
406.84	18.488
407.20	18.322
407.55	19.145
407.91	19.067
408.27	18.698
408.62	18.543
408.98	18.444
409.34	18.635
409.69	18.903
410.05	18.897
410.40	18.410
410.76	18.399
411.11	18.758
411.47	18.530
411.83	17.776
412.18	17.811
412.54	19.054
412.89	18.373
413.25	18.182
413.60	18.592
413.96	17.972
414.31	18.834
414.67	18.948
415.03	18.609
415.38	19.330
415.74	18.585
416.09	19.530
416.45	18.474
416.80	19.299
417.16	19.236
417.51	19.443
417.87	18.690
418.22	18.107
418.58	19.626
418.93	18.489
419.29	18.905
419.64	19.395
420.00	19.024
420.35	19.130
420.71	19.187
421.06	18.079
421.42	18.304
421.77	18.330
422.12	18.641
422.48	17.917
422.83	18.521
423.19	18.785
423.54	18.224
423.90	18.667
424.25	19.430
424.61	18.631
424.96	18.134
425.31	17.996
425.67	17.640
426.02	18.286
426.38	18.864
426.73	18.256
427.09	18.055
427.44	18.861
427.79	18.056
428.15	18.631
428.50	18.081
428.85	18.474
429.21	18.940
429.56	17.574
429.92	18.269
430.27	18.222
430.62	17.665
430.98	18.630
431.33	17.835
431.68	18.901
432.04	17.519
432.39	17.761
432.74	18.133
433.10	18.619
433.45	17.668
433.80	17.627
434.16	18.910
434.51	18.737
434.86	18.415
435.22	17.899
435.57	17.629
435.92	18.256
436.28	18.683
436.63	18.543
436.98	18.775
437.34	19.261
437.69	19.137
438.04	18.156
438.39	19.642
438.75	19.872
439.10	18.156
439.45	18.713
439.81	18.550
440.16	18.012
440.51	18.571
440.86	18.645
441.22	18.020
441.57	18.684
441.92	18.782
442.27	18.407
442.63	17.904
442.98	18.930
443.33	18.533
443.68	18.224
444.03	18.399
444.39	17.673
444.74	18.128
445.09	18.275
445.44	18.043
445.79	17.862
446.15	18.846
446.50	18.309
446.85	18.397
447.20	18.052
447.55	18.593
447.91	18.423
448.26	18.531
448.61	19.107
448.96	18.715
449.31	18.054
449.66	18.683
450.02	18.384
450.37	18.311
450.72	18.613
451.07	17.733
451.42	17.994
451.77	19.143
452.12	17.610
452.47	18.532
452.83	18.240
453.18	18.460
453.53	19.048
453.88	18.074
454.23	18.231
454.58	18.898
454.93	18.754
455.28	17.706
455.63	19.053
455.98	20.119
456.34	18.342
456.69	18.159
457.04	18.824
457.39	18.819
457.74	18.224
458.09	18.631
458.44	18.985
458.79	18.059
459.14	18.736
459.49	18.155
459.84	18.393
460.19	18.680
460.54	18.576
460.89	19.144
461.24	19.247
461.59	20.046
461.94	18.434
462.29	19.110
462.64	18.060
462.99	18.738
463.34	19.800
463.69	18.637
464.04	18.783
464.39	18.899
464.74	18.063
465.09	18.878
465.44	17.950
465.79	18.456
466.14	18.391
466.49	17.853
466.84	18.330
467.19	19.252
467.54	19.188
467.89	18.788
468.24	18.906
468.59	18.681
468.94	17.654
469.29	19.473
469.64	20.080
469.99	18.945
470.34	17.966
470.68	18.606
471.03	18.163
471.38	18.833
471.73	18.454
472.08	19.276
472.43	18.530
472.78	18.565
473.13	18.228
473.48	17.978
473.83	19.207
474.17	18.233
474.52	19.107
474.87	18.681
475.22	19.153
475.57	18.216
475.92	18.322
476.27	18.546
476.61	18.533
476.96	17.867
477.31	18.106
477.66	17.724
478.01	18.453
478.36	18.932
478.70	18.017
479.05	18.850
479.40	18.321
479.75	18.200
480.10	17.893
480.45	17.896
480.79	17.869
481.14	17.857
481.49	18.367
481.84	18.107
482.19	18.219
482.53	17.982
482.88	17.869
483.23	17.991
483.58	18.244
483.92	17.573
484.27	17.037
484.62	17.543
484.97	17.935
485.31	17.500
485.66	17.380
486.01	16.746
486.36	16.871
486.70	16.856
487.05	16.734
487.40	16.956
487.75	17.388
488.09	17.137
488.44	16.444
488.79	17.288
489.13	17.456
489.48	17.292
489.83	17.350
490.17	17.536
490.52	17.803
490.87	18.001
491.22	17.690
491.56	17.221
491.91	17.543
492.26	18.190
492.60	17.604
492.95	17.399
493.30	17.664
493.64	17.172
493.99	17.734
494.34	18.039
494.68	18.086
495.03	18.515
495.37	17.310
495.72	18.031
496.07	18.144
496.41	17.832
496.76	17.986
497.11	17.380
497.45	17.327
497.80	17.706
498.14	17.536
498.49	17.317
498.84	17.737
499.18	17.143
499.53	18.139
499.87	17.661
500.22	17.805
500.56	18.641
500.91	17.740
501.26	18.018
501.60	18.462
501.95	17.644
502.29	18.041
502.64	18.343
502.98	17.625
503.33	17.779
503.67	18.051
504.02	18.428
504.36	17.688
504.71	18.271
505.06	18.410
505.40	17.793
505.75	17.502
506.09	17.201
506.44	17.908
506.78	17.828
507.13	18.021
507.47	18.030
507.82	18.288
508.16	17.832
508.51	18.519
508.85	18.421
509.19	17.755
509.54	18.112
509.88	17.826
510.23	17.943
510.57	19.350
510.92	18.591
511.26	18.088
511.61	18.672
511.95	17.589
512.30	18.293
512.64	17.786
512.98	19.078
513.33	18.255
513.67	17.823
514.02	16.937
514.36	18.241
514.70	18.373
515.05	18.070
515.39	17.499
515.74	17.905
516.08	18.390
516.42	18.757
516.77	18.339
517.11	18.202
517.46	17.946
517.80	19.048
518.14	17.313
518.49	18.261
518.83	18.523
519.17	17.956
519.52	18.506
519.86	18.483
520.20	18.844
520.55	19.090
520.89	18.735
521.23	17.853
521.58	18.247
521.92	19.167
522.26	17.389
522.61	17.819
522.95	18.355
523.29	17.772
523.64	17.927
523.98	18.854
524.32	17.793
524.66	18.521
525.01	18.137
525.35	18.463
525.69	18.350
526.04	19.128
526.38	18.670
526.72	18.037
527.06	18.456
527.41	17.327
527.75	18.778
528.09	18.690
528.43	18.738
528.78	19.299
529.12	18.727
529.46	19.228
529.80	17.946
530.15	19.315
530.49	18.646
530.83	19.684
531.17	19.909
531.51	19.844
531.86	19.097
532.20	19.100
532.54	19.475
532.88	20.090
533.22	18.613
533.57	18.765
533.91	18.964
534.25	18.773
534.59	18.670
534.93	18.501
535.27	18.648
535.62	18.681
535.96	18.456
536.30	18.182
536.64	18.545
536.98	19.907
537.32	18.697
537.66	18.800
538.01	18.631
538.35	19.005
538.69	19.272
539.03	18.324
539.37	19.105
539.71	17.304
540.05	19.412
540.39	18.405
540.73	17.982
541.07	20.117
541.42	18.461
541.76	18.903
542.10	19.211
542.44	18.940
542.78	19.433
543.12	18.362
543.46	18.951
543.80	19.453
544.14	18.742
544.48	18.730
544.82	18.858
545.16	18.933
545.50	18.573
545.84	18.548
546.18	19.259
546.52	19.821
546.86	19.381
547.20	19.690
547.54	19.105
547.88	19.324
548.22	18.804
548.56	18.805
548.90	18.566
549.24	17.912
549.58	18.145
549.92	18.750
550.26	18.892
550.60	17.981
550.94	18.310
551.28	18.873
551.62	19.554
551.96	19.158
552.30	19.590
552.64	19.743
552.98	19.186
553.32	19.353
553.66	19.359
554.00	19.561
554.34	19.255
554.68	19.957
555.02	19.252
555.36	19.485
555.69	18.945
556.03	19.044
556.37	19.372
556.71	18.554
557.05	18.417
557.39	19.244
557.73	18.772
558.07	19.579
558.41	18.017
558.75	19.177
559.08	18.046
559.42	19.048
559.76	19.191
560.10	19.486
560.44	18.588
560.78	19.162
561.12	18.997
561.45	19.687
561.79	18.523
562.13	18.913
562.47	19.467
562.81	18.898
563.15	18.997
563.48	18.634
563.82	19.113
564.16	18.705
564.50	18.424
564.84	18.394
565.17	18.211
565.51	19.105
565.85	19.099
566.19	17.721
566.52	19.253
566.86	19.168
567.20	18.868
567.54	18.721
567.88	18.360
568.21	19.101
568.55	18.857
568.89	18.482
569.23	18.004
569.56	18.947
569.90	18.528
570.24	18.120
570.57	17.681
570.91	17.582
571.25	18.005
571.59	17.437
571.92	17.627
572.26	17.707
572.60	17.748
572.93	17.241
573.27	17.657
573.61	17.616
573.95	17.623
574.28	17.764
574.62	17.274
574.96	16.965
575.29	17.192
575.63	17.200
575.97	17.443
576.30	17.339
576.64	16.679
576.98	17.185
577.31	17.375
577.65	17.633
577.98	17.310
578.32	17.017
578.66	17.296
578.99	17.005
579.33	17.187
579.67	16.444
580.00	16.639
580.34	17.133
580.67	17.065
581.01	17.225
581.35	17.509
581.68	17.463
582.02	17.107
582.35	17.161
582.69	17.396
583.02	17.179
583.36	17.293
583.70	17.233
584.03	17.163
584.37	17.365
584.70	17.476
585.04	17.392
585.37	17.404
585.71	17.716
586.04	17.444
586.38	17.659
586.72	17.978
587.05	17.142
587.39	17.203
587.72	17.495
588.06	17.263
588.39	17.695
588.73	17.835
589.06	17.763
589.40	17.508
589.73	17.705
590.07	17.402
590.40	17.866
590.73	18.228
591.07	17.908
591.40	17.588
591.74	18.874
592.07	17.845
592.41	17.652
592.74	17.491
593.08	17.955
593.41	18.127
593.75	17.270
594.08	17.499
594.41	17.992
594.75	17.412
595.08	17.609
595.42	18.109
595.75	18.305
596.09	18.363
596.42	18.507
596.75	18.067
597.09	17.879
597.42	17.454
597.75	18.284
598.09	18.478
598.42	17.912
598.76	17.835
599.09	17.446
599.42	17.067
599.76	18.119
600.09	17.996
600.42	17.495
600.76	17.429
601.09	17.486
601.42	18.037
601.76	17.837
602.09	17.945
602.42	17.994
602.76	17.856
603.09	18.096
603.42	18.626
603.76	17.835
604.09	17.332
604.42	18.223
604.76	18.515
605.09	17.912
605.42	17.443
605.75	17.757
606.09	17.568
606.42	17.654
606.75	17.752
607.09	18.292
607.42	18.143
607.75	17.722
608.08	17.803
608.42	17.840
608.75	17.674
609.08	17.761
609.41	18.563
609.75	18.723
610.08	19.039
610.41	18.156
610.74	17.975
611.07	17.935
611.41	17.910
611.74	19.206
612.07	18.685
612.40	19.150
612.73	18.263
613.07	18.912
613.40	19.115
613.73	18.196
614.06	18.065
614.39	17.724
614.72	18.421
615.06	18.382
615.39	18.259
615.72	17.740
616.05	17.544
616.38	18.566
616.71	19.062
617.05	19.022
617.38	18.400
617.71	18.438
618.04	18.510
618.37	18.510
618.70	19.166
619.03	18.553
619.36	19.009
619.69	19.366
620.03	19.712
620.36	18.650
620.69	19.658
621.02	19.543
621.35	19.107
621.68	18.536
622.01	19.427
622.34	18.835
622.67	20.304
623.00	18.929
623.33	18.871
623.66	19.871
623.99	19.661
624.32	18.688
624.65	19.280
624.99	18.555
625.32	18.248
625.65	18.783
625.98	19.216
626.31	19.440
626.64	18.776
626.97	18.786
627.30	18.869
627.63	19.360
627.96	20.017
628.29	19.598
628.62	19.122
628.95	21.415
629.28	19.526
629.61	21.357
629.94	19.524
630.26	19.447
630.59	18.398
630.92	19.923
631.25	19.941
631.58	21.822
631.91	19.574
632.24	19.937
632.57	20.776
632.90	19.737
633.23	19.575
633.56	22.486
633.89	19.479
634.22	20.091
634.55	21.657
634.88	18.683
635.20	21.147
635.53	20.602
635.86	21.535
636.19	20.118
636.52	20.646
636.85	19.359
637.18	19.816
637.51	21.631
637.83	17.633
638.16	19.821
638.49	20.655
638.82	21.492
639.15	19.625
639.48	21.571
639.81	20.107
640.13	22.005
640.46	22.953
640.79	21.136
641.12	20.633
641.45	20.950
641.77	21.060
642.10	20.614
642.43	19.970
642.76	21.362
643.09	21.626
643.41	20.941
643.74	23.148
644.07	19.665
644.40	23.006
644.73	21.260
645.05	22.662
645.38	21.327
645.71	21.900
646.04	23.754
646.36	22.371
646.69	22.408
647.02	21.088
647.35	22.852
647.67	22.832
648.00	23.252
648.33	21.287
648.66	21.364
648.98	22.489
649.31	21.973
649.64	20.927
649.96	21.311
650.29	22.591
650.62	20.388
650.94	23.177
651.27	21.284
651.60	22.296
651.92	22.843
652.25	22.964
652.58	22.741
652.90	22.749
653.23	20.493
653.56	22.047
653.88	21.870
654.21	23.065
654.54	23.597
654.86	21.651
655.19	20.270
655.52	16.557
655.84	16.106
656.17	20.642
656.49	27.357
656.82	26.999
657.15	19.903
657.47	14.537
657.80	10.798
658.13	10.908
658.45	16.204
658.78	16.429
659.10	16.385
659.43	17.733
659.75	17.820
660.08	18.165
660.41	19.926
660.73	19.695
661.06	20.064
661.38	23.636
661.71	21.346
662.03	22.880
662.36	21.869
662.68	21.084
663.01	21.818
663.33	22.930
663.66	22.899
663.98	23.974
664.31	20.168
664.63	22.267
664.96	20.724
665.28	23.975
665.61	23.782
665.93	23.541
666.26	24.138
666.58	24.059
666.91	25.370
667.23	22.921
667.56	21.814
667.88	21.581
668.21	23.241
668.53	21.909
668.86	22.294
669.18	25.800
669.50	24.565
669.83	25.490
670.15	23.333
670.48	21.133
670.80	22.629
671.13	22.081
671.45	21.277
671.77	25.866
672.10	22.366
672.42	22.968
672.75	21.393
673.07	22.007
673.39	20.615
673.72	23.438
674.04	22.157
674.37	22.718
674.69	19.836
675.01	23.222
675.34	25.051
675.66	24.421
675.98	25.458
676.31	24.370
676.63	22.081
676.95	25.367
677.28	21.028
677.60	24.615
677.92	23.840
678.25	25.051
678.57	22.908
678.89	22.846
679.22	22.986
679.54	23.092
679.86	23.670
680.18	22.719
680.51	20.213
680.83	21.708
681.15	23.585
681.48	22.873
681.80	21.663
682.12	23.563
682.44	20.503
682.77	25.662
683.09	22.747
683.41	21.286
683.73	23.400
684.06	25.413
684.38	20.548
684.70	21.512
685.02	23.827
685.34	22.344
685.67	20.105
685.99	21.821
686.31	21.502
686.63	22.085
686.96	20.714
687.28	21.300
687.60	21.920
687.92	23.400
688.24	22.053
688.56	25.502
688.89	23.859
689.21	25.764
689.53	26.096
689.85	23.503
690.17	24.224
690.49	25.478
690.82	22.897
691.14	22.991
691.46	24.262
691.78	23.092
692.10	23.967
692.42	23.952
692.74	20.124
693.06	22.553
693.39	23.614
693.71	23.144
694.03	26.526
694.35	22.078
694.67	20.824
694.99	26.585
695.31	23.039
695.63	25.120
695.95	23.961
696.27	20.812
696.59	24.611
696.91	25.130
697.23	21.127
697.56	23.881
697.88	22.086
698.20	23.333
698.52	25.376
698.84	23.831
699.16	21.429
699.48	22.090
699.80	25.121
700.12	28.052
700.44	26.525
700.76	25.414
701.08	26.724
701.40	26.536
701.72	24.198
702.04	26.989
702.36	24.079
702.68	24.929
703.00	28.532
703.32	23.404
703.64	27.078
703.96	25.627
704.28	26.163
704.60	28.739
704.91	26.113
705.23	26.686
705.55	27.575
705.87	32.890
706.19	26.502
706.51	23.364
706.83	27.273
707.15	25.210
707.47	25.000
707.79	24.570
708.11	22.831
708.43	26.190
708.74	21.173
709.06	26.234
709.38	26.772
709.70	25.291
710.02	30.564
710.34	26.667
710.66	29.552
710.98	24.148
711.29	26.744
711.61	29.204
711.93	24.038
712.25	27.974
712.57	28.309
712.89	26.644
713.20	29.483
713.52	28.618
713.84	29.114
714.16	25.915
714.48	24.713
714.80	27.356
715.11	26.801
715.43	29.377
715.75	24.928
716.07	27.476
716.39	22.571
716.70	28.904
717.02	30.216
717.34	27.915
717.66	30.224
717.97	27.490
718.29	29.630
718.61	28.102
718.93	31.250
719.24	25.606
719.56	24.746
719.88	29.492
720.20	31.081
720.51	27.875
720.83	28.996
721.15	29.478
721.46	26.241
721.78	29.032
722.10	26.792
722.42	31.579
722.73	28.464
723.05	24.590
723.37	29.150
723.68	29.344
724.00	32.520
724.32	30.242
724.63	31.301
724.95	29.707
725.27	30.364
725.58	33.203
725.90	29.562
726.22	30.189
726.53	28.819
726.85	29.352
727.16	27.758
727.48	26.596
727.80	29.545
728.11	30.435
728.43	24.231
728.74	29.032
729.06	31.387
729.38	31.250
729.69	29.537
730.01	23.208
730.32	26.736
730.64	29.431
730.96	25.083
731.27	28.808
731.59	27.523
731.90	29.446
732.22	27.640
732.53	26.316
732.85	25.641
733.16	29.582
733.48	29.236
733.80	27.273
734.11	24.841
734.43	30.178
734.74	24.857
735.06	22.923
735.37	31.214
735.69	24.841
736.00	29.412
736.32	29.907
736.63	25.559
736.95	28.435
737.26	21.769
737.58	24.839
737.89	30.435
738.21	25.939
738.52	27.500
738.83	26.415
739.15	26.154
739.46	31.022
739.78	27.431
740.09	29.231
740.41	29.355
740.72	24.739
741.04	27.778
741.35	32.083
741.66	34.667
741.98	26.887
742.29	33.971
742.61	33.621
742.92	29.412
743.23	28.632
743.55	32.400
743.86	32.895
744.18	37.168
744.49	38.756
744.80	34.272
745.12	35.455
745.43	33.921
745.74	32.883
746.06	34.862
746.37	28.251
746.68	30.769
747.00	34.259
747.31	33.810
747.62	34.513
747.94	29.515
748.25	26.383
748.56	37.885
748.88	31.683
749.19	38.000
749.50	32.558
749.82	28.862
750.13	27.347
750.44	29.927
750.75	31.930
751.07	29.260
751.38	27.178
751.69	30.686
752.01	27.444
752.32	31.408
752.63	27.660
752.94	26.639
753.26	37.200
753.57	24.390
753.88	35.156
754.19	25.357
754.51	29.514
754.82	29.242
755.13	28.679
755.44	32.331
755.75	28.102
756.07	27.305
756.38	29.562
756.69	26.510
757.00	23.653
757.31	26.706
757.63	26.316
757.94	26.542
758.25	24.020
758.56	22.963
758.87	25.000
759.18	26.970
759.50	25.705
759.81	25.857
760.12	25.937
760.43	28.653
760.74	25.815
761.05	26.554
761.36	28.075
761.67	28.693
761.99	25.776
762.30	27.778
762.61	28.626
762.92	35.547
763.23	31.513
763.54	35.600
763.85	30.078
764.16	31.923
764.47	28.137
764.78	25.088
765.10	24.367
765.41	30.973
765.72	29.940
766.03	26.646
766.34	28.667
766.65	32.340
766.96	26.496
767.27	35.533
767.58	35.417
767.89	41.053
768.20	38.506
768.51	30.964
768.82	37.615
769.13	30.488
769.44	28.340
769.75	33.476
770.06	27.523
770.37	28.507
770.68	33.333
770.99	29.778
771.30	28.689
771.61	28.700
771.92	33.607
772.23	34.874
772.54	37.436
772.85	38.743
773.16	37.234
773.47	38.043
773.78	42.132
774.09	35.119
774.39	30.994
774.70	33.333
775.01	36.957
775.32	40.523
775.63	44.737
775.94	36.691
776.25	49.606
776.56	43.284
776.87	40.164
777.18	51.563
777.48	54.962
777.79	43.939
778.10	45.185
778.41	45.536
778.72	40.876
779.03	38.255
779.34	40.268
779.65	31.081
779.95	39.264
780.26	47.712
780.57	46.207
780.88	53.906
781.19	40.602
781.50	40.541
781.80	42.138
782.11	35.028
782.42	36.076
782.73	39.264
783.04	48.649
783.34	46.479
783.65	50.685
783.96	39.552
784.27	39.860
784.57	35.252
784.88	44.444
785.19	42.063
785.50	43.396
785.81	50.746
786.11	52.459
786.42	38.760
786.73	46.903
787.04	59.434
787.34	43.750
787.65	47.000
787.96	44.144
788.26	41.322
788.57	50.847
788.88	44.628
789.19	43.750
789.49	56.061
789.80	45.802
790.11	60.000
790.41	57.426
790.72	50.602
791.03	54.348
791.33	59.302
791.64	50.515
791.95	57.426
792.25	64.444
792.56	57.143
792.87	71.795
793.17	63.291
793.48	66.667
793.79	48.276
794.09	69.318
794.40	48.739
794.70	50.000
795.01	42.963
795.32	48.921
795.62	44.882
795.93	56.897
796.23	52.212
796.54	45.882
796.85	78.378
797.15	67.606
797.46	71.212
797.76	67.470
798.07	68.354
798.37	56.923
798.68	57.576
798.99	49.296
799.29	74.026
799.60	55.682
799.90	65.753
800.21	74.627
800.51	89.655
800.82	82.456
801.12	62.295
801.43	90.909
801.73	60.811
802.04	87.302
802.34	67.901
802.65	71.875
802.95	88.136
803.26	84.375
803.56	62.857
803.87	55.385
804.17	80.882
804.48	100.000
804.78	75.862
805.09	86.765
805.39	76.923
805.70	76.786
806.00	85.246
806.30	72.727
806.61	64.634
806.91	58.228
807.22	69.737
807.52	65.672
807.83	81.690
808.13	70.312
808.43	70.000
808.74	64.474
809.04	78.261
809.35	67.164
809.65	63.158
809.95	91.935
810.26	76.271
810.56	77.778
810.86	93.182
811.17	92.857
811.47	96.667
811.77	81.481
812.08	85.455
812.38	102.000
812.69	116.667
812.99	111.364
813.29	100.000
813.59	104.762
813.90	106.122
814.20	90.909
814.50	72.308
814.81	86.765
815.11	89.796
815.41	77.049
815.72	116.667
816.02	100.000
816.32	97.619
816.62	87.500
816.93	102.439
817.23	119.048
817.53	118.182
817.84	139.394
818.14	110.870
818.44	128.889
818.74	141.176
819.04	130.000
819.35	125.714
819.65	123.529
819.95	146.429
820.25	215.000
820.56	117.949
820.86	104.545
821.16	106.977
821.46	97.436
821.76	106.000
822.07	120.000
822.37	90.000
822.67	157.576
822.97	98.039
823.27	146.429
823.57	129.730
823.88	152.500
824.18	133.333
824.48	114.286
824.78	156.000
825.08	141.667
825.38	127.027
825.69	109.756
825.99	158.333
826.29	120.690
826.59	110.526
826.89	144.737
827.19	158.824
827.49	148.387
827.79	100.000
828.09	90.909
828.39	125.532
828.70	89.796
829.00	107.407
829.30	141.935
829.60	115.000
829.90	253.333
830.20	160.714
830.50	139.130
830.80	200.000
831.10	170.000
831.40	156.667
831.70	134.783
832.00	203.846
832.30	151.852
832.60	218.750
832.90	183.333
833.20	307.143
833.50	141.935
833.80	131.034
834.10	156.250
834.40	173.077
834.70	205.556
835.00	200.000
835.30	122.857
835.60	215.385
835.90	158.621
836.20	221.429
836.50	155.172
836.80	152.000
837.10	180.556
837.40	223.810
837.70	270.588
838.00	200.000
838.30	176.190
838.60	233.333
838.90	173.077
839.19	190.000
839.49	321.429
839.79	225.000
840.09	175.000
840.39	219.048
840.69	221.739
840.99	244.444
841.29	330.000
841.59	316.667
841.88	237.500
842.18	175.862
842.48	214.286
842.78	130.000
843.08	200.000
843.38	134.375
843.68	583.333
843.97	169.231
844.27	155.172
844.57	257.143
844.87	287.500
845.17	181.481
845.47	1066.667
845.76	433.333
846.06	252.941
846.36	325.000
846.66	292.857
846.96	206.250
847.25	400.000
847.55	345.455
847.85	213.043
848.15	320.000
848.44	250.000
848.74	227.778
849.04	264.706
849.34	410.000
849.63	205.263
849.93	281.818
850.23	840.000
850.53	342.857
850.82	1550.000
851.12	-2900.000
851.42	3600.000
851.71	235.000
852.01	-833.333
852.31	208.333
852.61	1266.667
852.90	214.286
853.20	188.000
853.50	252.941
853.79	214.286
854.09	175.000
854.39	293.750
854.68	170.270
854.98	148.387
855.28	166.667
855.57	175.862
855.87	181.481
856.17	157.895
856.46	186.667
856.76	176.471
857.05	144.828
857.35	175.000
857.65	280.000
857.94	186.957
858.24	192.308
858.53	240.000
858.83	200.000
859.13	260.000
859.42	0.000
859.72	477.778
860.01	336.364
860.31	190.909
860.60	221.053
860.90	204.348
861.20	455.556
861.49	350.000
861.79	-3400.000
862.08	512.500
862.38	238.095
862.67	269.231
862.97	276.471
863.26	377.778
863.56	216.667
863.85	350.000
864.15	462.500
864.44	366.667
864.74	733.333
865.03	437.500
865.33	236.842
865.62	281.818
865.92	307.692
866.21	258.333
866.51	0.000
866.80	281.818
867.10	840.000
867.39	346.154
867.69	327.273
867.98	252.632
868.27	390.909
868.57	263.158
868.86	-3800.000
869.16	287.500
869.45	1800.000
869.75	-2800.000
870.04	333.333
870.33	500.000
870.63	800.000
870.92	2150.000
871.22	585.714
871.51	282.353
871.80	219.048
872.10	350.000
>>>>>End Processed Spectral Data<<<<<
