SpectraSuite Data File
++++++++++++++++++++++++++++++++++++
Date: Wed May 13 20:30:54 PDT 2015
User: schluterlab
Dark Spectrum Present: Yes
Reference Spectrum Present: Yes
Number of Sampled Component Spectra: 1
Spectrometers: USB2E3373
Integration Time (usec): 3000 (USB2E3373)
Spectra Averaged: 3 (USB2E3373)
Boxcar Smoothing: 0 (USB2E3373)
Correct for Electrical Dark: No (USB2E3373)
Strobe/Lamp Enabled: No (USB2E3373)
Correct for Detector Non-linearity: No (USB2E3373)
Correct for Stray Light: No (USB2E3373)
Number of Pixels in Processed Spectrum: 2048
>>>>>Begin Processed Spectral Data<<<<<
178.53	0.000
178.91	-1025.000
179.29	-1175.000
179.67	-172.222
180.04	-975.000
180.42	1950.000
180.80	880.000
181.18	-875.000
181.56	542.857
181.94	0.000
182.31	-442.857
182.69	1500.000
183.07	-387.500
183.45	-377.778
183.83	381.818
184.20	-220.000
184.58	2200.000
184.96	4800.000
185.34	-800.000
185.72	-437.500
186.09	-1450.000
186.47	2300.000
186.85	1650.000
187.23	4100.000
187.61	-1166.667
187.98	875.000
188.36	445.455
188.74	418.182
189.12	-680.000
189.49	530.000
189.87	-3700.000
190.25	-875.000
190.63	414.286
191.00	353.846
191.38	700.000
191.76	-1025.000
192.14	1100.000
192.51	562.500
192.89	850.000
193.27	462.500
193.65	-900.000
194.02	390.000
194.40	800.000
194.78	420.000
195.15	391.667
195.53	520.000
195.91	-1600.000
196.29	281.250
196.66	278.947
197.04	-240.000
197.42	0.000
197.79	500.000
198.17	-3600.000
198.55	557.143
198.92	512.500
199.30	480.000
199.68	0.000
200.05	244.444
200.43	700.000
200.81	3100.000
201.18	1066.667
201.56	-1233.333
201.94	544.444
202.31	555.556
202.69	341.667
203.07	470.000
203.44	0.000
203.82	800.000
204.19	571.429
204.57	378.571
204.95	487.500
205.32	1366.667
205.70	381.818
206.08	264.286
206.45	1650.000
206.83	318.750
207.20	750.000
207.58	680.000
207.96	244.444
208.33	587.500
208.71	-783.333
209.08	600.000
209.46	466.667
209.84	381.818
210.21	-1000.000
210.59	1225.000
210.96	-312.500
211.34	1800.000
211.71	490.000
212.09	616.667
212.46	0.000
212.84	1433.333
213.22	1350.000
213.59	-2500.000
213.97	716.667
214.34	671.429
214.72	518.182
215.09	820.000
215.47	-2000.000
215.84	-1900.000
216.22	1466.667
216.59	328.571
216.97	1225.000
217.34	372.727
217.72	-666.667
218.09	0.000
218.47	-3600.000
218.84	444.444
219.22	585.714
219.59	1233.333
219.97	-500.000
220.34	840.000
220.72	-1400.000
221.09	335.714
221.47	1075.000
221.84	-933.333
222.22	0.000
222.59	1100.000
222.97	-2350.000
223.34	860.000
223.72	353.846
224.09	780.000
224.46	1450.000
224.84	-4200.000
225.21	-880.000
225.59	-4000.000
225.96	500.000
226.34	230.000
226.71	2150.000
227.08	562.500
227.46	430.000
227.83	-800.000
228.21	-1750.000
228.58	511.111
228.95	-1550.000
229.33	-2000.000
229.70	1266.667
230.08	528.571
230.45	-660.000
230.82	333.333
231.20	516.667
231.57	514.286
231.95	391.667
232.32	236.364
232.69	290.909
233.07	342.857
233.44	176.923
233.81	-1300.000
234.19	226.316
234.56	325.000
234.93	316.667
235.31	327.273
235.68	200.000
236.05	242.857
236.43	145.455
236.80	231.579
237.17	3100.000
237.55	104.762
237.92	167.857
238.29	138.095
238.67	132.258
239.04	165.517
239.41	108.333
239.79	82.609
240.16	119.048
240.53	88.636
240.91	70.588
241.28	70.000
241.65	66.000
242.02	78.261
242.40	62.903
242.77	75.000
243.14	47.312
243.51	58.427
243.89	50.588
244.26	40.000
244.63	43.011
245.00	46.809
245.38	34.653
245.75	34.579
246.12	33.945
246.49	45.255
246.87	52.000
247.24	41.538
247.61	34.286
247.98	30.065
248.36	25.000
248.73	29.299
249.10	31.847
249.47	26.554
249.84	32.620
250.22	29.412
250.59	27.811
250.96	31.818
251.33	32.701
251.70	26.733
252.08	27.619
252.45	24.215
252.82	27.826
253.19	23.404
253.56	23.922
253.94	25.311
254.31	21.484
254.68	23.462
255.05	19.188
255.42	23.984
255.79	22.059
256.16	23.827
256.54	20.848
256.91	19.929
257.28	17.266
257.65	20.132
258.02	22.050
258.39	19.874
258.76	21.739
259.14	19.048
259.51	17.933
259.88	20.186
260.25	18.429
260.62	21.098
260.99	18.944
261.36	20.721
261.73	18.625
262.10	16.860
262.47	17.746
262.85	17.827
263.22	14.530
263.59	20.228
263.96	18.132
264.33	15.144
264.70	17.632
265.07	18.926
265.44	17.929
265.81	16.302
266.18	18.342
266.55	15.854
266.92	17.690
267.29	19.213
267.66	18.119
268.03	17.955
268.40	18.925
268.77	11.695
269.14	17.117
269.51	18.059
269.88	19.347
270.25	14.673
270.62	17.079
270.99	17.634
271.36	16.953
271.73	14.953
272.10	16.304
272.47	17.419
272.84	17.965
273.21	18.868
273.58	13.100
273.95	13.208
274.32	14.876
274.69	16.274
275.06	14.764
275.43	17.447
275.80	15.631
276.17	14.460
276.54	14.761
276.91	14.427
277.28	14.453
277.65	16.441
278.02	14.907
278.39	16.602
278.76	15.636
279.13	14.906
279.50	15.270
279.87	15.139
280.23	14.371
280.60	12.959
280.97	13.678
281.34	17.522
281.71	16.364
282.08	14.587
282.45	14.182
282.82	13.499
283.19	12.834
283.56	15.439
283.92	14.552
284.29	14.991
284.66	13.975
285.03	11.031
285.40	14.789
285.77	14.646
286.14	13.817
286.51	11.833
286.87	13.333
287.24	15.472
287.61	14.607
287.98	13.799
288.35	11.410
288.72	14.798
289.08	12.363
289.45	12.191
289.82	13.659
290.19	10.832
290.56	12.404
290.93	11.934
291.29	11.196
291.66	13.422
292.03	13.663
292.40	14.831
292.77	11.982
293.13	12.836
293.50	11.224
293.87	11.704
294.24	10.074
294.60	11.208
294.97	12.355
295.34	13.822
295.71	11.932
296.08	10.684
296.44	11.554
296.81	11.229
297.18	11.518
297.55	9.499
297.91	9.894
298.28	12.316
298.65	11.488
299.02	10.804
299.38	9.960
299.75	9.434
300.12	9.451
300.48	11.000
300.85	9.494
301.22	9.554
301.59	10.732
301.95	10.705
302.32	9.499
302.69	10.514
303.05	10.182
303.42	11.235
303.79	10.079
304.15	10.373
304.52	9.270
304.89	9.292
305.25	10.441
305.62	10.419
305.99	10.862
306.35	8.949
306.72	10.426
307.09	9.545
307.45	10.923
307.82	9.710
308.19	9.713
308.55	9.924
308.92	9.452
309.29	9.504
309.65	9.968
310.02	11.099
310.38	10.753
310.75	9.609
311.12	11.259
311.48	10.136
311.85	11.845
312.22	9.990
312.58	9.356
312.95	9.926
313.31	9.612
313.68	10.187
314.05	12.525
314.41	12.060
314.78	11.279
315.14	9.930
315.51	12.152
315.87	12.178
316.24	11.122
316.61	10.916
316.97	11.057
317.34	11.155
317.70	12.524
318.07	13.186
318.43	12.720
318.80	13.121
319.16	12.241
319.53	13.133
319.89	14.095
320.26	14.000
320.62	13.095
320.99	14.242
321.35	14.545
321.72	15.400
322.08	15.499
322.45	16.318
322.81	16.473
323.18	16.378
323.54	16.141
323.91	17.642
324.27	17.495
324.64	17.801
325.00	18.485
325.37	19.381
325.73	20.108
326.10	19.859
326.46	18.728
326.83	21.743
327.19	20.581
327.56	20.209
327.92	20.997
328.29	22.360
328.65	22.652
329.01	23.014
329.38	23.219
329.74	23.361
330.11	23.940
330.47	24.059
330.84	25.368
331.20	24.317
331.56	25.780
331.93	23.889
332.29	25.288
332.66	26.018
333.02	26.874
333.38	27.010
333.75	28.164
334.11	28.470
334.48	26.708
334.84	28.401
335.20	28.909
335.57	27.924
335.93	27.143
336.29	27.930
336.66	29.125
337.02	29.321
337.38	29.537
337.75	28.342
338.11	28.738
338.47	28.821
338.84	30.247
339.20	28.440
339.56	30.474
339.93	28.909
340.29	30.163
340.65	29.412
341.02	30.017
341.38	29.537
341.74	29.386
342.11	29.258
342.47	30.485
342.83	29.623
343.20	29.784
343.56	28.728
343.92	29.474
344.28	29.847
344.65	29.665
345.01	29.209
345.37	28.045
345.73	29.949
346.10	29.668
346.46	28.814
346.82	30.231
347.19	28.404
347.55	28.736
347.91	30.178
348.27	28.677
348.63	28.595
349.00	27.670
349.36	28.407
349.72	29.751
350.08	29.254
350.45	29.373
350.81	28.188
351.17	28.525
351.53	28.174
351.89	28.630
352.26	28.571
352.62	28.869
352.98	29.011
353.34	29.088
353.70	27.578
354.07	27.742
354.43	27.778
354.79	28.640
355.15	27.614
355.51	28.297
355.87	29.306
356.24	28.257
356.60	27.025
356.96	28.319
357.32	27.964
357.68	27.559
358.04	27.316
358.40	27.633
358.77	27.543
359.13	25.809
359.49	27.216
359.85	26.032
360.21	26.715
360.57	28.171
360.93	27.769
361.29	27.286
361.66	27.477
362.02	28.209
362.38	27.376
362.74	27.381
363.10	26.943
363.46	27.219
363.82	27.438
364.18	26.652
364.54	27.712
364.90	27.408
365.26	27.353
365.62	27.757
365.98	26.954
366.35	25.788
366.71	26.103
367.07	26.730
367.43	26.052
367.79	27.052
368.15	26.940
368.51	26.381
368.87	26.124
369.23	26.701
369.59	27.516
369.95	25.809
370.31	26.211
370.67	27.681
371.03	27.865
371.39	26.458
371.75	27.059
372.11	26.102
372.47	27.346
372.83	27.089
373.19	26.156
373.55	26.534
373.91	26.951
374.27	25.430
374.63	25.600
374.99	26.483
375.35	24.773
375.71	25.840
376.07	26.337
376.42	24.759
376.78	26.640
377.14	25.305
377.50	25.894
377.86	25.864
378.22	26.106
378.58	24.875
378.94	24.764
379.30	26.081
379.66	26.142
380.02	25.921
380.38	25.987
380.74	25.330
381.09	25.733
381.45	25.691
381.81	26.044
382.17	25.478
382.53	25.472
382.89	26.049
383.25	25.453
383.61	26.394
383.97	25.266
384.32	25.078
384.68	24.783
385.04	24.892
385.40	25.077
385.76	26.044
386.12	25.648
386.48	25.110
386.83	25.337
387.19	25.727
387.55	24.985
387.91	24.667
388.27	24.464
388.62	25.384
388.98	24.079
389.34	25.156
389.70	24.954
390.06	25.919
390.42	25.227
390.77	24.682
391.13	24.442
391.49	24.937
391.85	25.016
392.20	23.975
392.56	23.737
392.92	24.720
393.28	23.728
393.64	24.820
393.99	24.007
394.35	25.310
394.71	24.718
395.07	24.548
395.42	25.216
395.78	24.109
396.14	24.519
396.50	25.627
396.85	25.111
397.21	23.921
397.57	24.861
397.92	24.099
398.28	23.038
398.64	23.895
399.00	24.622
399.35	24.253
399.71	24.769
400.07	24.128
400.42	23.804
400.78	24.849
401.14	24.329
401.49	24.955
401.85	24.077
402.21	23.353
402.57	23.874
402.92	24.338
403.28	25.609
403.63	24.443
403.99	24.331
404.35	23.879
404.70	24.041
405.06	23.762
405.42	23.706
405.77	22.743
406.13	23.871
406.49	23.950
406.84	23.804
407.20	22.872
407.55	23.484
407.91	24.333
408.27	23.867
408.62	23.359
408.98	23.529
409.34	23.739
409.69	24.000
410.05	24.164
410.40	23.731
410.76	24.432
411.11	23.160
411.47	23.834
411.83	23.641
412.18	22.140
412.54	23.848
412.89	23.434
413.25	23.672
413.60	23.471
413.96	22.708
414.31	22.904
414.67	24.208
415.03	23.444
415.38	23.969
415.74	23.087
416.09	23.579
416.45	23.829
416.80	24.256
417.16	25.000
417.51	24.486
417.87	22.929
418.22	23.533
418.58	24.209
418.93	23.526
419.29	24.125
419.64	25.000
420.00	25.183
420.35	23.710
420.71	23.610
421.06	24.224
421.42	23.626
421.77	23.262
422.12	22.740
422.48	22.936
422.83	24.869
423.19	23.425
423.54	23.738
423.90	24.464
424.25	24.288
424.61	23.214
424.96	24.548
425.31	23.976
425.67	22.697
426.02	23.886
426.38	25.458
426.73	23.288
427.09	23.283
427.44	23.519
427.79	23.577
428.15	23.988
428.50	23.815
428.85	24.136
429.21	23.744
429.56	23.173
429.92	24.308
430.27	23.088
430.62	23.093
430.98	23.664
431.33	24.381
431.68	23.927
432.04	24.068
432.39	24.043
432.74	25.194
433.10	23.543
433.45	23.790
433.80	24.169
434.16	24.199
434.51	23.947
434.86	24.515
435.22	24.792
435.57	24.985
435.92	23.874
436.28	24.792
436.63	25.166
436.98	24.957
437.34	25.343
437.69	25.788
438.04	24.958
438.39	24.776
438.75	24.637
439.10	25.084
439.45	24.675
439.81	25.680
440.16	25.127
440.51	25.308
440.86	25.304
441.22	25.640
441.57	25.849
441.92	25.589
442.27	25.673
442.63	24.961
442.98	26.423
443.33	25.272
443.68	26.278
444.03	25.622
444.39	25.511
444.74	26.136
445.09	27.008
445.44	26.517
445.79	26.522
446.15	25.940
446.50	26.764
446.85	26.259
447.20	27.282
447.55	26.968
447.91	26.862
448.26	27.379
448.61	26.851
448.96	27.298
449.31	27.840
449.66	27.800
450.02	27.075
450.37	27.664
450.72	27.862
451.07	27.971
451.42	26.444
451.77	28.362
452.12	27.309
452.47	28.296
452.83	27.914
453.18	27.995
453.53	27.767
453.88	28.825
454.23	28.512
454.58	27.983
454.93	29.180
455.28	27.431
455.63	28.459
455.98	29.881
456.34	29.523
456.69	29.743
457.04	28.669
457.39	29.164
457.74	29.019
458.09	29.155
458.44	29.932
458.79	29.284
459.14	29.571
459.49	28.838
459.84	28.476
460.19	29.287
460.54	29.630
460.89	29.292
461.24	29.994
461.59	31.261
461.94	29.162
462.29	29.970
462.64	28.973
462.99	29.148
463.34	31.133
463.69	29.268
464.04	30.319
464.39	30.261
464.74	29.649
465.09	30.519
465.44	28.864
465.79	29.642
466.14	29.776
466.49	29.366
466.84	30.064
467.19	30.718
467.54	30.687
467.89	30.192
468.24	29.901
468.59	31.013
468.94	30.849
469.29	31.555
469.64	32.195
469.99	31.461
470.34	30.845
470.68	31.034
471.03	31.224
471.38	32.036
471.73	31.912
472.08	32.303
472.43	30.716
472.78	31.402
473.13	32.285
473.48	31.211
473.83	32.439
474.17	30.492
474.52	30.583
474.87	30.881
475.22	32.501
475.57	30.951
475.92	31.174
476.27	30.609
476.61	31.274
476.96	32.106
477.31	30.717
477.66	31.565
478.01	31.312
478.36	31.888
478.70	31.308
479.05	32.481
479.40	32.037
479.75	31.622
480.10	31.412
480.45	31.652
480.79	31.916
481.14	31.605
481.49	32.178
481.84	32.053
482.19	31.895
482.53	31.743
482.88	32.015
483.23	31.402
483.58	32.029
483.92	32.193
484.27	31.503
484.62	31.509
484.97	31.652
485.31	31.849
485.66	30.334
486.01	29.993
486.36	30.132
486.70	31.149
487.05	31.191
487.40	31.282
487.75	31.024
488.09	31.908
488.44	31.388
488.79	32.839
489.13	32.238
489.48	32.178
489.83	32.369
490.17	33.626
490.52	32.462
490.87	32.791
491.22	32.651
491.56	32.027
491.91	33.039
492.26	32.430
492.60	32.304
492.95	32.881
493.30	32.617
493.64	33.364
493.99	32.869
494.34	33.673
494.68	33.333
495.03	33.412
495.37	33.504
495.72	33.333
496.07	33.921
496.41	32.655
496.76	33.509
497.11	33.093
497.45	33.954
497.80	33.973
498.14	32.802
498.49	34.927
498.84	34.612
499.18	34.048
499.53	33.713
499.87	33.877
500.22	33.961
500.56	34.466
500.91	33.606
501.26	33.665
501.60	34.551
501.95	34.555
502.29	35.380
502.64	35.009
502.98	34.596
503.33	33.912
503.67	34.153
504.02	34.238
504.36	33.318
504.71	34.685
505.06	34.217
505.40	34.225
505.75	34.812
506.09	34.742
506.44	34.780
506.78	34.730
507.13	35.487
507.47	35.152
507.82	34.802
508.16	35.056
508.51	35.616
508.85	35.253
509.19	35.714
509.54	34.541
509.88	34.776
510.23	34.910
510.57	35.707
510.92	34.852
511.26	35.560
511.61	35.685
511.95	34.708
512.30	35.737
512.64	35.411
512.98	35.477
513.33	35.814
513.67	35.432
514.02	34.903
514.36	36.974
514.70	36.303
515.05	35.248
515.39	36.343
515.74	36.543
516.08	36.557
516.42	36.293
516.77	36.678
517.11	34.850
517.46	36.287
517.80	36.527
518.14	35.495
518.49	37.048
518.83	36.477
519.17	36.028
519.52	36.786
519.86	35.824
520.20	37.514
520.55	38.600
520.89	37.774
521.23	38.118
521.58	36.855
521.92	38.885
522.26	37.218
522.61	38.442
522.95	37.815
523.29	37.492
523.64	36.707
523.98	38.201
524.32	36.912
524.66	36.981
525.01	37.684
525.35	37.237
525.69	36.207
526.04	37.632
526.38	37.340
526.72	37.239
527.06	39.234
527.41	36.324
527.75	37.299
528.09	37.636
528.43	38.368
528.78	38.537
529.12	37.152
529.46	38.396
529.80	38.119
530.15	38.131
530.49	37.785
530.83	38.291
531.17	38.446
531.51	39.300
531.86	39.161
532.20	38.787
532.54	38.693
532.88	38.190
533.22	37.976
533.57	38.642
533.91	37.086
534.25	38.153
534.59	38.194
534.93	38.370
535.27	37.658
535.62	38.523
535.96	38.858
536.30	38.652
536.64	38.699
536.98	38.222
537.32	38.973
537.66	39.333
538.01	39.302
538.35	38.914
538.69	39.056
539.03	37.882
539.37	38.530
539.71	38.043
540.05	39.281
540.39	39.734
540.73	38.810
541.07	39.325
541.42	39.987
541.76	39.613
542.10	39.004
542.44	39.801
542.78	40.250
543.12	38.836
543.46	39.672
543.80	39.167
544.14	39.345
544.48	40.127
544.82	40.026
545.16	40.143
545.50	39.846
545.84	39.046
546.18	39.865
546.52	40.537
546.86	39.794
547.20	40.391
547.54	39.546
547.88	39.605
548.22	39.788
548.56	39.371
548.90	38.348
549.24	39.596
549.58	40.450
549.92	39.148
550.26	40.057
550.60	40.249
550.94	39.648
551.28	39.283
551.62	39.684
551.96	38.877
552.30	40.614
552.64	39.824
552.98	41.763
553.32	39.582
553.66	41.104
554.00	40.014
554.34	38.716
554.68	40.701
555.02	39.915
555.36	39.875
555.69	39.648
556.03	40.511
556.37	40.518
556.71	39.700
557.05	40.266
557.39	39.958
557.73	41.426
558.07	41.334
558.41	40.666
558.75	40.265
559.08	40.716
559.42	41.345
559.76	40.735
560.10	39.971
560.44	40.391
560.78	39.854
561.12	40.369
561.45	40.548
561.79	39.684
562.13	40.376
562.47	40.437
562.81	41.702
563.15	40.535
563.48	40.451
563.82	41.161
564.16	39.438
564.50	40.104
564.84	40.076
565.17	40.798
565.51	41.086
565.85	39.594
566.19	39.324
566.52	40.595
566.86	40.627
567.20	41.097
567.54	40.925
567.88	40.359
568.21	41.217
568.55	39.889
568.89	39.494
569.23	39.750
569.56	38.421
569.90	39.094
570.24	39.003
570.57	38.966
570.91	37.912
571.25	38.666
571.59	38.498
571.92	39.026
572.26	38.821
572.60	38.378
572.93	38.651
573.27	38.598
573.61	38.135
573.95	39.044
574.28	37.814
574.62	38.581
574.96	37.778
575.29	37.852
575.63	38.338
575.97	38.141
576.30	38.449
576.64	38.110
576.98	38.576
577.31	38.771
577.65	38.893
577.98	37.977
578.32	37.947
578.66	38.805
578.99	38.325
579.33	38.247
579.67	39.066
580.00	37.977
580.34	39.179
580.67	38.312
581.01	38.318
581.35	37.963
581.68	38.497
582.02	38.517
582.35	38.535
582.69	38.943
583.02	39.109
583.36	39.175
583.70	40.335
584.03	39.107
584.37	39.736
584.70	38.793
585.04	38.796
585.37	38.327
585.71	38.816
586.04	38.826
586.38	39.472
586.72	40.182
587.05	39.228
587.39	39.288
587.72	39.397
588.06	39.861
588.39	39.726
588.73	39.630
589.06	40.386
589.40	40.875
589.73	40.056
590.07	40.320
590.40	39.496
590.73	40.867
591.07	41.311
591.40	41.291
591.74	41.602
592.07	41.623
592.41	41.133
592.74	40.637
593.08	40.306
593.41	40.525
593.75	39.756
594.08	40.597
594.41	40.474
594.75	40.850
595.08	40.336
595.42	40.665
595.75	41.204
596.09	42.058
596.42	42.083
596.75	41.368
597.09	41.948
597.42	39.840
597.75	41.613
598.09	41.522
598.42	41.065
598.76	40.900
599.09	40.593
599.42	39.847
599.76	40.593
600.09	40.000
600.42	40.175
600.76	40.107
601.09	39.271
601.42	40.830
601.76	40.493
602.09	41.858
602.42	41.521
602.76	41.798
603.09	41.109
603.42	41.429
603.76	41.159
604.09	41.024
604.42	41.867
604.76	41.965
605.09	41.547
605.42	40.658
605.75	41.639
606.09	41.521
606.42	41.479
606.75	41.435
607.09	42.026
607.42	41.463
607.75	40.886
608.08	41.294
608.42	41.954
608.75	41.885
609.08	41.304
609.41	42.218
609.75	42.068
610.08	41.894
610.41	41.341
610.74	42.763
611.07	42.688
611.41	42.689
611.74	43.137
612.07	43.427
612.40	43.179
612.73	42.684
613.07	43.211
613.40	42.970
613.73	42.318
614.06	43.333
614.39	42.475
614.72	42.526
615.06	42.437
615.39	43.047
615.72	41.616
616.05	42.424
616.38	43.135
616.71	44.418
617.05	44.052
617.38	43.957
617.71	43.243
618.04	43.690
618.37	43.820
618.70	44.244
619.03	43.684
619.36	44.128
619.69	44.930
620.03	44.849
620.36	44.652
620.69	44.384
621.02	44.617
621.35	44.871
621.68	44.315
622.01	45.124
622.34	44.478
622.67	46.160
623.00	44.021
623.33	43.817
623.66	44.460
623.99	45.140
624.32	43.723
624.65	44.209
624.99	44.051
625.32	44.605
625.65	44.853
625.98	45.734
626.31	44.635
626.64	45.551
626.97	45.303
627.30	44.057
627.63	46.267
627.96	46.257
628.29	44.619
628.62	46.844
628.95	48.113
629.28	45.803
629.61	47.846
629.94	47.905
630.26	45.949
630.59	47.760
630.92	46.456
631.25	44.916
631.58	46.947
631.91	46.045
632.24	46.730
632.57	46.380
632.90	48.904
633.23	45.973
633.56	48.249
633.89	47.792
634.22	47.900
634.55	48.876
634.88	45.988
635.20	49.104
635.53	48.554
635.86	49.381
636.19	48.118
636.52	46.597
636.85	47.995
637.18	47.235
637.51	48.818
637.83	44.883
638.16	47.315
638.49	48.615
638.82	50.442
639.15	48.250
639.48	48.628
639.81	50.804
640.13	48.177
640.46	48.993
640.79	47.556
641.12	48.143
641.45	47.346
641.77	50.663
642.10	51.901
642.43	49.249
642.76	50.155
643.09	49.540
643.41	48.862
643.74	51.543
644.07	49.695
644.40	52.301
644.73	49.921
645.05	48.970
645.38	47.867
645.71	50.886
646.04	51.661
646.36	52.254
646.69	52.174
647.02	52.211
647.35	52.921
647.67	51.681
648.00	49.431
648.33	48.515
648.66	48.182
648.98	51.274
649.31	49.477
649.64	48.281
649.96	48.882
650.29	51.501
650.62	51.456
650.94	50.405
651.27	50.507
651.60	51.414
651.92	49.361
652.25	51.629
652.58	50.623
652.90	50.079
653.23	45.917
653.56	49.921
653.88	49.445
654.21	50.395
654.54	51.485
654.86	51.558
655.19	46.622
655.52	37.717
655.84	35.951
656.17	45.495
656.49	61.375
656.82	62.477
657.15	47.422
657.47	35.633
657.80	26.906
658.13	27.840
658.45	41.299
658.78	42.587
659.10	41.913
659.43	43.907
659.75	44.038
660.08	45.886
660.41	48.231
660.73	47.522
661.06	48.726
661.38	50.364
661.71	52.115
662.03	53.452
662.36	49.702
662.68	50.602
663.01	53.737
663.33	52.866
663.66	53.361
663.98	52.268
664.31	49.580
664.63	49.798
664.96	52.716
665.28	54.303
665.61	46.199
665.93	52.716
666.26	49.899
666.58	52.301
666.91	55.180
667.23	51.011
667.56	53.132
667.88	51.923
668.21	50.746
668.53	47.939
668.86	52.165
669.18	51.386
669.50	54.565
669.83	50.545
670.15	53.111
670.48	50.545
670.80	52.802
671.13	51.168
671.45	51.489
671.77	53.971
672.10	50.462
672.42	49.293
672.75	48.922
673.07	48.944
673.39	48.644
673.72	52.930
674.04	51.176
674.37	49.709
674.69	48.466
675.01	50.209
675.34	53.388
675.66	53.895
675.98	51.731
676.31	51.261
676.63	50.955
676.95	50.314
677.28	53.037
677.60	50.330
677.92	53.165
678.25	49.281
678.57	52.390
678.89	52.705
679.22	51.081
679.54	49.809
679.86	48.991
680.18	49.911
680.51	49.113
680.83	46.263
681.15	50.189
681.48	51.229
681.80	50.097
682.12	49.042
682.44	49.710
682.77	52.342
683.09	51.717
683.41	54.102
683.73	50.993
684.06	51.446
684.38	50.685
684.70	51.550
685.02	49.531
685.34	47.802
685.67	47.203
685.99	46.735
686.31	47.270
686.63	46.290
686.96	49.107
687.28	47.653
687.60	47.464
687.92	48.629
688.24	51.901
688.56	50.000
688.89	52.697
689.21	50.873
689.53	47.808
689.85	47.894
690.17	48.240
690.49	49.894
690.82	51.168
691.14	48.437
691.46	50.211
691.78	48.394
692.10	51.446
692.42	50.100
692.74	48.548
693.06	50.000
693.39	50.924
693.71	49.563
694.03	50.947
694.35	47.619
694.67	48.513
694.99	52.439
695.31	51.225
695.63	52.153
695.95	48.655
696.27	51.269
696.59	51.813
696.91	52.332
697.23	47.183
697.56	47.548
697.88	44.990
698.20	48.542
698.52	48.817
698.84	46.993
699.16	49.309
699.48	49.169
699.80	50.000
700.12	57.403
700.44	49.867
700.76	52.210
701.08	50.287
701.40	52.514
701.72	53.936
702.04	56.818
702.36	50.708
702.68	54.391
703.00	51.247
703.32	52.394
703.64	50.938
703.96	52.368
704.28	49.419
704.60	56.305
704.91	54.896
705.23	53.372
705.55	56.478
705.87	57.475
706.19	57.244
706.51	52.336
706.83	55.758
707.15	51.261
707.47	48.990
707.79	48.157
708.11	50.685
708.43	49.286
708.74	48.980
709.06	52.987
709.38	48.819
709.70	54.651
710.02	53.116
710.34	52.424
710.66	51.343
710.98	49.148
711.29	50.291
711.61	52.802
711.93	52.885
712.25	56.913
712.57	58.088
712.89	57.093
713.20	49.848
713.52	56.250
713.84	51.582
714.16	48.171
714.48	48.276
714.80	56.535
715.11	50.432
715.43	48.961
715.75	51.884
716.07	51.118
716.39	49.843
716.70	54.153
717.02	49.640
717.34	54.770
717.66	62.313
717.97	59.363
718.29	56.296
718.61	58.029
718.93	56.618
719.24	54.325
719.56	50.508
719.88	54.576
720.20	53.041
720.51	52.613
720.83	56.134
721.15	52.985
721.46	52.482
721.78	55.556
722.10	56.981
722.42	56.391
722.73	48.689
723.05	52.869
723.37	55.870
723.68	55.985
724.00	54.065
724.32	56.855
724.63	48.374
724.95	55.230
725.27	59.919
725.58	58.203
725.90	53.650
726.22	51.698
726.53	50.000
726.85	56.655
727.16	52.669
727.48	51.418
727.80	52.652
728.11	51.087
728.43	50.769
728.74	57.706
729.06	53.650
729.38	57.353
729.69	50.890
730.01	51.195
730.32	51.389
730.64	54.849
730.96	49.505
731.27	51.656
731.59	50.459
731.90	50.146
732.22	51.242
732.53	48.607
732.85	52.885
733.16	48.232
733.48	52.159
733.80	52.273
734.11	47.134
734.43	53.550
734.74	46.000
735.06	47.564
735.37	53.179
735.69	49.682
736.00	54.248
736.32	50.779
736.63	47.923
736.95	50.479
737.26	46.259
737.58	47.419
737.89	51.171
738.21	54.608
738.52	51.786
738.83	51.698
739.15	49.615
739.46	53.650
739.78	51.042
740.09	50.462
740.41	51.613
740.72	48.780
741.04	52.593
741.35	55.417
741.66	59.111
741.98	52.358
742.29	60.287
742.61	54.310
742.92	55.204
743.23	56.410
743.55	57.600
743.86	54.386
744.18	49.558
744.49	58.373
744.80	53.991
745.12	54.545
745.43	51.101
745.74	62.162
746.06	58.257
746.37	55.605
746.68	57.466
747.00	57.407
747.31	58.095
747.62	51.327
747.94	55.947
748.25	52.766
748.56	56.388
748.88	56.436
749.19	60.000
749.50	53.953
749.82	53.659
750.13	50.204
750.44	54.015
750.75	49.825
751.07	51.125
751.38	52.962
751.69	53.069
752.01	53.383
752.32	48.014
752.63	51.773
752.94	52.049
753.26	55.600
753.57	47.561
753.88	61.719
754.19	49.643
754.51	50.000
754.82	48.014
755.13	48.679
755.44	47.368
755.75	49.270
756.07	52.128
756.38	46.350
756.69	47.651
757.00	46.108
757.31	44.807
757.63	42.398
757.94	45.845
758.25	43.873
758.56	42.963
758.87	45.161
759.18	44.545
759.50	44.828
759.81	47.040
760.12	49.062
760.43	46.418
760.74	43.750
761.05	47.175
761.36	42.513
761.67	48.864
761.99	45.031
762.30	50.347
762.61	49.237
762.92	51.953
763.23	54.202
763.54	54.400
763.85	53.125
764.16	51.154
764.47	55.513
764.78	49.117
765.10	41.772
765.41	43.953
765.72	46.108
766.03	48.589
766.34	47.333
766.65	54.043
766.96	48.718
767.27	60.914
767.58	62.500
767.89	52.632
768.20	62.069
768.51	55.330
768.82	50.917
769.13	51.220
769.44	51.012
769.75	51.931
770.06	43.578
770.37	52.941
770.68	58.333
770.99	50.222
771.30	49.180
771.61	54.709
771.92	49.590
772.23	53.782
772.54	52.308
772.85	58.639
773.16	56.383
773.47	56.522
773.78	54.315
774.09	58.333
774.39	54.971
774.70	58.642
775.01	57.246
775.32	62.092
775.63	51.974
775.94	68.345
776.25	68.504
776.56	70.149
776.87	61.475
777.18	71.875
777.48	70.992
777.79	58.333
778.10	62.963
778.41	71.429
778.72	54.015
779.03	57.718
779.34	63.758
779.65	50.000
779.95	61.963
780.26	67.320
780.57	67.586
780.88	64.844
781.19	65.414
781.50	67.568
781.80	59.119
782.11	56.497
782.42	54.430
782.73	45.399
783.04	58.108
783.34	65.493
783.65	73.973
783.96	56.716
784.27	55.944
784.57	55.396
784.88	66.667
785.19	65.873
785.50	66.981
785.81	64.925
786.11	68.033
786.42	75.194
786.73	54.867
787.04	85.849
787.34	67.857
787.65	77.000
787.96	67.568
788.26	70.248
788.57	67.797
788.88	67.769
789.19	59.028
789.49	73.485
789.80	64.885
790.11	85.714
790.41	73.267
790.72	66.265
791.03	91.304
791.33	79.070
791.64	69.072
791.95	66.337
792.25	87.778
792.56	80.519
792.87	76.923
793.17	98.734
793.48	82.759
793.79	80.460
794.09	86.364
794.40	68.908
794.70	60.294
795.01	62.963
795.32	61.151
795.62	55.118
795.93	69.828
796.23	65.487
796.54	78.824
796.85	67.568
797.15	92.958
797.46	80.303
797.76	75.904
798.07	89.873
798.37	93.846
798.68	86.364
798.99	66.197
799.29	81.818
799.60	60.227
799.90	93.151
800.21	77.612
800.51	106.897
800.82	94.737
801.12	83.607
801.43	106.061
801.73	78.378
802.04	95.238
802.34	86.420
802.65	100.000
802.95	88.136
803.26	100.000
803.56	84.286
803.87	89.231
804.17	98.529
804.48	103.704
804.78	103.448
805.09	85.294
805.39	103.846
805.70	98.214
806.00	116.393
806.30	93.939
806.61	76.829
806.91	84.810
807.22	90.789
807.52	86.567
807.83	92.958
808.13	95.312
808.43	81.667
808.74	81.579
809.04	84.058
809.35	95.522
809.65	76.316
809.95	119.355
810.26	94.915
810.56	109.524
810.86	115.909
811.17	126.190
811.47	118.333
811.77	85.185
812.08	116.364
812.38	126.000
812.69	130.556
812.99	129.545
813.29	120.408
813.59	97.619
813.90	116.327
814.20	94.545
814.50	87.692
814.81	98.529
815.11	95.918
815.41	96.721
815.72	128.571
816.02	105.455
816.32	121.429
816.62	117.500
816.93	112.195
817.23	133.333
817.53	122.727
817.84	196.970
818.14	128.261
818.44	106.667
818.74	138.235
819.04	125.000
819.35	137.143
819.65	176.471
819.95	189.286
820.25	190.000
820.56	164.103
820.86	127.273
821.16	144.186
821.46	117.949
821.76	130.000
822.07	148.571
822.37	145.000
822.67	184.848
822.97	92.157
823.27	157.143
823.57	135.135
823.88	135.000
824.18	153.333
824.48	138.095
824.78	152.000
825.08	200.000
825.38	127.027
825.69	109.756
825.99	166.667
826.29	131.034
826.59	118.421
826.89	139.474
827.19	158.824
827.49	167.742
827.79	122.727
828.09	125.000
828.39	117.021
828.70	102.041
829.00	166.667
829.30	132.258
829.60	115.000
829.90	233.333
830.20	153.571
830.50	152.174
830.80	191.304
831.10	156.667
831.40	190.000
831.70	195.652
832.00	207.692
832.30	174.074
832.60	250.000
832.90	206.667
833.20	350.000
833.50	170.968
833.80	151.724
834.10	200.000
834.40	211.538
834.70	250.000
835.00	285.714
835.30	145.714
835.60	284.615
835.90	175.862
836.20	350.000
836.50	158.621
836.80	164.000
837.10	141.667
837.40	180.952
837.70	252.941
838.00	185.185
838.30	214.286
838.60	290.476
838.90	173.077
839.19	210.000
839.49	314.286
839.79	215.000
840.09	225.000
840.39	200.000
840.69	239.130
840.99	255.556
841.29	340.000
841.59	308.333
841.88	287.500
842.18	131.034
842.48	195.238
842.78	153.333
843.08	226.087
843.38	159.375
843.68	800.000
843.97	226.923
844.27	165.517
844.57	242.857
844.87	268.750
845.17	174.074
845.47	1133.333
845.76	333.333
846.06	288.235
846.36	337.500
846.66	357.143
846.96	243.750
847.25	309.091
847.55	290.909
847.85	204.348
848.15	420.000
848.44	350.000
848.74	227.778
849.04	276.471
849.34	440.000
849.63	157.895
849.93	263.636
850.23	820.000
850.53	342.857
850.82	1600.000
851.12	-3700.000
851.42	3600.000
851.71	240.000
852.01	-600.000
852.31	162.500
852.61	1166.667
852.90	176.190
853.20	188.000
853.50	300.000
853.79	233.333
854.09	195.833
854.39	312.500
854.68	162.162
854.98	164.516
855.28	150.000
855.57	168.966
855.87	200.000
856.17	247.368
856.46	246.667
856.76	200.000
857.05	193.103
857.35	158.333
857.65	286.667
857.94	173.913
858.24	207.692
858.53	270.000
858.83	204.545
859.13	260.000
859.42	0.000
859.72	488.889
860.01	363.636
860.31	177.273
860.60	226.316
860.90	191.304
861.20	500.000
861.49	375.000
861.79	-3500.000
862.08	487.500
862.38	180.952
862.67	284.615
862.97	270.588
863.26	322.222
863.56	266.667
863.85	233.333
864.15	412.500
864.44	273.333
864.74	550.000
865.03	512.500
865.33	273.684
865.62	400.000
865.92	361.538
866.21	316.667
866.51	0.000
866.80	263.636
867.10	920.000
867.39	338.462
867.69	327.273
867.98	231.579
868.27	400.000
868.57	236.842
868.86	-4300.000
869.16	325.000
869.45	1850.000
869.75	-3000.000
870.04	350.000
870.33	628.571
870.63	925.000
870.92	1700.000
871.22	671.429
871.51	347.059
871.80	152.381
872.10	300.000
>>>>>End Processed Spectral Data<<<<<
