SpectraSuite Data File
++++++++++++++++++++++++++++++++++++
Date: Wed May 13 20:30:48 PDT 2015
User: schluterlab
Dark Spectrum Present: Yes
Reference Spectrum Present: Yes
Number of Sampled Component Spectra: 1
Spectrometers: USB2E3373
Integration Time (usec): 3000 (USB2E3373)
Spectra Averaged: 3 (USB2E3373)
Boxcar Smoothing: 0 (USB2E3373)
Correct for Electrical Dark: No (USB2E3373)
Strobe/Lamp Enabled: No (USB2E3373)
Correct for Detector Non-linearity: No (USB2E3373)
Correct for Stray Light: No (USB2E3373)
Number of Pixels in Processed Spectrum: 2048
>>>>>Begin Processed Spectral Data<<<<<
178.53	0.000
178.91	-875.000
179.29	-1000.000
179.67	-144.444
180.04	-1100.000
180.42	1900.000
180.80	900.000
181.18	-700.000
181.56	585.714
181.94	0.000
182.31	-457.143
182.69	1433.333
183.07	-475.000
183.45	-355.556
183.83	472.727
184.20	-270.000
184.58	2100.000
184.96	4300.000
185.34	-660.000
185.72	-450.000
186.09	-2050.000
186.47	2150.000
186.85	1650.000
187.23	2800.000
187.61	-1500.000
187.98	1150.000
188.36	500.000
188.74	400.000
189.12	-860.000
189.49	450.000
189.87	-3900.000
190.25	-900.000
190.63	285.714
191.00	353.846
191.38	533.333
191.76	-875.000
192.14	1175.000
192.51	525.000
192.89	716.667
193.27	562.500
193.65	-1050.000
194.02	420.000
194.40	860.000
194.78	460.000
195.15	458.333
195.53	600.000
195.91	-1700.000
196.29	312.500
196.66	263.158
197.04	-230.000
197.42	0.000
197.79	600.000
198.17	-4600.000
198.55	400.000
198.92	525.000
199.30	840.000
199.68	0.000
200.05	277.778
200.43	714.286
200.81	4400.000
201.18	1333.333
201.56	-1400.000
201.94	433.333
202.31	411.111
202.69	408.333
203.07	380.000
203.44	0.000
203.82	900.000
204.19	671.429
204.57	364.286
204.95	562.500
205.32	1600.000
205.70	427.273
206.08	321.429
206.45	2500.000
206.83	325.000
207.20	733.333
207.58	440.000
207.96	311.111
208.33	675.000
208.71	-700.000
209.08	628.571
209.46	544.444
209.84	354.545
210.21	-1266.667
210.59	1025.000
210.96	-337.500
211.34	1750.000
211.71	550.000
212.09	600.000
212.46	0.000
212.84	1100.000
213.22	1075.000
213.59	-4000.000
213.97	683.333
214.34	614.286
214.72	418.182
215.09	600.000
215.47	-1650.000
215.84	-2300.000
216.22	1566.667
216.59	392.857
216.97	1175.000
217.34	372.727
217.72	-566.667
218.09	0.000
218.47	-2700.000
218.84	500.000
219.22	800.000
219.59	1433.333
219.97	-428.571
220.34	860.000
220.72	-1533.333
221.09	378.571
221.47	1100.000
221.84	-766.667
222.22	0.000
222.59	1225.000
222.97	-2000.000
223.34	980.000
223.72	384.615
224.09	880.000
224.46	1450.000
224.84	-2500.000
225.21	-840.000
225.59	-4300.000
225.96	560.000
226.34	245.000
226.71	2450.000
227.08	500.000
227.46	440.000
227.83	-725.000
228.21	-1750.000
228.58	577.778
228.95	-2000.000
229.33	-1700.000
229.70	1233.333
230.08	785.714
230.45	-480.000
230.82	416.667
231.20	750.000
231.57	600.000
231.95	416.667
232.32	177.273
232.69	290.909
233.07	685.714
233.44	369.231
233.81	-1466.667
234.19	226.316
234.56	441.667
234.93	300.000
235.31	381.818
235.68	246.154
236.05	350.000
236.43	142.424
236.80	231.579
237.17	4200.000
237.55	200.000
237.92	192.857
238.29	204.762
238.67	161.290
239.04	189.655
239.41	130.556
239.79	115.217
240.16	135.714
240.53	134.091
240.91	107.843
241.28	108.000
241.65	118.000
242.02	101.449
242.40	98.387
242.77	95.000
243.14	79.570
243.51	84.270
243.89	80.000
244.26	72.222
244.63	61.290
245.00	69.149
245.38	71.287
245.75	62.617
246.12	71.560
246.49	65.693
246.87	74.400
247.24	63.846
247.61	67.857
247.98	56.863
248.36	51.351
248.73	58.599
249.10	58.599
249.47	48.588
249.84	58.289
250.22	54.011
250.59	54.438
250.96	53.535
251.33	51.185
251.70	50.000
252.08	48.571
252.45	52.018
252.82	50.435
253.19	51.064
253.56	50.196
253.94	51.037
254.31	46.875
254.68	46.923
255.05	47.970
255.42	49.593
255.79	50.368
256.16	49.458
256.54	45.230
256.91	44.128
257.28	40.647
257.65	44.554
258.02	46.584
258.39	42.902
258.76	42.475
259.14	44.643
259.51	45.289
259.88	43.478
260.25	45.015
260.62	44.509
260.99	44.410
261.36	45.946
261.73	42.693
262.10	42.442
262.47	44.789
262.85	41.226
263.22	40.741
263.59	44.160
263.96	43.956
264.33	43.864
264.70	41.579
265.07	39.130
265.44	38.636
265.81	39.659
266.18	42.211
266.55	40.732
266.92	41.769
267.29	41.204
267.66	40.367
268.03	39.773
268.40	41.121
268.77	37.232
269.14	38.514
269.51	41.535
269.88	42.191
270.25	39.052
270.62	43.596
270.99	43.656
271.36	39.056
271.73	42.757
272.10	41.739
272.47	41.935
272.84	38.745
273.21	41.300
273.58	37.773
273.95	36.897
274.32	39.463
274.69	40.899
275.06	38.189
275.43	40.851
275.80	38.677
276.17	38.697
276.54	40.125
276.91	39.130
277.28	38.477
277.65	39.652
278.02	38.923
278.39	40.430
278.76	35.455
279.13	37.170
279.50	36.872
279.87	38.446
280.23	38.323
280.60	37.718
280.97	34.750
281.34	37.168
281.71	34.909
282.08	38.772
282.45	35.273
282.82	36.590
283.19	33.690
283.56	37.895
283.92	36.210
284.29	37.919
284.66	35.753
285.03	35.624
285.40	34.683
285.77	35.522
286.14	34.370
286.51	37.333
286.87	38.462
287.24	35.831
287.61	35.313
287.98	34.578
288.35	35.024
288.72	33.022
289.08	33.177
289.45	34.926
289.82	33.984
290.19	32.653
290.56	34.303
290.93	30.211
291.29	31.748
291.66	31.858
292.03	32.994
292.40	32.452
292.77	30.473
293.13	30.000
293.50	31.487
293.87	30.222
294.24	28.741
294.60	30.859
294.97	30.669
295.34	31.594
295.71	30.540
296.08	28.632
296.44	30.261
296.81	29.855
297.18	29.810
297.55	27.573
297.91	28.364
298.28	27.845
298.65	29.504
299.02	29.117
299.38	28.685
299.75	26.146
300.12	26.564
300.48	27.750
300.85	27.250
301.22	27.771
301.59	26.263
301.95	28.212
302.32	26.316
302.69	26.284
303.05	28.000
303.42	26.049
303.79	25.821
304.15	25.874
304.52	26.883
304.89	26.945
305.25	25.058
305.62	27.067
305.99	27.273
306.35	27.293
306.72	26.682
307.09	26.748
307.45	26.464
307.82	24.888
308.19	26.821
308.55	27.616
308.92	26.745
309.29	24.076
309.65	25.557
310.02	26.533
310.38	25.806
310.75	26.716
311.12	26.612
311.48	26.228
311.85	27.149
312.22	25.911
312.58	26.195
312.95	25.766
313.31	25.146
313.68	26.819
314.05	27.613
314.41	26.030
314.78	28.197
315.14	26.812
315.51	26.982
315.87	28.713
316.24	28.103
316.61	26.901
316.97	29.061
317.34	28.963
317.70	28.394
318.07	29.451
318.43	31.115
318.80	30.459
319.16	29.661
319.53	29.831
319.89	31.524
320.26	32.300
320.62	32.837
320.99	31.111
321.35	32.323
321.72	30.595
322.08	32.873
322.45	34.726
322.81	33.915
323.18	34.393
323.54	34.323
323.91	35.377
324.27	35.755
324.64	36.440
325.00	33.724
325.37	36.943
325.73	38.061
326.10	36.717
326.46	37.097
326.83	38.740
327.19	38.856
327.56	40.244
327.92	41.732
328.29	41.970
328.65	40.884
329.01	41.968
329.38	42.368
329.74	41.644
330.11	42.884
330.47	43.893
330.84	44.669
331.20	45.902
331.56	44.404
331.93	44.722
332.29	43.656
332.66	46.195
333.02	46.069
333.38	46.703
333.75	46.168
334.11	46.174
334.48	46.406
334.84	48.621
335.20	46.818
335.57	45.694
335.93	48.304
336.29	48.443
336.66	48.602
337.02	46.697
337.38	49.537
337.75	47.504
338.11	49.150
338.47	50.368
338.84	50.229
339.20	50.826
339.56	50.639
339.93	49.455
340.29	49.094
340.65	48.752
341.02	48.778
341.38	49.466
341.74	48.070
342.11	49.869
342.47	49.339
342.83	50.342
343.20	50.303
343.56	48.778
343.92	49.386
344.28	48.980
344.65	49.699
345.01	48.485
345.37	48.370
345.73	48.646
346.10	49.702
346.46	49.068
346.82	49.671
347.19	49.123
347.55	47.947
347.91	49.595
348.27	48.644
348.63	48.829
349.00	49.029
349.36	48.194
349.72	47.955
350.08	48.055
350.45	49.064
350.81	47.929
351.17	47.974
351.53	49.058
351.89	46.535
352.26	48.145
352.62	47.715
352.98	46.677
353.34	47.740
353.70	47.054
354.07	46.210
354.43	47.381
354.79	45.133
355.15	45.730
355.51	47.242
355.87	47.184
356.24	47.313
356.60	47.153
356.96	46.822
357.32	46.607
357.68	48.110
358.04	46.635
358.40	46.160
358.77	46.479
359.13	45.225
359.49	45.961
359.85	46.190
360.21	46.252
360.57	47.393
360.93	46.615
361.29	46.259
361.66	45.279
362.02	45.821
362.38	45.627
362.74	46.429
363.10	44.560
363.46	45.048
363.82	46.183
364.18	45.742
364.54	45.319
364.90	45.963
365.26	45.588
365.62	45.215
365.98	44.923
366.35	44.556
366.71	46.059
367.07	45.084
367.43	46.009
367.79	44.825
368.15	46.624
368.51	45.058
368.87	44.468
369.23	44.843
369.59	46.343
369.95	44.559
370.31	44.088
370.67	43.841
371.03	44.120
371.39	44.825
371.75	43.603
372.11	43.314
372.47	44.282
372.83	45.173
373.19	42.991
373.55	44.642
373.91	46.834
374.27	43.093
374.63	43.782
374.99	44.562
375.35	42.708
375.71	43.729
376.07	44.239
376.42	43.466
376.78	44.334
377.14	43.216
377.50	44.834
377.86	42.753
378.22	44.121
378.58	41.980
378.94	42.678
379.30	44.020
379.66	43.718
380.02	43.243
380.38	43.473
380.74	43.517
381.09	42.971
381.45	43.946
381.81	43.612
382.17	42.739
382.53	43.899
382.89	43.765
383.25	43.277
383.61	43.990
383.97	42.339
384.32	42.171
384.68	41.884
385.04	42.163
385.40	42.477
385.76	42.260
386.12	42.811
386.48	43.298
386.83	42.527
387.19	43.599
387.55	42.548
387.91	40.689
388.27	42.428
388.62	43.331
388.98	41.769
389.34	42.616
389.70	42.244
390.06	43.790
390.42	42.737
390.77	42.048
391.13	42.757
391.49	42.640
391.85	41.439
392.20	42.524
392.56	41.982
392.92	41.377
393.28	40.769
393.64	41.727
393.99	40.990
394.35	42.432
394.71	40.339
395.07	41.059
395.42	41.965
395.78	41.603
396.14	41.651
396.50	42.356
396.85	41.577
397.21	41.060
397.57	41.662
397.92	41.707
398.28	40.415
398.64	41.159
399.00	41.578
399.35	40.835
399.71	41.204
400.07	41.691
400.42	41.534
400.78	41.496
401.14	42.195
401.49	41.075
401.85	41.500
402.21	41.257
402.57	41.764
402.92	40.984
403.28	42.036
403.63	42.450
403.99	41.338
404.35	41.333
404.70	40.707
405.06	41.409
405.42	41.422
405.77	40.800
406.13	40.237
406.49	40.390
406.84	40.165
407.20	40.603
407.55	40.779
407.91	41.467
408.27	42.119
408.62	40.759
408.98	40.931
409.34	40.775
409.69	41.419
410.05	42.007
410.40	41.713
410.76	40.920
411.11	39.083
411.47	39.425
411.83	42.028
412.18	40.012
412.54	41.781
412.89	40.843
413.25	40.201
413.60	41.384
413.96	39.466
414.31	40.948
414.67	41.381
415.03	41.722
415.38	41.302
415.74	40.257
416.09	42.587
416.45	41.098
416.80	40.449
417.16	41.220
417.51	41.539
417.87	40.848
418.22	41.009
418.58	41.317
418.93	41.278
419.29	40.866
419.64	41.625
420.00	40.610
420.35	41.275
420.71	41.303
421.06	39.976
421.42	39.883
421.77	40.751
422.12	40.876
422.48	39.665
422.83	41.817
423.19	41.381
423.54	40.975
423.90	41.043
424.25	41.094
424.61	40.774
424.96	41.458
425.31	41.362
425.67	40.169
426.02	41.314
426.38	42.308
426.73	41.603
427.09	42.128
427.44	40.886
427.79	40.828
428.15	41.905
428.50	41.720
428.85	41.418
429.21	40.585
429.56	41.369
429.92	41.117
430.27	40.566
430.62	40.758
430.98	42.034
431.33	41.340
431.68	42.251
432.04	40.522
432.39	41.976
432.74	42.250
433.10	42.615
433.45	41.983
433.80	42.073
434.16	41.880
434.51	41.368
434.86	42.075
435.22	42.023
435.57	42.918
435.92	43.534
436.28	42.705
436.63	42.329
436.98	42.358
437.34	43.411
437.69	42.882
438.04	43.508
438.39	42.328
438.75	42.708
439.10	43.799
439.45	43.566
439.81	44.411
440.16	42.067
440.51	43.761
440.86	44.818
441.22	43.382
441.57	43.365
441.92	43.808
442.27	43.918
442.63	43.444
442.98	43.944
443.33	43.424
443.68	43.779
444.03	44.461
444.39	43.720
444.74	44.426
445.09	44.097
445.44	44.286
445.79	44.532
446.15	44.256
446.50	45.127
446.85	45.324
447.20	44.875
447.55	45.449
447.91	45.008
448.26	45.409
448.61	46.297
448.96	45.127
449.31	46.119
449.66	45.582
450.02	46.128
450.37	45.748
450.72	45.290
451.07	45.216
451.42	45.106
451.77	47.211
452.12	46.478
452.47	45.958
452.83	46.096
453.18	45.599
453.53	47.805
453.88	46.190
454.23	47.340
454.58	47.789
454.93	49.332
455.28	46.883
455.63	47.512
455.98	48.988
456.34	48.367
456.69	48.466
457.04	49.288
457.39	47.691
457.74	47.766
458.09	47.959
458.44	47.834
458.79	46.095
459.14	49.097
459.49	47.928
459.84	47.867
460.19	48.438
460.54	47.280
460.89	48.053
461.24	49.848
461.59	49.390
461.94	48.705
462.29	50.742
462.64	47.862
462.99	47.690
463.34	50.067
463.69	49.093
464.04	49.797
464.39	48.406
464.74	49.733
465.09	48.794
465.44	49.861
465.79	49.832
466.14	49.644
466.49	49.611
466.84	50.555
467.19	49.185
467.54	51.813
467.89	49.160
468.24	50.204
468.59	52.381
468.94	49.847
469.29	50.771
469.64	52.142
469.99	51.827
470.34	50.661
470.68	52.586
471.03	51.769
471.38	52.050
471.73	52.165
472.08	51.974
472.43	52.387
472.78	51.218
473.13	52.054
473.48	51.498
473.83	52.378
474.17	51.711
474.52	52.233
474.87	53.532
475.22	52.641
475.57	52.015
475.92	52.310
476.27	52.086
476.61	52.289
476.96	52.556
477.31	52.695
477.66	53.228
478.01	51.803
478.36	53.675
478.70	52.804
479.05	52.396
479.40	53.122
479.75	54.042
480.10	52.932
480.45	52.118
480.79	52.461
481.14	54.256
481.49	54.105
481.84	53.635
482.19	53.703
482.53	53.073
482.88	53.792
483.23	53.131
483.58	54.095
483.92	54.311
484.27	52.070
484.62	53.621
484.97	53.212
485.31	53.493
485.66	52.311
486.01	52.450
486.36	52.272
486.70	52.635
487.05	53.112
487.40	53.958
487.75	53.286
488.09	53.594
488.44	54.169
488.79	55.154
489.13	54.011
489.48	54.160
489.83	53.647
490.17	55.283
490.52	55.137
490.87	55.902
491.22	55.798
491.56	55.262
491.91	55.886
492.26	55.581
492.60	54.977
492.95	55.893
493.30	55.327
493.64	56.556
493.99	56.082
494.34	56.568
494.68	56.502
495.03	57.284
495.37	55.840
495.72	58.138
496.07	57.773
496.41	56.327
496.76	55.849
497.11	57.181
497.45	58.780
497.80	57.246
498.14	57.343
498.49	57.756
498.84	57.910
499.18	57.952
499.53	58.452
499.87	57.456
500.22	57.843
500.56	59.660
500.91	58.365
501.26	58.084
501.60	61.082
501.95	58.066
502.29	60.403
502.64	60.102
502.98	59.561
503.33	58.638
503.67	58.979
504.02	58.326
504.36	58.961
504.71	59.111
505.06	59.373
505.40	59.261
505.75	58.390
506.09	60.641
506.44	61.223
506.78	61.179
507.13	61.030
507.47	61.566
507.82	60.790
508.16	61.044
508.51	62.811
508.85	61.370
509.19	62.092
509.54	60.918
509.88	61.103
510.23	62.005
510.57	61.868
510.92	61.160
511.26	61.151
511.61	61.307
511.95	60.438
512.30	61.453
512.64	62.762
512.98	63.558
513.33	63.009
513.67	61.366
514.02	61.688
514.36	64.009
514.70	62.811
515.05	63.190
515.39	63.096
515.74	64.189
516.08	62.717
516.42	63.319
516.77	64.270
517.11	62.431
517.46	64.503
517.80	65.505
518.14	62.652
518.49	65.461
518.83	63.580
519.17	64.376
519.52	65.082
519.86	65.374
520.20	63.757
520.55	65.470
520.89	65.937
521.23	66.224
521.58	65.126
521.92	65.952
522.26	64.918
522.61	66.417
522.95	64.334
523.29	65.612
523.64	65.671
523.98	66.728
524.32	65.320
524.66	66.206
525.01	64.951
525.35	66.233
525.69	64.594
526.04	65.919
526.38	67.480
526.72	66.135
527.06	67.922
527.41	65.903
527.75	68.296
528.09	67.887
528.43	67.304
528.78	68.101
529.12	67.212
529.46	68.585
529.80	69.059
530.15	67.539
530.49	66.154
530.83	69.114
531.17	68.538
531.51	70.169
531.86	67.742
532.20	68.449
532.54	68.354
532.88	68.357
533.22	66.958
533.57	67.778
533.91	67.670
534.25	67.436
534.59	68.822
534.93	67.638
535.27	68.980
535.62	68.437
535.96	69.052
536.30	69.866
536.64	70.122
536.98	69.476
537.32	68.400
537.66	70.400
538.01	70.178
538.35	70.265
538.69	70.325
539.03	69.331
539.37	69.329
539.71	68.373
540.05	70.980
540.39	71.761
540.73	68.176
541.07	70.539
541.42	71.429
541.76	70.839
542.10	71.216
542.44	71.523
542.78	71.871
543.12	70.825
543.46	71.344
543.80	70.982
544.14	69.255
544.48	71.048
544.82	71.071
545.16	72.154
545.50	70.887
545.84	72.917
546.18	72.929
546.52	72.608
546.86	71.753
547.20	71.342
547.54	70.541
547.88	72.513
548.22	70.050
548.56	71.384
548.90	71.831
549.24	70.774
549.58	72.033
549.92	72.115
550.26	74.148
550.60	70.678
550.94	72.394
551.28	73.519
551.62	73.185
551.96	72.421
552.30	73.788
552.64	71.197
552.98	72.068
553.32	72.623
553.66	74.029
554.00	73.439
554.34	72.878
554.68	73.891
555.02	73.484
555.36	72.930
555.69	71.989
556.03	72.880
556.37	73.329
556.71	72.578
557.05	73.529
557.39	72.288
557.73	72.830
558.07	75.852
558.41	73.082
558.75	74.578
559.08	75.317
559.42	75.964
559.76	75.662
560.10	74.518
560.44	74.563
560.78	73.852
561.12	74.340
561.45	75.489
561.79	73.434
562.13	74.178
562.47	74.590
562.81	76.918
563.15	73.445
563.48	74.602
563.82	75.147
564.16	74.624
564.50	74.870
564.84	74.399
565.17	75.676
565.51	75.591
565.85	74.048
566.19	73.638
566.52	76.187
566.86	73.418
567.20	75.649
567.54	74.943
567.88	74.525
568.21	75.450
568.55	74.065
568.89	75.924
569.23	74.287
569.56	72.429
569.90	73.849
570.24	73.628
570.57	73.172
570.91	71.816
571.25	72.946
571.59	72.960
571.92	73.185
572.26	73.772
572.60	74.204
572.93	72.804
573.27	73.174
573.61	73.506
573.95	73.488
574.28	73.090
574.62	73.542
574.96	73.190
575.29	72.405
575.63	73.120
575.97	72.533
576.30	72.836
576.64	73.389
576.98	73.043
577.31	73.799
577.65	73.485
577.98	74.065
578.32	73.213
578.66	72.998
578.99	73.682
579.33	72.961
579.67	72.902
580.00	73.148
580.34	73.707
580.67	73.765
581.01	73.195
581.35	73.001
581.68	73.498
582.02	72.626
582.35	74.195
582.69	73.451
583.02	74.911
583.36	73.899
583.70	74.351
584.03	73.955
584.37	75.072
584.70	75.444
585.04	73.459
585.37	74.254
585.71	73.473
586.04	74.438
586.38	75.705
586.72	75.891
587.05	74.029
587.39	75.119
587.72	75.316
588.06	74.680
588.39	74.733
588.73	75.095
589.06	76.472
589.40	76.599
589.73	75.889
590.07	75.374
590.40	76.069
590.73	76.464
591.07	77.656
591.40	77.773
591.74	77.273
592.07	77.312
592.41	77.346
592.74	76.816
593.08	75.883
593.41	76.400
593.75	74.641
594.08	75.830
594.41	76.812
594.75	77.301
595.08	77.201
595.42	77.128
595.75	76.140
596.09	77.995
596.42	75.796
596.75	77.248
597.09	78.355
597.42	75.843
597.75	77.533
598.09	78.087
598.42	76.675
598.76	76.044
599.09	75.827
599.42	75.546
599.76	77.050
600.09	77.668
600.42	76.297
600.76	76.214
601.09	76.758
601.42	77.588
601.76	77.381
602.09	77.826
602.42	76.433
602.76	77.791
603.09	77.891
603.42	77.782
603.76	77.553
604.09	77.045
604.42	78.027
604.76	76.297
605.09	77.763
605.42	76.956
605.75	77.483
606.09	77.593
606.42	77.523
606.75	77.271
607.09	76.183
607.42	77.706
607.75	76.624
608.08	77.247
608.42	78.575
608.75	76.510
609.08	76.827
609.41	76.345
609.75	78.657
610.08	78.040
610.41	78.352
610.74	79.565
611.07	79.644
611.41	79.097
611.74	77.979
612.07	80.280
612.40	79.801
612.73	78.895
613.07	79.256
613.40	78.831
613.73	77.347
614.06	79.570
614.39	77.819
614.72	78.842
615.06	77.941
615.39	79.246
615.72	76.636
616.05	78.203
616.38	80.656
616.71	81.473
617.05	79.741
617.38	79.014
617.71	80.661
618.04	81.310
618.37	78.770
618.70	80.647
619.03	80.395
619.36	79.566
619.69	80.986
620.03	80.632
620.36	81.751
620.69	81.781
621.02	81.268
621.35	82.224
621.68	79.128
622.01	79.334
622.34	81.619
622.67	81.901
623.00	80.411
623.33	79.700
623.66	82.416
623.99	82.327
624.32	80.670
624.65	82.415
624.99	80.595
625.32	81.028
625.65	82.645
625.98	82.552
626.31	82.115
626.64	83.020
626.97	83.707
627.30	82.377
627.63	81.870
627.96	81.833
628.29	81.715
628.62	82.617
628.95	83.302
629.28	81.934
629.61	82.951
629.94	84.952
630.26	84.271
630.59	82.364
630.92	82.663
631.25	82.428
631.58	82.482
631.91	84.888
632.24	82.700
632.57	82.162
632.90	84.430
633.23	84.676
633.56	85.989
633.89	84.938
634.22	85.925
634.55	87.219
634.88	86.228
635.20	83.871
635.53	84.940
635.86	86.881
636.19	83.294
636.52	83.391
636.85	85.911
637.18	81.912
637.51	85.579
637.83	83.107
638.16	86.573
638.49	86.020
638.82	84.197
639.15	85.625
639.48	87.157
639.81	89.812
640.13	84.766
640.46	86.711
640.79	84.941
641.12	84.457
641.45	86.173
641.77	88.218
642.10	87.865
642.43	85.886
642.76	87.461
643.09	88.957
643.41	85.736
643.74	87.654
644.07	86.738
644.40	86.656
644.73	87.402
645.05	87.956
645.38	86.098
645.71	87.601
646.04	88.040
646.36	89.149
646.69	90.468
647.02	88.265
647.35	87.629
647.67	89.558
648.00	86.341
648.33	87.789
648.66	87.424
648.98	87.706
649.31	83.558
649.64	86.248
649.96	85.842
650.29	87.204
650.62	86.893
650.94	86.062
651.27	91.385
651.60	86.522
651.92	86.901
652.25	88.762
652.58	86.293
652.90	86.572
653.23	84.900
653.56	86.299
653.88	86.529
654.21	87.678
654.54	85.479
654.86	87.850
655.19	84.865
655.52	73.102
655.84	72.224
656.17	90.600
656.49	100.000
656.82	100.000
657.15	100.000
657.47	90.530
657.80	51.005
658.13	52.716
658.45	77.850
658.78	76.894
659.10	77.167
659.43	78.999
659.75	79.142
660.08	80.949
660.41	84.078
660.73	85.896
661.06	87.102
661.38	88.727
661.71	90.577
662.03	89.349
662.36	84.891
662.68	85.542
663.01	90.909
663.33	90.870
663.66	90.546
663.98	89.633
664.31	89.706
664.63	86.842
664.96	86.922
665.28	90.164
665.61	86.160
665.93	87.123
666.26	87.424
666.58	87.448
666.91	90.909
667.23	95.730
667.56	86.609
667.88	86.966
668.21	88.060
668.53	86.334
668.86	90.476
669.18	86.780
669.50	86.957
669.83	86.710
670.15	90.444
670.48	91.068
670.80	92.241
671.13	87.261
671.45	83.404
671.77	88.391
672.10	86.137
672.42	85.689
672.75	83.250
673.07	88.732
673.39	87.523
673.72	90.820
674.04	87.059
674.37	86.796
674.69	88.753
675.01	91.423
675.34	89.528
675.66	92.632
675.98	87.169
676.31	87.605
676.63	87.686
676.95	84.486
677.28	91.822
677.60	84.615
677.92	90.928
678.25	87.064
678.57	86.056
678.89	90.381
679.22	88.605
679.54	84.924
679.86	87.523
680.18	84.615
680.51	85.638
680.83	84.342
681.15	88.302
681.48	86.578
681.80	87.427
682.12	81.992
682.44	86.074
682.77	90.428
683.09	92.060
683.41	88.248
683.73	87.417
684.06	87.397
684.38	85.127
684.70	90.116
685.02	87.617
685.34	84.249
685.67	84.266
685.99	85.911
686.31	83.106
686.63	84.806
686.96	85.714
687.28	82.130
687.60	85.688
687.92	86.106
688.24	84.981
688.56	86.546
688.89	85.270
689.21	89.520
689.53	86.848
689.85	88.692
690.17	83.644
690.49	84.926
690.82	89.720
691.14	85.938
691.46	84.599
691.78	85.141
692.10	89.256
692.42	84.830
692.74	87.552
693.06	87.660
693.39	84.189
693.71	88.865
694.03	86.316
694.35	83.983
694.67	86.041
694.99	90.000
695.31	88.971
695.63	87.321
695.95	92.176
696.27	88.071
696.59	87.565
696.91	87.306
697.23	84.038
697.56	84.435
697.88	81.800
698.20	82.500
698.52	84.516
698.84	90.423
699.16	88.018
699.48	81.710
699.80	86.473
700.12	91.688
700.44	90.981
700.76	88.950
701.08	89.655
701.40	88.827
701.72	92.711
702.04	90.341
702.36	84.419
702.68	88.102
703.00	88.920
703.32	83.511
703.64	85.791
703.96	87.187
704.28	87.500
704.60	89.150
704.91	88.724
705.23	91.496
705.55	94.684
705.87	93.688
706.19	95.760
706.51	91.589
706.83	92.727
707.15	87.395
707.47	87.121
707.79	86.732
708.11	83.562
708.43	83.810
708.74	85.714
709.06	84.935
709.38	84.252
709.70	90.988
710.02	89.911
710.34	85.455
710.66	91.642
710.98	87.784
711.29	83.721
711.61	89.971
711.93	84.936
712.25	96.785
712.57	95.221
712.89	89.965
713.20	79.331
713.52	90.132
713.84	84.810
714.16	85.366
714.48	83.908
714.80	92.401
715.11	83.285
715.43	88.131
715.75	83.768
716.07	92.332
716.39	86.834
716.70	86.047
717.02	90.647
717.34	86.572
717.66	88.806
717.97	90.837
718.29	88.148
718.61	86.861
718.93	88.235
719.24	83.737
719.56	80.000
719.88	90.508
720.20	88.176
720.51	94.077
720.83	89.963
721.15	88.806
721.46	86.879
721.78	90.681
722.10	92.453
722.42	95.489
722.73	90.637
723.05	93.033
723.37	92.713
723.68	86.100
724.00	94.309
724.32	87.500
724.63	83.333
724.95	95.816
725.27	93.522
725.58	94.531
725.90	86.861
726.22	91.698
726.53	85.417
726.85	89.761
727.16	90.391
727.48	88.298
727.80	92.045
728.11	84.783
728.43	87.692
728.74	89.964
729.06	87.956
729.38	87.500
729.69	86.833
730.01	83.276
730.32	81.944
730.64	82.274
730.96	80.858
731.27	87.086
731.59	84.404
731.90	84.548
732.22	85.093
732.53	81.115
732.85	84.936
733.16	85.531
733.48	84.053
733.80	87.338
734.11	89.490
734.43	85.503
734.74	82.286
735.06	82.521
735.37	89.884
735.69	86.624
736.00	87.255
736.32	85.358
736.63	82.109
736.95	83.706
737.26	81.973
737.58	83.548
737.89	87.291
738.21	86.348
738.52	80.714
738.83	85.660
739.15	81.154
739.46	85.766
739.78	90.278
740.09	80.923
740.41	85.806
740.72	81.185
741.04	88.148
741.35	87.500
741.66	92.444
741.98	89.623
742.29	94.737
742.61	93.966
742.92	91.403
743.23	92.308
743.55	84.000
743.86	81.579
744.18	92.035
744.49	96.651
744.80	92.488
745.12	91.818
745.43	81.938
745.74	90.991
746.06	93.119
746.37	87.444
746.68	87.330
747.00	93.519
747.31	87.143
747.62	87.611
747.94	89.427
748.25	87.660
748.56	90.749
748.88	94.059
749.19	98.000
749.50	88.837
749.82	80.488
750.13	84.898
750.44	83.577
750.75	85.263
751.07	82.315
751.38	86.063
751.69	88.809
752.01	84.586
752.32	87.365
752.63	80.851
752.94	93.033
753.26	90.000
753.57	87.398
753.88	86.719
754.19	80.714
754.51	87.153
754.82	81.588
755.13	81.887
755.44	85.338
755.75	85.766
756.07	79.433
756.38	82.847
756.69	82.550
757.00	73.952
757.31	76.261
757.63	85.673
757.94	77.212
758.25	74.510
758.56	77.531
758.87	75.538
759.18	77.273
759.50	76.803
759.81	79.128
760.12	80.312
760.43	83.381
760.74	79.076
761.05	83.898
761.36	79.412
761.67	82.670
761.99	81.056
762.30	80.556
762.61	82.824
762.92	81.250
763.23	85.294
763.54	84.800
763.85	80.078
764.16	87.692
764.47	86.312
764.78	83.039
765.10	78.165
765.41	80.236
765.72	77.545
766.03	75.235
766.34	79.667
766.65	88.936
766.96	83.333
767.27	91.878
767.58	91.146
767.89	89.474
768.20	89.080
768.51	83.249
768.82	87.615
769.13	84.553
769.44	82.591
769.75	83.691
770.06	82.110
770.37	87.783
770.68	85.648
770.99	82.667
771.30	79.508
771.61	87.444
771.92	81.967
772.23	89.496
772.54	86.154
772.85	85.340
773.16	92.553
773.47	93.478
773.78	92.893
774.09	91.071
774.39	87.719
774.70	87.654
775.01	105.797
775.32	100.654
775.63	96.053
775.94	93.525
776.25	104.724
776.56	102.239
776.87	94.262
777.18	97.656
777.48	96.183
777.79	96.212
778.10	102.222
778.41	100.000
778.72	91.971
779.03	92.617
779.34	97.315
779.65	96.622
779.95	91.411
780.26	87.582
780.57	93.103
780.88	107.812
781.19	99.248
781.50	92.568
781.80	88.050
782.11	87.006
782.42	93.038
782.73	88.344
783.04	103.378
783.34	90.141
783.65	97.260
783.96	96.269
784.27	92.308
784.57	82.014
784.88	103.704
785.19	94.444
785.50	108.491
785.81	100.000
786.11	104.918
786.42	102.326
786.73	107.965
787.04	104.717
787.34	94.643
787.65	111.000
787.96	106.306
788.26	98.347
788.57	109.322
788.88	109.091
789.19	90.278
789.49	100.000
789.80	94.656
790.11	111.429
790.41	107.921
790.72	113.253
791.03	121.739
791.33	112.791
791.64	104.124
791.95	109.901
792.25	113.333
792.56	118.182
792.87	130.769
793.17	130.380
793.48	122.989
793.79	114.943
794.09	121.591
794.40	94.958
794.70	100.735
795.01	99.259
795.32	88.489
795.62	88.976
795.93	96.552
796.23	100.000
796.54	109.412
796.85	118.919
797.15	121.127
797.46	125.758
797.76	124.096
798.07	121.519
798.37	127.692
798.68	131.818
798.99	111.268
799.29	111.688
799.60	107.955
799.90	131.507
800.21	134.328
800.51	146.552
800.82	161.404
801.12	131.148
801.43	131.818
801.73	110.811
802.04	138.095
802.34	102.469
802.65	115.625
802.95	142.373
803.26	137.500
803.56	104.286
803.87	120.000
804.17	113.235
804.48	150.000
804.78	113.793
805.09	101.471
805.39	126.923
805.70	121.429
806.00	140.984
806.30	121.212
806.61	113.415
806.91	107.595
807.22	113.158
807.52	128.358
807.83	130.986
808.13	131.250
808.43	118.333
808.74	93.421
809.04	130.435
809.35	129.851
809.65	115.789
809.95	150.000
810.26	127.119
810.56	130.159
810.86	156.818
811.17	147.619
811.47	128.333
811.77	124.074
812.08	147.273
812.38	160.000
812.69	188.889
812.99	147.727
813.29	122.449
813.59	135.714
813.90	151.020
814.20	138.182
814.50	116.923
814.81	113.235
815.11	142.857
815.41	126.230
815.72	173.810
816.02	129.091
816.32	138.095
816.62	165.000
816.93	143.902
817.23	159.524
817.53	152.273
817.84	218.182
818.14	156.522
818.44	155.556
818.74	194.118
819.04	150.000
819.35	180.000
819.65	191.176
819.95	203.571
820.25	195.000
820.56	182.051
820.86	147.727
821.16	160.465
821.46	174.359
821.76	168.000
822.07	211.429
822.37	182.500
822.67	178.788
822.97	129.412
823.27	275.000
823.57	162.162
823.88	182.500
824.18	223.333
824.48	161.905
824.78	188.000
825.08	204.167
825.38	172.973
825.69	165.854
825.99	225.000
826.29	227.586
826.59	147.368
826.89	144.737
827.19	188.235
827.49	174.194
827.79	156.818
828.09	143.182
828.39	138.298
828.70	136.735
829.00	196.296
829.30	151.613
829.60	160.000
829.90	333.333
830.20	228.571
830.50	182.609
830.80	226.087
831.10	180.000
831.40	170.000
831.70	160.870
832.00	230.769
832.30	192.593
832.60	325.000
832.90	190.000
833.20	478.571
833.50	193.548
833.80	168.966
834.10	190.625
834.40	257.692
834.70	300.000
835.00	328.571
835.30	182.857
835.60	323.077
835.90	200.000
836.20	300.000
836.50	220.690
836.80	184.000
837.10	175.000
837.40	280.952
837.70	323.529
838.00	185.185
838.30	219.048
838.60	300.000
838.90	250.000
839.19	260.000
839.49	385.714
839.79	325.000
840.09	270.000
840.39	295.238
840.69	217.391
840.99	266.667
841.29	360.000
841.59	358.333
841.88	368.750
842.18	165.517
842.48	271.429
842.78	193.333
843.08	239.130
843.38	165.625
843.68	733.333
843.97	200.000
844.27	155.172
844.57	304.762
844.87	331.250
845.17	218.519
845.47	1466.667
845.76	466.667
846.06	264.706
846.36	437.500
846.66	371.429
846.96	300.000
847.25	409.091
847.55	381.818
847.85	234.783
848.15	350.000
848.44	314.286
848.74	261.111
849.04	264.706
849.34	420.000
849.63	247.368
849.93	427.273
850.23	820.000
850.53	471.429
850.82	2300.000
851.12	-4200.000
851.42	3800.000
851.71	275.000
852.01	-1100.000
852.31	245.833
852.61	1733.333
852.90	290.476
853.20	236.000
853.50	288.235
853.79	252.381
854.09	191.667
854.39	262.500
854.68	148.649
854.98	174.194
855.28	170.000
855.57	203.448
855.87	229.630
856.17	242.105
856.46	226.667
856.76	305.882
857.05	186.207
857.35	208.333
857.65	333.333
857.94	282.609
858.24	223.077
858.53	210.000
858.83	272.727
859.13	333.333
859.42	0.000
859.72	466.667
860.01	318.182
860.31	227.273
860.60	257.895
860.90	182.609
861.20	466.667
861.49	458.333
861.79	-3200.000
862.08	687.500
862.38	247.619
862.67	192.308
862.97	311.765
863.26	400.000
863.56	238.889
863.85	308.333
864.15	487.500
864.44	340.000
864.74	783.333
865.03	700.000
865.33	252.632
865.62	354.545
865.92	353.846
866.21	366.667
866.51	0.000
866.80	400.000
867.10	860.000
867.39	376.923
867.69	454.545
867.98	252.632
868.27	490.909
868.57	273.684
868.86	-3900.000
869.16	281.250
869.45	1800.000
869.75	-4000.000
870.04	375.000
870.33	742.857
870.63	825.000
870.92	2350.000
871.22	628.571
871.51	276.471
871.80	190.476
872.10	335.714
>>>>>End Processed Spectral Data<<<<<
