SpectraSuite Data File
++++++++++++++++++++++++++++++++++++
Date: Wed May 13 20:32:02 PDT 2015
User: schluterlab
Dark Spectrum Present: Yes
Reference Spectrum Present: Yes
Number of Sampled Component Spectra: 1
Spectrometers: USB2E3373
Integration Time (usec): 3000 (USB2E3373)
Spectra Averaged: 3 (USB2E3373)
Boxcar Smoothing: 0 (USB2E3373)
Correct for Electrical Dark: No (USB2E3373)
Strobe/Lamp Enabled: No (USB2E3373)
Correct for Detector Non-linearity: No (USB2E3373)
Correct for Stray Light: No (USB2E3373)
Number of Pixels in Processed Spectrum: 2048
>>>>>Begin Processed Spectral Data<<<<<
178.53	0.000
178.91	-1000.000
179.29	-1150.000
179.67	-122.222
180.04	-825.000
180.42	1700.000
180.80	860.000
181.18	-800.000
181.56	528.571
181.94	0.000
182.31	-385.714
182.69	1300.000
183.07	-475.000
183.45	-366.667
183.83	409.091
184.20	-330.000
184.58	1600.000
184.96	4200.000
185.34	-940.000
185.72	-437.500
186.09	-1650.000
186.47	2200.000
186.85	1450.000
187.23	4500.000
187.61	-966.667
187.98	1075.000
188.36	363.636
188.74	454.545
189.12	-700.000
189.49	470.000
189.87	-1800.000
190.25	-725.000
190.63	314.286
191.00	353.846
191.38	733.333
191.76	-850.000
192.14	1150.000
192.51	437.500
192.89	816.667
193.27	462.500
193.65	-825.000
194.02	380.000
194.40	860.000
194.78	320.000
195.15	333.333
195.53	500.000
195.91	-1900.000
196.29	300.000
196.66	173.684
197.04	-250.000
197.42	0.000
197.79	510.000
198.17	-2900.000
198.55	457.143
198.92	712.500
199.30	700.000
199.68	0.000
200.05	305.556
200.43	628.571
200.81	3800.000
201.18	1200.000
201.56	-933.333
201.94	411.111
202.31	466.667
202.69	325.000
203.07	440.000
203.44	0.000
203.82	975.000
204.19	528.571
204.57	364.286
204.95	512.500
205.32	1066.667
205.70	418.182
206.08	357.143
206.45	2150.000
206.83	287.500
207.20	533.333
207.58	640.000
207.96	227.778
208.33	512.500
208.71	-466.667
209.08	614.286
209.46	388.889
209.84	345.455
210.21	-1100.000
210.59	900.000
210.96	-375.000
211.34	1700.000
211.71	410.000
212.09	733.333
212.46	0.000
212.84	1466.667
213.22	1100.000
213.59	-3600.000
213.97	733.333
214.34	600.000
214.72	536.364
215.09	800.000
215.47	-1900.000
215.84	-1800.000
216.22	1300.000
216.59	285.714
216.97	850.000
217.34	345.455
217.72	-500.000
218.09	0.000
218.47	-2900.000
218.84	466.667
219.22	614.286
219.59	1133.333
219.97	-457.143
220.34	740.000
220.72	-933.333
221.09	300.000
221.47	1075.000
221.84	-700.000
222.22	0.000
222.59	825.000
222.97	-1950.000
223.34	900.000
223.72	330.769
224.09	980.000
224.46	1400.000
224.84	-3500.000
225.21	-900.000
225.59	-3400.000
225.96	480.000
226.34	200.000
226.71	1600.000
227.08	625.000
227.46	480.000
227.83	-975.000
228.21	-1650.000
228.58	455.556
228.95	-1750.000
229.33	-1850.000
229.70	1266.667
230.08	600.000
230.45	-680.000
230.82	291.667
231.20	733.333
231.57	500.000
231.95	450.000
232.32	204.545
232.69	309.091
233.07	357.143
233.44	276.923
233.81	-1400.000
234.19	184.211
234.56	316.667
234.93	225.000
235.31	345.455
235.68	276.923
236.05	257.143
236.43	127.273
236.80	142.105
237.17	3500.000
237.55	128.571
237.92	139.286
238.29	171.429
238.67	112.903
239.04	120.690
239.41	116.667
239.79	91.304
240.16	109.524
240.53	90.909
240.91	86.275
241.28	88.000
241.65	74.000
242.02	59.420
242.40	61.290
242.77	60.000
243.14	40.860
243.51	65.169
243.89	50.588
244.26	36.667
244.63	44.086
245.00	46.809
245.38	34.653
245.75	46.729
246.12	32.110
246.49	40.876
246.87	53.600
247.24	38.462
247.61	32.143
247.98	31.373
248.36	26.351
248.73	35.032
249.10	34.395
249.47	32.768
249.84	35.294
250.22	26.203
250.59	32.544
250.96	31.313
251.33	30.806
251.70	30.198
252.08	29.524
252.45	25.561
252.82	26.087
253.19	27.234
253.56	27.843
253.94	28.216
254.31	26.953
254.68	26.538
255.05	26.199
255.42	19.919
255.79	24.265
256.16	27.076
256.54	19.081
256.91	20.285
257.28	22.662
257.65	23.432
258.02	25.466
258.39	23.028
258.76	22.074
259.14	23.810
259.51	20.669
259.88	15.217
260.25	22.054
260.62	19.364
260.99	18.634
261.36	22.222
261.73	20.917
262.10	14.826
262.47	20.282
262.85	20.334
263.22	15.954
263.59	20.798
263.96	18.956
264.33	16.449
264.70	17.895
265.07	20.205
265.44	18.182
265.81	18.735
266.18	16.834
266.55	17.073
266.92	19.902
267.29	18.519
267.66	16.514
268.03	18.409
268.40	20.093
268.77	18.377
269.14	18.694
269.51	20.090
269.88	18.415
270.25	14.898
270.62	17.528
270.99	21.290
271.36	18.670
271.73	17.523
272.10	18.043
272.47	17.634
272.84	14.935
273.21	20.335
273.58	14.629
273.95	18.868
274.32	14.876
274.69	19.486
275.06	16.339
275.43	16.596
275.80	15.631
276.17	15.479
276.54	14.969
276.91	18.775
277.28	15.430
277.65	17.602
278.02	15.114
278.39	18.164
278.76	15.636
279.13	14.717
279.50	13.966
279.87	16.135
280.23	16.168
280.60	15.280
280.97	14.048
281.34	16.460
281.71	17.273
282.08	17.466
282.45	15.091
282.82	15.098
283.19	12.834
283.56	14.912
283.92	13.367
284.29	14.638
284.66	15.064
285.03	16.456
285.40	13.908
285.77	13.973
286.14	15.371
286.51	16.833
286.87	15.214
287.24	15.798
287.61	15.570
287.98	15.260
288.35	14.263
288.72	13.551
289.08	15.023
289.45	14.333
289.82	13.984
290.19	14.600
290.56	14.701
290.93	11.782
291.29	13.650
291.66	15.339
292.03	14.390
292.40	16.153
292.77	13.018
293.13	13.731
293.50	13.994
293.87	14.074
294.24	12.296
294.60	11.063
294.97	11.919
295.34	13.540
295.71	13.068
296.08	10.684
296.44	11.692
296.81	11.096
297.18	13.415
297.55	10.818
297.91	11.214
298.28	13.521
298.65	12.141
299.02	13.175
299.38	12.085
299.75	9.838
300.12	10.473
300.48	12.250
300.85	12.084
301.22	11.210
301.59	11.364
301.95	11.965
302.32	10.655
302.69	10.394
303.05	10.424
303.42	10.864
303.79	11.552
304.15	10.373
304.52	10.892
304.89	10.801
305.25	11.949
305.62	11.099
305.99	11.216
306.35	10.626
306.72	11.099
307.09	11.432
307.45	11.712
307.82	9.821
308.19	10.817
308.55	11.435
308.92	10.419
309.29	9.293
309.65	9.332
310.02	10.148
310.38	10.645
310.75	10.771
311.12	10.952
311.48	10.763
311.85	9.853
312.22	9.781
312.58	10.291
312.95	11.404
313.31	9.515
313.68	8.836
314.05	11.440
314.41	11.256
314.78	10.070
315.14	10.228
315.51	10.608
315.87	10.396
316.24	10.328
316.61	10.234
316.97	9.883
317.34	9.100
317.70	9.943
318.07	10.010
318.43	10.568
318.80	9.653
319.16	10.075
319.53	9.193
319.89	10.476
320.26	10.700
320.62	9.425
320.99	9.899
321.35	10.000
321.72	10.883
322.08	10.168
322.45	10.647
322.81	10.950
323.18	10.405
323.54	11.039
323.91	11.132
324.27	10.516
324.64	9.226
325.00	9.558
325.37	11.647
325.73	10.233
326.10	9.267
326.46	9.140
326.83	9.060
327.19	9.052
327.56	9.930
327.92	9.886
328.29	10.648
328.65	10.129
329.01	10.650
329.38	9.436
329.74	10.065
330.11	9.142
330.47	9.734
330.84	11.673
331.20	9.927
331.56	10.183
331.93	9.352
332.29	10.470
332.66	10.442
333.02	10.055
333.38	10.027
333.75	10.784
334.11	9.786
334.48	10.115
334.84	9.743
335.20	9.091
335.57	8.432
335.93	9.018
336.29	9.890
336.66	9.288
337.02	9.593
337.38	10.185
337.75	9.537
338.11	8.863
338.47	9.300
338.84	10.357
339.20	8.349
339.56	11.040
339.93	9.545
340.29	9.601
340.65	9.537
341.02	10.820
341.38	10.676
341.74	8.947
342.11	9.258
342.47	9.515
342.83	9.589
343.20	10.736
343.56	9.014
343.92	8.947
344.28	10.374
344.65	9.200
345.01	8.754
345.37	9.005
345.73	9.391
346.10	9.463
346.46	10.339
346.82	9.720
347.19	9.190
347.55	9.195
347.91	10.032
348.27	9.367
348.63	9.030
349.00	8.657
349.36	9.113
349.72	8.741
350.08	9.562
350.45	9.357
350.81	8.448
351.17	9.157
351.53	7.535
351.89	8.416
352.26	9.787
352.62	9.062
352.98	9.076
353.34	8.463
353.70	8.920
354.07	9.355
354.43	9.365
354.79	7.884
355.15	8.380
355.51	9.033
355.87	9.224
356.24	8.632
356.60	8.099
356.96	8.930
357.32	8.095
357.68	8.583
358.04	8.947
358.40	9.184
358.77	8.294
359.13	8.524
359.49	8.784
359.85	6.746
360.21	8.373
360.57	8.794
360.93	9.308
361.29	8.390
361.66	8.050
362.02	9.030
362.38	8.137
362.74	9.226
363.10	7.624
363.46	8.731
363.82	7.710
364.18	8.664
364.54	8.692
364.90	8.782
365.26	7.647
365.62	9.058
365.98	7.670
366.35	7.235
366.71	8.894
367.07	8.303
367.43	7.983
367.79	8.779
368.15	9.842
368.51	8.358
368.87	8.637
369.23	7.754
369.59	8.182
369.95	7.132
370.31	8.262
370.67	8.261
371.03	8.464
371.39	8.892
371.75	7.941
372.11	8.464
372.47	8.284
372.83	8.934
373.19	7.225
373.55	7.982
373.91	8.984
374.27	8.041
374.63	8.436
374.99	9.463
375.35	7.746
375.71	7.676
376.07	8.985
376.42	7.290
376.78	8.085
377.14	7.666
377.50	8.477
377.86	8.045
378.22	8.154
378.58	7.331
378.94	7.605
379.30	7.252
379.66	8.122
380.02	8.170
380.38	7.407
380.74	8.283
381.09	7.946
381.45	8.359
381.81	8.292
382.17	7.707
382.53	6.792
382.89	8.148
383.25	7.255
383.61	7.683
383.97	8.193
384.32	7.735
384.68	7.373
385.04	7.253
385.40	7.430
385.76	7.617
386.12	8.161
386.48	7.615
386.83	7.120
387.19	8.720
387.55	7.792
387.91	7.255
388.27	7.051
388.62	8.297
388.98	6.572
389.34	8.511
389.70	7.787
390.06	7.858
390.42	8.171
390.77	7.824
391.13	7.849
391.49	8.185
391.85	7.957
392.20	6.309
392.56	7.197
392.92	7.357
393.28	6.095
393.64	7.434
393.99	7.697
394.35	7.692
394.71	7.026
395.07	7.601
395.42	7.355
395.78	7.697
396.14	8.007
396.50	7.769
396.85	7.629
397.21	7.398
397.57	7.688
397.92	7.692
398.28	6.895
398.64	7.467
399.00	7.331
399.35	6.825
399.71	7.176
400.07	8.161
400.42	7.485
400.78	7.660
401.14	6.768
401.49	7.701
401.85	7.260
402.21	6.826
402.57	7.650
402.92	7.945
403.28	7.933
403.63	7.797
403.99	6.561
404.35	7.818
404.70	8.273
405.06	6.931
405.42	7.673
405.77	6.514
406.13	7.280
406.49	8.161
406.84	7.679
407.20	7.506
407.55	8.041
407.91	7.400
408.27	7.020
408.62	7.646
408.98	8.088
409.34	7.073
409.69	7.742
410.05	7.435
410.40	7.523
410.76	7.826
411.11	8.504
411.47	6.581
411.83	7.208
412.18	7.174
412.54	7.970
412.89	8.554
413.25	7.379
413.60	7.783
413.96	7.347
414.31	8.080
414.67	8.682
415.03	7.483
415.38	8.634
415.74	7.781
416.09	8.295
416.45	8.300
416.80	7.535
417.16	8.445
417.51	7.963
417.87	6.872
418.22	8.265
418.58	8.651
418.93	7.555
419.29	7.829
419.64	8.375
420.00	7.744
420.35	7.826
420.71	8.069
421.06	7.876
421.42	7.427
421.77	8.296
422.12	7.075
422.48	6.746
422.83	7.804
423.19	8.232
423.54	7.139
423.90	7.884
424.25	8.152
424.61	7.202
424.96	7.114
425.31	8.084
425.67	7.528
426.02	7.200
426.38	7.509
426.73	7.782
427.09	7.720
427.44	7.821
427.79	7.418
428.15	8.988
428.50	7.782
428.85	7.926
429.21	7.289
429.56	7.206
429.92	7.650
430.27	7.696
430.62	6.861
430.98	7.525
431.33	7.320
431.68	8.325
432.04	8.040
432.39	7.881
432.74	8.318
433.10	7.074
433.45	8.280
433.80	7.871
434.16	8.066
434.51	7.632
434.86	7.697
435.22	7.782
435.57	7.660
435.92	7.548
436.28	7.829
436.63	8.278
436.98	7.728
437.34	8.408
437.69	8.576
438.04	8.038
438.39	8.000
438.75	8.483
439.10	8.045
439.45	7.733
439.81	7.432
440.16	7.284
440.51	7.733
440.86	7.585
441.22	7.564
441.57	8.015
441.92	7.267
442.27	8.181
442.63	7.530
442.98	8.563
443.33	8.152
443.68	7.744
444.03	7.565
444.39	7.400
444.74	7.900
445.09	8.248
445.44	8.584
445.79	7.422
446.15	8.205
446.50	7.270
446.85	7.451
447.20	7.802
447.55	7.370
447.91	7.612
448.26	7.735
448.61	7.575
448.96	8.195
449.31	8.436
449.66	7.991
450.02	7.632
450.37	8.050
450.72	7.783
451.07	7.800
451.42	7.112
451.77	7.986
452.12	8.661
452.47	8.209
452.83	7.634
453.18	8.313
453.53	8.596
453.88	8.033
454.23	8.428
454.58	8.359
454.93	8.392
455.28	7.107
455.63	8.313
455.98	7.976
456.34	8.040
456.69	8.516
457.04	7.988
457.39	7.189
457.74	7.835
458.09	7.763
458.44	8.438
458.79	7.484
459.14	7.844
459.49	7.881
459.84	8.144
460.19	7.602
460.54	8.275
460.89	7.844
461.24	8.500
461.59	9.355
461.94	7.337
462.29	8.843
462.64	8.807
462.99	8.393
463.34	9.267
463.69	8.318
464.04	7.942
464.39	8.928
464.74	7.903
465.09	8.444
465.44	7.701
465.79	7.438
466.14	8.703
466.49	8.120
466.84	8.231
467.19	8.811
467.54	8.438
467.89	8.163
468.24	8.319
468.59	8.242
468.94	8.369
469.29	9.512
469.64	9.438
469.99	8.254
470.34	7.926
470.68	8.046
471.03	8.503
471.38	8.895
471.73	9.260
472.08	8.882
472.43	8.794
472.78	8.361
473.13	8.537
473.48	8.427
473.83	8.537
474.17	8.587
474.52	8.189
474.87	8.581
475.22	8.822
475.57	8.168
475.92	8.497
476.27	8.174
476.61	8.660
476.96	7.916
477.31	8.111
477.66	8.151
478.01	8.207
478.36	8.567
478.70	7.632
479.05	8.733
479.40	8.802
479.75	8.083
480.10	8.101
480.45	8.425
480.79	7.979
481.14	8.268
481.49	7.879
481.84	7.956
482.19	7.996
482.53	8.257
482.88	8.376
483.23	8.598
483.58	8.189
483.92	7.591
484.27	7.233
484.62	7.888
484.97	7.726
485.31	7.500
485.66	6.195
486.01	6.061
486.36	5.914
486.70	6.094
487.05	6.495
487.40	6.691
487.75	6.763
488.09	6.976
488.44	6.871
488.79	7.595
489.13	7.525
489.48	7.178
489.83	8.157
490.17	8.505
490.52	7.927
490.87	7.915
491.22	8.367
491.56	8.109
491.91	8.190
492.26	8.039
492.60	8.710
492.95	7.484
493.30	8.785
493.64	8.213
493.99	8.496
494.34	8.187
494.68	8.929
495.03	7.989
495.37	8.609
495.72	8.918
496.07	9.095
496.41	7.920
496.76	8.575
497.11	8.600
497.45	8.617
497.80	8.205
498.14	7.778
498.49	8.439
498.84	8.725
499.18	8.333
499.53	8.025
499.87	8.434
500.22	8.431
500.56	8.495
500.91	8.173
501.26	9.104
501.60	9.397
501.95	9.074
502.29	8.716
502.64	8.287
502.98	8.649
503.33	8.729
503.67	7.935
504.02	8.746
504.36	8.891
504.71	8.305
505.06	8.819
505.40	9.383
505.75	8.293
506.09	8.698
506.44	8.337
506.78	8.962
507.13	9.288
507.47	9.040
507.82	9.119
508.16	9.017
508.51	9.335
508.85	8.689
509.19	8.929
509.54	8.980
509.88	9.222
510.23	9.254
510.57	9.701
510.92	9.218
511.26	9.096
511.61	9.388
511.95	9.342
512.30	9.014
512.64	9.242
512.98	9.218
513.33	9.636
513.67	9.338
514.02	9.686
514.36	10.049
514.70	9.629
515.05	8.589
515.39	10.376
515.74	9.910
516.08	10.732
516.42	10.100
516.77	9.922
517.11	9.878
517.46	10.102
517.80	10.105
518.14	9.265
518.49	9.802
518.83	10.682
519.17	9.353
519.52	10.187
519.86	10.496
520.20	11.040
520.55	11.071
520.89	10.523
521.23	10.615
521.58	10.324
521.92	11.145
522.26	10.372
522.61	10.405
522.95	10.681
523.29	10.286
523.64	10.549
523.98	10.721
524.32	11.098
524.66	10.944
525.01	11.029
525.35	11.029
525.69	10.530
526.04	10.841
526.38	10.738
526.72	11.718
527.06	10.923
527.41	9.963
527.75	11.190
528.09	10.662
528.43	10.516
528.78	10.756
529.12	10.667
529.46	11.758
529.80	11.077
530.15	11.277
530.49	10.831
530.83	11.266
531.17	11.423
531.51	11.414
531.86	11.548
532.20	12.125
532.54	11.083
532.88	11.104
533.22	10.369
533.57	11.173
533.91	11.078
534.25	10.936
534.59	11.226
534.93	11.184
535.27	10.923
535.62	11.416
535.96	10.860
536.30	11.189
536.64	11.333
536.98	11.546
537.32	10.731
537.66	10.000
538.01	11.784
538.35	10.472
538.69	11.551
539.03	10.526
539.37	11.182
539.71	9.981
540.05	10.915
540.39	11.163
540.73	10.737
541.07	10.902
541.42	11.285
541.76	12.000
542.10	11.514
542.44	11.325
542.78	11.858
543.12	11.068
543.46	11.148
543.80	11.321
544.14	10.270
544.48	10.794
544.82	11.097
545.16	10.995
545.50	11.440
545.84	11.156
546.18	11.717
546.52	11.700
546.86	11.134
547.20	11.935
547.54	11.824
547.88	11.990
548.22	10.212
548.56	10.692
548.90	10.563
549.24	10.505
549.58	11.733
549.92	11.882
550.26	11.648
550.60	11.618
550.94	11.479
551.28	11.046
551.62	11.934
551.96	11.509
552.30	11.126
552.64	11.697
552.98	11.458
553.32	11.396
553.66	12.406
554.00	12.011
554.34	12.491
554.68	12.160
555.02	11.425
555.36	11.343
555.69	10.893
556.03	12.584
556.37	11.187
556.71	11.119
557.05	11.415
557.39	11.617
557.73	12.350
558.07	10.660
558.41	11.867
558.75	11.609
559.08	12.155
559.42	11.943
559.76	11.985
560.10	11.349
560.44	11.461
560.78	10.845
561.12	10.554
561.45	12.386
561.79	11.404
562.13	10.865
562.47	11.680
562.81	11.646
563.15	11.572
563.48	10.875
563.82	11.416
564.16	10.791
564.50	10.677
564.84	10.430
565.17	9.910
565.51	10.990
565.85	10.787
566.19	10.770
566.52	10.513
566.86	10.488
567.20	11.439
567.54	10.388
567.88	9.614
568.21	10.635
568.55	10.212
568.89	10.019
569.23	9.180
569.56	9.595
569.90	8.340
570.24	8.970
570.57	8.943
570.91	8.274
571.25	8.153
571.59	8.630
571.92	8.180
572.26	8.117
572.60	8.318
572.93	8.246
573.27	8.045
573.61	8.208
573.95	8.088
574.28	7.915
574.62	7.993
574.96	7.861
575.29	8.123
575.63	7.851
575.97	7.915
576.30	8.232
576.64	7.657
576.98	7.535
577.31	7.440
577.65	7.470
577.98	7.539
578.32	7.208
578.66	7.610
578.99	7.806
579.33	8.037
579.67	7.760
580.00	7.624
580.34	7.641
580.67	7.729
581.01	8.185
581.35	7.384
581.68	7.328
582.02	7.084
582.35	7.306
582.69	7.751
583.02	7.659
583.36	7.747
583.70	7.892
584.03	8.203
584.37	8.037
584.70	8.020
585.04	8.219
585.37	7.945
585.71	8.130
586.04	8.094
586.38	8.020
586.72	8.423
587.05	8.041
587.39	7.942
587.72	8.168
588.06	7.924
588.39	8.477
588.73	8.067
589.06	8.632
589.40	8.519
589.73	8.342
590.07	8.683
590.40	8.769
590.73	9.329
591.07	9.239
591.40	9.152
591.74	9.394
592.07	9.468
592.41	9.673
592.74	8.876
593.08	8.927
593.41	8.257
593.75	8.620
594.08	8.917
594.41	9.049
594.75	8.392
595.08	9.127
595.42	8.301
595.75	8.547
596.09	8.750
596.42	9.627
596.75	9.033
597.09	10.043
597.42	9.106
597.75	9.530
598.09	9.087
598.42	9.493
598.76	8.999
599.09	8.438
599.42	8.443
599.76	8.968
600.09	8.852
600.42	8.583
600.76	8.536
601.09	8.743
601.42	9.018
601.76	8.994
602.09	8.577
602.42	9.475
602.76	9.593
603.09	8.851
603.42	9.176
603.76	9.184
604.09	8.298
604.42	8.928
604.76	9.363
605.09	9.043
605.42	8.850
605.75	9.644
606.09	8.865
606.42	8.786
606.75	9.042
607.09	9.502
607.42	8.943
607.75	8.439
608.08	8.597
608.42	9.951
608.75	9.603
609.08	9.158
609.41	9.567
609.75	9.576
610.08	9.896
610.41	9.590
610.74	9.366
611.07	9.486
611.41	10.402
611.74	10.558
612.07	9.990
612.40	9.811
612.73	9.526
613.07	10.453
613.40	10.111
613.73	9.596
614.06	9.570
614.39	10.593
614.72	10.316
615.06	9.874
615.39	10.032
615.72	9.765
616.05	9.463
616.38	10.061
616.71	10.154
617.05	10.777
617.38	10.162
617.71	10.150
618.04	9.736
618.37	10.349
618.70	10.330
619.03	11.908
619.36	11.609
619.69	11.690
620.03	11.676
620.36	11.029
620.69	10.959
621.02	10.767
621.35	10.650
621.68	10.981
622.01	11.378
622.34	11.573
622.67	12.928
623.00	10.638
623.33	10.722
623.66	11.008
623.99	11.046
624.32	11.983
624.65	11.582
624.99	10.269
625.32	11.586
625.65	10.744
625.98	11.606
626.31	13.219
626.64	12.327
626.97	10.973
627.30	11.970
627.63	13.372
627.96	12.616
628.29	12.336
628.62	14.639
628.95	13.019
629.28	12.682
629.61	13.566
629.94	13.810
630.26	12.679
630.59	12.965
630.92	12.835
631.25	12.636
631.58	13.413
631.91	14.402
632.24	12.764
632.57	13.431
632.90	13.377
633.23	13.870
633.56	14.463
633.89	14.043
634.22	12.713
634.55	15.976
634.88	13.533
635.20	14.934
635.53	14.699
635.86	13.490
636.19	14.000
636.52	14.418
636.85	14.089
637.18	13.594
637.51	14.539
637.83	13.810
638.16	14.450
638.49	15.869
638.82	15.929
639.15	15.125
639.48	14.713
639.81	14.477
640.13	16.797
640.46	15.034
640.79	14.927
641.12	14.718
641.45	15.642
641.77	16.789
642.10	15.205
642.43	14.865
642.76	15.325
643.09	17.025
643.41	16.540
643.74	17.901
644.07	16.463
644.40	18.252
644.73	17.795
645.05	17.908
645.38	17.062
645.71	16.103
646.04	16.611
646.36	19.032
646.69	17.224
647.02	15.306
647.35	17.698
647.67	20.354
648.00	16.585
648.33	15.017
648.66	16.970
648.98	16.792
649.31	14.948
649.64	16.143
649.96	16.692
650.29	17.062
650.62	14.563
650.94	17.990
651.27	18.919
651.60	18.802
651.92	18.051
652.25	15.309
652.58	15.888
652.90	16.904
653.23	15.408
653.56	16.220
653.88	15.689
654.21	16.114
654.54	14.686
654.86	16.511
655.19	15.541
655.52	8.787
655.84	5.725
656.17	6.988
656.49	9.241
656.82	9.795
657.15	7.683
657.47	5.915
657.80	4.843
658.13	5.033
658.45	7.675
658.78	8.324
659.10	8.668
659.43	8.952
659.75	9.647
660.08	10.506
660.41	12.291
660.73	15.756
661.06	13.535
661.38	18.545
661.71	16.538
662.03	20.118
662.36	16.501
662.68	19.679
663.01	17.778
663.33	18.684
663.66	19.328
663.98	17.495
664.31	17.017
664.63	17.004
664.96	15.091
665.28	18.238
665.61	16.959
665.93	19.115
666.26	17.647
666.58	19.038
666.91	18.182
667.23	17.753
667.56	17.279
667.88	19.231
668.21	19.403
668.53	17.787
668.86	18.615
669.18	19.829
669.50	20.000
669.83	21.133
670.15	19.111
670.48	15.033
670.80	19.612
671.13	18.047
671.45	19.149
671.77	20.163
672.10	17.006
672.42	17.314
672.75	15.423
673.07	17.606
673.39	14.828
673.72	17.383
674.04	17.255
674.37	19.029
674.69	16.769
675.01	16.946
675.34	18.480
675.66	18.526
675.98	19.959
676.31	19.538
676.63	18.896
676.95	16.981
677.28	17.290
677.60	17.802
677.92	18.776
678.25	18.070
678.57	18.327
678.89	15.631
679.22	17.878
679.54	18.511
679.86	19.266
680.18	15.564
680.51	16.844
680.83	18.327
681.15	17.170
681.48	18.715
681.80	17.021
682.12	17.433
682.44	15.087
682.77	18.330
683.09	20.601
683.41	19.956
683.73	20.309
684.06	16.736
684.38	16.047
684.70	17.054
685.02	18.949
685.34	15.934
685.67	15.035
685.99	13.230
686.31	17.406
686.63	14.664
686.96	15.000
687.28	16.065
687.60	14.312
687.92	17.916
688.24	17.110
688.56	17.470
688.89	18.465
689.21	18.996
689.53	19.415
689.85	17.073
690.17	17.184
690.49	20.382
690.82	18.925
691.14	16.071
691.46	15.612
691.78	20.482
692.10	17.769
692.42	18.164
692.74	16.390
693.06	16.383
693.39	17.864
693.71	15.066
694.03	18.526
694.35	17.749
694.67	17.391
694.99	19.512
695.31	19.363
695.63	16.507
695.95	19.804
696.27	16.497
696.59	18.394
696.91	19.948
697.23	14.085
697.56	17.058
697.88	15.542
698.20	17.500
698.52	18.925
698.84	18.263
699.16	17.051
699.48	19.477
699.80	15.700
700.12	25.714
700.44	18.568
700.76	20.718
701.08	19.253
701.40	15.642
701.72	19.825
702.04	26.420
702.36	17.847
702.68	19.547
703.00	20.776
703.32	19.947
703.64	20.375
703.96	22.563
704.28	18.605
704.60	20.235
704.91	22.255
705.23	22.581
705.55	19.601
705.87	28.239
706.19	21.908
706.51	23.364
706.83	22.727
707.15	21.849
707.47	17.172
707.79	20.639
708.11	20.776
708.43	19.048
708.74	16.582
709.06	20.000
709.38	20.472
709.70	19.477
710.02	21.068
710.34	19.697
710.66	25.075
710.98	18.750
711.29	24.419
711.61	25.074
711.93	19.551
712.25	20.257
712.57	19.853
712.89	21.453
713.20	20.061
713.52	21.382
713.84	22.152
714.16	21.951
714.48	18.391
714.80	25.228
715.11	21.326
715.43	19.881
715.75	22.609
716.07	22.364
716.39	21.630
716.70	23.588
717.02	21.583
717.34	19.081
717.66	25.000
717.97	27.888
718.29	25.556
718.61	25.547
718.93	25.735
719.24	23.183
719.56	25.424
719.88	22.373
720.20	21.284
720.51	23.693
720.83	21.933
721.15	20.896
721.46	25.177
721.78	27.240
722.10	23.774
722.42	26.316
722.73	21.723
723.05	24.590
723.37	21.862
723.68	24.324
724.00	24.797
724.32	22.984
724.63	20.732
724.95	22.594
725.27	27.935
725.58	23.828
725.90	27.007
726.22	24.906
726.53	25.000
726.85	22.526
727.16	23.488
727.48	21.277
727.80	25.000
728.11	21.377
728.43	22.308
728.74	22.939
729.06	27.737
729.38	27.941
729.69	23.488
730.01	21.160
730.32	22.917
730.64	23.077
730.96	20.462
731.27	22.185
731.59	23.242
731.90	20.117
732.22	18.634
732.53	18.885
732.85	21.474
733.16	21.543
733.48	21.262
733.80	19.805
734.11	22.293
734.43	19.822
734.74	19.714
735.06	18.625
735.37	19.653
735.69	17.516
736.00	25.490
736.32	20.249
736.63	19.808
736.95	19.169
737.26	15.646
737.58	18.710
737.89	21.405
738.21	25.256
738.52	24.286
738.83	23.396
739.15	21.923
739.46	25.547
739.78	20.486
740.09	20.000
740.41	21.935
740.72	18.815
741.04	20.000
741.35	20.833
741.66	22.222
741.98	24.057
742.29	30.622
742.61	29.310
742.92	26.697
743.23	26.496
743.55	24.000
743.86	21.930
744.18	25.664
744.49	32.536
744.80	28.169
745.12	24.545
745.43	23.789
745.74	27.027
746.06	24.312
746.37	26.009
746.68	24.887
747.00	27.778
747.31	25.238
747.62	20.354
747.94	21.145
748.25	21.702
748.56	27.313
748.88	26.238
749.19	27.000
749.50	27.442
749.82	24.390
750.13	19.592
750.44	23.723
750.75	20.702
751.07	23.151
751.38	22.648
751.69	24.910
752.01	21.805
752.32	17.690
752.63	20.922
752.94	22.951
753.26	30.800
753.57	22.358
753.88	22.656
754.19	22.143
754.51	22.569
754.82	21.300
755.13	23.019
755.44	21.429
755.75	19.343
756.07	21.277
756.38	20.803
756.69	23.826
757.00	16.168
757.31	21.365
757.63	17.251
757.94	18.231
758.25	13.971
758.56	17.284
758.87	15.591
759.18	20.909
759.50	19.749
759.81	19.626
760.12	17.812
760.43	19.198
760.74	14.674
761.05	20.056
761.36	18.182
761.67	17.898
761.99	16.149
762.30	22.917
762.61	20.229
762.92	24.219
763.23	20.168
763.54	25.600
763.85	24.219
764.16	23.077
764.47	22.814
764.78	20.495
765.10	19.620
765.41	19.764
765.72	18.563
766.03	20.063
766.34	20.333
766.65	22.979
766.96	23.504
767.27	31.980
767.58	31.250
767.89	34.211
768.20	29.885
768.51	22.843
768.82	25.688
769.13	24.797
769.44	24.696
769.75	25.322
770.06	16.972
770.37	25.339
770.68	22.685
770.99	26.222
771.30	18.033
771.61	25.561
771.92	25.410
772.23	27.311
772.54	17.436
772.85	29.843
773.16	29.787
773.47	29.891
773.78	36.041
774.09	32.738
774.39	33.333
774.70	29.630
775.01	28.986
775.32	34.641
775.63	33.553
775.94	38.129
776.25	43.307
776.56	38.060
776.87	38.525
777.18	36.719
777.48	41.221
777.79	42.424
778.10	39.259
778.41	36.607
778.72	32.117
779.03	32.215
779.34	28.188
779.65	33.108
779.95	31.902
780.26	37.908
780.57	37.931
780.88	38.281
781.19	32.331
781.50	35.135
781.80	32.704
782.11	25.424
782.42	31.013
782.73	25.767
783.04	27.703
783.34	40.141
783.65	37.671
783.96	38.806
784.27	37.063
784.57	25.899
784.88	26.852
785.19	47.619
785.50	37.736
785.81	45.522
786.11	40.164
786.42	29.457
786.73	32.743
787.04	41.509
787.34	47.321
787.65	46.000
787.96	35.135
788.26	35.537
788.57	39.831
788.88	45.455
789.19	45.139
789.49	43.939
789.80	31.298
790.11	59.048
790.41	37.624
790.72	28.916
791.03	45.652
791.33	58.140
791.64	49.485
791.95	47.525
792.25	60.000
792.56	55.844
792.87	52.564
793.17	60.759
793.48	57.471
793.79	54.023
794.09	30.682
794.40	44.538
794.70	37.500
795.01	38.519
795.32	28.777
795.62	42.520
795.93	43.103
796.23	40.708
796.54	47.059
796.85	51.351
797.15	67.606
797.46	54.545
797.76	72.289
798.07	63.291
798.37	55.385
798.68	53.030
798.99	43.662
799.29	63.636
799.60	46.591
799.90	58.904
800.21	56.716
800.51	70.690
800.82	75.439
801.12	85.246
801.43	68.182
801.73	56.757
802.04	60.317
802.34	62.963
802.65	67.188
802.95	79.661
803.26	89.063
803.56	44.286
803.87	70.769
804.17	72.059
804.48	75.926
804.78	67.241
805.09	55.882
805.39	61.538
805.70	69.643
806.00	78.689
806.30	59.091
806.61	56.098
806.91	39.241
807.22	59.211
807.52	41.791
807.83	60.563
808.13	73.438
808.43	55.000
808.74	56.579
809.04	60.870
809.35	70.149
809.65	67.105
809.95	79.032
810.26	59.322
810.56	82.540
810.86	90.909
811.17	92.857
811.47	85.000
811.77	70.370
812.08	78.182
812.38	98.000
812.69	100.000
812.99	120.455
813.29	91.837
813.59	64.286
813.90	87.755
814.20	61.818
814.50	66.154
814.81	69.118
815.11	95.918
815.41	75.410
815.72	97.619
816.02	87.273
816.32	78.571
816.62	105.000
816.93	92.683
817.23	100.000
817.53	90.909
817.84	87.879
818.14	108.696
818.44	100.000
818.74	132.353
819.04	97.500
819.35	120.000
819.65	108.824
819.95	117.857
820.25	110.000
820.56	123.077
820.86	106.818
821.16	90.698
821.46	71.795
821.76	92.000
822.07	140.000
822.37	122.500
822.67	115.152
822.97	107.843
823.27	142.857
823.57	121.622
823.88	132.500
824.18	120.000
824.48	128.571
824.78	208.000
825.08	141.667
825.38	105.405
825.69	119.512
825.99	104.167
826.29	110.345
826.59	147.368
826.89	115.789
827.19	126.471
827.49	116.129
827.79	122.727
828.09	102.273
828.39	78.723
828.70	100.000
829.00	103.704
829.30	80.645
829.60	102.500
829.90	206.667
830.20	178.571
830.50	139.130
830.80	160.870
831.10	130.000
831.40	100.000
831.70	152.174
832.00	150.000
832.30	137.037
832.60	268.750
832.90	130.000
833.20	300.000
833.50	151.613
833.80	155.172
834.10	128.125
834.40	169.231
834.70	205.556
835.00	271.429
835.30	117.143
835.60	238.462
835.90	172.414
836.20	257.143
836.50	151.724
836.80	140.000
837.10	133.333
837.40	176.190
837.70	164.706
838.00	155.556
838.30	166.667
838.60	185.714
838.90	157.692
839.19	245.000
839.49	242.857
839.79	265.000
840.09	210.000
840.39	228.571
840.69	178.261
840.99	183.333
841.29	350.000
841.59	175.000
841.88	250.000
842.18	148.276
842.48	166.667
842.78	140.000
843.08	139.130
843.38	118.750
843.68	650.000
843.97	200.000
844.27	148.276
844.57	209.524
844.87	243.750
845.17	118.519
845.47	1066.667
845.76	377.778
846.06	170.588
846.36	362.500
846.66	264.286
846.96	231.250
847.25	336.364
847.55	336.364
847.85	182.609
848.15	360.000
848.44	285.714
848.74	172.222
849.04	235.294
849.34	400.000
849.63	163.158
849.93	354.545
850.23	760.000
850.53	292.857
850.82	1850.000
851.12	-3000.000
851.42	4100.000
851.71	210.000
852.01	-633.333
852.31	187.500
852.61	1433.333
852.90	204.762
853.20	168.000
853.50	241.176
853.79	271.429
854.09	137.500
854.39	231.250
854.68	121.622
854.98	148.387
855.28	106.667
855.57	148.276
855.87	140.741
856.17	221.053
856.46	180.000
856.76	170.588
857.05	151.724
857.35	145.833
857.65	320.000
857.94	217.391
858.24	192.308
858.53	185.000
858.83	168.182
859.13	273.333
859.42	0.000
859.72	422.222
860.01	381.818
860.31	200.000
860.60	189.474
860.90	191.304
861.20	477.778
861.49	341.667
861.79	-3200.000
862.08	425.000
862.38	204.762
862.67	238.462
862.97	194.118
863.26	433.333
863.56	255.556
863.85	341.667
864.15	587.500
864.44	253.333
864.74	466.667
865.03	425.000
865.33	242.105
865.62	345.455
865.92	346.154
866.21	341.667
866.51	0.000
866.80	427.273
867.10	960.000
867.39	353.846
867.69	336.364
867.98	226.316
868.27	400.000
868.57	200.000
868.86	-2500.000
869.16	275.000
869.45	1550.000
869.75	-2900.000
870.04	308.333
870.33	471.429
870.63	625.000
870.92	1550.000
871.22	471.429
871.51	252.941
871.80	152.381
872.10	228.571
>>>>>End Processed Spectral Data<<<<<
