SpectraSuite Data File
++++++++++++++++++++++++++++++++++++
Date: Wed May 13 20:32:31 PDT 2015
User: schluterlab
Dark Spectrum Present: Yes
Reference Spectrum Present: Yes
Number of Sampled Component Spectra: 1
Spectrometers: USB2E3373
Integration Time (usec): 3000 (USB2E3373)
Spectra Averaged: 3 (USB2E3373)
Boxcar Smoothing: 0 (USB2E3373)
Correct for Electrical Dark: No (USB2E3373)
Strobe/Lamp Enabled: No (USB2E3373)
Correct for Detector Non-linearity: No (USB2E3373)
Correct for Stray Light: No (USB2E3373)
Number of Pixels in Processed Spectrum: 2048
>>>>>Begin Processed Spectral Data<<<<<
178.53	0.000
178.91	-1025.000
179.29	-1025.000
179.67	-177.778
180.04	-900.000
180.42	2100.000
180.80	980.000
181.18	-850.000
181.56	485.714
181.94	0.000
182.31	-500.000
182.69	1600.000
183.07	-387.500
183.45	-366.667
183.83	390.909
184.20	-290.000
184.58	1100.000
184.96	4500.000
185.34	-480.000
185.72	-462.500
186.09	-1700.000
186.47	2400.000
186.85	1300.000
187.23	3300.000
187.61	-1566.667
187.98	1025.000
188.36	472.727
188.74	409.091
189.12	-620.000
189.49	460.000
189.87	-3400.000
190.25	-825.000
190.63	357.143
191.00	353.846
191.38	600.000
191.76	-850.000
192.14	1525.000
192.51	450.000
192.89	733.333
193.27	450.000
193.65	-875.000
194.02	320.000
194.40	740.000
194.78	380.000
195.15	358.333
195.53	450.000
195.91	-1750.000
196.29	343.750
196.66	257.895
197.04	-210.000
197.42	0.000
197.79	470.000
198.17	-4100.000
198.55	585.714
198.92	550.000
199.30	680.000
199.68	0.000
200.05	294.444
200.43	542.857
200.81	3600.000
201.18	1300.000
201.56	-1266.667
201.94	488.889
202.31	355.556
202.69	300.000
203.07	470.000
203.44	0.000
203.82	925.000
204.19	514.286
204.57	300.000
204.95	487.500
205.32	900.000
205.70	400.000
206.08	264.286
206.45	1900.000
206.83	318.750
207.20	800.000
207.58	380.000
207.96	227.778
208.33	425.000
208.71	-783.333
209.08	557.143
209.46	477.778
209.84	336.364
210.21	-1166.667
210.59	975.000
210.96	-325.000
211.34	1850.000
211.71	530.000
212.09	516.667
212.46	0.000
212.84	1433.333
213.22	1150.000
213.59	-2600.000
213.97	783.333
214.34	557.143
214.72	472.727
215.09	860.000
215.47	-1900.000
215.84	-1750.000
216.22	1366.667
216.59	307.143
216.97	950.000
217.34	345.455
217.72	-550.000
218.09	0.000
218.47	-3500.000
218.84	488.889
219.22	685.714
219.59	933.333
219.97	-257.143
220.34	700.000
220.72	-900.000
221.09	292.857
221.47	1125.000
221.84	-666.667
222.22	0.000
222.59	825.000
222.97	-2100.000
223.34	880.000
223.72	300.000
224.09	980.000
224.46	1300.000
224.84	-3500.000
225.21	-480.000
225.59	-3500.000
225.96	380.000
226.34	240.000
226.71	2150.000
227.08	537.500
227.46	470.000
227.83	-975.000
228.21	-1750.000
228.58	477.778
228.95	-2100.000
229.33	-1800.000
229.70	1300.000
230.08	657.143
230.45	-680.000
230.82	341.667
231.20	816.667
231.57	442.857
231.95	341.667
232.32	186.364
232.69	300.000
233.07	557.143
233.44	215.385
233.81	-1400.000
234.19	200.000
234.56	358.333
234.93	316.667
235.31	327.273
235.68	253.846
236.05	314.286
236.43	154.545
236.80	268.421
237.17	4300.000
237.55	219.048
237.92	189.286
238.29	200.000
238.67	158.065
239.04	137.931
239.41	152.778
239.79	117.391
240.16	119.048
240.53	129.545
240.91	127.451
241.28	92.000
241.65	104.000
242.02	95.652
242.40	96.774
242.77	90.000
243.14	81.720
243.51	94.382
243.89	80.000
244.26	74.444
244.63	74.194
245.00	67.021
245.38	66.337
245.75	66.355
246.12	55.046
246.49	70.073
246.87	68.800
247.24	66.154
247.61	68.571
247.98	60.131
248.36	58.108
248.73	60.510
249.10	64.331
249.47	57.627
249.84	55.615
250.22	59.358
250.59	57.988
250.96	56.061
251.33	61.137
251.70	58.911
252.08	56.667
252.45	54.709
252.82	52.609
253.19	55.745
253.56	51.373
253.94	58.091
254.31	47.656
254.68	50.000
255.05	57.934
255.42	51.626
255.79	48.162
256.16	51.986
256.54	46.996
256.91	48.399
257.28	46.043
257.65	48.515
258.02	48.447
258.39	52.997
258.76	47.157
259.14	45.536
259.51	46.201
259.88	46.584
260.25	49.547
260.62	47.399
260.99	47.826
261.36	51.051
261.73	49.284
262.10	46.802
262.47	47.042
262.85	47.911
263.22	44.729
263.59	48.148
263.96	45.879
264.33	45.431
264.70	46.842
265.07	46.547
265.44	46.212
265.81	44.526
266.18	43.216
266.55	42.927
266.92	43.735
267.29	45.370
267.66	42.890
268.03	43.409
268.40	44.626
268.77	43.675
269.14	44.595
269.51	43.341
269.88	44.988
270.25	43.341
270.62	42.472
270.99	44.086
271.36	42.275
271.73	44.393
272.10	42.826
272.47	42.151
272.84	43.939
273.21	43.187
273.58	39.083
273.95	42.138
274.32	42.562
274.69	40.899
275.06	40.157
275.43	41.702
275.80	40.481
276.17	42.770
276.54	40.956
276.91	41.897
277.28	42.773
277.65	41.199
278.02	40.994
278.39	44.141
278.76	40.545
279.13	40.000
279.50	41.155
279.87	42.430
280.23	39.521
280.60	41.973
280.97	39.741
281.34	40.354
281.71	40.000
282.08	42.994
282.45	38.727
282.82	39.609
283.19	39.037
283.56	40.526
283.92	38.240
284.29	40.741
284.66	40.109
285.03	38.517
285.40	38.204
285.77	38.215
286.14	37.824
286.51	38.667
286.87	39.658
287.24	38.762
287.61	37.721
287.98	38.312
288.35	38.986
288.72	36.916
289.08	36.307
289.45	37.232
289.82	35.447
290.19	34.694
290.56	35.528
290.93	34.894
291.29	36.196
291.66	35.398
292.03	35.029
292.40	36.123
292.77	33.580
293.13	32.836
293.50	34.402
293.87	34.074
294.24	33.778
294.60	30.422
294.97	33.285
295.34	33.427
295.71	32.102
296.08	32.764
296.44	32.600
296.81	31.836
297.18	34.553
297.55	29.024
297.91	29.815
298.28	32.530
298.65	30.679
299.02	30.698
299.38	32.404
299.75	30.054
300.12	29.885
300.48	29.375
300.85	28.853
301.22	29.427
301.59	29.293
301.95	31.612
302.32	29.397
302.69	29.032
303.05	29.091
303.42	28.519
303.79	29.445
304.15	27.739
304.52	28.969
304.89	28.920
305.25	27.610
305.62	28.086
305.99	29.280
306.35	29.195
306.72	28.924
307.09	29.856
307.45	28.378
307.82	28.571
308.19	29.801
308.55	28.587
308.92	27.497
309.29	28.089
309.65	28.314
310.02	27.167
310.38	28.495
310.75	29.778
311.12	27.840
311.48	30.199
311.85	29.874
312.22	29.448
312.58	28.898
312.95	28.828
313.31	28.252
313.68	30.249
314.05	30.966
314.41	30.653
314.78	30.010
315.14	31.082
315.51	31.926
315.87	31.584
316.24	31.380
316.61	30.604
316.97	32.485
317.34	30.822
317.70	32.696
318.07	35.322
318.43	34.932
318.80	34.958
319.16	34.746
319.53	34.615
319.89	35.810
320.26	37.200
320.62	37.897
320.99	36.869
321.35	37.475
321.72	38.398
322.08	38.006
322.45	38.806
322.81	41.085
323.18	41.715
323.54	39.981
323.91	41.321
324.27	41.587
324.64	42.870
325.00	41.118
325.37	42.675
325.73	43.447
326.10	43.866
326.46	43.548
326.83	44.176
327.19	44.065
327.56	46.080
327.92	46.282
328.29	46.850
328.65	47.606
329.01	48.646
329.38	46.716
329.74	47.461
330.11	47.220
330.47	47.934
330.84	48.989
331.20	47.359
331.56	48.165
331.93	48.796
332.29	48.004
332.66	48.673
333.02	50.183
333.38	50.768
333.75	49.911
334.11	49.555
334.48	49.512
334.84	50.184
335.20	51.455
335.57	51.224
335.93	48.929
336.29	50.366
336.66	50.586
337.02	50.136
337.38	51.944
337.75	50.267
338.11	49.597
338.47	50.276
338.84	50.687
339.20	50.275
339.56	52.007
339.93	51.545
340.29	49.909
340.65	48.485
341.02	51.571
341.38	49.733
341.74	49.123
342.11	50.393
342.47	50.573
342.83	49.572
343.20	50.563
343.56	48.694
343.92	50.614
344.28	49.660
344.65	50.473
345.01	48.064
345.37	49.914
345.73	47.970
346.10	49.190
346.46	48.220
346.82	48.929
347.19	48.538
347.55	47.291
347.91	47.735
348.27	50.452
348.63	48.662
349.00	47.006
349.36	48.522
349.72	47.634
350.08	47.488
350.45	48.902
350.81	49.472
351.17	46.677
351.53	46.929
351.89	45.792
352.26	47.672
352.62	47.233
352.98	47.731
353.34	46.426
353.70	46.072
354.07	47.339
354.43	45.159
354.79	46.340
355.15	45.890
355.51	47.002
355.87	46.776
356.24	47.068
356.60	47.153
356.96	47.305
357.32	46.607
357.68	46.772
358.04	46.239
358.40	45.368
358.77	44.366
359.13	44.830
359.49	46.824
359.85	44.365
360.21	43.939
360.57	46.226
360.93	45.615
361.29	44.067
361.66	43.421
362.02	45.149
362.38	46.312
362.74	45.164
363.10	44.634
363.46	44.607
363.82	44.747
364.18	44.567
364.54	44.948
364.90	44.688
365.26	44.044
365.62	45.142
365.98	43.535
366.35	43.768
366.71	43.601
367.07	44.720
367.43	44.557
367.79	43.540
368.15	44.325
368.51	43.605
368.87	42.827
369.23	44.477
369.59	43.374
369.95	43.382
370.31	42.308
370.67	43.043
371.03	43.446
371.39	43.732
371.75	41.691
372.11	41.821
372.47	44.062
372.83	43.012
373.19	41.618
373.55	43.976
373.91	43.594
374.27	41.787
374.63	42.618
374.99	42.020
375.35	42.010
375.71	40.987
376.07	42.318
376.42	41.747
376.78	41.617
377.14	41.723
377.50	42.185
377.86	40.758
378.22	42.415
378.58	40.351
378.94	40.918
379.30	41.158
379.66	42.893
380.02	41.585
380.38	40.984
380.74	40.396
381.09	39.853
381.45	41.426
381.81	40.602
382.17	41.592
382.53	40.126
382.89	41.667
383.25	40.713
383.61	42.007
383.97	40.838
384.32	39.551
384.68	39.591
385.04	40.074
385.40	38.885
385.76	40.111
386.12	39.508
386.48	40.088
386.83	40.539
387.19	40.198
387.55	40.012
387.91	40.508
388.27	39.975
388.62	39.766
388.98	38.636
389.34	39.737
389.70	40.037
390.06	39.797
390.42	40.143
390.77	39.440
391.13	40.268
391.49	39.277
391.85	39.529
392.20	39.432
392.56	39.646
392.92	39.788
393.28	38.817
393.64	39.748
393.99	39.035
394.35	37.965
394.71	38.582
395.07	38.941
395.42	39.802
395.78	38.613
396.14	37.616
396.50	39.662
396.85	38.843
397.21	38.163
397.57	38.376
397.92	38.101
398.28	37.948
398.64	37.993
399.00	37.661
399.35	37.451
399.71	37.674
400.07	37.966
400.42	37.914
400.78	39.324
401.14	37.744
401.49	38.746
401.85	37.447
402.21	36.886
402.57	37.446
402.92	38.840
403.28	38.226
403.63	38.181
403.99	37.643
404.35	38.061
404.70	37.470
405.06	38.497
405.42	37.243
405.77	37.029
406.13	36.230
406.49	37.966
406.84	37.271
407.20	38.239
407.55	37.013
407.91	38.067
408.27	37.205
408.62	37.869
408.98	36.949
409.34	36.777
409.69	37.032
410.05	36.555
410.40	36.514
410.76	36.798
411.11	37.334
411.47	35.911
411.83	37.385
412.18	35.807
412.54	37.609
412.89	36.506
413.25	36.482
413.60	36.751
413.96	36.673
414.31	36.938
414.67	36.819
415.03	37.682
415.38	36.469
415.74	36.527
416.09	37.753
416.45	36.814
416.80	36.682
417.16	36.796
417.51	37.624
417.87	36.480
418.22	36.782
418.58	38.154
418.93	36.671
419.29	36.728
419.64	36.335
420.00	37.378
420.35	36.580
420.71	38.135
421.06	36.158
421.42	37.485
421.77	37.052
422.12	36.216
422.48	37.183
422.83	36.517
423.19	36.188
423.54	36.854
423.90	37.217
424.25	37.353
424.61	36.071
424.96	36.793
425.31	36.766
425.67	36.517
426.02	36.800
426.38	37.424
426.73	36.220
427.09	37.204
427.44	36.918
427.79	36.515
428.15	37.024
428.50	37.215
428.85	37.485
429.21	36.610
429.56	36.910
429.92	36.789
430.27	37.239
430.62	37.225
430.98	38.298
431.33	37.062
431.68	37.487
432.04	36.848
432.39	37.179
432.74	36.146
433.10	38.087
433.45	37.434
433.80	36.197
434.16	35.897
434.51	37.263
434.86	37.571
435.22	37.410
435.57	37.143
435.92	37.566
436.28	38.019
436.63	36.865
436.98	37.665
437.34	37.329
437.69	38.390
438.04	38.336
438.39	38.328
438.75	37.769
439.10	38.659
439.45	38.371
439.81	37.281
440.16	36.759
440.51	39.426
440.86	38.506
441.22	38.098
441.57	37.951
441.92	37.973
442.27	39.397
442.63	38.073
442.98	38.648
443.33	37.935
443.68	37.119
444.03	38.311
444.39	37.196
444.74	38.907
445.09	38.814
445.44	37.562
445.79	38.644
446.15	39.227
446.50	37.964
446.85	38.232
447.20	38.246
447.55	38.526
447.91	39.051
448.26	38.731
448.61	38.440
448.96	39.646
449.31	40.157
449.66	39.055
450.02	38.997
450.37	38.832
450.72	39.707
451.07	39.488
451.42	38.845
451.77	40.399
452.12	38.568
452.47	39.428
452.83	38.986
453.18	39.548
453.53	39.827
453.88	39.575
454.23	39.211
454.58	39.733
454.93	39.860
455.28	39.401
455.63	40.413
455.98	40.298
456.34	40.075
456.69	39.136
457.04	40.124
457.39	39.275
457.74	40.801
458.09	40.426
458.44	39.681
458.79	38.991
459.14	41.253
459.49	40.981
459.84	39.889
460.19	40.719
460.54	39.815
460.89	40.208
461.24	41.226
461.59	41.371
461.94	39.642
462.29	41.780
462.64	39.949
462.99	41.444
463.34	41.600
463.69	39.024
464.04	39.884
464.39	39.826
464.74	40.761
465.09	40.169
465.44	42.604
465.79	39.877
466.14	41.051
466.49	39.822
466.84	41.448
467.19	40.193
467.54	41.000
467.89	39.916
468.24	40.547
468.59	41.575
468.94	40.318
469.29	42.224
469.64	41.700
469.99	41.272
470.34	40.753
470.68	41.882
471.03	41.156
471.38	41.557
471.73	41.572
472.08	40.921
472.43	40.955
472.78	41.540
473.13	41.078
473.48	41.885
473.83	41.890
474.17	40.386
474.52	42.060
474.87	42.440
475.22	41.033
475.57	40.892
475.92	41.529
476.27	42.334
476.61	40.982
476.96	40.847
477.31	40.136
477.66	41.740
478.01	40.512
478.36	41.512
478.70	41.018
479.05	40.895
479.40	42.631
479.75	40.569
480.10	41.750
480.45	41.076
480.79	41.854
481.14	41.096
481.49	42.715
481.84	41.381
482.19	42.617
482.53	41.376
482.88	41.135
483.23	42.009
483.58	42.084
483.92	42.362
484.27	40.349
484.62	42.069
484.97	40.875
485.31	41.849
485.66	39.971
486.01	40.752
486.36	40.429
486.70	41.032
487.05	40.415
487.40	41.471
487.75	41.731
488.09	42.099
488.44	41.961
488.79	42.749
489.13	41.979
489.48	41.191
489.83	41.260
490.17	42.569
490.52	41.674
490.87	42.560
491.22	42.610
491.56	42.551
491.91	42.020
492.26	41.341
492.60	41.475
492.95	41.487
493.30	42.477
493.64	42.464
493.99	41.876
494.34	43.108
494.68	42.674
495.03	41.964
495.37	42.159
495.72	42.690
496.07	42.599
496.41	41.018
496.76	42.524
497.11	43.134
497.45	42.757
497.80	42.802
498.14	42.271
498.49	41.805
498.84	43.241
499.18	42.952
499.53	42.830
499.87	42.964
500.22	43.523
500.56	43.786
500.91	42.308
501.26	42.390
501.60	43.759
501.95	42.301
502.29	43.674
502.64	43.529
502.98	43.104
503.33	42.413
503.67	43.341
504.02	42.797
504.36	42.536
504.71	42.843
505.06	42.892
505.40	43.753
505.75	41.996
506.09	42.857
506.44	43.907
506.78	42.572
507.13	44.321
507.47	44.192
507.82	44.225
508.16	43.820
508.51	43.785
508.85	42.949
509.19	44.439
509.54	43.163
509.88	43.946
510.23	43.599
510.57	44.634
510.92	43.708
511.26	44.039
511.61	43.983
511.95	43.319
512.30	44.274
512.64	43.847
512.98	44.480
513.33	44.218
513.67	42.583
514.02	43.128
514.36	43.583
514.70	44.881
515.05	44.060
515.39	43.803
515.74	44.426
516.08	44.941
516.42	44.284
516.77	44.314
517.11	43.951
517.46	44.921
517.80	45.064
518.14	43.544
518.49	44.457
518.83	44.943
519.17	44.169
519.52	44.369
519.86	45.408
520.20	45.029
520.55	45.721
520.89	45.073
521.23	44.632
521.58	44.598
521.92	45.560
522.26	45.149
522.61	45.234
522.95	44.874
523.29	45.100
523.64	43.963
523.98	45.656
524.32	45.296
524.66	44.859
525.01	45.343
525.35	45.229
525.69	44.643
526.04	45.421
526.38	46.126
526.72	44.049
527.06	45.512
527.41	44.369
527.75	45.016
528.09	46.179
528.43	45.315
528.78	45.421
529.12	45.333
529.46	44.703
529.80	46.349
530.15	45.545
530.49	45.477
530.83	45.886
531.17	46.540
531.51	46.822
531.86	46.129
532.20	46.415
532.54	46.381
532.88	46.277
533.22	45.284
533.57	46.420
533.91	44.732
534.25	45.747
534.59	46.370
534.93	44.795
535.27	45.926
535.62	47.192
535.96	45.135
536.30	46.217
536.64	46.169
536.98	46.914
537.32	46.478
537.66	46.467
538.01	46.544
538.35	46.994
538.69	47.160
539.03	47.238
539.37	45.815
539.71	44.718
540.05	47.451
540.39	46.512
540.73	45.602
541.07	48.540
541.42	47.619
541.76	47.161
542.10	48.060
542.44	47.086
542.78	47.563
543.12	46.769
543.46	47.213
543.80	48.146
544.14	45.892
544.48	47.556
544.82	46.568
545.16	46.259
545.50	46.530
545.84	47.446
546.18	47.407
546.52	46.800
546.86	48.660
547.20	47.876
547.54	47.695
547.88	47.640
548.22	46.389
548.56	47.799
548.90	46.735
549.24	47.946
549.58	48.636
549.92	47.527
550.26	48.935
550.60	46.957
550.94	47.042
551.28	47.403
551.62	47.879
551.96	47.018
552.30	47.509
552.64	48.343
552.98	48.949
553.32	47.539
553.66	48.262
554.00	48.387
554.34	47.826
554.68	49.213
555.02	48.307
555.36	47.738
555.69	49.053
556.03	48.183
556.37	47.613
556.71	47.067
557.05	47.829
557.39	47.376
557.73	48.200
558.07	49.239
558.41	47.974
558.75	49.082
559.08	47.800
559.42	48.526
559.76	48.750
560.10	47.537
560.44	48.987
560.78	47.638
561.12	49.538
561.45	49.153
561.79	48.385
562.13	47.619
562.47	48.975
562.81	49.163
563.15	48.161
563.48	48.541
563.82	47.750
564.16	49.444
564.50	48.763
564.84	48.673
565.17	47.876
565.51	49.010
565.85	49.175
566.19	47.902
566.52	49.652
566.86	47.619
567.20	49.941
567.54	48.630
567.88	47.909
568.21	49.471
568.55	48.231
568.89	48.395
569.23	48.619
569.56	47.652
569.90	48.642
570.24	48.834
570.57	48.521
570.91	47.673
571.25	47.962
571.59	48.513
571.92	48.214
572.26	48.382
572.60	48.529
572.93	47.856
573.27	48.743
573.61	48.018
573.95	48.786
574.28	48.166
574.62	47.959
574.96	47.933
575.29	47.818
575.63	48.399
575.97	47.696
576.30	48.247
576.64	48.471
576.98	48.153
577.31	48.660
577.65	48.187
577.98	48.211
578.32	48.511
578.66	48.260
578.99	49.349
579.33	48.245
579.67	48.480
580.00	48.214
580.34	48.600
580.67	49.326
581.01	48.617
581.35	49.131
581.68	48.689
582.02	48.312
582.35	49.349
582.69	49.782
583.02	49.383
583.36	49.366
583.70	49.650
584.03	49.896
584.37	49.407
584.70	49.634
585.04	48.850
585.37	48.975
585.71	48.355
586.04	49.142
586.38	50.496
586.72	49.959
587.05	49.389
587.39	49.129
587.72	50.090
588.06	50.267
588.39	49.575
588.73	49.457
589.06	49.735
589.40	50.943
589.73	50.299
590.07	49.395
590.40	49.799
590.73	50.585
591.07	51.608
591.40	50.232
591.74	51.385
592.07	50.393
592.41	50.062
592.74	49.925
593.08	50.233
593.41	50.933
593.75	49.157
594.08	49.682
594.41	49.593
594.75	50.018
595.08	50.573
595.42	50.228
595.75	50.570
596.09	51.145
596.42	50.570
596.75	50.485
597.09	51.212
597.42	49.241
597.75	50.496
598.09	50.783
598.42	50.344
598.76	50.385
599.09	50.057
599.42	49.127
599.76	51.061
600.09	50.674
600.42	50.621
600.76	49.857
601.09	49.872
601.42	50.609
601.76	50.588
602.09	51.146
602.42	51.075
602.76	51.511
603.09	51.692
603.42	50.527
603.76	50.305
604.09	50.562
604.42	51.529
604.76	51.455
605.09	50.983
605.42	50.363
605.75	51.118
606.09	50.508
606.42	51.328
606.75	50.726
607.09	50.188
607.42	50.663
607.75	49.789
608.08	50.803
608.42	51.143
608.75	50.631
609.08	49.769
609.41	51.023
609.75	51.310
610.08	52.215
610.41	51.397
610.74	51.656
611.07	52.026
611.41	51.865
611.74	51.533
612.07	52.277
612.40	51.049
612.73	52.421
613.07	53.179
613.40	52.554
613.73	51.232
614.06	51.613
614.39	50.918
614.72	51.211
615.06	51.996
615.39	51.327
615.72	51.994
616.05	51.143
616.38	52.307
616.71	53.444
617.05	52.945
617.38	52.014
617.71	53.333
618.04	52.584
618.37	51.153
618.70	52.209
619.03	53.026
619.36	51.731
619.69	52.042
620.03	53.159
620.36	53.008
620.69	53.836
621.02	53.171
621.35	53.015
621.68	52.492
622.01	53.251
622.34	53.328
622.67	53.916
623.00	51.944
623.33	50.965
623.66	52.609
623.99	52.651
624.32	52.924
624.65	52.331
624.99	52.479
625.32	52.860
625.65	53.794
625.98	54.727
626.31	54.199
626.64	53.143
626.97	52.868
627.30	52.203
627.63	53.733
627.96	54.247
628.29	52.581
628.62	53.522
628.95	54.245
629.28	53.285
629.61	52.429
629.94	53.619
630.26	53.384
630.59	54.242
630.92	53.640
631.25	53.208
631.58	52.753
631.91	53.651
632.24	52.426
632.57	53.620
632.90	53.399
633.23	53.244
633.56	55.141
633.89	54.473
634.22	54.938
634.55	55.266
634.88	54.731
635.20	54.480
635.53	55.542
635.86	54.827
636.19	53.294
636.52	53.287
636.85	56.014
637.18	53.802
637.51	54.610
637.83	53.144
638.16	53.708
638.49	54.156
638.82	56.258
639.15	55.500
639.48	53.741
639.81	56.032
640.13	54.688
640.46	55.034
640.79	53.765
641.12	54.058
641.45	54.050
641.77	55.670
642.10	54.094
642.43	54.354
642.76	54.954
643.09	57.822
643.41	52.807
643.74	56.173
644.07	55.335
644.40	55.521
644.73	54.488
645.05	57.369
645.38	54.976
645.71	55.395
646.04	57.807
646.36	58.431
646.69	56.522
647.02	55.102
647.35	57.904
647.67	56.106
648.00	56.748
648.33	53.960
648.66	52.424
648.98	55.022
649.31	53.961
649.64	54.559
649.96	54.844
650.29	54.818
650.62	55.178
650.94	56.078
651.27	55.068
651.60	52.912
651.92	55.431
652.25	55.375
652.58	56.075
652.90	55.924
653.23	54.391
653.56	54.331
653.88	57.211
654.21	53.081
654.54	56.601
654.86	56.075
655.19	53.514
655.52	46.802
655.84	46.873
656.17	60.270
656.49	80.289
656.82	81.022
657.15	62.000
657.47	45.918
657.80	34.821
658.13	35.891
658.45	53.059
658.78	53.108
659.10	54.228
659.43	53.676
659.75	55.114
660.08	56.456
660.41	56.518
660.73	57.942
661.06	56.688
661.38	58.364
661.71	57.500
662.03	57.791
662.36	55.070
662.68	57.631
663.01	57.778
663.33	54.777
663.66	56.723
663.98	55.292
664.31	57.353
664.63	54.251
664.96	52.716
665.28	57.377
665.61	55.750
665.93	54.728
666.26	56.998
666.58	55.858
666.91	60.042
667.23	56.404
667.56	55.076
667.88	55.983
668.21	54.158
668.53	56.399
668.86	54.113
669.18	56.930
669.50	57.174
669.83	59.913
670.15	57.778
670.48	56.427
670.80	58.621
671.13	57.962
671.45	53.404
671.77	57.230
672.10	53.974
672.42	54.240
672.75	53.566
673.07	57.042
673.39	54.611
673.72	56.055
674.04	56.471
674.37	55.340
674.69	58.691
675.01	53.347
675.34	58.932
675.66	56.211
675.98	57.026
676.31	57.143
676.63	60.085
676.95	53.669
677.28	58.411
677.60	58.462
677.92	59.916
678.25	59.754
678.57	58.765
678.89	56.713
679.22	56.974
679.54	56.870
679.86	54.679
680.18	55.814
680.51	56.383
680.83	53.737
681.15	56.038
681.48	55.577
681.80	55.513
682.12	57.280
682.44	54.352
682.77	59.063
683.09	59.442
683.41	58.980
683.73	56.954
684.06	59.298
684.38	55.773
684.70	58.915
685.02	57.223
685.34	54.762
685.67	55.769
685.99	53.952
686.31	55.119
686.63	54.770
686.96	53.393
687.28	56.498
687.60	56.341
687.92	55.027
688.24	56.654
688.56	56.827
688.89	57.884
689.21	59.607
689.53	54.489
689.85	56.541
690.17	53.209
690.49	55.839
690.82	58.178
691.14	56.027
691.46	52.743
691.78	55.221
692.10	57.851
692.42	54.491
692.74	54.979
693.06	58.085
693.39	57.084
693.71	56.550
694.03	54.947
694.35	57.576
694.67	54.233
694.99	57.317
695.31	57.598
695.63	57.177
695.95	59.658
696.27	58.122
696.59	58.808
696.91	56.477
697.23	57.981
697.56	56.077
697.88	51.943
698.20	53.333
698.52	56.129
698.84	54.120
699.16	54.147
699.48	58.195
699.80	58.454
700.12	62.597
700.44	61.273
700.76	59.116
701.08	56.609
701.40	58.380
701.72	62.974
702.04	61.648
702.36	55.807
702.68	60.340
703.00	59.280
703.32	56.117
703.64	58.713
703.96	61.281
704.28	61.337
704.60	60.411
704.91	58.160
705.23	57.185
705.55	60.797
705.87	60.133
706.19	62.191
706.51	57.632
706.83	61.212
707.15	54.062
707.47	57.828
707.79	59.459
708.11	55.479
708.43	53.810
708.74	54.847
709.06	59.481
709.38	58.005
709.70	60.174
710.02	57.270
710.34	56.364
710.66	59.403
710.98	56.534
711.29	59.012
711.61	56.932
711.93	62.500
712.25	59.486
712.57	65.441
712.89	60.208
713.20	60.182
713.52	57.566
713.84	56.013
714.16	59.756
714.48	57.471
714.80	65.046
715.11	56.196
715.43	55.193
715.75	57.101
716.07	55.272
716.39	57.994
716.70	57.475
717.02	60.432
717.34	56.537
717.66	63.806
717.97	65.737
718.29	58.519
718.61	60.219
718.93	59.926
719.24	58.131
719.56	57.966
719.88	56.271
720.20	57.432
720.51	60.976
720.83	63.197
721.15	61.940
721.46	57.092
721.78	63.082
722.10	62.642
722.42	63.910
722.73	66.667
723.05	59.426
723.37	59.919
723.68	58.687
724.00	57.317
724.32	60.081
724.63	65.447
724.95	64.854
725.27	63.968
725.58	59.375
725.90	64.964
726.22	60.755
726.53	56.944
726.85	58.020
727.16	59.431
727.48	57.092
727.80	59.848
728.11	57.246
728.43	60.000
728.74	58.065
729.06	62.044
729.38	62.868
729.69	60.142
730.01	55.290
730.32	59.028
730.64	59.197
730.96	55.776
731.27	57.616
731.59	60.550
731.90	58.601
732.22	57.143
732.53	57.276
732.85	59.295
733.16	58.199
733.48	58.472
733.80	60.714
734.11	60.191
734.43	55.621
734.74	55.143
735.06	55.587
735.37	59.827
735.69	59.236
736.00	60.784
736.32	57.944
736.63	58.786
736.95	58.147
737.26	55.442
737.58	56.452
737.89	57.525
738.21	57.338
738.52	61.429
738.83	58.868
739.15	60.000
739.46	59.124
739.78	56.944
740.09	55.077
740.41	57.742
740.72	56.794
741.04	57.407
741.35	58.750
741.66	63.556
741.98	60.377
742.29	64.115
742.61	64.224
742.92	61.086
743.23	60.684
743.55	59.600
743.86	60.965
744.18	61.062
744.49	63.158
744.80	67.606
745.12	66.818
745.43	61.233
745.74	66.216
746.06	59.174
746.37	64.126
746.68	61.538
747.00	61.111
747.31	63.810
747.62	60.619
747.94	62.996
748.25	59.574
748.56	66.520
748.88	58.911
749.19	67.500
749.50	63.721
749.82	55.285
750.13	60.816
750.44	60.584
750.75	62.456
751.07	58.521
751.38	57.840
751.69	58.484
752.01	66.165
752.32	61.733
752.63	60.284
752.94	60.656
753.26	66.000
753.57	53.659
753.88	64.453
754.19	51.071
754.51	67.361
754.82	53.791
755.13	57.358
755.44	57.519
755.75	59.489
756.07	56.028
756.38	52.920
756.69	60.738
757.00	51.796
757.31	55.490
757.63	54.386
757.94	54.155
758.25	49.755
758.56	53.827
758.87	51.344
759.18	56.667
759.50	53.918
759.81	58.255
760.12	52.187
760.43	55.301
760.74	57.065
761.05	59.605
761.36	53.476
761.67	55.398
761.99	53.106
762.30	55.556
762.61	57.634
762.92	55.469
763.23	59.244
763.54	62.000
763.85	58.594
764.16	62.308
764.47	60.456
764.78	54.417
765.10	52.532
765.41	56.932
765.72	57.485
766.03	57.680
766.34	56.667
766.65	62.553
766.96	57.265
767.27	69.036
767.58	56.771
767.89	67.368
768.20	66.667
768.51	58.883
768.82	61.468
769.13	54.472
769.44	61.134
769.75	56.223
770.06	58.257
770.37	61.538
770.68	60.185
770.99	61.778
771.30	56.148
771.61	63.229
771.92	57.787
772.23	62.605
772.54	61.026
772.85	66.492
773.16	67.021
773.47	68.478
773.78	61.929
774.09	61.310
774.39	62.573
774.70	64.198
775.01	58.696
775.32	71.895
775.63	74.342
775.94	66.187
776.25	70.079
776.56	68.657
776.87	72.131
777.18	67.969
777.48	72.519
777.79	74.242
778.10	62.222
778.41	83.036
778.72	63.504
779.03	70.470
779.34	79.195
779.65	65.541
779.95	67.485
780.26	67.974
780.57	68.966
780.88	78.906
781.19	63.910
781.50	70.270
781.80	71.069
782.11	63.842
782.42	62.658
782.73	63.190
783.04	68.243
783.34	70.423
783.65	74.658
783.96	67.910
784.27	64.336
784.57	56.835
784.88	78.704
785.19	75.397
785.50	80.189
785.81	73.134
786.11	77.869
786.42	72.868
786.73	72.566
787.04	89.623
787.34	75.000
787.65	82.000
787.96	81.081
788.26	66.116
788.57	82.203
788.88	88.430
789.19	68.750
789.49	78.788
789.80	66.412
790.11	89.524
790.41	76.238
790.72	92.771
791.03	81.522
791.33	87.209
791.64	80.412
791.95	72.277
792.25	77.778
792.56	89.610
792.87	94.872
793.17	91.139
793.48	104.598
793.79	78.161
794.09	88.636
794.40	74.790
794.70	76.471
795.01	73.333
795.32	70.504
795.62	73.228
795.93	70.690
796.23	70.796
796.54	77.647
796.85	83.784
797.15	94.366
797.46	87.879
797.76	96.386
798.07	97.468
798.37	104.615
798.68	115.152
798.99	76.056
799.29	81.818
799.60	81.818
799.90	95.890
800.21	92.537
800.51	112.069
800.82	108.772
801.12	100.000
801.43	109.091
801.73	78.378
802.04	101.587
802.34	90.123
802.65	98.437
802.95	111.864
803.26	107.813
803.56	81.429
803.87	92.308
804.17	102.941
804.48	131.481
804.78	94.828
805.09	94.118
805.39	105.769
805.70	116.071
806.00	100.000
806.30	84.848
806.61	86.585
806.91	81.013
807.22	78.947
807.52	83.582
807.83	102.817
808.13	106.250
808.43	98.333
808.74	84.211
809.04	101.449
809.35	101.493
809.65	93.421
809.95	120.968
810.26	88.136
810.56	98.413
810.86	125.000
811.17	128.571
811.47	105.000
811.77	112.963
812.08	118.182
812.38	120.000
812.69	141.667
812.99	145.455
813.29	110.204
813.59	76.190
813.90	124.490
814.20	110.909
814.50	78.462
814.81	104.412
815.11	118.367
815.41	95.082
815.72	140.476
816.02	109.091
816.32	130.952
816.62	102.500
816.93	143.902
817.23	145.238
817.53	104.545
817.84	151.515
818.14	115.217
818.44	135.556
818.74	164.706
819.04	140.000
819.35	154.286
819.65	191.176
819.95	160.714
820.25	215.000
820.56	135.897
820.86	131.818
821.16	137.209
821.46	138.462
821.76	110.000
822.07	145.714
822.37	137.500
822.67	154.545
822.97	111.765
823.27	171.429
823.57	129.730
823.88	140.000
824.18	163.333
824.48	126.190
824.78	196.000
825.08	154.167
825.38	118.919
825.69	121.951
825.99	195.833
826.29	124.138
826.59	160.526
826.89	131.579
827.19	167.647
827.49	183.871
827.79	140.909
828.09	122.727
828.39	85.106
828.70	108.163
829.00	151.852
829.30	132.258
829.60	127.500
829.90	333.333
830.20	167.857
830.50	134.783
830.80	195.652
831.10	173.333
831.40	136.667
831.70	165.217
832.00	207.692
832.30	148.148
832.60	250.000
832.90	190.000
833.20	342.857
833.50	154.839
833.80	165.517
834.10	190.625
834.40	192.308
834.70	255.556
835.00	257.143
835.30	137.143
835.60	292.308
835.90	206.897
836.20	257.143
836.50	162.069
836.80	156.000
837.10	158.333
837.40	176.190
837.70	229.412
838.00	181.481
838.30	190.476
838.60	257.143
838.90	184.615
839.19	235.000
839.49	364.286
839.79	265.000
840.09	200.000
840.39	214.286
840.69	247.826
840.99	272.222
841.29	380.000
841.59	325.000
841.88	300.000
842.18	131.034
842.48	200.000
842.78	180.000
843.08	221.739
843.38	171.875
843.68	516.667
843.97	192.308
844.27	168.966
844.57	247.619
844.87	281.250
845.17	155.556
845.47	1300.000
845.76	377.778
846.06	229.412
846.36	362.500
846.66	271.429
846.96	193.750
847.25	354.545
847.55	245.455
847.85	230.435
848.15	430.000
848.44	250.000
848.74	166.667
849.04	258.824
849.34	480.000
849.63	184.211
849.93	354.545
850.23	920.000
850.53	278.571
850.82	1850.000
851.12	-3200.000
851.42	3600.000
851.71	210.000
852.01	-766.667
852.31	175.000
852.61	1200.000
852.90	204.762
853.20	172.000
853.50	270.588
853.79	252.381
854.09	220.833
854.39	337.500
854.68	148.649
854.98	187.097
855.28	156.667
855.57	168.966
855.87	214.815
856.17	200.000
856.46	173.333
856.76	276.471
857.05	175.862
857.35	195.833
857.65	233.333
857.94	217.391
858.24	200.000
858.53	220.000
858.83	213.636
859.13	246.667
859.42	0.000
859.72	477.778
860.01	318.182
860.31	186.364
860.60	221.053
860.90	208.696
861.20	422.222
861.49	450.000
861.79	-3800.000
862.08	425.000
862.38	204.762
862.67	238.462
862.97	300.000
863.26	411.111
863.56	188.889
863.85	316.667
864.15	475.000
864.44	313.333
864.74	650.000
865.03	550.000
865.33	263.158
865.62	409.091
865.92	323.077
866.21	291.667
866.51	0.000
866.80	445.455
867.10	900.000
867.39	353.846
867.69	372.727
867.98	221.053
868.27	318.182
868.57	242.105
868.86	-3100.000
869.16	262.500
869.45	1700.000
869.75	-3300.000
870.04	341.667
870.33	600.000
870.63	1075.000
870.92	1750.000
871.22	571.429
871.51	264.706
871.80	142.857
872.10	257.143
>>>>>End Processed Spectral Data<<<<<
