SpectraSuite Data File
++++++++++++++++++++++++++++++++++++
Date: Wed May 13 20:32:41 PDT 2015
User: schluterlab
Dark Spectrum Present: Yes
Reference Spectrum Present: Yes
Number of Sampled Component Spectra: 1
Spectrometers: USB2E3373
Integration Time (usec): 3000 (USB2E3373)
Spectra Averaged: 3 (USB2E3373)
Boxcar Smoothing: 0 (USB2E3373)
Correct for Electrical Dark: No (USB2E3373)
Strobe/Lamp Enabled: No (USB2E3373)
Correct for Detector Non-linearity: No (USB2E3373)
Correct for Stray Light: No (USB2E3373)
Number of Pixels in Processed Spectrum: 2048
>>>>>Begin Processed Spectral Data<<<<<
178.53	0.000
178.91	-1250.000
179.29	-925.000
179.67	-144.444
180.04	-900.000
180.42	2000.000
180.80	500.000
181.18	-775.000
181.56	542.857
181.94	0.000
182.31	-428.571
182.69	1133.333
183.07	-350.000
183.45	-366.667
183.83	472.727
184.20	-370.000
184.58	1500.000
184.96	3400.000
185.34	-560.000
185.72	-462.500
186.09	-1800.000
186.47	1900.000
186.85	1550.000
187.23	3200.000
187.61	-1333.333
187.98	800.000
188.36	390.909
188.74	409.091
189.12	-580.000
189.49	370.000
189.87	-2900.000
190.25	-700.000
190.63	357.143
191.00	315.385
191.38	666.667
191.76	-800.000
192.14	775.000
192.51	425.000
192.89	750.000
193.27	400.000
193.65	-1000.000
194.02	380.000
194.40	660.000
194.78	380.000
195.15	316.667
195.53	470.000
195.91	-1450.000
196.29	325.000
196.66	242.105
197.04	-180.000
197.42	0.000
197.79	440.000
198.17	-4600.000
198.55	457.143
198.92	587.500
199.30	700.000
199.68	0.000
200.05	277.778
200.43	571.429
200.81	2600.000
201.18	1166.667
201.56	-1233.333
201.94	355.556
202.31	422.222
202.69	250.000
203.07	360.000
203.44	0.000
203.82	1025.000
204.19	542.857
204.57	407.143
204.95	500.000
205.32	900.000
205.70	436.364
206.08	257.143
206.45	2000.000
206.83	337.500
207.20	733.333
207.58	560.000
207.96	266.667
208.33	562.500
208.71	-500.000
209.08	628.571
209.46	455.556
209.84	318.182
210.21	-966.667
210.59	1200.000
210.96	-362.500
211.34	1900.000
211.71	480.000
212.09	633.333
212.46	0.000
212.84	866.667
213.22	775.000
213.59	-2900.000
213.97	533.333
214.34	600.000
214.72	509.091
215.09	780.000
215.47	-1450.000
215.84	-2150.000
216.22	1100.000
216.59	271.429
216.97	1025.000
217.34	390.909
217.72	-500.000
218.09	0.000
218.47	-3600.000
218.84	555.556
219.22	628.571
219.59	1033.333
219.97	-457.143
220.34	820.000
220.72	-1166.667
221.09	364.286
221.47	1225.000
221.84	-616.667
222.22	0.000
222.59	1125.000
222.97	-1700.000
223.34	740.000
223.72	384.615
224.09	740.000
224.46	1600.000
224.84	-3800.000
225.21	-880.000
225.59	-3300.000
225.96	460.000
226.34	250.000
226.71	2300.000
227.08	450.000
227.46	410.000
227.83	-575.000
228.21	-1150.000
228.58	444.444
228.95	-1750.000
229.33	-1650.000
229.70	800.000
230.08	500.000
230.45	-440.000
230.82	350.000
231.20	600.000
231.57	414.286
231.95	391.667
232.32	190.909
232.69	381.818
233.07	571.429
233.44	253.846
233.81	-1400.000
234.19	194.737
234.56	316.667
234.93	283.333
235.31	363.636
235.68	307.692
236.05	292.857
236.43	115.152
236.80	205.263
237.17	3000.000
237.55	161.905
237.92	146.429
238.29	180.952
238.67	122.581
239.04	144.828
239.41	111.111
239.79	73.913
240.16	92.857
240.53	81.818
240.91	72.549
241.28	68.000
241.65	68.000
242.02	68.116
242.40	66.129
242.77	45.000
243.14	51.613
243.51	46.067
243.89	49.412
244.26	43.333
244.63	44.086
245.00	31.915
245.38	43.564
245.75	35.514
246.12	35.780
246.49	44.526
246.87	50.400
247.24	34.615
247.61	33.571
247.98	28.758
248.36	30.405
248.73	28.025
249.10	28.662
249.47	32.203
249.84	34.759
250.22	25.134
250.59	27.219
250.96	25.253
251.33	27.488
251.70	28.713
252.08	25.714
252.45	25.112
252.82	23.913
253.19	19.574
253.56	22.353
253.94	24.066
254.31	21.484
254.68	20.385
255.05	22.878
255.42	20.325
255.79	20.221
256.16	19.856
256.54	16.254
256.91	19.929
257.28	14.748
257.65	16.172
258.02	19.255
258.39	16.404
258.76	17.057
259.14	16.964
259.51	17.933
259.88	13.043
260.25	20.242
260.62	16.185
260.99	16.460
261.36	20.721
261.73	16.619
262.10	18.314
262.47	18.310
262.85	16.435
263.22	12.251
263.59	13.960
263.96	15.934
264.33	18.799
264.70	15.000
265.07	17.903
265.44	15.152
265.81	13.869
266.18	15.829
266.55	16.098
266.92	16.216
267.29	16.898
267.66	14.679
268.03	16.136
268.40	16.355
268.77	13.604
269.14	12.387
269.51	16.479
269.88	15.618
270.25	13.770
270.62	14.157
270.99	16.344
271.36	15.236
271.73	10.748
272.10	13.043
272.47	14.839
272.84	14.719
273.21	15.723
273.58	13.319
273.95	12.579
274.32	13.843
274.69	12.848
275.06	13.386
275.43	12.979
275.80	13.828
276.17	13.442
276.54	14.345
276.91	14.427
277.28	12.305
277.65	12.959
278.02	14.493
278.39	13.477
278.76	13.091
279.13	14.151
279.50	13.035
279.87	11.554
280.23	12.575
280.60	10.832
280.97	10.721
281.34	13.097
281.71	14.182
282.08	12.668
282.45	13.455
282.82	13.677
283.19	10.160
283.56	12.632
283.92	13.875
284.29	13.228
284.66	12.523
285.03	11.573
285.40	11.268
285.77	12.626
286.14	10.708
286.51	11.667
286.87	13.333
287.24	12.215
287.61	10.915
287.98	11.526
288.35	12.044
288.72	13.084
289.08	10.955
289.45	10.708
289.82	11.870
290.19	10.204
290.56	11.792
290.93	8.610
291.29	11.196
291.66	11.504
292.03	11.919
292.40	11.894
292.77	10.059
293.13	11.045
293.50	11.370
293.87	10.815
294.24	9.630
294.60	8.734
294.97	11.919
295.34	10.719
295.71	9.801
296.08	10.256
296.44	10.454
296.81	8.851
297.18	10.705
297.55	8.971
297.91	8.839
298.28	10.576
298.65	10.574
299.02	10.540
299.38	9.960
299.75	8.221
300.12	8.301
300.48	9.375
300.85	8.878
301.22	9.936
301.59	8.207
301.95	9.824
302.32	8.087
302.69	9.558
303.05	8.848
303.42	9.506
303.79	10.193
304.15	8.625
304.52	8.922
304.89	8.362
305.25	8.933
305.62	9.060
305.99	8.737
306.35	8.277
306.72	7.848
307.09	9.101
307.45	9.685
307.82	8.817
308.19	8.830
308.55	9.601
308.92	10.419
309.29	8.659
309.65	8.378
310.02	9.514
310.38	8.602
310.75	8.976
311.12	10.235
311.48	9.300
311.85	9.329
312.22	9.365
312.58	9.771
312.95	9.398
313.31	9.515
313.68	10.499
314.05	10.947
314.41	10.653
314.78	10.473
315.14	9.732
315.51	10.711
315.87	11.980
316.24	10.427
316.61	11.306
316.97	11.742
317.34	11.350
317.70	11.759
318.07	12.127
318.43	13.503
318.80	13.590
319.16	12.241
319.53	13.321
319.89	15.048
320.26	15.400
320.62	16.468
320.99	15.758
321.35	16.061
321.72	16.324
322.08	18.361
322.45	19.502
322.81	18.508
323.18	19.750
323.54	18.924
323.91	20.472
324.27	20.268
324.64	19.571
325.00	20.559
325.37	21.474
325.73	21.993
326.10	21.801
326.46	22.222
326.83	23.727
327.19	23.228
327.56	24.129
327.92	23.622
328.29	25.732
328.65	24.678
329.01	25.812
329.38	25.994
329.74	25.392
330.11	26.202
330.47	27.181
330.84	27.941
331.20	26.867
331.56	26.055
331.93	26.759
332.29	26.176
332.66	27.257
333.02	28.611
333.38	28.546
333.75	28.431
334.11	27.135
334.48	27.418
334.84	29.412
335.20	28.727
335.57	28.286
335.93	27.411
336.29	27.656
336.66	28.584
337.02	28.235
337.38	27.315
337.75	28.431
338.11	28.917
338.47	29.558
338.84	29.881
339.20	28.440
339.56	30.566
339.93	28.818
340.29	29.167
340.65	28.431
341.02	29.494
341.38	28.470
341.74	29.035
342.11	28.996
342.47	30.220
342.83	30.137
343.20	29.610
343.56	28.475
343.92	30.439
344.28	28.741
344.65	29.579
345.01	28.704
345.37	28.473
345.73	29.695
346.10	30.009
346.46	30.339
346.82	29.572
347.19	29.073
347.55	29.310
347.91	29.693
348.27	30.403
348.63	30.936
349.00	29.854
349.36	30.296
349.72	28.949
350.08	28.282
350.45	28.967
350.81	29.894
351.17	29.984
351.53	28.993
351.89	29.620
352.26	29.282
352.62	31.676
352.98	30.065
353.34	30.567
353.70	28.887
354.07	30.403
354.43	29.206
354.79	30.008
355.15	29.370
355.51	31.735
355.87	31.918
356.24	30.130
356.60	29.350
356.96	31.134
357.32	30.417
357.68	31.417
358.04	29.691
358.40	30.483
358.77	30.751
359.13	29.361
359.49	30.275
359.85	30.714
360.21	30.781
360.57	30.661
360.93	30.769
361.29	29.630
361.66	31.037
362.02	30.597
362.38	30.951
362.74	30.878
363.10	30.422
363.46	29.934
363.82	31.066
364.18	31.204
364.54	31.575
364.90	31.657
365.26	32.206
365.62	32.871
365.98	30.460
366.35	31.232
366.71	31.453
367.07	31.464
367.43	32.583
367.79	32.762
368.15	31.968
368.51	32.122
368.87	31.763
369.23	31.822
369.59	32.440
369.95	31.985
370.31	32.265
370.67	31.087
371.03	34.232
371.39	32.799
371.75	32.647
372.11	32.006
372.47	32.111
372.83	33.790
373.19	31.720
373.55	32.890
373.91	32.990
374.27	31.615
374.63	32.291
374.99	33.263
375.35	33.077
375.71	33.173
376.07	33.128
376.42	33.494
376.78	33.267
377.14	33.446
377.50	34.437
377.86	33.045
378.22	32.807
378.58	32.644
378.94	33.312
379.30	33.142
379.66	34.708
380.02	32.924
380.38	32.544
380.74	33.613
381.09	33.680
381.45	34.235
381.81	34.091
382.17	33.312
382.53	33.648
382.89	33.642
383.25	34.271
383.61	35.006
383.97	35.022
384.32	34.373
384.68	33.643
385.04	34.050
385.40	33.746
385.76	34.337
386.12	35.104
386.48	35.620
386.83	35.279
387.19	35.436
387.55	35.436
387.91	34.946
388.27	34.641
388.62	36.386
388.98	35.811
389.34	35.357
389.70	35.193
390.06	35.361
390.42	34.112
390.77	34.860
391.13	36.056
391.49	34.581
391.85	34.819
392.20	33.502
392.56	34.975
392.92	35.315
393.28	33.964
393.64	35.312
393.99	35.064
394.35	35.484
394.71	34.065
395.07	35.763
395.42	36.465
395.78	34.860
396.14	35.506
396.50	35.777
396.85	36.109
397.21	35.142
397.57	35.090
397.92	35.877
398.28	34.417
398.64	35.484
399.00	35.814
399.35	35.477
399.71	35.359
400.07	35.600
400.42	35.951
400.78	35.283
401.14	34.878
401.49	35.343
401.85	34.846
402.21	34.491
402.57	35.410
402.92	35.120
403.28	36.040
403.63	35.953
403.99	36.242
404.35	35.515
404.70	35.312
405.06	34.712
405.42	35.808
405.77	35.029
406.13	34.876
406.49	35.127
406.84	35.027
407.20	34.220
407.55	35.163
407.91	36.733
408.27	35.609
408.62	36.364
408.98	35.355
409.34	33.702
409.69	36.774
410.05	35.688
410.40	36.269
410.76	35.364
411.11	36.128
411.47	35.783
411.83	34.514
412.18	35.312
412.54	36.052
412.89	34.699
413.25	35.773
413.60	36.504
413.96	34.487
414.31	35.723
414.67	35.171
415.03	36.225
415.38	35.760
415.74	35.305
416.09	35.924
416.45	35.877
416.80	35.757
417.16	36.394
417.51	35.567
417.87	35.517
418.22	35.521
418.58	35.571
418.93	35.504
419.29	35.201
419.64	35.894
420.00	34.756
420.35	35.072
420.71	35.684
421.06	34.308
421.42	34.035
421.77	35.538
422.12	35.149
422.48	34.053
422.83	35.702
423.19	34.751
423.54	35.055
423.90	34.899
424.25	35.399
424.61	34.226
424.96	35.102
425.31	34.551
425.67	34.045
426.02	34.057
426.38	37.424
426.73	34.465
427.09	35.258
427.44	35.710
427.79	34.848
428.15	35.893
428.50	35.284
428.85	34.446
429.21	34.235
429.56	35.355
429.92	34.675
430.27	35.005
430.62	34.357
430.98	34.977
431.33	34.124
431.68	34.450
432.04	34.345
432.39	34.437
432.74	34.770
433.10	35.201
433.45	35.977
433.80	33.925
434.16	34.829
434.51	34.632
434.86	34.949
435.22	34.130
435.57	35.684
435.92	33.704
436.28	35.528
436.63	35.320
436.98	34.287
437.34	35.242
437.69	35.239
438.04	34.851
438.39	34.388
438.75	35.270
439.10	34.972
439.45	35.301
439.81	35.650
440.16	34.049
440.51	34.681
440.86	34.742
441.22	33.760
441.57	34.607
441.92	34.647
442.27	34.930
442.63	34.281
442.98	36.620
443.33	34.674
443.68	34.693
444.03	34.358
444.39	33.252
444.74	34.686
445.09	34.340
445.44	35.101
445.79	33.696
446.15	34.039
446.50	34.572
446.85	34.018
447.20	34.268
447.55	35.399
447.91	34.473
448.26	35.281
448.61	34.031
448.96	33.942
449.31	34.758
449.66	34.102
450.02	33.426
450.37	34.410
450.72	34.631
451.07	33.882
451.42	33.070
451.77	35.056
452.12	34.758
452.47	33.831
452.83	35.082
453.18	33.680
453.53	35.065
453.88	34.022
454.23	34.549
454.58	34.403
454.93	35.601
455.28	33.416
455.63	34.587
455.98	35.119
456.34	33.857
456.69	33.626
457.04	34.675
457.39	34.249
457.74	32.908
458.09	33.813
458.44	33.580
458.79	32.755
459.14	34.763
459.49	33.917
459.84	32.964
460.19	33.471
460.54	32.755
460.89	33.736
461.24	34.062
461.59	34.805
461.94	34.649
462.29	35.134
462.64	34.078
462.99	32.596
463.34	32.867
463.69	33.083
464.04	33.217
464.39	33.275
464.74	32.858
465.09	33.715
465.44	32.465
465.79	32.047
466.14	32.074
466.49	33.037
466.84	33.392
467.19	31.744
467.54	33.438
467.89	33.313
468.24	32.693
468.59	33.516
468.94	32.071
469.29	33.098
469.64	34.337
469.99	33.897
470.34	32.827
470.68	32.902
471.03	32.585
471.38	33.634
471.73	32.978
472.08	32.961
472.43	32.349
472.78	33.311
473.13	32.092
473.48	32.022
473.83	32.317
474.17	32.607
474.52	32.196
474.87	32.866
475.22	32.618
475.57	31.650
475.92	32.183
476.27	32.074
476.61	32.046
476.96	31.666
477.31	32.077
477.66	30.744
478.01	31.155
478.36	32.205
478.70	31.464
479.05	31.203
479.40	31.525
479.75	31.825
480.10	31.362
480.45	30.557
480.79	30.578
481.14	31.067
481.49	30.375
481.84	30.910
482.19	30.986
482.53	30.505
482.88	30.805
483.23	30.654
483.58	30.573
483.92	30.412
484.27	29.847
484.62	30.302
484.97	28.971
485.31	29.212
485.66	27.704
486.01	27.634
486.36	27.490
486.70	28.111
487.05	28.033
487.40	28.447
487.75	28.806
488.09	29.208
488.44	29.320
488.79	29.042
489.13	29.488
489.48	28.670
489.83	28.183
490.17	29.899
490.52	29.407
490.87	30.167
491.22	29.013
491.56	28.610
491.91	29.223
492.26	28.342
492.60	29.677
492.95	28.251
493.30	28.925
493.64	29.398
493.99	28.459
494.34	28.353
494.68	30.082
495.03	28.900
495.37	28.153
495.72	28.801
496.07	29.095
496.41	27.301
496.76	28.276
497.11	28.546
497.45	28.784
497.80	28.551
498.14	28.213
498.49	28.244
498.84	29.530
499.18	27.762
499.53	27.445
499.87	27.866
500.22	28.309
500.56	28.155
500.91	28.029
501.26	28.070
501.60	28.856
501.95	27.635
502.29	28.819
502.64	27.654
502.98	28.050
503.33	27.422
503.67	27.842
504.02	27.081
504.36	27.375
504.71	28.285
505.06	27.373
505.40	27.321
505.75	27.580
506.09	27.988
506.44	27.923
506.78	27.910
507.13	28.067
507.47	27.222
507.82	27.457
508.16	27.660
508.51	27.702
508.85	27.061
509.19	26.837
509.54	26.990
509.88	27.357
510.23	27.044
510.57	27.915
510.92	27.758
511.26	26.619
511.61	27.334
511.95	26.566
512.30	27.041
512.64	26.706
512.98	27.599
513.33	27.516
513.67	26.147
514.02	26.569
514.36	27.362
514.70	27.061
515.05	26.492
515.39	26.528
515.74	26.858
516.08	27.110
516.42	27.192
516.77	27.202
517.11	26.138
517.46	26.354
517.80	27.700
518.14	26.578
518.49	26.488
518.83	26.648
519.17	27.367
519.52	26.486
519.86	26.868
520.20	27.052
520.55	26.571
520.89	27.251
521.23	27.744
521.58	26.831
521.92	27.006
522.26	25.869
522.61	26.293
522.95	25.230
523.29	25.989
523.64	25.549
523.98	25.385
524.32	26.116
524.66	26.398
525.01	27.022
525.35	25.836
525.69	25.493
526.04	25.794
526.38	26.663
526.72	26.319
527.06	25.675
527.41	24.443
527.75	26.238
528.09	26.076
528.43	26.386
528.78	26.060
529.12	25.273
529.46	25.781
529.80	26.423
530.15	25.857
530.49	25.231
530.83	25.443
531.17	25.783
531.51	27.108
531.86	26.452
532.20	25.033
532.54	25.945
532.88	25.289
533.22	24.422
533.57	24.506
533.91	25.587
534.25	25.516
534.59	25.442
534.93	24.807
535.27	24.381
535.62	24.420
535.96	24.670
536.30	24.094
536.64	25.177
536.98	25.216
537.32	25.082
537.66	24.733
538.01	24.819
538.35	23.271
538.69	24.697
539.03	23.847
539.37	23.387
539.71	23.007
540.05	24.575
540.39	24.784
540.73	23.933
541.07	24.530
541.42	25.245
541.76	24.774
542.10	23.286
542.44	23.841
542.78	24.506
543.12	23.736
543.46	24.131
543.80	24.203
544.14	22.786
544.48	23.365
544.82	23.669
545.16	23.097
545.50	23.907
545.84	23.992
546.18	23.636
546.52	24.019
546.86	23.574
547.20	23.466
547.54	22.779
547.88	23.724
548.22	23.101
548.56	22.830
548.90	22.343
549.24	23.502
549.58	23.874
549.92	23.146
550.26	22.940
550.60	23.375
550.94	22.113
551.28	22.312
551.62	23.149
551.96	23.088
552.30	23.208
552.64	23.665
552.98	23.254
553.32	22.927
553.66	23.381
554.00	23.130
554.34	23.050
554.68	23.104
555.02	23.695
555.36	23.939
555.69	21.786
556.03	21.669
556.37	22.442
556.71	21.692
557.05	22.829
557.39	22.323
557.73	22.795
558.07	21.755
558.41	22.214
558.75	22.557
559.08	23.192
559.42	21.618
559.76	21.838
560.10	21.699
560.44	22.222
560.78	21.557
561.12	22.164
561.45	21.904
561.79	21.490
562.13	21.194
562.47	22.199
562.81	22.664
563.15	21.271
563.48	21.950
563.82	21.918
564.16	21.190
564.50	20.443
564.84	20.986
565.17	20.656
565.51	21.214
565.85	21.320
566.19	20.351
566.52	21.469
566.86	20.555
567.20	21.108
567.54	20.548
567.88	20.043
568.21	21.005
568.55	19.970
568.89	19.893
569.23	19.207
569.56	18.826
569.90	18.755
570.24	18.012
570.57	18.599
570.91	17.809
571.25	18.005
571.59	18.027
571.92	17.972
572.26	18.169
572.60	17.958
572.93	17.751
573.27	17.717
573.61	17.839
573.95	17.804
574.28	17.387
574.62	17.201
574.96	17.252
575.29	17.362
575.63	17.073
575.97	17.287
576.30	17.392
576.64	16.730
576.98	16.894
577.31	16.913
577.65	16.873
577.98	16.968
578.32	16.283
578.66	16.625
578.99	16.800
579.33	16.969
579.67	16.736
580.00	16.615
580.34	16.754
580.67	16.592
581.01	16.483
581.35	16.854
581.68	16.552
582.02	16.005
582.35	16.365
582.69	16.543
583.02	16.593
583.36	16.509
583.70	16.833
584.03	16.771
584.37	16.785
584.70	16.510
585.04	16.316
585.37	15.913
585.71	16.400
586.04	16.332
586.38	16.458
586.72	16.625
587.05	16.246
587.39	15.884
587.72	16.826
588.06	15.795
588.39	16.187
588.73	16.486
589.06	17.015
589.40	16.734
589.73	16.931
590.07	16.762
590.40	16.441
590.73	17.486
591.07	17.053
591.40	17.630
591.74	17.792
592.07	17.321
592.41	17.528
592.74	16.479
593.08	16.389
593.41	16.450
593.75	15.990
594.08	16.661
594.41	16.083
594.75	17.043
595.08	16.679
595.42	16.287
595.75	16.667
596.09	17.161
596.42	17.328
596.75	16.927
597.09	17.662
597.42	16.526
597.75	17.206
598.09	17.130
598.42	16.495
598.76	16.457
599.09	15.926
599.42	16.048
599.76	16.288
600.09	16.393
600.42	15.778
600.76	15.964
601.09	15.701
601.42	15.601
601.76	15.939
602.09	16.403
602.42	16.600
602.76	16.808
603.09	16.680
603.42	17.142
603.76	15.663
604.09	16.130
604.42	16.592
604.76	16.828
605.09	16.339
605.42	16.375
605.75	15.480
606.09	16.104
606.42	15.856
606.75	15.761
607.09	16.367
607.42	15.276
607.75	15.907
608.08	16.066
608.42	16.764
608.75	15.735
609.08	16.466
609.41	16.040
609.75	15.865
610.08	16.777
610.41	15.736
610.74	16.320
611.07	16.453
611.41	16.290
611.74	17.345
612.07	16.511
612.40	16.579
612.73	16.895
613.07	17.134
613.40	16.798
613.73	16.413
614.06	16.290
614.39	16.099
614.72	16.526
615.06	17.227
615.39	15.658
615.72	16.513
616.05	16.693
616.38	15.842
616.71	16.449
617.05	16.784
617.38	16.176
617.71	16.937
618.04	16.767
618.37	16.499
618.70	16.988
619.03	17.895
619.36	17.515
619.69	17.324
620.03	17.651
620.36	17.580
620.69	17.192
621.02	18.953
621.35	17.228
621.68	16.044
622.01	18.034
622.34	17.852
622.67	16.578
623.00	17.021
623.33	16.154
623.66	16.512
623.99	17.526
624.32	17.332
624.65	16.737
624.99	15.581
625.32	16.075
625.65	17.506
625.98	17.294
626.31	17.807
626.64	17.714
626.97	17.789
627.30	17.290
627.63	17.719
627.96	18.503
628.29	18.023
628.62	19.396
628.95	19.717
629.28	18.066
629.61	18.332
629.94	18.857
630.26	17.922
630.59	19.161
630.92	17.720
631.25	18.263
631.58	17.618
631.91	18.763
632.24	19.198
632.57	18.048
632.90	18.750
633.23	19.575
633.56	20.565
633.89	19.819
634.22	17.367
634.55	20.473
634.88	19.880
635.20	19.713
635.53	20.000
635.86	19.183
636.19	20.353
636.52	18.800
636.85	17.984
637.18	17.857
637.51	19.740
637.83	18.619
638.16	20.588
638.49	19.395
638.82	19.469
639.15	19.875
639.48	19.950
639.81	19.705
640.13	20.964
640.46	20.671
640.79	19.551
641.12	16.781
641.45	19.693
641.77	19.735
642.10	21.491
642.43	21.471
642.76	19.195
643.09	21.626
643.41	20.334
643.74	21.759
644.07	20.579
644.40	21.012
644.73	22.205
645.05	21.395
645.38	19.747
645.71	19.485
646.04	18.937
646.36	23.205
646.69	23.913
647.02	21.259
647.35	22.680
647.67	21.062
648.00	20.976
648.33	19.472
648.66	18.788
648.98	20.540
649.31	20.179
649.64	19.133
649.96	18.927
650.29	20.221
650.62	18.770
650.94	20.746
651.27	20.270
651.60	20.133
651.92	20.447
652.25	18.893
652.58	20.872
652.90	20.695
653.23	18.336
653.56	19.213
653.88	20.127
654.21	21.327
654.54	20.132
654.86	19.315
655.19	17.432
655.52	12.194
655.84	10.393
656.17	12.839
656.49	17.319
656.82	17.663
657.15	13.602
657.47	10.166
657.80	8.169
658.13	8.256
658.45	12.101
658.78	12.541
659.10	12.606
659.43	13.615
659.75	13.890
660.08	14.494
660.41	16.574
660.73	18.806
661.06	19.268
661.38	23.091
661.71	22.885
662.03	23.077
662.36	21.471
662.68	22.490
663.01	21.616
663.33	20.807
663.66	23.109
663.98	22.030
664.31	19.328
664.63	22.470
664.96	19.316
665.28	22.951
665.61	19.493
665.93	20.322
666.26	19.675
666.58	19.247
666.91	24.313
667.23	22.472
667.56	22.030
667.88	23.077
668.21	23.241
668.53	22.777
668.86	21.429
669.18	22.814
669.50	22.174
669.83	24.619
670.15	25.111
670.48	21.351
670.80	20.474
671.13	21.868
671.45	18.936
671.77	21.181
672.10	19.778
672.42	21.201
672.75	21.393
673.07	21.479
673.39	19.892
673.72	17.969
674.04	21.961
674.37	19.029
674.69	20.245
675.01	18.410
675.34	23.203
675.66	24.421
675.98	21.181
676.31	18.908
676.63	22.505
676.95	23.061
677.28	18.224
677.60	20.220
677.92	22.152
678.25	20.739
678.57	20.717
678.89	22.445
679.22	21.611
679.54	19.656
679.86	21.284
680.18	19.320
680.51	21.277
680.83	21.174
681.15	20.189
681.48	22.495
681.80	19.729
682.12	20.498
682.44	16.441
682.77	20.367
683.09	21.459
683.41	19.290
683.73	21.854
684.06	22.107
684.38	18.395
684.70	20.930
685.02	21.764
685.34	19.597
685.67	17.832
685.99	18.729
686.31	19.795
686.63	16.431
686.96	20.000
687.28	19.495
687.60	18.659
687.92	21.207
688.24	21.483
688.56	20.080
688.89	21.162
689.21	21.397
689.53	19.624
689.85	21.508
690.17	20.704
690.49	20.807
690.82	19.860
691.14	20.089
691.46	20.253
691.78	19.277
692.10	22.107
692.42	20.958
692.74	18.880
693.06	20.851
693.39	24.641
693.71	20.306
694.03	20.842
694.35	22.078
694.67	18.078
694.99	23.171
695.31	19.608
695.63	21.292
695.95	21.271
696.27	19.036
696.59	22.539
696.91	21.244
697.23	19.014
697.56	21.748
697.88	18.609
698.20	16.875
698.52	20.860
698.84	19.154
699.16	20.737
699.48	23.040
699.80	21.981
700.12	22.597
700.44	24.403
700.76	22.099
701.08	22.701
701.40	22.346
701.72	24.198
702.04	25.852
702.36	21.813
702.68	19.263
703.00	22.438
703.32	21.011
703.64	21.180
703.96	24.513
704.28	22.384
704.60	21.994
704.91	21.662
705.23	23.460
705.55	23.588
705.87	26.578
706.19	20.141
706.51	27.726
706.83	25.152
707.15	23.529
707.47	19.949
707.79	24.079
708.11	24.886
708.43	20.952
708.74	19.643
709.06	22.078
709.38	25.459
709.70	23.547
710.02	25.519
710.34	18.788
710.66	22.985
710.98	25.000
711.29	24.709
711.61	26.254
711.93	23.718
712.25	25.723
712.57	23.897
712.89	22.837
713.20	26.748
713.52	21.382
713.84	25.316
714.16	24.390
714.48	23.276
714.80	26.140
715.11	22.767
715.43	19.288
715.75	24.348
716.07	25.240
716.39	21.944
716.70	27.243
717.02	25.540
717.34	26.502
717.66	26.493
717.97	28.685
718.29	26.667
718.61	25.547
718.93	24.632
719.24	23.875
719.56	26.102
719.88	25.085
720.20	25.676
720.51	24.739
720.83	30.483
721.15	25.746
721.46	26.596
721.78	28.315
722.10	26.038
722.42	26.692
722.73	23.970
723.05	28.689
723.37	27.530
723.68	25.097
724.00	26.423
724.32	27.823
724.63	26.829
724.95	24.686
725.27	29.555
725.58	23.438
725.90	27.372
726.22	24.151
726.53	22.222
726.85	25.939
727.16	25.979
727.48	18.440
727.80	25.379
728.11	27.536
728.43	23.462
728.74	26.882
729.06	31.022
729.38	26.838
729.69	28.114
730.01	23.208
730.32	25.000
730.64	23.077
730.96	21.122
731.27	20.530
731.59	25.076
731.90	23.324
732.22	19.876
732.53	21.362
732.85	18.590
733.16	21.865
733.48	22.924
733.80	25.000
734.11	25.478
734.43	24.852
734.74	19.429
735.06	20.344
735.37	21.676
735.69	21.019
736.00	23.203
736.32	24.922
736.63	21.406
736.95	21.406
737.26	18.707
737.58	18.710
737.89	23.746
738.21	24.915
738.52	22.500
738.83	26.792
739.15	19.231
739.46	25.547
739.78	20.833
740.09	25.846
740.41	23.226
740.72	18.118
741.04	22.222
741.35	26.250
741.66	31.556
741.98	25.943
742.29	27.751
742.61	29.741
742.92	27.602
743.23	25.214
743.55	26.400
743.86	21.930
744.18	30.973
744.49	29.187
744.80	35.211
745.12	34.545
745.43	26.872
745.74	28.378
746.06	22.936
746.37	30.045
746.68	25.339
747.00	32.870
747.31	24.762
747.62	26.106
747.94	25.991
748.25	27.660
748.56	24.670
748.88	26.733
749.19	33.500
749.50	24.651
749.82	26.016
750.13	26.531
750.44	25.182
750.75	24.561
751.07	24.759
751.38	27.875
751.69	23.466
752.01	24.060
752.32	21.300
752.63	24.113
752.94	22.951
753.26	29.200
753.57	21.138
753.88	23.437
754.19	23.571
754.51	28.472
754.82	20.217
755.13	24.906
755.44	24.436
755.75	20.073
756.07	25.532
756.38	20.803
756.69	24.161
757.00	20.958
757.31	20.475
757.63	19.883
757.94	21.716
758.25	18.382
758.56	18.519
758.87	17.473
759.18	25.455
759.50	23.511
759.81	21.184
760.12	18.750
760.43	19.771
760.74	21.739
761.05	19.492
761.36	18.182
761.67	25.000
761.99	21.739
762.30	20.486
762.61	22.901
762.92	23.047
763.23	25.210
763.54	29.600
763.85	21.875
764.16	26.923
764.47	26.616
764.78	20.848
765.10	22.785
765.41	18.289
765.72	20.060
766.03	21.944
766.34	22.000
766.65	25.957
766.96	27.350
767.27	31.472
767.58	33.854
767.89	33.158
768.20	31.034
768.51	28.426
768.82	29.358
769.13	26.423
769.44	23.887
769.75	21.030
770.06	22.936
770.37	28.959
770.68	29.167
770.99	27.111
771.30	22.131
771.61	27.354
771.92	28.689
772.23	28.992
772.54	32.308
772.85	29.843
773.16	29.787
773.47	29.348
773.78	34.518
774.09	29.167
774.39	35.088
774.70	30.247
775.01	36.957
775.32	39.869
775.63	33.553
775.94	38.849
776.25	37.795
776.56	32.090
776.87	39.344
777.18	33.594
777.48	37.405
777.79	39.394
778.10	42.222
778.41	37.500
778.72	27.737
779.03	32.215
779.34	38.926
779.65	29.730
779.95	34.969
780.26	39.869
780.57	41.379
780.88	36.719
781.19	39.850
781.50	41.892
781.80	30.189
782.11	28.249
782.42	27.848
782.73	30.061
783.04	33.108
783.34	40.141
783.65	42.466
783.96	41.045
784.27	27.972
784.57	35.971
784.88	37.963
785.19	49.206
785.50	40.566
785.81	45.522
786.11	41.803
786.42	34.109
786.73	38.053
787.04	42.453
787.34	43.750
787.65	45.000
787.96	41.441
788.26	38.017
788.57	29.661
788.88	40.496
789.19	37.500
789.49	43.182
789.80	32.061
790.11	47.619
790.41	52.475
790.72	49.398
791.03	47.826
791.33	55.814
791.64	48.454
791.95	49.505
792.25	53.333
792.56	58.442
792.87	69.231
793.17	68.354
793.48	56.322
793.79	55.172
794.09	48.864
794.40	49.580
794.70	41.176
795.01	35.556
795.32	35.971
795.62	40.157
795.93	43.966
796.23	41.593
796.54	48.235
796.85	52.703
797.15	63.380
797.46	57.576
797.76	45.783
798.07	39.241
798.37	60.000
798.68	48.485
798.99	60.563
799.29	53.247
799.60	54.545
799.90	63.014
800.21	67.164
800.51	58.621
800.82	73.684
801.12	68.852
801.43	65.152
801.73	55.405
802.04	68.254
802.34	61.728
802.65	67.188
802.95	84.746
803.26	81.250
803.56	50.000
803.87	55.385
804.17	60.294
804.48	87.037
804.78	53.448
805.09	70.588
805.39	50.000
805.70	75.000
806.00	63.934
806.30	59.091
806.61	58.537
806.91	49.367
807.22	51.316
807.52	50.746
807.83	71.831
808.13	65.625
808.43	70.000
808.74	40.789
809.04	69.565
809.35	74.627
809.65	67.105
809.95	90.323
810.26	54.237
810.56	76.190
810.86	88.636
811.17	95.238
811.47	83.333
811.77	66.667
812.08	80.000
812.38	78.000
812.69	91.667
812.99	115.909
813.29	93.878
813.59	59.524
813.90	93.878
814.20	83.636
814.50	90.769
814.81	79.412
815.11	91.837
815.41	75.410
815.72	114.286
816.02	78.182
816.32	95.238
816.62	80.000
816.93	117.073
817.23	111.905
817.53	77.273
817.84	115.152
818.14	104.348
818.44	102.222
818.74	123.529
819.04	110.000
819.35	97.143
819.65	114.706
819.95	132.143
820.25	140.000
820.56	105.128
820.86	95.455
821.16	109.302
821.46	102.564
821.76	110.000
822.07	137.143
822.37	100.000
822.67	136.364
822.97	76.471
823.27	135.714
823.57	83.784
823.88	105.000
824.18	130.000
824.48	109.524
824.78	188.000
825.08	133.333
825.38	121.622
825.69	114.634
825.99	162.500
826.29	86.207
826.59	131.579
826.89	102.632
827.19	135.294
827.49	148.387
827.79	88.636
828.09	100.000
828.39	89.362
828.70	95.918
829.00	92.593
829.30	103.226
829.60	132.500
829.90	200.000
830.20	139.286
830.50	104.348
830.80	126.087
831.10	113.333
831.40	153.333
831.70	121.739
832.00	150.000
832.30	129.630
832.60	256.250
832.90	153.333
833.20	214.286
833.50	135.484
833.80	89.655
834.10	137.500
834.40	146.154
834.70	161.111
835.00	238.095
835.30	97.143
835.60	215.385
835.90	155.172
836.20	264.286
836.50	155.172
836.80	156.000
837.10	130.556
837.40	204.762
837.70	164.706
838.00	170.370
838.30	195.238
838.60	209.524
838.90	169.231
839.19	185.000
839.49	264.286
839.79	295.000
840.09	205.000
840.39	209.524
840.69	213.043
840.99	227.778
841.29	330.000
841.59	250.000
841.88	218.750
842.18	137.931
842.48	219.048
842.78	176.667
843.08	173.913
843.38	150.000
843.68	566.667
843.97	146.154
844.27	134.483
844.57	252.381
844.87	250.000
845.17	170.370
845.47	766.667
845.76	277.778
846.06	188.235
846.36	300.000
846.66	264.286
846.96	212.500
847.25	327.273
847.55	236.364
847.85	208.696
848.15	370.000
848.44	242.857
848.74	172.222
849.04	223.529
849.34	310.000
849.63	184.211
849.93	318.182
850.23	660.000
850.53	228.571
850.82	1600.000
851.12	-3600.000
851.42	2600.000
851.71	205.000
852.01	-766.667
852.31	170.833
852.61	1300.000
852.90	195.238
853.20	204.000
853.50	241.176
853.79	214.286
854.09	158.333
854.39	256.250
854.68	156.757
854.98	167.742
855.28	130.000
855.57	186.207
855.87	162.963
856.17	194.737
856.46	160.000
856.76	217.647
857.05	148.276
857.35	154.167
857.65	213.333
857.94	178.261
858.24	150.000
858.53	225.000
858.83	177.273
859.13	273.333
859.42	0.000
859.72	377.778
860.01	281.818
860.31	150.000
860.60	221.053
860.90	169.565
861.20	422.222
861.49	375.000
861.79	-3200.000
862.08	412.500
862.38	200.000
862.67	253.846
862.97	211.765
863.26	388.889
863.56	205.556
863.85	366.667
864.15	450.000
864.44	306.667
864.74	650.000
865.03	387.500
865.33	194.737
865.62	372.727
865.92	353.846
866.21	300.000
866.51	0.000
866.80	272.727
867.10	760.000
867.39	338.462
867.69	318.182
867.98	205.263
868.27	354.545
868.57	247.368
868.86	-3200.000
869.16	225.000
869.45	1550.000
869.75	-2600.000
870.04	366.667
870.33	500.000
870.63	550.000
870.92	1750.000
871.22	542.857
871.51	252.941
871.80	133.333
872.10	321.429
>>>>>End Processed Spectral Data<<<<<
