SpectraSuite Data File
++++++++++++++++++++++++++++++++++++
Date: Wed May 13 20:32:45 PDT 2015
User: schluterlab
Dark Spectrum Present: Yes
Reference Spectrum Present: Yes
Number of Sampled Component Spectra: 1
Spectrometers: USB2E3373
Integration Time (usec): 3000 (USB2E3373)
Spectra Averaged: 3 (USB2E3373)
Boxcar Smoothing: 0 (USB2E3373)
Correct for Electrical Dark: No (USB2E3373)
Strobe/Lamp Enabled: No (USB2E3373)
Correct for Detector Non-linearity: No (USB2E3373)
Correct for Stray Light: No (USB2E3373)
Number of Pixels in Processed Spectrum: 2048
>>>>>Begin Processed Spectral Data<<<<<
178.53	0.000
178.91	-1000.000
179.29	-1075.000
179.67	-150.000
180.04	-1000.000
180.42	2050.000
180.80	860.000
181.18	-900.000
181.56	557.143
181.94	0.000
182.31	-485.714
182.69	1233.333
183.07	-325.000
183.45	-355.556
183.83	409.091
184.20	-190.000
184.58	1400.000
184.96	4300.000
185.34	-480.000
185.72	-300.000
186.09	-1500.000
186.47	2300.000
186.85	1750.000
187.23	3100.000
187.61	-1033.333
187.98	675.000
188.36	490.909
188.74	390.909
189.12	-700.000
189.49	420.000
189.87	-2600.000
190.25	-875.000
190.63	364.286
191.00	353.846
191.38	716.667
191.76	-850.000
192.14	975.000
192.51	400.000
192.89	833.333
193.27	400.000
193.65	-675.000
194.02	410.000
194.40	840.000
194.78	300.000
195.15	325.000
195.53	450.000
195.91	-1250.000
196.29	275.000
196.66	205.263
197.04	-220.000
197.42	0.000
197.79	500.000
198.17	-3900.000
198.55	642.857
198.92	500.000
199.30	620.000
199.68	0.000
200.05	272.222
200.43	557.143
200.81	2800.000
201.18	1166.667
201.56	-1066.667
201.94	411.111
202.31	433.333
202.69	358.333
203.07	330.000
203.44	0.000
203.82	950.000
204.19	514.286
204.57	371.429
204.95	437.500
205.32	1466.667
205.70	372.727
206.08	271.429
206.45	2100.000
206.83	331.250
207.20	716.667
207.58	500.000
207.96	288.889
208.33	550.000
208.71	-550.000
209.08	642.857
209.46	388.889
209.84	354.545
210.21	-1133.333
210.59	950.000
210.96	-275.000
211.34	1650.000
211.71	370.000
212.09	600.000
212.46	0.000
212.84	1000.000
213.22	1050.000
213.59	-4000.000
213.97	600.000
214.34	528.571
214.72	454.545
215.09	880.000
215.47	-2000.000
215.84	-1400.000
216.22	1033.333
216.59	285.714
216.97	975.000
217.34	418.182
217.72	-466.667
218.09	0.000
218.47	-3000.000
218.84	444.444
219.22	571.429
219.59	1466.667
219.97	-414.286
220.34	720.000
220.72	-1333.333
221.09	271.429
221.47	1075.000
221.84	-516.667
222.22	0.000
222.59	975.000
222.97	-1550.000
223.34	1060.000
223.72	315.385
224.09	920.000
224.46	1900.000
224.84	-3600.000
225.21	-700.000
225.59	-3700.000
225.96	460.000
226.34	205.000
226.71	1800.000
227.08	537.500
227.46	370.000
227.83	-700.000
228.21	-1650.000
228.58	522.222
228.95	-1850.000
229.33	-1800.000
229.70	1466.667
230.08	600.000
230.45	-620.000
230.82	333.333
231.20	716.667
231.57	400.000
231.95	366.667
232.32	195.455
232.69	363.636
233.07	528.571
233.44	253.846
233.81	-1166.667
234.19	242.105
234.56	400.000
234.93	258.333
235.31	345.455
235.68	253.846
236.05	300.000
236.43	115.152
236.80	205.263
237.17	2900.000
237.55	238.095
237.92	157.143
238.29	200.000
238.67	125.806
239.04	148.276
239.41	119.444
239.79	89.130
240.16	80.952
240.53	102.273
240.91	98.039
241.28	84.000
241.65	92.000
242.02	81.159
242.40	75.806
242.77	60.000
243.14	55.914
243.51	65.169
243.89	57.647
244.26	47.778
244.63	55.914
245.00	52.128
245.38	51.485
245.75	37.383
246.12	44.037
246.49	54.015
246.87	55.200
247.24	50.000
247.61	42.143
247.98	33.333
248.36	36.486
248.73	40.764
249.10	42.038
249.47	38.418
249.84	44.385
250.22	35.294
250.59	39.645
250.96	37.879
251.33	41.706
251.70	40.594
252.08	29.524
252.45	27.803
252.82	30.870
253.19	34.894
253.56	34.902
253.94	34.440
254.31	31.250
254.68	35.385
255.05	33.948
255.42	29.675
255.79	31.250
256.16	33.213
256.54	30.035
256.91	26.335
257.28	26.978
257.65	33.003
258.02	31.366
258.39	30.599
258.76	27.759
259.14	29.762
259.51	31.307
259.88	24.845
260.25	30.514
260.62	31.214
260.99	28.261
261.36	25.826
261.73	27.221
262.10	27.035
262.47	27.887
262.85	28.134
263.22	25.071
263.59	29.345
263.96	26.099
264.33	28.721
264.70	26.579
265.07	28.645
265.44	26.768
265.81	25.547
266.18	27.387
266.55	26.829
266.92	28.747
267.29	28.241
267.66	25.229
268.03	25.455
268.40	25.935
268.77	25.060
269.14	23.874
269.51	26.411
269.88	24.942
270.25	26.637
270.62	26.067
270.99	28.172
271.36	25.107
271.73	25.000
272.10	24.130
272.47	26.237
272.84	24.892
273.21	25.786
273.58	24.454
273.95	21.803
274.32	23.760
274.69	24.625
275.06	23.228
275.43	23.404
275.80	23.046
276.17	24.440
276.54	24.116
276.91	23.518
277.28	23.047
277.65	25.145
278.02	21.532
278.39	25.586
278.76	22.364
279.13	24.340
279.50	24.581
279.87	24.303
280.23	22.156
280.60	22.437
280.97	22.366
281.34	24.779
281.71	24.000
282.08	24.184
282.45	22.545
282.82	23.801
283.19	22.282
283.56	22.632
283.92	25.381
284.29	24.691
284.66	22.868
285.03	24.412
285.40	22.183
285.77	20.202
286.14	20.553
286.51	22.333
286.87	22.564
287.24	22.313
287.61	21.830
287.98	22.727
288.35	22.029
288.72	21.028
289.08	21.127
289.45	20.264
289.82	21.626
290.19	19.309
290.56	20.980
290.93	19.789
291.29	20.706
291.66	20.059
292.03	21.948
292.40	20.558
292.77	18.639
293.13	19.254
293.50	20.554
293.87	18.370
294.24	19.259
294.60	18.486
294.97	18.750
295.34	19.323
295.71	19.318
296.08	18.946
296.44	16.231
296.81	17.966
297.18	20.867
297.55	15.963
297.91	18.734
298.28	20.080
298.65	18.407
299.02	18.182
299.38	18.327
299.75	16.442
300.12	15.581
300.48	17.500
300.85	17.633
301.22	17.834
301.59	16.793
301.95	18.766
302.32	16.816
302.69	17.324
303.05	16.606
303.42	17.160
303.79	17.101
304.15	16.434
304.52	17.149
304.89	16.376
305.25	16.821
305.62	15.855
305.99	17.237
306.35	14.989
306.72	18.946
307.09	17.092
307.45	17.342
307.82	15.848
308.19	18.433
308.55	16.505
308.92	16.864
309.29	16.579
309.65	16.119
310.02	16.702
310.38	16.129
310.75	17.212
311.12	16.991
311.48	18.182
311.85	18.239
312.22	18.939
312.58	18.399
312.95	18.057
313.31	16.602
313.68	19.647
314.05	20.907
314.41	18.392
314.78	18.530
315.14	19.464
315.51	19.773
315.87	21.287
316.24	20.457
316.61	19.493
316.97	20.157
317.34	21.918
317.70	21.319
318.07	22.040
318.43	24.070
318.80	22.493
319.16	24.200
319.53	23.827
319.89	24.476
320.26	26.000
320.62	25.298
320.99	27.172
321.35	28.586
321.72	27.105
322.08	29.023
322.45	28.756
322.81	29.070
323.18	31.407
323.54	31.262
323.91	32.547
324.27	32.505
324.64	32.898
325.00	32.822
325.37	33.303
325.73	34.919
326.10	33.628
326.46	34.229
326.83	36.670
327.19	35.440
327.56	36.237
327.92	37.970
328.29	38.154
328.65	39.227
329.01	38.267
329.38	37.373
329.74	38.873
330.11	38.643
330.47	39.669
330.84	40.441
331.20	38.798
331.56	40.000
331.93	40.648
332.29	39.308
332.66	39.558
333.02	40.402
333.38	40.470
333.75	40.374
334.11	40.125
334.48	39.485
334.84	40.533
335.20	40.455
335.57	40.707
335.93	40.625
336.29	41.667
336.66	42.381
337.02	40.724
337.38	40.093
337.75	40.285
338.11	39.660
338.47	40.516
338.84	41.063
339.20	42.294
339.56	42.974
339.93	40.000
340.29	40.851
340.65	41.087
341.02	42.147
341.38	42.082
341.74	39.825
342.11	41.747
342.47	40.881
342.83	40.154
343.20	41.212
343.56	39.848
343.92	41.930
344.28	40.561
344.65	41.960
345.01	39.562
345.37	39.794
345.73	40.948
346.10	40.068
346.46	40.932
346.82	40.692
347.19	41.103
347.55	39.491
347.91	39.968
348.27	42.317
348.63	41.388
349.00	40.210
349.36	41.626
349.72	40.898
350.08	41.896
350.45	42.392
350.81	40.699
351.17	40.276
351.53	42.015
351.89	40.347
352.26	40.174
352.62	40.818
352.98	39.789
353.34	40.674
353.70	40.344
354.07	41.048
354.43	40.714
354.79	40.225
355.15	41.660
355.51	40.927
355.87	40.898
356.24	41.531
356.60	40.176
356.96	40.869
357.32	40.720
357.68	41.024
358.04	41.330
358.40	41.568
358.77	40.454
359.13	40.805
359.49	39.451
359.85	40.397
360.21	41.547
360.57	41.089
360.93	41.615
361.29	40.438
361.66	40.480
362.02	40.672
362.38	41.293
362.74	40.104
363.10	40.192
363.46	41.012
363.82	40.363
364.18	40.749
364.54	42.348
364.90	40.722
365.26	42.059
365.62	40.760
365.98	39.956
366.35	39.828
366.71	40.926
367.07	40.495
367.43	42.163
367.79	41.399
368.15	41.667
368.51	41.352
368.87	41.685
369.23	42.136
369.59	42.216
369.95	42.279
370.31	41.738
370.67	41.014
371.03	42.846
371.39	42.347
371.75	41.544
372.11	42.176
372.47	41.642
372.83	43.300
373.19	41.402
373.55	42.276
373.91	43.741
374.27	40.893
374.63	42.400
374.99	42.514
375.35	41.242
375.71	42.495
376.07	42.250
376.42	42.847
376.78	43.870
377.14	41.588
377.50	43.775
377.86	42.753
378.22	43.173
378.58	41.541
378.94	42.678
379.30	41.985
379.66	42.703
380.02	41.708
380.38	42.016
380.74	42.737
381.09	43.215
381.45	43.454
381.81	43.243
382.17	43.694
382.53	43.396
382.89	44.630
383.25	43.590
383.61	44.300
383.97	43.590
384.32	43.231
384.68	43.618
385.04	43.577
385.40	43.344
385.76	43.673
386.12	45.661
386.48	43.990
386.83	45.029
387.19	44.218
387.55	44.960
387.91	45.526
388.27	43.654
388.62	45.360
388.98	44.410
389.34	44.305
389.70	44.451
390.06	45.120
390.42	45.071
390.77	45.483
391.13	45.118
391.49	45.431
391.85	45.385
392.20	44.290
392.56	45.076
392.92	44.497
393.28	45.089
393.64	45.444
393.99	45.205
394.35	46.526
394.71	44.291
395.07	44.860
395.42	46.230
395.78	44.847
396.14	44.817
396.50	45.739
396.85	45.200
397.21	45.376
397.57	44.823
397.92	46.034
398.28	44.675
398.64	46.416
399.00	45.775
399.35	44.783
399.71	44.676
400.07	45.713
400.42	46.810
400.78	46.321
401.14	45.915
401.49	47.403
401.85	46.158
402.21	44.910
402.57	45.836
402.92	46.847
403.28	47.408
403.63	46.101
403.99	46.433
404.35	45.818
404.70	46.403
405.06	45.778
405.42	46.351
405.77	45.543
406.13	45.880
406.49	46.659
406.84	46.367
407.20	46.572
407.55	46.522
407.91	46.733
408.27	47.735
408.62	46.598
408.98	46.630
409.34	46.740
409.69	46.387
410.05	46.406
410.40	47.584
410.76	46.416
411.11	46.261
411.47	45.687
411.83	46.121
412.18	46.753
412.54	47.572
412.89	46.145
413.25	46.576
413.60	47.190
413.96	46.570
414.31	47.448
414.67	46.641
415.03	48.146
415.38	46.263
415.74	46.495
416.09	48.204
416.45	48.059
416.80	47.786
417.16	48.391
417.51	47.644
417.87	47.527
418.22	48.265
418.58	47.579
418.93	46.253
419.29	46.149
419.64	47.607
420.00	47.500
420.35	46.609
420.71	48.476
421.06	46.480
421.42	47.193
421.77	47.758
422.12	46.771
422.48	46.033
422.83	47.525
423.19	46.906
423.54	47.766
423.90	48.290
424.25	47.236
424.61	47.381
424.96	48.047
425.31	46.788
425.67	45.674
426.02	46.171
426.38	46.947
426.73	46.284
427.09	46.565
427.44	46.291
427.79	46.809
428.15	47.024
428.50	48.215
428.85	47.914
429.21	47.543
429.56	47.745
429.92	46.301
430.27	47.517
430.62	47.670
430.98	46.705
431.33	47.680
431.68	47.120
432.04	46.699
432.39	47.630
432.74	47.098
433.10	47.482
433.45	48.630
433.80	47.783
434.16	47.009
434.51	47.947
434.86	48.689
435.22	48.527
435.57	47.842
435.92	47.630
436.28	48.221
436.63	48.289
436.98	46.537
437.34	48.002
437.69	48.775
438.04	48.567
438.39	49.254
438.75	48.867
439.10	48.659
439.45	49.410
439.81	48.036
440.16	48.391
440.51	48.565
440.86	48.466
441.22	48.331
441.57	48.248
441.92	49.335
442.27	49.247
442.63	47.657
442.98	48.845
443.33	48.152
443.68	48.838
444.03	48.853
444.39	48.150
444.74	48.593
445.09	47.601
445.44	48.114
445.79	48.590
446.15	49.074
446.50	48.250
446.85	48.972
447.20	48.343
447.55	49.470
447.91	49.200
448.26	48.971
448.61	48.672
448.96	49.723
449.31	48.706
449.66	49.522
450.02	47.967
450.37	48.526
450.72	48.675
451.07	48.934
451.42	48.085
451.77	49.618
452.12	47.229
452.47	49.129
452.83	49.009
453.18	49.083
453.53	50.155
453.88	49.144
454.23	48.595
454.58	49.970
454.93	50.540
455.28	48.878
455.63	49.697
455.98	50.060
456.34	49.686
456.69	49.656
457.04	49.474
457.39	48.860
457.74	48.288
458.09	48.361
458.44	49.772
458.79	48.861
459.14	48.871
459.49	49.387
459.84	48.975
460.19	48.792
460.54	48.843
460.89	49.095
461.24	49.120
461.59	48.983
461.94	48.520
462.29	49.970
462.64	48.947
462.99	47.820
463.34	49.400
463.69	48.468
464.04	48.116
464.39	48.406
464.74	48.663
465.09	48.552
465.44	48.587
465.79	48.826
466.14	48.659
466.49	48.109
466.84	49.329
467.19	48.823
467.54	48.500
467.89	47.539
468.24	47.935
468.59	48.840
468.94	47.770
469.29	48.715
469.64	49.331
469.99	49.932
470.34	47.490
470.68	49.210
471.03	48.503
471.38	49.548
471.73	48.901
472.08	49.342
472.43	48.241
472.78	48.716
473.13	48.588
473.48	48.002
473.83	49.268
474.17	48.351
474.52	47.643
474.87	49.912
475.22	48.868
475.57	47.609
475.92	47.531
476.27	47.914
476.61	47.049
476.96	47.279
477.31	47.462
477.66	48.468
478.01	46.367
478.36	47.647
478.70	46.989
479.05	46.273
479.40	47.236
479.75	48.297
480.10	46.421
480.45	46.502
480.79	46.106
481.14	47.309
481.49	47.176
481.84	47.462
482.19	47.615
482.53	46.193
482.88	46.487
483.23	46.495
483.58	46.588
483.92	46.673
484.27	45.054
484.62	46.422
484.97	45.447
485.31	45.548
485.66	43.854
486.01	43.847
486.36	43.587
486.70	43.668
487.05	44.407
487.40	43.948
487.75	43.428
488.09	43.979
488.44	44.163
488.79	44.702
489.13	45.111
489.48	44.576
489.83	45.490
490.17	45.945
490.52	45.704
490.87	45.364
491.22	44.975
491.56	44.966
491.91	45.277
492.26	46.027
492.60	45.253
492.95	44.668
493.30	45.327
493.64	46.057
493.99	45.079
494.34	45.143
494.68	45.879
495.03	45.395
495.37	44.160
495.72	45.273
496.07	45.476
496.41	43.540
496.76	45.075
497.11	44.665
497.45	45.179
497.80	43.474
498.14	43.768
498.49	44.585
498.84	45.302
499.18	44.286
499.53	44.017
499.87	44.082
500.22	44.607
500.56	45.437
500.91	43.846
501.26	44.286
501.60	44.423
501.95	43.080
502.29	44.517
502.64	43.948
502.98	43.806
503.33	43.464
503.67	43.805
504.02	44.294
504.36	43.519
504.71	43.576
505.06	43.807
505.40	43.121
505.75	43.443
506.09	43.100
506.44	44.598
506.78	43.692
507.13	44.927
507.47	43.889
507.82	43.769
508.16	43.718
508.51	44.647
508.85	43.198
509.19	43.010
509.54	43.418
509.88	43.122
510.23	43.496
510.57	44.582
510.92	43.863
511.26	43.936
511.61	43.932
511.95	43.058
512.30	43.478
512.64	43.579
512.98	44.480
513.33	44.165
513.67	42.583
514.02	42.911
514.36	44.238
514.70	43.055
515.05	42.499
515.39	42.737
515.74	43.919
516.08	43.600
516.42	43.618
516.77	43.868
517.11	42.564
517.46	43.115
517.80	43.902
518.14	42.212
518.49	43.174
518.83	41.818
519.17	42.783
519.52	43.011
519.86	42.613
520.20	42.543
520.55	42.789
520.89	42.822
521.23	43.848
521.58	43.577
521.92	42.682
522.26	41.916
522.61	42.928
522.95	42.480
523.29	42.301
523.64	41.890
523.98	42.575
524.32	42.702
524.66	41.612
525.01	42.708
525.35	41.884
525.69	41.687
526.04	42.741
526.38	41.001
526.72	42.454
527.06	42.373
527.41	40.780
527.75	40.579
528.09	42.325
528.43	42.639
528.78	40.811
529.12	41.515
529.46	41.090
529.80	42.141
530.15	42.866
530.49	41.292
530.83	41.646
531.17	41.775
531.51	41.051
531.86	42.258
532.20	41.656
532.54	41.512
532.88	40.501
533.22	40.912
533.57	41.605
533.91	40.337
534.25	40.644
534.59	39.475
534.93	40.750
535.27	40.012
535.62	40.537
535.96	40.615
536.30	41.068
536.64	39.730
536.98	40.212
537.32	38.249
537.66	40.933
538.01	39.566
538.35	40.142
538.69	40.587
539.03	39.701
539.37	39.489
539.71	38.172
540.05	39.412
540.39	40.598
540.73	39.651
541.07	38.482
541.42	39.661
541.76	39.548
542.10	39.392
542.44	39.868
542.78	39.789
543.12	38.516
543.46	39.607
543.80	40.013
544.14	39.024
544.48	38.159
544.82	38.422
545.16	38.061
545.50	38.303
545.84	39.785
546.18	39.125
546.52	38.885
546.86	38.419
547.20	38.301
547.54	37.275
547.88	37.628
548.22	37.920
548.56	37.736
548.90	37.260
549.24	37.980
549.58	38.677
549.92	37.363
550.26	38.423
550.60	37.344
550.94	37.676
551.28	37.893
551.62	37.168
551.96	37.474
552.30	38.635
552.64	37.728
552.98	37.559
553.32	37.357
553.66	37.696
554.00	37.817
554.34	37.060
554.68	37.840
555.02	37.377
555.36	35.978
555.69	36.604
556.03	36.878
556.37	38.336
556.71	35.744
557.05	37.395
557.39	37.439
557.73	37.121
558.07	37.128
558.41	36.831
558.75	36.811
559.08	37.360
559.42	35.903
559.76	37.353
560.10	35.403
560.44	36.268
560.78	35.263
561.12	35.950
561.45	35.658
561.79	36.388
562.13	35.211
562.47	35.587
562.81	36.123
563.15	35.251
563.48	35.146
563.82	36.530
564.16	35.513
564.50	34.766
564.84	34.450
565.17	35.071
565.51	34.952
565.85	35.025
566.19	34.126
566.52	34.832
566.86	34.901
567.20	34.316
567.54	34.475
567.88	33.460
568.21	33.915
568.55	33.721
568.89	32.879
569.23	33.333
569.56	32.308
569.90	32.226
570.24	31.611
570.57	31.146
570.91	30.802
571.25	30.605
571.59	31.193
571.92	30.818
572.26	31.167
572.60	30.751
572.93	31.034
573.27	30.642
573.61	30.570
573.95	30.233
574.28	30.101
574.62	29.689
574.96	29.558
575.29	29.850
575.63	29.624
575.97	29.471
576.30	29.288
576.64	29.164
576.98	29.728
577.31	28.905
577.65	28.882
577.98	29.051
578.32	28.713
578.66	29.371
578.99	29.034
579.33	29.000
579.67	28.241
580.00	28.530
580.34	28.927
580.67	28.575
581.01	28.694
581.35	28.370
581.68	28.529
582.02	28.319
582.35	28.698
582.69	28.577
583.02	28.855
583.36	28.568
583.70	28.646
584.03	28.422
584.37	28.511
584.70	28.370
585.04	28.082
585.37	27.912
585.71	28.242
586.04	28.678
586.38	29.101
586.72	28.666
587.05	28.009
587.39	27.731
587.72	28.111
588.06	27.801
588.39	28.697
588.73	28.366
589.06	29.324
589.40	29.327
589.73	28.828
590.07	28.185
590.40	27.950
590.73	28.571
591.07	28.978
591.40	28.849
591.74	29.221
592.07	28.927
592.41	29.310
592.74	28.689
593.08	28.381
593.41	28.124
593.75	27.983
594.08	28.160
594.41	28.491
594.75	27.837
595.08	27.881
595.42	27.951
595.75	28.134
596.09	28.239
596.42	28.487
596.75	27.691
597.09	28.485
597.42	27.951
597.75	28.676
598.09	28.435
598.42	27.620
598.76	27.442
599.09	26.720
599.42	26.856
599.76	27.928
600.09	27.359
600.42	27.100
600.76	26.964
601.09	27.250
601.42	27.207
601.76	27.514
602.09	27.115
602.42	27.826
602.76	27.973
603.09	27.616
603.42	27.528
603.76	27.058
604.09	27.065
604.42	27.436
604.76	27.119
605.09	27.261
605.42	26.635
605.75	26.821
606.09	26.881
606.42	27.176
606.75	26.877
607.09	26.789
607.42	27.343
607.75	25.907
608.08	26.748
608.42	27.476
608.75	26.736
609.08	26.179
609.41	26.702
609.75	26.727
610.08	26.579
610.41	27.095
610.74	27.815
611.07	27.619
611.41	27.429
611.74	27.451
612.07	27.899
612.40	28.017
612.73	26.158
613.07	27.532
613.40	27.383
613.73	25.905
614.06	27.957
614.39	26.534
614.72	26.737
615.06	27.153
615.39	26.911
615.72	27.045
616.05	26.316
616.38	26.848
616.71	27.138
617.05	27.856
617.38	27.240
617.71	27.207
618.04	28.185
618.37	26.789
618.70	27.318
619.03	28.224
619.36	27.088
619.69	28.169
620.03	27.885
620.36	28.676
620.69	28.014
621.02	28.466
621.35	28.191
621.68	27.492
622.01	28.328
622.34	27.988
622.67	27.985
623.00	28.100
623.33	27.091
623.66	28.020
623.99	27.320
624.32	26.676
624.65	26.271
624.99	26.558
625.32	27.371
625.65	27.799
625.98	27.671
626.31	27.838
626.64	27.429
626.97	27.598
627.30	27.016
627.63	29.861
627.96	28.680
628.29	28.696
628.62	28.454
628.95	30.094
629.28	29.015
629.61	29.789
629.94	28.857
630.26	28.694
630.59	28.980
630.92	28.831
631.25	27.937
631.58	28.028
631.91	28.499
632.24	28.797
632.57	29.486
632.90	27.961
633.23	28.635
633.56	30.056
633.89	30.125
634.22	28.944
634.55	30.533
634.88	28.383
635.20	30.824
635.53	30.120
635.86	31.064
636.19	27.529
636.52	29.181
636.85	29.897
637.18	29.032
637.51	29.905
637.83	27.620
638.16	30.051
638.49	29.975
638.82	30.847
639.15	29.625
639.48	31.297
639.81	30.027
640.13	29.818
640.46	30.067
640.79	29.194
641.12	26.547
641.45	30.028
641.77	30.781
642.10	30.556
642.43	30.180
642.76	30.495
643.09	32.975
643.41	29.742
643.74	33.025
644.07	29.116
644.40	30.828
644.73	31.339
645.05	31.854
645.38	29.384
645.71	31.240
646.04	32.724
646.36	33.556
646.69	32.274
647.02	29.762
647.35	33.162
647.67	31.150
648.00	32.033
648.33	30.363
648.66	29.242
648.98	28.786
649.31	30.643
649.64	28.700
649.96	28.465
650.29	31.280
650.62	30.259
650.94	29.984
651.27	31.250
651.60	30.948
651.92	30.511
652.25	30.619
652.58	30.062
652.90	28.910
653.23	28.659
653.56	27.087
653.88	29.160
654.21	29.858
654.54	28.383
654.86	28.816
655.19	27.027
655.52	20.203
655.84	18.749
656.17	24.106
656.49	31.591
656.82	32.032
657.15	24.016
657.47	17.515
657.80	13.275
658.13	13.419
658.45	19.605
658.78	19.108
659.10	19.371
659.43	20.830
659.75	21.661
660.08	22.025
660.41	25.047
660.73	25.159
661.06	25.637
661.38	30.909
661.71	29.615
662.03	30.966
662.36	28.827
662.68	32.731
663.01	34.343
663.33	33.758
663.66	31.513
663.98	31.533
664.31	30.462
664.63	30.769
664.96	28.773
665.28	32.787
665.61	30.799
665.93	30.785
666.26	30.223
666.58	32.636
666.91	33.827
667.23	31.910
667.56	31.533
667.88	31.624
668.21	33.049
668.53	30.369
668.86	29.004
669.18	33.902
669.50	33.043
669.83	35.294
670.15	30.667
670.48	31.155
670.80	31.034
671.13	31.210
671.45	31.702
671.77	32.383
672.10	29.945
672.42	28.445
672.75	28.192
673.07	27.817
673.39	28.571
673.72	31.250
674.04	30.000
674.37	28.544
674.69	29.243
675.01	30.126
675.34	30.801
675.66	32.211
675.98	31.568
676.31	31.092
676.63	31.847
676.95	30.608
677.28	30.607
677.60	30.330
677.92	31.435
678.25	31.622
678.57	28.486
678.89	27.655
679.22	30.648
679.54	27.099
679.86	28.807
680.18	26.834
680.51	29.787
680.83	29.359
681.15	28.302
681.48	29.868
681.80	29.594
682.12	29.119
682.44	26.112
682.77	29.124
683.09	31.974
683.41	31.042
683.73	30.464
684.06	29.545
684.38	29.746
684.70	27.713
685.02	30.957
685.34	26.190
685.67	26.748
685.99	26.289
686.31	27.986
686.63	25.265
686.96	25.893
687.28	27.617
687.60	26.268
687.92	29.068
688.24	27.186
688.56	26.506
688.89	31.743
689.21	30.786
689.53	29.228
689.85	29.933
690.17	27.329
690.49	28.875
690.82	32.243
691.14	29.911
691.46	28.059
691.78	27.711
692.10	28.926
692.42	29.940
692.74	27.178
693.06	30.000
693.39	28.131
693.71	27.729
694.03	28.632
694.35	28.571
694.67	29.291
694.99	31.463
695.31	29.902
695.63	31.818
695.95	30.562
696.27	29.695
696.59	30.311
696.91	31.606
697.23	26.526
697.56	29.638
697.88	28.630
698.20	27.917
698.52	28.387
698.84	27.840
699.16	26.728
699.48	30.879
699.80	31.159
700.12	34.545
700.44	31.830
700.76	31.215
701.08	28.161
701.40	33.799
701.72	32.070
702.04	37.216
702.36	29.745
702.68	32.578
703.00	33.241
703.32	30.851
703.64	29.223
703.96	30.641
704.28	31.686
704.60	31.378
704.91	33.234
705.23	29.619
705.55	36.545
705.87	38.870
706.19	35.689
706.51	33.645
706.83	32.727
707.15	32.493
707.47	29.293
707.79	31.204
708.11	26.256
708.43	30.238
708.74	30.867
709.06	31.169
709.38	30.184
709.70	30.233
710.02	32.047
710.34	29.091
710.66	33.134
710.98	34.091
711.29	29.942
711.61	37.168
711.93	30.128
712.25	37.299
712.57	36.397
712.89	32.526
713.20	34.043
713.52	34.211
713.84	34.177
714.16	27.744
714.48	31.322
714.80	33.131
715.11	31.124
715.43	31.157
715.75	31.594
716.07	30.671
716.39	28.213
716.70	36.213
717.02	33.453
717.34	31.449
717.66	34.328
717.97	35.458
718.29	30.741
718.61	32.482
718.93	36.029
719.24	29.412
719.56	31.186
719.88	32.881
720.20	35.473
720.51	30.314
720.83	37.918
721.15	29.104
721.46	34.397
721.78	32.258
722.10	34.340
722.42	31.579
722.73	31.086
723.05	31.557
723.37	31.984
723.68	37.066
724.00	35.366
724.32	36.694
724.63	33.740
724.95	33.054
725.27	32.389
725.58	37.891
725.90	34.672
726.22	27.925
726.53	30.208
726.85	31.399
727.16	30.961
727.48	32.270
727.80	30.303
728.11	33.696
728.43	33.846
728.74	34.050
729.06	33.212
729.38	34.926
729.69	32.740
730.01	30.717
730.32	30.556
730.64	30.100
730.96	28.713
731.27	30.132
731.59	30.887
731.90	30.612
732.22	32.609
732.53	30.341
732.85	29.808
733.16	30.547
733.48	33.223
733.80	30.519
734.11	30.255
734.43	30.178
734.74	27.143
735.06	28.367
735.37	32.948
735.69	28.981
736.00	31.699
736.32	25.857
736.63	30.351
736.95	34.505
737.26	22.109
737.58	29.355
737.89	34.448
738.21	31.741
738.52	35.357
738.83	31.698
739.15	28.846
739.46	35.766
739.78	29.861
740.09	32.615
740.41	34.516
740.72	28.920
741.04	32.593
741.35	30.833
741.66	39.111
741.98	33.019
742.29	36.364
742.61	34.483
742.92	34.842
743.23	34.188
743.55	35.600
743.86	34.211
744.18	36.726
744.49	37.321
744.80	40.376
745.12	37.727
745.43	30.396
745.74	39.189
746.06	38.073
746.37	37.220
746.68	35.747
747.00	33.796
747.31	34.762
747.62	30.973
747.94	33.480
748.25	31.064
748.56	38.326
748.88	41.089
749.19	39.500
749.50	33.953
749.82	32.520
750.13	35.510
750.44	31.752
750.75	30.526
751.07	32.476
751.38	35.889
751.69	34.296
752.01	31.203
752.32	29.242
752.63	33.333
752.94	31.557
753.26	37.600
753.57	32.520
753.88	33.984
754.19	28.214
754.51	34.722
754.82	29.603
755.13	33.585
755.44	31.955
755.75	32.117
756.07	35.106
756.38	24.818
756.69	27.852
757.00	29.042
757.31	26.113
757.63	27.485
757.94	27.882
758.25	27.696
758.56	25.185
758.87	26.075
759.18	25.758
759.50	27.586
759.81	27.103
760.12	23.437
760.43	28.940
760.74	27.174
761.05	27.401
761.36	27.540
761.67	29.545
761.99	27.640
762.30	29.861
762.61	31.298
762.92	33.984
763.23	28.992
763.54	36.000
763.85	28.125
764.16	32.308
764.47	33.460
764.78	30.035
765.10	26.266
765.41	27.139
765.72	28.443
766.03	28.213
766.34	30.667
766.65	32.766
766.96	32.906
767.27	39.086
767.58	35.417
767.89	40.526
768.20	38.506
768.51	36.041
768.82	37.615
769.13	30.894
769.44	32.794
769.75	36.481
770.06	27.064
770.37	36.652
770.68	33.796
770.99	32.889
771.30	29.508
771.61	34.978
771.92	30.328
772.23	37.395
772.54	35.897
772.85	34.031
773.16	36.170
773.47	41.304
773.78	43.655
774.09	39.286
774.39	43.275
774.70	37.037
775.01	42.754
775.32	48.366
775.63	49.342
775.94	44.604
776.25	50.394
776.56	43.284
776.87	40.164
777.18	52.344
777.48	54.198
777.79	48.485
778.10	39.259
778.41	47.321
778.72	48.905
779.03	39.597
779.34	44.966
779.65	35.811
779.95	42.331
780.26	41.176
780.57	44.138
780.88	52.344
781.19	45.865
781.50	41.892
781.80	44.654
782.11	33.333
782.42	32.911
782.73	33.742
783.04	44.595
783.34	47.887
783.65	49.315
783.96	47.015
784.27	42.657
784.57	37.410
784.88	48.148
785.19	53.175
785.50	44.340
785.81	50.000
786.11	47.541
786.42	46.512
786.73	49.558
787.04	47.170
787.34	61.607
787.65	59.000
787.96	45.946
788.26	44.628
788.57	60.169
788.88	46.281
789.19	47.222
789.49	51.515
789.80	51.145
790.11	60.000
790.41	55.446
790.72	54.217
791.03	61.957
791.33	66.279
791.64	62.887
791.95	57.426
792.25	58.889
792.56	61.039
792.87	74.359
793.17	60.759
793.48	54.023
793.79	54.023
794.09	52.273
794.40	47.059
794.70	51.471
795.01	40.000
795.32	36.691
795.62	41.732
795.93	52.586
796.23	46.903
796.54	49.412
796.85	59.459
797.15	66.197
797.46	66.667
797.76	72.289
798.07	74.684
798.37	69.231
798.68	69.697
798.99	61.972
799.29	61.039
799.60	61.364
799.90	72.603
800.21	82.090
800.51	60.345
800.82	75.439
801.12	68.852
801.43	72.727
801.73	71.622
802.04	93.651
802.34	77.778
802.65	82.813
802.95	86.441
803.26	84.375
803.56	60.000
803.87	76.923
804.17	76.471
804.48	85.185
804.78	62.069
805.09	57.353
805.39	90.385
805.70	80.357
806.00	91.803
806.30	78.788
806.61	79.268
806.91	45.570
807.22	63.158
807.52	55.224
807.83	70.423
808.13	71.875
808.43	83.333
808.74	46.053
809.04	72.464
809.35	67.164
809.65	67.105
809.95	91.935
810.26	69.492
810.56	92.063
810.86	102.273
811.17	90.476
811.47	80.000
811.77	96.296
812.08	89.091
812.38	94.000
812.69	108.333
812.99	104.545
813.29	93.878
813.59	83.333
813.90	104.082
814.20	78.182
814.50	69.231
814.81	77.941
815.11	112.245
815.41	65.574
815.72	116.667
816.02	76.364
816.32	107.143
816.62	85.000
816.93	95.122
817.23	130.952
817.53	95.455
817.84	124.242
818.14	102.174
818.44	104.444
818.74	126.471
819.04	137.500
819.35	100.000
819.65	138.235
819.95	135.714
820.25	145.000
820.56	97.436
820.86	104.545
821.16	97.674
821.46	130.769
821.76	120.000
822.07	131.429
822.37	120.000
822.67	124.242
822.97	90.196
823.27	164.286
823.57	124.324
823.88	130.000
824.18	150.000
824.48	128.571
824.78	152.000
825.08	120.833
825.38	129.730
825.69	109.756
825.99	191.667
826.29	110.345
826.59	118.421
826.89	107.895
827.19	129.412
827.49	145.161
827.79	115.909
828.09	120.455
828.39	106.383
828.70	100.000
829.00	74.074
829.30	145.161
829.60	127.500
829.90	160.000
830.20	167.857
830.50	139.130
830.80	160.870
831.10	183.333
831.40	143.333
831.70	139.130
832.00	207.692
832.30	151.852
832.60	218.750
832.90	186.667
833.20	314.286
833.50	138.710
833.80	131.034
834.10	134.375
834.40	157.692
834.70	177.778
835.00	180.952
835.30	145.714
835.60	153.846
835.90	148.276
836.20	292.857
836.50	182.759
836.80	116.000
837.10	152.778
837.40	219.048
837.70	317.647
838.00	170.370
838.30	200.000
838.60	190.476
838.90	169.231
839.19	230.000
839.49	335.714
839.79	245.000
840.09	195.000
840.39	200.000
840.69	204.348
840.99	283.333
841.29	330.000
841.59	275.000
841.88	250.000
842.18	162.069
842.48	166.667
842.78	123.333
843.08	221.739
843.38	134.375
843.68	766.667
843.97	180.769
844.27	148.276
844.57	204.762
844.87	312.500
845.17	159.259
845.47	1166.667
845.76	322.222
846.06	241.176
846.36	350.000
846.66	285.714
846.96	193.750
847.25	309.091
847.55	318.182
847.85	191.304
848.15	300.000
848.44	271.429
848.74	188.889
849.04	282.353
849.34	410.000
849.63	157.895
849.93	318.182
850.23	880.000
850.53	292.857
850.82	1750.000
851.12	-2000.000
851.42	2900.000
851.71	210.000
852.01	-566.667
852.31	166.667
852.61	1166.667
852.90	195.238
853.20	176.000
853.50	211.765
853.79	233.333
854.09	154.167
854.39	250.000
854.68	132.432
854.98	154.839
855.28	150.000
855.57	137.931
855.87	144.444
856.17	136.842
856.46	206.667
856.76	200.000
857.05	144.828
857.35	154.167
857.65	260.000
857.94	217.391
858.24	165.385
858.53	220.000
858.83	190.909
859.13	240.000
859.42	0.000
859.72	455.556
860.01	354.545
860.31	218.182
860.60	215.789
860.90	173.913
861.20	377.778
861.49	416.667
861.79	-3900.000
862.08	375.000
862.38	204.762
862.67	330.769
862.97	329.412
863.26	388.889
863.56	205.556
863.85	333.333
864.15	375.000
864.44	300.000
864.74	500.000
865.03	562.500
865.33	263.158
865.62	336.364
865.92	346.154
866.21	241.667
866.51	0.000
866.80	336.364
867.10	760.000
867.39	346.154
867.69	290.909
867.98	121.053
868.27	336.364
868.57	284.211
868.86	-2800.000
869.16	306.250
869.45	1450.000
869.75	-2900.000
870.04	316.667
870.33	471.429
870.63	600.000
870.92	2100.000
871.22	628.571
871.51	200.000
871.80	180.952
872.10	228.571
>>>>>End Processed Spectral Data<<<<<
