SpectraSuite Data File
++++++++++++++++++++++++++++++++++++
Date: Wed May 13 20:34:24 PDT 2015
User: schluterlab
Dark Spectrum Present: Yes
Reference Spectrum Present: Yes
Number of Sampled Component Spectra: 1
Spectrometers: USB2E3373
Integration Time (usec): 3000 (USB2E3373)
Spectra Averaged: 3 (USB2E3373)
Boxcar Smoothing: 0 (USB2E3373)
Correct for Electrical Dark: No (USB2E3373)
Strobe/Lamp Enabled: No (USB2E3373)
Correct for Detector Non-linearity: No (USB2E3373)
Correct for Stray Light: No (USB2E3373)
Number of Pixels in Processed Spectrum: 2048
>>>>>Begin Processed Spectral Data<<<<<
178.53	0.000
178.91	-875.000
179.29	-975.000
179.67	-144.444
180.04	-925.000
180.42	2050.000
180.80	860.000
181.18	-825.000
181.56	642.857
181.94	0.000
182.31	-328.571
182.69	1000.000
183.07	-362.500
183.45	-455.556
183.83	363.636
184.20	-220.000
184.58	1500.000
184.96	4100.000
185.34	-380.000
185.72	-375.000
186.09	-1450.000
186.47	2350.000
186.85	2050.000
187.23	2900.000
187.61	-1300.000
187.98	1175.000
188.36	418.182
188.74	390.909
189.12	-760.000
189.49	520.000
189.87	-2600.000
190.25	-1025.000
190.63	257.143
191.00	330.769
191.38	633.333
191.76	-675.000
192.14	975.000
192.51	425.000
192.89	616.667
193.27	462.500
193.65	-750.000
194.02	230.000
194.40	700.000
194.78	310.000
195.15	325.000
195.53	420.000
195.91	-1500.000
196.29	256.250
196.66	263.158
197.04	-170.000
197.42	0.000
197.79	480.000
198.17	-3900.000
198.55	500.000
198.92	450.000
199.30	720.000
199.68	0.000
200.05	277.778
200.43	642.857
200.81	2300.000
201.18	1133.333
201.56	-1200.000
201.94	366.667
202.31	444.444
202.69	325.000
203.07	370.000
203.44	0.000
203.82	1225.000
204.19	742.857
204.57	385.714
204.95	587.500
205.32	1033.333
205.70	372.727
206.08	264.286
206.45	1700.000
206.83	281.250
207.20	733.333
207.58	640.000
207.96	266.667
208.33	537.500
208.71	-700.000
209.08	600.000
209.46	433.333
209.84	436.364
210.21	-1166.667
210.59	1200.000
210.96	-437.500
211.34	1800.000
211.71	390.000
212.09	633.333
212.46	0.000
212.84	866.667
213.22	1025.000
213.59	-3900.000
213.97	533.333
214.34	542.857
214.72	472.727
215.09	760.000
215.47	-1550.000
215.84	-1800.000
216.22	1333.333
216.59	328.571
216.97	1175.000
217.34	318.182
217.72	-483.333
218.09	0.000
218.47	-2500.000
218.84	411.111
219.22	542.857
219.59	1200.000
219.97	-457.143
220.34	760.000
220.72	-1300.000
221.09	328.571
221.47	1100.000
221.84	-666.667
222.22	0.000
222.59	1100.000
222.97	-1400.000
223.34	840.000
223.72	346.154
224.09	740.000
224.46	2200.000
224.84	-3500.000
225.21	-740.000
225.59	-3800.000
225.96	480.000
226.34	190.000
226.71	2000.000
227.08	375.000
227.46	460.000
227.83	-900.000
228.21	-1650.000
228.58	344.444
228.95	-1500.000
229.33	-1400.000
229.70	933.333
230.08	685.714
230.45	-520.000
230.82	250.000
231.20	500.000
231.57	485.714
231.95	441.667
232.32	168.182
232.69	272.727
233.07	500.000
233.44	269.231
233.81	-1033.333
234.19	210.526
234.56	300.000
234.93	283.333
235.31	354.545
235.68	230.769
236.05	257.143
236.43	112.121
236.80	157.895
237.17	2800.000
237.55	128.571
237.92	171.429
238.29	147.619
238.67	125.806
239.04	186.207
239.41	102.778
239.79	102.174
240.16	109.524
240.53	88.636
240.91	90.196
241.28	78.000
241.65	68.000
242.02	85.507
242.40	85.484
242.77	76.667
243.14	64.516
243.51	52.809
243.89	60.000
244.26	44.444
244.63	55.914
245.00	45.745
245.38	55.446
245.75	51.402
246.12	40.367
246.49	56.934
246.87	49.600
247.24	50.769
247.61	39.286
247.98	40.523
248.36	44.595
248.73	45.223
249.10	40.127
249.47	44.633
249.84	43.850
250.22	41.176
250.59	40.828
250.96	41.919
251.33	37.915
251.70	44.059
252.08	38.095
252.45	33.184
252.82	40.870
253.19	38.723
253.56	36.078
253.94	39.419
254.31	37.891
254.68	36.923
255.05	38.745
255.42	34.553
255.79	34.191
256.16	29.964
256.54	31.802
256.91	34.520
257.28	30.935
257.65	31.683
258.02	35.093
258.39	31.861
258.76	30.435
259.14	32.143
259.51	32.219
259.88	27.329
260.25	32.024
260.62	34.393
260.99	31.677
261.36	34.535
261.73	31.519
262.10	28.779
262.47	36.338
262.85	33.426
263.22	32.479
263.59	33.048
263.96	29.396
264.33	32.637
264.70	27.895
265.07	31.458
265.44	30.051
265.81	31.387
266.18	28.392
266.55	30.488
266.92	31.695
267.29	28.472
267.66	29.358
268.03	29.773
268.40	28.037
268.77	25.537
269.14	29.730
269.51	26.862
269.88	29.138
270.25	27.765
270.62	27.416
270.99	29.462
271.36	26.609
271.73	27.336
272.10	27.174
272.47	29.462
272.84	29.437
273.21	28.512
273.58	26.638
273.95	24.948
274.32	26.653
274.69	28.051
275.06	26.378
275.43	27.660
275.80	28.056
276.17	28.106
276.54	31.393
276.91	26.087
277.28	26.367
277.65	28.240
278.02	27.743
278.39	29.102
278.76	27.273
279.13	28.491
279.50	27.561
279.87	25.299
280.23	27.745
280.60	25.919
280.97	25.508
281.34	25.664
281.71	26.000
282.08	28.023
282.45	27.273
282.82	24.334
283.19	24.955
283.56	24.737
283.92	24.873
284.29	25.220
284.66	25.590
285.03	23.870
285.40	25.880
285.77	26.599
286.14	26.079
286.51	25.167
286.87	25.983
287.24	24.919
287.61	24.880
287.98	25.325
288.35	22.504
288.72	25.078
289.08	23.944
289.45	25.371
289.82	24.553
290.19	24.019
290.56	23.277
290.93	22.659
291.29	22.393
291.66	22.419
292.03	23.983
292.40	22.614
292.77	21.302
293.13	21.493
293.50	22.595
293.87	21.333
294.24	20.593
294.60	19.505
294.97	21.802
295.34	21.016
295.71	23.153
296.08	21.510
296.44	19.670
296.81	19.815
297.18	21.138
297.55	18.206
297.91	19.525
298.28	20.482
298.65	21.018
299.02	20.685
299.38	19.655
299.75	16.038
300.12	19.796
300.48	19.375
300.85	19.112
301.22	19.363
301.59	18.434
301.95	18.892
302.32	18.357
302.69	20.072
303.05	18.303
303.42	19.383
303.79	18.120
304.15	17.832
304.52	18.076
304.89	18.118
305.25	17.865
305.62	19.026
305.99	17.591
306.35	17.897
306.72	18.386
307.09	17.980
307.45	18.581
307.82	15.737
308.19	18.543
308.55	18.662
308.92	18.367
309.29	16.367
309.65	16.861
310.02	18.393
310.38	17.419
310.75	17.635
311.12	17.707
311.48	17.868
311.85	18.763
312.22	18.730
312.58	17.152
312.95	18.268
313.31	17.767
313.68	16.632
314.05	19.231
314.41	18.894
314.78	17.422
315.14	17.279
315.51	18.641
315.87	18.416
316.24	18.272
316.61	18.324
316.97	19.080
317.34	17.613
317.70	19.503
318.07	18.864
318.43	18.982
318.80	20.337
319.16	19.774
319.53	18.574
319.89	19.429
320.26	21.500
320.62	19.643
320.99	20.707
321.35	19.899
321.72	21.663
322.08	21.718
322.45	23.284
322.81	22.771
323.18	22.351
323.54	21.058
323.91	22.830
324.27	21.606
324.64	21.435
325.00	21.912
325.37	22.930
325.73	23.339
326.10	22.860
326.46	22.939
326.83	23.727
327.19	23.399
327.56	23.868
327.92	24.409
328.29	23.780
328.65	24.770
329.01	23.736
329.38	23.959
329.74	24.284
330.11	24.222
330.47	24.702
330.84	25.092
331.20	24.590
331.56	24.495
331.93	24.259
332.29	24.490
332.66	25.221
333.02	24.497
333.38	24.661
333.75	26.114
334.11	24.377
334.48	25.200
334.84	25.276
335.20	26.000
335.57	25.204
335.93	24.464
336.29	24.267
336.66	25.699
337.02	22.986
337.38	23.981
337.75	23.708
338.11	24.172
338.47	24.033
338.84	25.756
339.20	24.312
339.56	25.456
339.93	23.818
340.29	24.819
340.65	25.045
341.02	24.782
341.38	24.377
341.74	24.211
342.11	24.017
342.47	23.612
342.83	25.000
343.20	24.502
343.56	24.431
343.92	23.772
344.28	23.384
344.65	24.248
345.01	23.064
345.37	23.842
345.73	24.365
346.10	23.444
346.46	23.814
346.82	24.300
347.19	22.723
347.55	23.235
347.91	23.867
348.27	24.486
348.63	23.244
349.00	22.816
349.36	23.645
349.72	22.614
350.08	22.123
350.45	24.410
350.81	23.233
351.17	24.797
351.53	21.704
351.89	22.855
352.26	23.994
352.62	22.694
352.98	22.204
353.34	23.254
353.70	22.504
354.07	22.984
354.43	21.587
354.79	22.204
355.15	21.947
355.51	22.942
355.87	22.939
356.24	22.476
356.60	21.973
356.96	21.561
357.32	22.322
357.68	22.756
358.04	22.486
358.40	22.724
358.77	21.987
359.13	21.626
359.49	22.275
359.85	21.429
360.21	22.169
360.57	21.868
360.93	21.077
361.29	21.391
361.66	20.820
362.02	23.060
362.38	21.901
362.74	21.652
363.10	20.577
363.46	20.910
363.82	21.013
364.18	21.366
364.54	21.620
364.90	21.955
365.26	21.838
365.62	21.768
365.98	20.672
366.35	20.630
366.71	21.258
367.07	19.956
367.43	21.553
367.79	21.342
368.15	21.408
368.51	20.930
368.87	21.699
369.23	20.556
369.59	21.144
369.95	20.735
370.31	20.228
370.67	20.072
371.03	20.899
371.39	21.283
371.75	21.471
372.11	21.053
372.47	21.114
372.83	20.821
373.19	20.159
373.55	21.508
373.91	21.723
374.27	19.313
374.63	20.727
374.99	20.480
375.35	19.679
375.71	21.110
376.07	21.468
376.42	20.702
376.78	19.947
377.14	20.149
377.50	20.728
377.86	19.747
378.22	20.228
378.58	19.110
378.94	19.736
379.30	19.784
379.66	20.241
380.02	19.902
380.38	19.308
380.74	20.048
381.09	19.560
381.45	19.975
381.81	20.393
382.17	20.573
382.53	20.063
382.89	19.012
383.25	19.325
383.61	20.384
383.97	19.199
384.32	19.339
384.68	19.950
385.04	19.975
385.40	19.381
385.76	19.165
386.12	19.689
386.48	19.824
386.83	19.243
387.19	20.037
387.55	19.604
387.91	18.984
388.27	19.497
388.62	19.115
388.98	19.902
389.34	20.088
389.70	19.068
390.06	21.039
390.42	19.066
390.77	18.830
391.13	19.145
391.49	19.543
391.85	18.778
392.20	18.233
392.56	19.318
392.92	19.129
393.28	17.811
393.64	20.084
393.99	18.571
394.35	19.727
394.71	18.883
395.07	17.819
395.42	19.221
395.78	18.893
396.14	18.932
396.50	19.236
396.85	19.072
397.21	18.927
397.57	18.599
397.92	18.930
398.28	18.386
398.64	18.937
399.00	18.691
399.35	18.274
399.71	18.345
400.07	19.042
400.42	18.528
400.78	18.456
401.14	17.317
401.49	17.970
401.85	18.391
402.21	18.443
402.57	17.767
402.92	18.600
403.28	19.675
403.63	18.379
403.99	17.962
404.35	18.970
404.70	17.806
405.06	18.229
405.42	18.403
405.77	17.829
406.13	18.002
406.49	18.746
406.84	18.842
407.20	18.262
407.55	18.188
407.91	18.667
408.27	17.869
408.62	18.061
408.98	16.973
409.34	17.774
409.69	18.194
410.05	17.906
410.40	17.920
410.76	17.802
411.11	17.973
411.47	17.508
411.83	18.204
412.18	16.945
412.54	17.933
412.89	18.373
413.25	17.769
413.60	18.036
413.96	18.458
414.31	17.436
414.67	18.251
415.03	17.748
415.38	18.363
415.74	17.428
416.09	18.093
416.45	17.269
416.80	18.705
417.16	18.700
417.51	18.381
417.87	17.341
418.22	18.486
418.58	18.528
418.93	18.243
419.29	18.205
419.64	17.821
420.00	17.988
420.35	18.145
420.71	18.769
421.06	16.587
421.42	17.135
421.77	17.713
422.12	17.238
422.48	17.161
422.83	16.773
423.19	17.514
423.54	17.411
423.90	18.261
424.25	18.202
424.61	17.560
424.96	17.959
425.31	17.663
425.67	17.416
426.02	17.314
426.38	18.498
426.73	17.496
427.09	18.116
427.44	17.194
427.79	17.424
428.15	17.440
428.50	17.847
428.85	18.594
429.21	16.952
429.56	17.263
429.92	17.162
430.27	17.180
430.62	17.563
430.98	18.059
431.33	18.093
431.68	17.277
432.04	17.412
432.39	17.647
432.74	17.714
433.10	17.374
433.45	17.959
433.80	16.519
434.16	17.147
434.51	17.632
434.86	17.788
435.22	17.287
435.57	17.386
435.92	17.496
436.28	18.149
436.63	17.991
436.98	17.916
437.34	18.366
437.69	18.145
438.04	17.819
438.39	18.030
438.75	17.838
439.10	18.603
439.45	17.710
439.81	17.221
440.16	17.730
440.51	18.219
440.86	17.834
441.22	17.686
441.57	18.631
441.92	18.628
442.27	17.600
442.63	17.957
442.98	17.577
443.33	18.098
443.68	18.172
444.03	18.106
444.39	17.332
444.74	17.695
445.09	18.167
445.44	18.316
445.79	17.763
446.15	18.317
446.50	18.794
446.85	18.448
447.20	17.644
447.55	18.202
447.91	18.147
448.26	18.253
448.61	18.428
448.96	18.549
449.31	18.166
449.66	18.571
450.02	17.326
450.37	18.197
450.72	16.977
451.07	17.063
451.42	18.419
451.77	18.908
452.12	18.129
452.47	17.600
452.83	17.949
453.18	18.154
453.53	19.233
453.88	18.015
454.23	19.307
454.58	18.898
454.93	19.517
455.28	18.329
455.63	17.840
455.98	19.048
456.34	18.216
456.69	19.224
457.04	18.824
457.39	18.410
457.74	18.340
458.09	18.344
458.44	18.187
458.79	17.408
459.14	17.833
459.49	18.681
459.84	18.449
460.19	17.737
460.54	17.824
460.89	18.212
461.24	18.944
461.59	19.756
461.94	18.434
462.29	18.635
462.64	18.443
462.99	17.957
463.34	18.867
463.69	18.824
464.04	18.609
464.39	18.435
464.74	19.192
465.09	17.250
465.44	18.006
465.79	17.226
466.14	19.212
466.49	17.742
466.84	18.330
467.19	18.467
467.54	19.375
467.89	17.827
468.24	18.674
468.59	18.803
468.94	17.410
469.29	18.252
469.64	19.612
469.99	18.945
470.34	18.230
470.68	18.606
471.03	18.435
471.38	19.041
471.73	18.921
472.08	18.618
472.43	18.342
472.78	18.038
473.13	18.935
473.48	18.227
473.83	18.354
474.17	17.673
474.52	18.859
474.87	18.155
475.22	18.398
475.57	18.861
475.92	18.587
476.27	18.546
476.61	17.816
476.96	18.197
477.31	17.582
477.66	18.107
478.01	17.982
478.36	18.456
478.70	18.120
479.05	19.116
479.40	17.758
479.75	18.048
480.10	17.793
480.45	18.182
480.79	16.818
481.14	18.444
481.49	17.466
481.84	18.198
482.19	18.037
482.53	18.165
482.88	17.729
483.23	17.897
483.58	17.743
483.92	17.057
484.27	17.037
484.62	17.069
484.97	17.383
485.31	17.363
485.66	15.806
486.01	15.789
486.36	15.743
486.70	15.813
487.05	16.373
487.40	16.599
487.75	17.333
488.09	17.774
488.44	17.445
488.79	17.866
489.13	17.914
489.48	17.251
489.83	17.479
490.17	17.273
490.52	17.360
490.87	17.096
491.22	17.372
491.56	16.720
491.91	17.683
492.26	17.869
492.60	17.005
492.95	17.166
493.30	17.290
493.64	16.892
493.99	16.527
494.34	16.883
494.68	18.178
495.03	17.528
495.37	17.171
495.72	17.105
496.07	17.912
496.41	16.681
496.76	17.898
497.11	17.064
497.45	17.094
497.80	17.083
498.14	16.860
498.49	17.805
498.84	17.546
499.18	17.143
499.53	17.426
499.87	17.568
500.22	17.993
500.56	17.282
500.91	16.683
501.26	17.259
501.60	17.561
501.95	17.140
502.29	18.369
502.64	17.458
502.98	16.690
503.33	17.276
503.67	17.030
504.02	16.745
504.36	17.642
504.71	17.049
505.06	17.301
505.40	17.161
505.75	16.442
506.09	17.638
506.44	16.971
506.78	17.340
507.13	17.920
507.47	17.475
507.82	17.882
508.16	17.528
508.51	17.707
508.85	17.329
509.19	17.296
509.54	17.806
509.88	17.208
510.23	17.121
510.57	18.111
510.92	17.659
511.26	17.523
511.61	18.309
511.95	17.223
512.30	17.391
512.64	17.410
512.98	17.524
513.33	17.880
513.67	16.329
514.02	16.775
514.36	17.586
514.70	18.207
515.05	17.401
515.39	17.667
515.74	17.793
516.08	18.055
516.42	18.147
516.77	17.168
517.11	17.370
517.46	17.551
517.80	17.886
518.14	16.908
518.49	17.620
518.83	17.045
519.17	17.436
519.52	17.204
519.86	16.885
520.20	18.324
520.55	18.133
520.89	17.762
521.23	17.370
521.58	17.407
521.92	18.555
522.26	17.633
522.61	17.882
522.95	17.373
523.29	16.981
523.64	18.720
523.98	17.067
524.32	17.551
524.66	17.559
525.01	17.034
525.35	17.410
525.69	17.365
526.04	18.006
526.38	17.999
526.72	18.160
527.06	17.389
527.41	16.584
527.75	18.071
528.09	18.176
528.43	17.973
528.78	18.193
529.12	18.061
529.46	17.942
529.80	18.069
530.15	18.193
530.49	17.108
530.83	17.785
531.17	18.016
531.51	18.288
531.86	17.613
532.20	18.383
532.54	16.912
532.88	17.587
533.22	16.302
533.57	17.901
533.91	17.520
534.25	17.254
534.59	17.389
534.93	17.430
535.27	17.381
535.62	17.155
535.96	18.079
536.30	17.165
536.64	18.158
536.98	17.585
537.32	16.853
537.66	17.733
538.01	17.841
538.35	17.970
538.69	18.634
539.03	17.869
539.37	17.188
539.71	17.110
540.05	17.843
540.39	17.475
540.73	16.947
541.07	17.975
541.42	17.743
541.76	17.355
542.10	17.464
542.44	16.954
542.78	18.511
543.12	17.210
543.46	17.246
543.80	17.502
544.14	16.945
544.48	17.397
544.82	16.164
545.16	18.152
545.50	17.095
545.84	17.473
546.18	16.970
546.52	17.412
546.86	16.701
547.20	17.127
547.54	16.900
547.88	18.112
548.22	16.874
548.56	17.296
548.90	17.286
549.24	16.498
549.58	17.667
549.92	17.376
550.26	17.116
550.60	17.289
550.94	17.254
551.28	16.679
551.62	17.469
551.96	16.772
552.30	17.952
552.64	16.971
552.98	18.102
553.32	16.993
553.66	17.791
554.00	18.119
554.34	16.770
554.68	16.667
555.02	17.630
555.36	16.910
555.69	16.915
556.03	16.756
556.37	17.531
556.71	17.190
557.05	17.227
557.39	17.285
557.73	16.373
558.07	17.621
558.41	17.728
558.75	17.414
559.08	17.823
559.42	16.629
559.76	17.059
560.10	16.988
560.44	16.282
560.78	16.567
561.12	17.612
561.45	17.405
561.79	17.403
562.13	16.566
562.47	18.238
562.81	16.667
563.15	16.923
563.48	17.308
563.82	17.025
564.16	16.808
564.50	16.602
564.84	17.257
565.17	16.860
565.51	16.230
565.85	17.195
566.19	16.594
566.52	17.036
566.86	17.058
567.20	16.627
567.54	17.009
567.88	16.839
568.21	17.302
568.55	16.380
568.89	16.099
569.23	15.954
569.56	15.870
569.90	15.396
570.24	15.465
570.57	15.369
570.91	14.867
571.25	15.225
571.59	14.993
571.92	15.006
572.26	14.991
572.60	15.255
572.93	15.532
573.27	15.143
573.61	15.187
573.95	15.065
574.28	15.377
574.62	15.185
574.96	14.791
575.29	14.985
575.63	14.964
575.97	14.944
576.30	15.109
576.64	14.860
576.98	14.998
577.31	15.042
577.65	14.788
577.98	14.837
578.32	14.416
578.66	14.927
578.99	15.088
579.33	15.444
579.67	14.692
580.00	15.128
580.34	14.950
580.67	14.914
581.01	15.381
581.35	14.850
581.68	14.599
582.02	14.536
582.35	14.611
582.69	15.027
583.02	15.150
583.36	15.287
583.70	15.559
584.03	15.361
584.37	15.626
584.70	15.517
585.04	15.215
585.37	15.168
585.71	15.343
586.04	15.463
586.38	15.282
586.72	15.907
587.05	14.887
587.39	15.066
587.72	15.254
588.06	15.395
588.39	15.418
588.73	15.723
589.06	15.550
589.40	15.825
589.73	16.051
590.07	15.694
590.40	15.491
590.73	16.237
591.07	16.199
591.40	16.238
591.74	16.104
592.07	15.576
592.41	16.122
592.74	14.944
593.08	15.590
593.41	15.027
593.75	15.084
594.08	15.588
594.41	15.589
594.75	15.416
595.08	15.390
595.42	15.517
595.75	15.919
596.09	16.297
596.42	16.189
596.75	15.703
597.09	16.710
597.42	15.599
597.75	16.645
598.09	16.174
598.42	15.722
598.76	15.403
599.09	14.937
599.42	15.211
599.76	14.861
600.09	15.264
600.42	15.595
600.76	15.429
601.09	15.556
601.42	15.563
601.76	15.446
602.09	15.375
602.42	15.525
602.76	16.163
603.09	16.090
603.42	16.009
603.76	15.587
604.09	15.549
604.42	15.491
604.76	16.322
605.09	15.028
605.42	15.348
605.75	16.267
606.09	15.657
606.42	16.020
606.75	15.886
607.09	16.450
607.42	15.961
607.75	15.823
608.08	16.023
608.42	16.316
608.75	15.780
609.08	16.050
609.41	15.992
609.75	16.055
610.08	15.881
610.41	15.410
610.74	16.131
611.07	15.464
611.41	15.898
611.74	16.290
612.07	15.787
612.40	17.261
612.73	15.895
613.07	16.864
613.40	16.377
613.73	16.256
614.06	16.505
614.39	15.836
614.72	16.000
615.06	16.071
615.39	15.658
615.72	15.798
616.05	15.896
616.38	16.120
616.71	16.449
617.05	16.843
617.38	16.176
617.71	16.517
618.04	16.046
618.37	15.612
618.70	16.241
619.03	16.513
619.36	16.497
619.69	16.761
620.03	17.033
620.36	17.781
620.69	17.397
621.02	16.740
621.35	16.445
621.68	15.576
622.01	16.718
622.34	18.306
622.67	16.730
623.00	16.654
623.33	16.297
623.66	16.583
623.99	17.084
624.32	17.760
624.65	16.949
624.99	16.147
625.32	16.293
625.65	17.881
625.98	16.295
626.31	16.719
626.64	16.980
626.97	17.706
627.30	17.539
627.63	17.145
627.96	16.821
628.29	18.460
628.62	18.481
628.95	18.208
629.28	16.880
629.61	18.698
629.94	18.762
630.26	16.778
630.59	16.111
630.92	17.241
631.25	16.584
631.58	17.818
631.91	17.241
632.24	16.878
632.57	17.524
632.90	17.325
633.23	16.667
633.56	19.435
633.89	18.573
634.22	18.842
634.55	18.107
634.88	18.084
635.20	19.116
635.53	19.880
635.86	18.564
636.19	18.706
636.52	19.031
636.85	18.557
637.18	16.475
637.51	19.149
637.83	17.386
638.16	18.031
638.49	18.388
638.82	19.090
639.15	19.125
639.48	18.329
639.81	18.901
640.13	17.578
640.46	18.926
640.79	19.551
641.12	18.707
641.45	19.274
641.77	16.642
642.10	19.006
642.43	17.718
642.76	19.195
643.09	18.558
643.41	18.816
643.74	20.062
644.07	19.055
644.40	19.018
644.73	20.787
645.05	20.919
645.38	19.905
645.71	19.968
646.04	19.269
646.36	20.868
646.69	21.070
647.02	19.728
647.35	20.619
647.67	19.115
648.00	21.138
648.33	18.317
648.66	19.545
648.98	20.990
649.31	19.432
649.64	20.329
649.96	18.927
650.29	19.589
650.62	17.152
650.94	18.963
651.27	21.791
651.60	19.967
651.92	19.649
652.25	18.730
652.58	19.626
652.90	17.694
653.23	18.490
653.56	17.795
653.88	18.542
654.21	20.537
654.54	18.482
654.86	19.626
655.19	16.622
655.52	13.329
655.84	11.683
656.17	14.622
656.49	20.467
656.82	21.032
657.15	17.003
657.47	12.822
657.80	9.899
658.13	10.455
658.45	16.185
658.78	16.099
659.10	17.257
659.43	18.142
659.75	18.490
660.08	19.747
660.41	19.088
660.73	20.330
661.06	19.427
661.38	21.818
661.71	20.962
662.03	22.880
662.36	19.284
662.68	20.482
663.01	23.434
663.33	19.321
663.66	21.429
663.98	22.246
664.31	19.538
664.63	19.838
664.96	21.127
665.28	22.131
665.61	17.934
665.93	18.109
666.26	22.515
666.58	20.293
666.91	22.199
667.23	22.697
667.56	19.438
667.88	21.581
668.21	21.535
668.53	20.824
668.86	19.697
669.18	23.667
669.50	21.522
669.83	25.490
670.15	23.778
670.48	20.479
670.80	21.552
671.13	20.807
671.45	19.787
671.77	21.792
672.10	20.333
672.42	19.435
672.75	19.569
673.07	19.894
673.39	18.987
673.72	19.141
674.04	21.176
674.37	22.330
674.69	17.996
675.01	20.502
675.34	22.587
675.66	23.158
675.98	20.774
676.31	22.269
676.63	22.718
676.95	20.545
677.28	20.093
677.60	21.758
677.92	24.684
678.25	21.150
678.57	19.920
678.89	19.639
679.22	20.039
679.54	20.992
679.86	19.266
680.18	18.784
680.51	21.454
680.83	20.996
681.15	20.755
681.48	21.739
681.80	20.503
682.12	18.966
682.44	19.729
682.77	20.774
683.09	22.532
683.41	21.729
683.73	21.413
684.06	22.107
684.38	20.744
684.70	19.380
685.02	22.326
685.34	18.681
685.67	17.308
685.99	18.900
686.31	20.478
686.63	18.198
686.96	18.750
687.28	17.148
687.60	20.652
687.92	22.121
688.24	19.962
688.56	21.285
688.89	21.992
689.21	22.052
689.53	21.086
689.85	21.064
690.17	19.876
690.49	25.265
690.82	21.729
691.14	18.973
691.46	18.987
691.78	21.084
692.10	21.074
692.42	20.758
692.74	19.710
693.06	21.489
693.39	22.587
693.71	20.524
694.03	21.895
694.35	20.996
694.67	19.451
694.99	23.659
695.31	18.382
695.63	24.402
695.95	21.516
696.27	20.305
696.59	22.280
696.91	23.834
697.23	19.484
697.56	21.962
697.88	16.973
698.20	20.000
698.52	22.581
698.84	22.494
699.16	21.429
699.48	21.615
699.80	22.705
700.12	25.974
700.44	22.281
700.76	23.481
701.08	23.276
701.40	23.743
701.72	25.364
702.04	26.989
702.36	19.263
702.68	24.646
703.00	22.161
703.32	21.277
703.64	20.107
703.96	24.513
704.28	25.000
704.60	24.927
704.91	25.223
705.23	24.047
705.55	28.239
705.87	26.246
706.19	23.322
706.51	21.807
706.83	25.758
707.15	25.770
707.47	19.949
707.79	21.867
708.11	23.288
708.43	22.619
708.74	22.449
709.06	24.935
709.38	23.097
709.70	24.419
710.02	24.036
710.34	22.121
710.66	22.090
710.98	23.011
711.29	25.000
711.61	26.549
711.93	21.795
712.25	27.974
712.57	24.265
712.89	23.875
713.20	23.708
713.52	23.355
713.84	23.418
714.16	20.122
714.48	21.264
714.80	27.356
715.11	23.919
715.43	19.881
715.75	22.609
716.07	25.240
716.39	24.138
716.70	24.917
717.02	24.101
717.34	24.028
717.66	25.746
717.97	24.701
718.29	26.667
718.61	26.642
718.93	25.735
719.24	25.606
719.56	23.729
719.88	27.119
720.20	27.365
720.51	27.526
720.83	25.651
721.15	22.761
721.46	27.305
721.78	29.749
722.10	25.283
722.42	25.188
722.73	21.348
723.05	20.492
723.37	23.077
723.68	26.255
724.00	26.423
724.32	25.806
724.63	22.764
724.95	25.941
725.27	27.126
725.58	23.047
725.90	24.088
726.22	25.660
726.53	23.958
726.85	26.280
727.16	28.114
727.48	25.532
727.80	23.485
728.11	26.449
728.43	22.308
728.74	26.882
729.06	31.022
729.38	29.412
729.69	22.776
730.01	20.478
730.32	27.083
730.64	24.415
730.96	20.792
731.27	26.821
731.59	22.630
731.90	19.242
732.22	24.224
732.53	23.839
732.85	24.038
733.16	25.402
733.48	23.256
733.80	27.273
734.11	28.662
734.43	24.852
734.74	19.143
735.06	20.057
735.37	25.723
735.69	20.701
736.00	24.183
736.32	22.741
736.63	24.601
736.95	26.837
737.26	20.408
737.58	22.903
737.89	22.742
738.21	24.915
738.52	24.286
738.83	23.019
739.15	25.385
739.46	31.387
739.78	22.569
740.09	23.385
740.41	24.839
740.72	25.784
741.04	30.000
741.35	25.417
741.66	30.667
741.98	22.170
742.29	27.273
742.61	25.862
742.92	25.339
743.23	29.060
743.55	26.800
743.86	25.439
744.18	29.646
744.49	29.665
744.80	31.455
745.12	30.909
745.43	29.515
745.74	27.477
746.06	29.358
746.37	28.251
746.68	27.149
747.00	31.481
747.31	29.048
747.62	21.239
747.94	24.670
748.25	24.255
748.56	24.670
748.88	31.188
749.19	26.000
749.50	27.442
749.82	23.984
750.13	24.082
750.44	28.832
750.75	27.719
751.07	27.331
751.38	21.603
751.69	28.159
752.01	21.053
752.32	24.188
752.63	24.823
752.94	24.590
753.26	28.400
753.57	23.171
753.88	29.297
754.19	24.286
754.51	27.778
754.82	23.466
755.13	25.283
755.44	25.564
755.75	23.358
756.07	27.305
756.38	21.533
756.69	17.114
757.00	23.353
757.31	21.068
757.63	20.760
757.94	21.984
758.25	22.549
758.56	20.247
758.87	20.968
759.18	24.545
759.50	22.257
759.81	22.430
760.12	19.687
760.43	21.777
760.74	20.380
761.05	23.729
761.36	23.797
761.67	24.148
761.99	23.602
762.30	23.264
762.61	20.992
762.92	24.219
763.23	26.050
763.54	31.200
763.85	28.125
764.16	30.385
764.47	25.856
764.78	21.201
765.10	21.519
765.41	24.779
765.72	22.455
766.03	26.019
766.34	22.333
766.65	29.787
766.96	22.650
767.27	28.934
767.58	32.812
767.89	36.316
768.20	39.655
768.51	29.442
768.82	33.945
769.13	28.862
769.44	23.482
769.75	28.326
770.06	23.853
770.37	28.054
770.68	30.556
770.99	27.111
771.30	20.492
771.61	27.803
771.92	25.820
772.23	34.034
772.54	28.205
772.85	34.555
773.16	31.383
773.47	32.065
773.78	41.117
774.09	26.786
774.39	31.579
774.70	33.951
775.01	39.855
775.32	39.216
775.63	33.553
775.94	33.813
776.25	40.157
776.56	39.552
776.87	36.885
777.18	35.156
777.48	45.802
777.79	42.424
778.10	42.963
778.41	38.393
778.72	28.467
779.03	36.242
779.34	31.544
779.65	33.108
779.95	36.196
780.26	39.869
780.57	40.690
780.88	44.531
781.19	35.338
781.50	32.432
781.80	32.704
782.11	33.898
782.42	31.013
782.73	30.061
783.04	35.811
783.34	37.324
783.65	47.945
783.96	41.045
784.27	36.364
784.57	30.935
784.88	28.704
785.19	46.032
785.50	39.623
785.81	44.776
786.11	39.344
786.42	48.837
786.73	39.823
787.04	39.623
787.34	41.964
787.65	47.000
787.96	42.342
788.26	40.496
788.57	38.136
788.88	47.107
789.19	48.611
789.49	43.939
789.80	41.221
790.11	60.000
790.41	44.554
790.72	46.988
791.03	47.826
791.33	43.023
791.64	45.361
791.95	57.426
792.25	52.222
792.56	45.455
792.87	53.846
793.17	69.620
793.48	63.218
793.79	54.023
794.09	52.273
794.40	38.655
794.70	52.206
795.01	37.037
795.32	38.849
795.62	40.945
795.93	45.690
796.23	45.133
796.54	56.471
796.85	51.351
797.15	69.014
797.46	42.424
797.76	55.422
798.07	60.759
798.37	53.846
798.68	48.485
798.99	59.155
799.29	53.247
799.60	54.545
799.90	69.863
800.21	67.164
800.51	63.793
800.82	73.684
801.12	62.295
801.43	75.758
801.73	50.000
802.04	74.603
802.34	50.617
802.65	65.625
802.95	86.441
803.26	81.250
803.56	70.000
803.87	70.769
804.17	63.235
804.48	88.889
804.78	62.069
805.09	60.294
805.39	69.231
805.70	58.929
806.00	65.574
806.30	59.091
806.61	67.073
806.91	48.101
807.22	48.684
807.52	49.254
807.83	60.563
808.13	70.312
808.43	70.000
808.74	53.947
809.04	72.464
809.35	71.642
809.65	68.421
809.95	87.097
810.26	79.661
810.56	69.841
810.86	93.182
811.17	90.476
811.47	81.667
811.77	70.370
812.08	65.455
812.38	92.000
812.69	102.778
812.99	102.273
813.29	83.673
813.59	61.905
813.90	112.245
814.20	65.455
814.50	58.462
814.81	83.824
815.11	71.429
815.41	83.607
815.72	104.762
816.02	87.273
816.32	83.333
816.62	65.000
816.93	92.683
817.23	116.667
817.53	84.091
817.84	130.303
818.14	100.000
818.44	97.778
818.74	135.294
819.04	72.500
819.35	97.143
819.65	111.765
819.95	110.714
820.25	120.000
820.56	112.821
820.86	113.636
821.16	106.977
821.46	71.795
821.76	118.000
822.07	120.000
822.37	117.500
822.67	115.152
822.97	92.157
823.27	157.143
823.57	110.811
823.88	125.000
824.18	140.000
824.48	116.667
824.78	124.000
825.08	116.667
825.38	89.189
825.69	87.805
825.99	137.500
826.29	103.448
826.59	105.263
826.89	113.158
827.19	132.353
827.49	141.935
827.79	97.727
828.09	95.455
828.39	78.723
828.70	93.878
829.00	107.407
829.30	93.548
829.60	97.500
829.90	180.000
830.20	160.714
830.50	108.696
830.80	139.130
831.10	170.000
831.40	133.333
831.70	126.087
832.00	146.154
832.30	159.259
832.60	212.500
832.90	126.667
833.20	250.000
833.50	177.419
833.80	144.828
834.10	184.375
834.40	134.615
834.70	244.444
835.00	242.857
835.30	134.286
835.60	246.154
835.90	158.621
836.20	207.143
836.50	141.379
836.80	116.000
837.10	133.333
837.40	171.429
837.70	241.176
838.00	137.037
838.30	190.476
838.60	223.810
838.90	146.154
839.19	185.000
839.49	335.714
839.79	215.000
840.09	190.000
840.39	180.952
840.69	186.957
840.99	211.111
841.29	360.000
841.59	266.667
841.88	262.500
842.18	148.276
842.48	219.048
842.78	133.333
843.08	204.348
843.38	143.750
843.68	533.333
843.97	161.538
844.27	137.931
844.57	238.095
844.87	243.750
845.17	174.074
845.47	1000.000
845.76	377.778
846.06	200.000
846.36	400.000
846.66	221.429
846.96	181.250
847.25	327.273
847.55	227.273
847.85	195.652
848.15	330.000
848.44	364.286
848.74	161.111
849.04	217.647
849.34	500.000
849.63	200.000
849.93	390.909
850.23	760.000
850.53	300.000
850.82	1550.000
851.12	-2700.000
851.42	3400.000
851.71	195.000
852.01	-833.333
852.31	170.833
852.61	1233.333
852.90	214.286
853.20	164.000
853.50	247.059
853.79	176.190
854.09	150.000
854.39	237.500
854.68	121.622
854.98	154.839
855.28	143.333
855.57	182.759
855.87	129.630
856.17	131.579
856.46	180.000
856.76	188.235
857.05	148.276
857.35	150.000
857.65	240.000
857.94	147.826
858.24	138.462
858.53	180.000
858.83	136.364
859.13	266.667
859.42	0.000
859.72	377.778
860.01	300.000
860.31	168.182
860.60	168.421
860.90	130.435
861.20	377.778
861.49	408.333
861.79	-3600.000
862.08	400.000
862.38	185.714
862.67	207.692
862.97	217.647
863.26	300.000
863.56	261.111
863.85	366.667
864.15	350.000
864.44	253.333
864.74	616.667
865.03	462.500
865.33	252.632
865.62	290.909
865.92	284.615
866.21	291.667
866.51	0.000
866.80	354.545
867.10	660.000
867.39	300.000
867.69	281.818
867.98	231.579
868.27	354.545
868.57	226.316
868.86	-3400.000
869.16	237.500
869.45	1350.000
869.75	-2600.000
870.04	325.000
870.33	285.714
870.63	775.000
870.92	1950.000
871.22	528.571
871.51	235.294
871.80	171.429
872.10	292.857
>>>>>End Processed Spectral Data<<<<<
