SpectraSuite Data File
++++++++++++++++++++++++++++++++++++
Date: Wed May 13 20:33:52 PDT 2015
User: schluterlab
Dark Spectrum Present: Yes
Reference Spectrum Present: Yes
Number of Sampled Component Spectra: 1
Spectrometers: USB2E3373
Integration Time (usec): 3000 (USB2E3373)
Spectra Averaged: 3 (USB2E3373)
Boxcar Smoothing: 0 (USB2E3373)
Correct for Electrical Dark: No (USB2E3373)
Strobe/Lamp Enabled: No (USB2E3373)
Correct for Detector Non-linearity: No (USB2E3373)
Correct for Stray Light: No (USB2E3373)
Number of Pixels in Processed Spectrum: 2048
>>>>>Begin Processed Spectral Data<<<<<
178.53	0.000
178.91	-1075.000
179.29	-775.000
179.67	-188.889
180.04	-975.000
180.42	1750.000
180.80	740.000
181.18	-875.000
181.56	400.000
181.94	0.000
182.31	-414.286
182.69	1133.333
183.07	-450.000
183.45	-300.000
183.83	290.909
184.20	-280.000
184.58	1450.000
184.96	4200.000
185.34	-560.000
185.72	-512.500
186.09	-1600.000
186.47	1550.000
186.85	1850.000
187.23	2800.000
187.61	-933.333
187.98	1000.000
188.36	436.364
188.74	436.364
189.12	-680.000
189.49	490.000
189.87	-3400.000
190.25	-1100.000
190.63	328.571
191.00	369.231
191.38	733.333
191.76	-950.000
192.14	925.000
192.51	487.500
192.89	700.000
193.27	375.000
193.65	-950.000
194.02	390.000
194.40	440.000
194.78	510.000
195.15	375.000
195.53	430.000
195.91	-1350.000
196.29	262.500
196.66	178.947
197.04	-120.000
197.42	0.000
197.79	550.000
198.17	-4300.000
198.55	457.143
198.92	525.000
199.30	780.000
199.68	0.000
200.05	233.333
200.43	642.857
200.81	2400.000
201.18	1300.000
201.56	-933.333
201.94	511.111
202.31	411.111
202.69	258.333
203.07	480.000
203.44	0.000
203.82	675.000
204.19	571.429
204.57	392.857
204.95	500.000
205.32	1033.333
205.70	381.818
206.08	321.429
206.45	2200.000
206.83	243.750
207.20	766.667
207.58	580.000
207.96	188.889
208.33	487.500
208.71	-516.667
209.08	757.143
209.46	466.667
209.84	327.273
210.21	-1133.333
210.59	950.000
210.96	-412.500
211.34	2050.000
211.71	470.000
212.09	566.667
212.46	0.000
212.84	1066.667
213.22	925.000
213.59	-2600.000
213.97	583.333
214.34	542.857
214.72	427.273
215.09	660.000
215.47	-1450.000
215.84	-1650.000
216.22	1100.000
216.59	214.286
216.97	925.000
217.34	300.000
217.72	-400.000
218.09	0.000
218.47	-4100.000
218.84	400.000
219.22	628.571
219.59	1066.667
219.97	-400.000
220.34	740.000
220.72	-1200.000
221.09	321.429
221.47	1150.000
221.84	-783.333
222.22	0.000
222.59	925.000
222.97	-1850.000
223.34	740.000
223.72	253.846
224.09	940.000
224.46	1550.000
224.84	-3200.000
225.21	-520.000
225.59	-2700.000
225.96	380.000
226.34	170.000
226.71	2000.000
227.08	462.500
227.46	370.000
227.83	-600.000
228.21	-1900.000
228.58	366.667
228.95	-1700.000
229.33	-1750.000
229.70	1200.000
230.08	657.143
230.45	-880.000
230.82	325.000
231.20	350.000
231.57	571.429
231.95	333.333
232.32	163.636
232.69	290.909
233.07	514.286
233.44	230.769
233.81	-1466.667
234.19	268.421
234.56	391.667
234.93	233.333
235.31	372.727
235.68	346.154
236.05	250.000
236.43	145.455
236.80	252.632
237.17	4200.000
237.55	180.952
237.92	142.857
238.29	171.429
238.67	119.355
239.04	155.172
239.41	133.333
239.79	104.348
240.16	121.429
240.53	100.000
240.91	92.157
241.28	82.000
241.65	78.000
242.02	71.014
242.40	75.806
242.77	70.000
243.14	60.215
243.51	80.899
243.89	64.706
244.26	56.667
244.63	49.462
245.00	51.064
245.38	54.455
245.75	53.271
246.12	48.624
246.49	48.175
246.87	53.600
247.24	47.692
247.61	49.286
247.98	44.444
248.36	43.243
248.73	45.860
249.10	47.134
249.47	43.503
249.84	47.594
250.22	42.246
250.59	44.970
250.96	43.434
251.33	39.810
251.70	43.564
252.08	39.524
252.45	37.220
252.82	35.652
253.19	37.021
253.56	34.902
253.94	35.685
254.31	37.109
254.68	39.615
255.05	35.055
255.42	37.805
255.79	37.132
256.16	38.989
256.54	32.509
256.91	41.281
257.28	37.770
257.65	38.284
258.02	36.025
258.39	33.438
258.76	35.117
259.14	36.310
259.51	32.219
259.88	31.988
260.25	35.045
260.62	31.214
260.99	36.025
261.36	32.432
261.73	31.805
262.10	31.395
262.47	33.803
262.85	32.869
263.22	30.484
263.59	35.613
263.96	32.143
264.33	31.593
264.70	33.158
265.07	32.992
265.44	32.071
265.81	27.981
266.18	30.653
266.55	32.927
266.92	29.484
267.29	32.639
267.66	29.587
268.03	30.682
268.40	29.673
268.77	31.026
269.14	33.108
269.51	34.763
269.88	30.536
270.25	29.571
270.62	30.112
270.99	33.118
271.36	30.043
271.73	31.776
272.10	30.435
272.47	31.613
272.84	30.519
273.21	31.866
273.58	29.476
273.95	28.721
274.32	29.339
274.69	30.407
275.06	30.512
275.43	32.766
275.80	29.259
276.17	28.106
276.54	30.769
276.91	28.261
277.28	28.711
277.65	28.240
278.02	27.536
278.39	29.687
278.76	28.909
279.13	29.057
279.50	27.933
279.87	28.486
280.23	30.539
280.60	26.692
280.97	27.357
281.34	29.204
281.71	28.545
282.08	27.639
282.45	28.000
282.82	26.465
283.19	26.025
283.56	26.316
283.92	30.795
284.29	27.513
284.66	27.042
285.03	27.306
285.40	28.521
285.77	27.104
286.14	27.807
286.51	28.500
286.87	26.838
287.24	27.687
287.61	26.003
287.98	26.461
288.35	26.783
288.72	23.832
289.08	26.761
289.45	24.217
289.82	24.553
290.19	23.548
290.56	26.034
290.93	22.961
291.29	25.920
291.66	23.009
292.03	26.890
292.40	26.432
292.77	24.556
293.13	24.328
293.50	25.073
293.87	24.000
294.24	22.222
294.60	23.872
294.97	23.837
295.34	24.260
295.71	23.295
296.08	21.368
296.44	22.008
296.81	21.929
297.18	25.068
297.55	19.393
297.91	22.296
298.28	22.222
298.65	20.757
299.02	21.607
299.38	21.116
299.75	20.620
300.12	20.690
300.48	20.875
300.85	21.825
301.22	21.146
301.59	19.066
301.95	21.285
302.32	19.769
302.69	21.147
303.05	19.515
303.42	20.123
303.79	21.291
304.15	18.182
304.52	19.583
304.89	18.118
305.25	19.374
305.62	21.065
305.99	21.251
306.35	19.575
306.72	19.843
307.09	20.533
307.45	21.509
307.82	18.192
308.19	20.309
308.55	20.173
308.92	20.408
309.29	19.852
309.65	18.558
310.02	19.133
310.38	20.215
310.75	18.902
311.12	18.219
311.48	18.182
311.85	19.916
312.22	19.251
312.58	18.607
312.95	20.275
313.31	19.223
313.68	19.127
314.05	21.105
314.41	18.291
314.78	18.832
315.14	18.868
315.51	19.876
315.87	18.515
316.24	18.471
316.61	18.324
316.97	18.591
317.34	18.297
317.70	19.790
318.07	19.153
318.43	19.276
318.80	20.056
319.16	18.456
319.53	19.043
319.89	18.762
320.26	21.300
320.62	20.833
320.99	19.495
321.35	18.283
321.72	20.431
322.08	21.619
322.45	22.488
322.81	20.736
323.18	21.387
323.54	20.965
323.91	21.226
324.27	21.511
324.64	20.224
325.00	21.100
325.37	21.292
325.73	22.531
326.10	22.418
326.46	20.699
326.83	22.951
327.19	23.057
327.56	23.084
327.92	22.397
328.29	22.715
328.65	23.204
329.01	22.202
329.38	22.109
329.74	22.161
330.11	23.563
330.47	22.498
330.84	25.092
331.20	23.133
331.56	23.761
331.93	23.889
332.29	23.248
332.66	23.894
333.02	22.943
333.38	23.487
333.75	24.153
334.11	22.865
334.48	23.514
334.84	22.794
335.20	24.273
335.57	23.300
335.93	22.143
336.29	22.985
336.66	23.535
337.02	22.805
337.38	23.796
337.75	22.995
338.11	23.635
338.47	23.389
338.84	23.556
339.20	22.294
339.56	23.540
339.93	23.545
340.29	22.826
340.65	23.351
341.02	24.869
341.38	23.399
341.74	23.421
342.11	23.319
342.47	23.084
342.83	22.346
343.20	24.242
343.56	23.757
343.92	22.193
344.28	23.724
344.65	23.990
345.01	22.054
345.37	21.441
345.73	22.504
346.10	23.188
346.46	23.051
346.82	23.806
347.19	23.392
347.55	22.003
347.91	21.845
348.27	23.336
348.63	22.659
349.00	22.654
349.36	22.578
349.72	21.893
350.08	21.556
350.45	22.783
350.81	22.177
351.17	21.718
351.53	22.686
351.89	21.370
352.26	22.968
352.62	22.614
352.98	22.528
353.34	22.514
353.70	21.358
354.07	21.935
354.43	22.381
354.79	22.204
355.15	22.027
355.51	22.942
355.87	22.041
356.24	21.743
356.60	22.213
356.96	21.883
357.32	22.649
357.68	22.047
358.04	22.169
358.40	22.328
358.77	22.066
359.13	20.994
359.49	22.824
359.85	20.000
360.21	21.850
360.57	22.179
360.93	22.923
361.29	22.449
361.66	20.898
362.02	22.090
362.38	22.205
362.74	23.363
363.10	22.872
363.46	21.643
363.82	23.280
364.18	21.439
364.54	21.471
364.90	22.450
365.26	21.618
365.62	21.768
365.98	20.672
366.35	20.487
366.71	21.620
367.07	21.777
367.43	21.553
367.79	23.340
368.15	22.414
368.51	21.512
368.87	21.699
369.23	21.361
369.59	22.013
369.95	21.103
370.31	22.222
370.67	21.957
371.03	22.172
371.39	22.157
371.75	22.206
372.11	21.408
372.47	22.067
372.83	22.478
373.19	21.749
373.55	22.542
373.91	23.049
374.27	21.100
374.63	21.600
374.99	22.316
375.35	22.401
375.71	21.316
376.07	22.291
376.42	21.939
376.78	21.935
377.14	21.845
377.50	22.053
377.86	21.410
378.22	22.630
378.58	20.990
378.94	21.496
379.30	21.310
379.66	22.779
380.02	22.297
380.38	21.736
380.74	23.049
381.09	22.922
381.45	22.926
381.81	22.604
382.17	22.357
382.53	22.138
382.89	22.160
383.25	22.452
383.61	22.924
383.97	21.451
384.32	21.834
384.68	22.057
385.04	21.451
385.40	21.362
385.76	23.034
386.12	22.539
386.48	22.970
386.83	23.669
387.19	23.438
387.55	22.263
387.91	23.398
388.27	22.931
388.62	22.680
388.98	22.236
389.34	22.966
389.70	22.808
390.06	22.940
390.42	23.606
390.77	22.519
391.13	22.208
391.49	22.970
391.85	22.024
392.20	22.524
392.56	22.854
392.92	22.955
393.28	22.130
393.64	23.381
393.99	24.007
394.35	23.201
394.71	22.334
395.07	22.928
395.42	23.053
395.78	24.046
396.14	23.464
396.50	24.311
396.85	23.522
397.21	23.181
397.57	23.249
397.92	23.498
398.28	22.814
398.64	23.775
399.00	23.727
399.35	24.365
399.71	23.785
400.07	23.655
400.42	23.742
400.78	24.789
401.14	24.207
401.49	24.060
401.85	24.743
402.21	24.132
402.57	24.553
402.92	25.095
403.28	25.047
403.63	24.072
403.99	24.777
404.35	24.727
404.70	24.221
405.06	25.277
405.42	25.390
405.77	24.286
406.13	24.831
406.49	25.547
406.84	24.276
407.20	25.236
407.55	25.335
407.91	25.933
408.27	25.590
408.62	25.587
408.98	25.858
409.34	25.461
409.69	26.452
410.05	26.022
410.40	25.872
410.76	26.225
411.11	26.116
411.47	26.326
411.83	25.473
412.18	25.850
412.54	26.276
412.89	26.084
413.25	26.741
413.60	26.992
413.96	26.958
414.31	26.488
414.67	26.743
415.03	26.755
415.38	26.482
415.74	27.138
416.09	28.217
416.45	27.577
416.80	27.231
417.16	27.681
417.51	27.870
417.87	27.296
418.22	27.003
418.58	27.760
418.93	27.518
419.29	27.371
419.64	26.952
420.00	27.073
420.35	28.638
420.71	28.273
421.06	27.446
421.42	26.959
421.77	27.410
422.12	26.783
422.48	27.253
422.83	27.839
423.19	27.017
423.54	27.394
423.90	27.710
424.25	27.192
424.61	27.857
424.96	27.347
425.31	27.962
425.67	26.854
426.02	27.543
426.38	29.243
426.73	28.789
427.09	27.295
427.44	27.430
427.79	28.292
428.15	27.917
428.50	27.853
428.85	28.308
429.21	27.940
429.56	27.061
429.92	26.724
430.27	26.961
430.62	27.240
430.98	28.023
431.33	26.701
431.68	27.749
432.04	27.529
432.39	27.527
432.74	28.127
433.10	27.504
433.45	28.163
433.80	27.439
434.16	28.953
434.51	27.737
434.86	27.537
435.22	27.460
435.57	28.632
435.92	28.321
436.28	28.055
436.63	27.925
436.98	27.361
437.34	28.026
437.69	28.763
438.04	28.162
438.39	28.119
438.75	28.646
439.10	29.385
439.45	29.339
439.81	28.399
440.16	28.007
440.51	28.588
440.86	27.968
441.22	28.254
441.57	28.132
441.92	29.069
442.27	28.041
442.63	27.383
442.98	28.732
443.33	27.935
443.68	27.414
444.03	28.502
444.39	27.751
444.74	28.193
445.09	28.194
445.44	28.267
445.79	28.055
446.15	27.898
446.50	27.410
446.85	28.160
447.20	28.098
447.55	28.364
447.91	28.240
448.26	27.490
448.61	28.095
448.96	28.405
449.31	28.121
449.66	27.406
450.02	27.521
450.37	27.494
450.72	28.878
451.07	27.118
451.42	26.687
451.77	28.186
452.12	28.118
452.47	28.047
452.83	28.438
453.18	28.056
453.53	28.386
453.88	27.702
454.23	27.974
454.58	27.922
454.93	28.417
455.28	28.117
455.63	29.248
455.98	28.929
456.34	27.952
456.69	28.554
457.04	29.102
457.39	28.054
457.74	26.698
458.09	27.660
458.44	27.252
458.79	26.844
459.14	28.104
459.49	28.021
459.84	27.147
460.19	26.930
460.54	26.562
460.89	27.592
461.24	28.112
461.59	28.298
461.94	27.559
462.29	28.190
462.64	27.505
462.99	27.391
463.34	28.000
463.69	27.205
464.04	27.072
464.39	27.130
464.74	26.381
465.09	26.779
465.44	27.424
465.79	26.846
466.14	26.875
466.49	27.197
466.84	27.612
467.19	27.218
467.54	27.812
467.89	26.651
468.24	27.981
468.59	26.801
468.94	26.329
469.29	27.892
469.64	26.707
469.99	27.605
470.34	28.005
470.68	26.365
471.03	26.531
471.38	28.284
471.73	28.381
472.08	27.368
472.43	26.445
472.78	26.794
473.13	27.471
473.48	27.715
473.83	26.829
474.17	27.691
474.52	27.481
474.87	27.262
475.22	26.291
475.57	26.169
475.92	27.403
476.27	26.663
476.61	26.531
476.96	27.213
477.31	26.792
477.66	26.313
478.01	26.032
478.36	26.071
478.70	26.428
479.05	26.145
479.40	26.100
479.75	26.436
480.10	26.640
480.45	26.749
480.79	26.087
481.14	26.614
481.49	26.151
481.84	25.926
482.19	26.942
482.53	25.826
482.88	25.686
483.23	26.822
483.58	26.206
483.92	25.961
484.27	25.534
484.62	25.603
484.97	25.305
485.31	25.514
485.66	23.402
486.01	23.195
486.36	22.962
486.70	23.023
487.05	23.433
487.40	24.030
487.75	23.467
488.09	25.023
488.44	23.516
488.79	24.774
489.13	25.554
489.48	25.326
489.83	25.507
490.17	26.392
490.52	24.579
490.87	25.871
491.22	25.693
491.56	25.011
491.91	25.268
492.26	25.586
492.60	25.806
492.95	24.790
493.30	25.841
493.64	25.945
493.99	25.395
494.34	26.041
494.68	25.962
495.03	26.175
495.37	25.919
495.72	26.462
496.07	25.104
496.41	25.088
496.76	25.330
497.11	25.484
497.45	25.757
497.80	25.576
498.14	25.314
498.49	25.610
498.84	25.695
499.18	24.857
499.53	26.211
499.87	26.048
500.22	25.530
500.56	25.922
500.91	25.913
501.26	25.415
501.60	25.676
501.95	25.848
502.29	25.305
502.64	25.326
502.98	25.526
503.33	25.091
503.67	25.893
504.02	25.444
504.36	25.550
504.71	25.794
505.06	25.880
505.40	26.057
505.75	25.699
506.09	25.316
506.44	26.147
506.78	25.962
507.13	25.946
507.47	25.960
507.82	26.140
508.16	25.177
508.51	26.788
508.85	25.223
509.19	26.020
509.54	25.714
509.88	25.193
510.23	25.861
510.57	26.780
510.92	25.945
511.26	26.208
511.61	25.156
511.95	25.678
512.30	25.663
512.64	26.115
512.98	26.099
513.33	25.910
513.67	25.187
514.02	25.866
514.36	26.161
514.70	26.176
515.05	26.213
515.39	25.519
515.74	26.239
516.08	26.887
516.42	26.970
516.77	26.589
517.11	26.249
517.46	26.524
517.80	26.829
518.14	25.594
518.49	27.130
518.83	25.966
519.17	26.963
519.52	27.165
519.86	26.298
520.20	27.688
520.55	27.349
520.89	27.251
521.23	27.865
521.58	27.131
521.92	27.924
522.26	26.113
522.61	26.916
522.95	27.133
523.29	27.267
523.64	27.744
523.98	27.542
524.32	27.021
524.66	27.781
525.01	27.145
525.35	27.695
525.69	26.355
526.04	27.975
526.38	26.846
526.72	27.423
527.06	27.244
527.41	26.114
527.75	27.588
528.09	28.067
528.43	26.514
528.78	27.474
529.12	26.667
529.46	27.189
529.80	27.537
530.15	27.664
530.49	26.338
530.83	27.089
531.17	27.807
531.51	28.340
531.86	27.484
532.20	27.901
532.54	27.803
532.88	28.113
533.22	26.234
533.57	26.420
533.91	26.129
534.25	26.974
534.59	26.602
534.93	27.424
535.27	26.735
535.62	26.923
535.96	27.119
536.30	26.764
536.64	27.238
536.98	27.405
537.32	26.662
537.66	27.800
538.01	26.794
538.35	26.180
538.69	27.441
539.03	26.511
539.37	27.029
539.71	25.146
540.05	26.797
540.39	26.312
540.73	26.585
541.07	27.190
541.42	26.941
541.76	27.613
542.10	27.426
542.44	26.556
542.78	27.800
543.12	26.424
543.46	26.820
543.80	26.415
544.14	26.187
544.48	26.730
544.82	26.555
545.16	26.805
545.50	25.835
545.84	27.151
546.18	27.071
546.52	27.047
546.86	26.667
547.20	26.096
547.54	25.852
547.88	26.977
548.22	26.027
548.56	26.667
548.90	25.160
549.24	26.397
549.58	26.944
549.92	26.992
550.26	26.634
550.60	26.625
550.94	26.901
551.28	26.116
551.62	28.469
551.96	26.877
552.30	27.782
552.64	26.572
552.98	26.915
553.32	27.444
553.66	26.721
554.00	27.179
554.34	26.501
554.68	27.182
555.02	26.798
555.36	26.792
555.69	26.793
556.03	26.514
556.37	27.149
556.71	27.149
557.05	25.980
557.39	27.082
557.73	26.747
558.07	27.121
558.41	25.977
558.75	26.598
559.08	26.547
559.42	26.606
559.76	27.794
560.10	26.552
560.44	26.695
560.78	26.148
561.12	26.187
561.45	26.206
561.79	26.368
562.13	25.822
562.47	26.913
562.81	27.057
563.15	26.288
563.48	25.862
563.82	25.832
564.16	25.114
564.50	25.391
564.84	25.032
565.17	25.869
565.51	25.559
565.85	25.571
566.19	25.423
566.52	25.966
566.86	25.497
567.20	25.000
567.54	25.057
567.88	24.280
568.21	24.974
568.55	24.823
568.89	23.979
569.23	23.752
569.56	23.158
569.90	23.509
570.24	22.354
570.57	22.373
570.91	21.526
571.25	21.526
571.59	21.591
571.92	21.457
572.26	21.664
572.60	21.441
572.93	21.829
573.27	21.384
573.61	21.580
573.95	21.964
574.28	21.206
574.62	21.113
574.96	20.980
575.29	20.829
575.63	20.833
575.97	20.646
576.30	21.136
576.64	20.975
576.98	20.856
577.31	20.864
577.65	20.760
577.98	20.487
578.32	20.552
578.66	20.818
578.99	20.840
579.33	20.358
579.67	20.555
580.00	20.475
580.34	20.479
580.67	20.775
581.01	20.913
581.35	20.086
581.68	20.476
582.02	20.010
582.35	20.217
582.69	20.296
583.02	20.255
583.36	20.844
583.70	20.604
584.03	20.820
584.37	21.291
584.70	20.559
585.04	20.426
585.37	20.783
585.71	20.771
586.04	20.391
586.38	21.003
586.72	21.265
587.05	20.538
587.39	20.237
587.72	20.845
588.06	20.678
588.39	20.521
588.73	20.886
589.06	21.689
589.40	21.448
589.73	21.225
590.07	21.352
590.40	21.483
590.73	21.624
591.07	22.304
591.40	22.311
591.74	22.511
592.07	21.990
592.41	22.323
592.74	21.985
593.08	21.486
593.41	21.101
593.75	21.174
594.08	21.589
594.41	21.386
594.75	20.998
595.08	21.152
595.42	21.821
595.75	21.617
596.09	21.630
596.42	22.318
596.75	22.330
597.09	21.991
597.42	20.911
597.75	21.949
598.09	22.043
598.42	21.821
598.76	21.281
599.09	20.829
599.42	20.742
599.76	21.083
600.09	20.984
600.42	21.220
600.76	21.321
601.09	21.566
601.42	21.043
601.76	21.139
602.09	21.502
602.42	21.218
602.76	22.209
603.09	21.164
603.42	20.929
603.76	20.884
604.09	21.365
604.42	21.158
604.76	22.185
605.09	21.276
605.42	21.377
605.75	21.772
606.09	21.350
606.42	21.782
606.75	21.651
607.09	21.683
607.42	21.823
607.75	21.013
608.08	20.452
608.42	21.425
608.75	21.776
609.08	21.462
609.41	21.752
609.75	21.963
610.08	21.631
610.41	21.927
610.74	21.570
611.07	22.431
611.41	22.228
611.74	22.574
612.07	22.205
612.40	21.983
612.73	22.053
613.07	23.006
613.40	22.591
613.73	21.867
614.06	22.151
614.39	21.867
614.72	22.842
615.06	22.479
615.39	22.028
615.72	21.933
616.05	21.372
616.38	22.568
616.71	23.159
617.05	23.086
617.38	22.489
617.71	22.643
618.04	22.536
618.37	22.531
618.70	22.962
619.03	24.474
619.36	24.304
619.69	23.028
620.03	23.764
620.36	23.396
620.69	24.041
621.02	24.410
621.35	23.727
621.68	23.598
622.01	24.303
622.34	24.433
622.67	24.487
623.00	23.478
623.33	23.946
623.66	24.303
623.99	23.859
624.32	23.466
624.65	23.941
624.99	22.663
625.32	23.606
625.65	23.140
625.98	24.673
626.31	24.495
626.64	24.327
626.97	24.771
627.30	25.021
627.63	24.364
627.96	24.979
628.29	25.459
628.62	26.349
628.95	26.792
629.28	25.639
629.61	24.748
629.94	26.857
630.26	25.834
630.59	26.692
630.92	25.862
631.25	25.271
631.58	25.926
631.91	26.471
632.24	26.371
632.57	25.918
632.90	25.329
633.23	26.622
633.56	28.023
633.89	27.633
634.22	27.242
634.55	28.284
634.88	26.587
635.20	27.001
635.53	28.072
635.86	26.609
636.19	27.176
636.52	26.874
636.85	26.690
637.18	25.806
637.51	28.487
637.83	24.168
638.16	29.540
638.49	27.078
638.82	27.181
639.15	28.250
639.48	27.805
639.81	28.150
640.13	28.125
640.46	26.980
640.79	28.666
641.12	27.098
641.45	28.073
641.77	28.424
642.10	27.632
642.43	27.027
642.76	29.102
643.09	29.601
643.41	27.618
643.74	29.321
644.07	27.439
644.40	28.988
644.73	28.976
645.05	31.062
645.38	30.648
645.71	30.435
646.04	29.568
646.36	33.222
646.69	28.930
647.02	29.422
647.35	29.381
647.67	28.850
648.00	29.106
648.33	27.228
648.66	28.636
648.98	31.634
649.31	28.550
649.64	27.354
649.96	28.763
650.29	27.804
650.62	27.832
650.94	29.660
651.27	29.223
651.60	29.950
651.92	28.275
652.25	26.384
652.58	28.816
652.90	30.174
653.23	27.427
653.56	28.504
653.88	30.111
654.21	29.068
654.54	29.373
654.86	26.636
655.19	27.162
655.52	18.410
655.84	15.964
656.17	20.302
656.49	27.365
656.82	27.627
657.15	20.548
657.47	15.547
657.80	11.816
658.13	11.824
658.45	18.028
658.78	17.900
659.10	18.393
659.43	19.061
659.75	19.875
660.08	21.329
660.41	23.743
660.73	26.048
661.06	27.707
661.38	28.182
661.71	29.615
662.03	32.939
662.36	29.026
662.68	31.325
663.01	31.515
663.33	30.361
663.66	31.303
663.98	32.613
664.31	28.361
664.63	27.328
664.96	27.364
665.28	34.016
665.61	30.019
665.93	29.779
666.26	31.034
666.58	31.590
666.91	32.135
667.23	32.584
667.56	31.102
667.88	31.197
668.21	31.983
668.53	32.755
668.86	29.870
669.18	31.770
669.50	32.174
669.83	34.423
670.15	29.778
670.48	28.105
670.80	32.543
671.13	30.998
671.45	31.064
671.77	32.790
672.10	28.096
672.42	27.915
672.75	28.358
673.07	28.697
673.39	29.114
673.72	26.953
674.04	28.235
674.37	30.874
674.69	29.039
675.01	30.753
675.34	32.033
675.66	31.368
675.98	30.346
676.31	29.832
676.63	30.786
676.95	28.092
677.28	29.439
677.60	29.011
677.92	31.435
678.25	31.006
678.57	29.482
678.89	28.056
679.22	28.880
679.54	29.198
679.86	28.624
680.18	25.760
680.51	27.128
680.83	29.181
681.15	28.113
681.48	31.191
681.80	29.400
682.12	27.203
682.44	25.919
682.77	30.346
683.09	31.330
683.41	32.816
683.73	29.581
684.06	31.612
684.38	29.746
684.70	28.295
685.02	30.769
685.34	26.740
685.67	27.273
685.99	25.945
686.31	27.816
686.63	24.558
686.96	26.429
687.28	25.271
687.60	27.355
687.92	28.885
688.24	26.426
688.56	29.116
688.89	30.290
689.21	33.624
689.53	29.436
689.85	33.481
690.17	29.400
690.49	29.724
690.82	28.972
691.14	27.902
691.46	29.747
691.78	28.313
692.10	27.686
692.42	29.142
692.74	28.631
693.06	27.872
693.39	29.158
693.71	30.349
694.03	26.526
694.35	27.706
694.67	28.604
694.99	30.244
695.31	28.186
695.63	26.794
695.95	29.095
696.27	25.888
696.59	31.606
696.91	32.124
697.23	29.812
697.56	28.571
697.88	25.562
698.20	28.958
698.52	27.742
698.84	29.176
699.16	27.650
699.48	29.454
699.80	29.469
700.12	34.545
700.44	29.443
700.76	32.320
701.08	32.471
701.40	32.682
701.72	31.778
702.04	37.216
702.36	30.878
702.68	30.595
703.00	29.363
703.32	28.989
703.64	29.491
703.96	30.641
704.28	31.395
704.60	33.724
704.91	34.421
705.23	34.311
705.55	38.538
705.87	37.542
706.19	32.862
706.51	29.595
706.83	33.939
707.15	31.373
707.47	29.293
707.79	33.170
708.11	29.452
708.43	29.048
708.74	32.143
709.06	30.390
709.38	30.184
709.70	30.233
710.02	32.938
710.34	30.000
710.66	35.821
710.98	33.523
711.29	32.558
711.61	30.383
711.93	32.372
712.25	36.977
712.57	34.559
712.89	34.948
713.20	34.347
713.52	35.197
713.84	30.063
714.16	30.793
714.48	29.885
714.80	36.778
715.11	31.124
715.43	30.564
715.75	29.275
716.07	35.144
716.39	31.034
716.70	33.887
717.02	34.892
717.34	32.155
717.66	34.328
717.97	35.857
718.29	31.481
718.61	34.307
718.93	36.029
719.24	33.218
719.56	34.576
719.88	32.881
720.20	34.459
720.51	36.934
720.83	36.803
721.15	33.209
721.46	35.106
721.78	33.692
722.10	38.113
722.42	34.211
722.73	34.831
723.05	35.656
723.37	36.842
723.68	33.591
724.00	30.081
724.32	31.855
724.63	34.959
724.95	34.728
725.27	36.032
725.58	38.672
725.90	37.591
726.22	35.472
726.53	32.292
726.85	34.471
727.16	37.011
727.48	35.106
727.80	32.955
728.11	32.246
728.43	31.154
728.74	33.333
729.06	35.036
729.38	33.456
729.69	38.790
730.01	31.058
730.32	31.944
730.64	32.441
730.96	29.703
731.27	34.437
731.59	28.440
731.90	28.280
732.22	32.298
732.53	31.889
732.85	32.692
733.16	29.260
733.48	32.558
733.80	29.870
734.11	29.618
734.43	31.065
734.74	27.429
735.06	30.086
735.37	29.769
735.69	28.662
736.00	32.680
736.32	31.776
736.63	28.754
736.95	27.157
737.26	28.231
737.58	28.065
737.89	30.769
738.21	29.352
738.52	31.429
738.83	30.943
739.15	31.923
739.46	37.226
739.78	33.681
740.09	31.385
740.41	31.935
740.72	27.875
741.04	35.185
741.35	31.250
741.66	37.778
741.98	37.736
742.29	43.062
742.61	38.793
742.92	34.842
743.23	35.043
743.55	36.000
743.86	35.526
744.18	40.265
744.49	41.148
744.80	41.784
745.12	42.273
745.43	35.683
745.74	38.739
746.06	38.532
746.37	40.807
746.68	32.579
747.00	45.370
747.31	40.000
747.62	34.956
747.94	32.599
748.25	28.936
748.56	34.802
748.88	38.119
749.19	41.500
749.50	37.209
749.82	32.114
750.13	35.102
750.44	30.657
750.75	36.140
751.07	35.048
751.38	31.707
751.69	29.964
752.01	34.211
752.32	33.213
752.63	35.106
752.94	36.066
753.26	42.000
753.57	32.114
753.88	35.937
754.19	35.000
754.51	35.417
754.82	29.964
755.13	38.868
755.44	30.451
755.75	32.482
756.07	30.851
756.38	28.102
756.69	32.550
757.00	31.437
757.31	29.970
757.63	27.778
757.94	27.346
758.25	27.451
758.56	27.160
758.87	24.731
759.18	29.091
759.50	29.781
759.81	30.841
760.12	27.500
760.43	30.659
760.74	28.533
761.05	28.249
761.36	26.738
761.67	30.966
761.99	28.261
762.30	33.333
762.61	30.534
762.92	37.891
763.23	41.597
763.54	38.800
763.85	32.813
764.16	35.000
764.47	31.179
764.78	30.742
765.10	27.848
765.41	30.973
765.72	29.940
766.03	28.213
766.34	27.000
766.65	33.617
766.96	34.615
767.27	36.548
767.58	36.979
767.89	41.579
768.20	40.805
768.51	34.518
768.82	37.156
769.13	31.301
769.44	33.198
769.75	35.193
770.06	26.606
770.37	34.389
770.68	35.648
770.99	32.889
771.30	30.328
771.61	30.493
771.92	35.656
772.23	43.277
772.54	37.436
772.85	38.743
773.16	42.021
773.47	44.565
773.78	45.685
774.09	44.048
774.39	39.766
774.70	38.889
775.01	44.928
775.32	50.980
775.63	40.132
775.94	41.727
776.25	46.457
776.56	51.493
776.87	50.000
777.18	39.062
777.48	54.962
777.79	41.667
778.10	40.000
778.41	47.321
778.72	39.416
779.03	44.295
779.34	43.624
779.65	37.162
779.95	41.718
780.26	37.908
780.57	44.138
780.88	54.688
781.19	45.113
781.50	48.649
781.80	39.623
782.11	35.593
782.42	35.443
782.73	38.037
783.04	46.622
783.34	42.958
783.65	51.370
783.96	47.015
784.27	39.161
784.57	43.165
784.88	44.444
785.19	55.556
785.50	60.377
785.81	47.761
786.11	56.557
786.42	44.186
786.73	42.478
787.04	51.887
787.34	51.786
787.65	52.000
787.96	54.955
788.26	43.802
788.57	56.780
788.88	52.066
789.19	51.389
789.49	51.515
789.80	47.328
790.11	66.667
790.41	53.465
790.72	59.036
791.03	53.261
791.33	59.302
791.64	58.763
791.95	61.386
792.25	58.889
792.56	58.442
792.87	78.205
793.17	72.152
793.48	50.575
793.79	62.069
794.09	59.091
794.40	47.899
794.70	47.794
795.01	45.926
795.32	43.885
795.62	48.819
795.93	45.690
796.23	50.442
796.54	55.294
796.85	56.757
797.15	78.873
797.46	68.182
797.76	71.084
798.07	58.228
798.37	53.846
798.68	66.667
798.99	56.338
799.29	63.636
799.60	55.682
799.90	72.603
800.21	67.164
800.51	79.310
800.82	107.018
801.12	75.410
801.43	71.212
801.73	62.162
802.04	96.825
802.34	70.370
802.65	79.687
802.95	83.051
803.26	81.250
803.56	67.143
803.87	73.846
804.17	67.647
804.48	87.037
804.78	79.310
805.09	73.529
805.39	71.154
805.70	76.786
806.00	78.689
806.30	60.606
806.61	56.098
806.91	59.494
807.22	63.158
807.52	53.731
807.83	64.789
808.13	82.813
808.43	76.667
808.74	56.579
809.04	75.362
809.35	77.612
809.65	73.684
809.95	74.194
810.26	72.881
810.56	73.016
810.86	97.727
811.17	104.762
811.47	83.333
811.77	83.333
812.08	85.455
812.38	106.000
812.69	100.000
812.99	102.273
813.29	95.918
813.59	57.143
813.90	85.714
814.20	74.545
814.50	67.692
814.81	82.353
815.11	83.673
815.41	91.803
815.72	90.476
816.02	96.364
816.32	114.286
816.62	92.500
816.93	78.049
817.23	95.238
817.53	97.727
817.84	127.273
818.14	102.174
818.44	82.222
818.74	132.353
819.04	92.500
819.35	128.571
819.65	126.471
819.95	125.000
820.25	120.000
820.56	135.897
820.86	84.091
821.16	111.628
821.46	135.897
821.76	106.000
822.07	137.143
822.37	122.500
822.67	136.364
822.97	84.314
823.27	157.143
823.57	132.432
823.88	112.500
824.18	130.000
824.48	102.381
824.78	180.000
825.08	125.000
825.38	118.919
825.69	109.756
825.99	170.833
826.29	124.138
826.59	134.211
826.89	123.684
827.19	129.412
827.49	129.032
827.79	102.273
828.09	97.727
828.39	95.745
828.70	108.163
829.00	140.741
829.30	125.806
829.60	105.000
829.90	140.000
830.20	164.286
830.50	143.478
830.80	165.217
831.10	160.000
831.40	126.667
831.70	117.391
832.00	184.615
832.30	159.259
832.60	225.000
832.90	163.333
833.20	250.000
833.50	135.484
833.80	175.862
834.10	181.250
834.40	157.692
834.70	227.778
835.00	233.333
835.30	125.714
835.60	246.154
835.90	155.172
836.20	264.286
836.50	148.276
836.80	128.000
837.10	136.111
837.40	209.524
837.70	194.118
838.00	137.037
838.30	171.429
838.60	209.524
838.90	169.231
839.19	215.000
839.49	285.714
839.79	275.000
840.09	200.000
840.39	209.524
840.69	200.000
840.99	183.333
841.29	360.000
841.59	250.000
841.88	243.750
842.18	113.793
842.48	252.381
842.78	163.333
843.08	165.217
843.38	143.750
843.68	650.000
843.97	157.692
844.27	141.379
844.57	200.000
844.87	250.000
845.17	166.667
845.47	900.000
845.76	344.444
846.06	229.412
846.36	337.500
846.66	257.143
846.96	206.250
847.25	245.455
847.55	254.545
847.85	160.870
848.15	350.000
848.44	207.143
848.74	172.222
849.04	217.647
849.34	380.000
849.63	136.842
849.93	245.455
850.23	740.000
850.53	285.714
850.82	1600.000
851.12	-2400.000
851.42	2600.000
851.71	190.000
852.01	-433.333
852.31	183.333
852.61	1166.667
852.90	200.000
853.20	180.000
853.50	264.706
853.79	209.524
854.09	170.833
854.39	275.000
854.68	116.216
854.98	132.258
855.28	130.000
855.57	175.862
855.87	192.593
856.17	200.000
856.46	106.667
856.76	188.235
857.05	158.621
857.35	141.667
857.65	213.333
857.94	217.391
858.24	165.385
858.53	185.000
858.83	213.636
859.13	233.333
859.42	0.000
859.72	322.222
860.01	345.455
860.31	250.000
860.60	205.263
860.90	182.609
861.20	400.000
861.49	291.667
861.79	-2900.000
862.08	525.000
862.38	238.095
862.67	184.615
862.97	288.235
863.26	488.889
863.56	211.111
863.85	275.000
864.15	312.500
864.44	300.000
864.74	766.667
865.03	600.000
865.33	226.316
865.62	300.000
865.92	315.385
866.21	325.000
866.51	0.000
866.80	327.273
867.10	860.000
867.39	330.769
867.69	336.364
867.98	215.789
868.27	318.182
868.57	210.526
868.86	-3700.000
869.16	262.500
869.45	1200.000
869.75	-2100.000
870.04	333.333
870.33	385.714
870.63	800.000
870.92	2050.000
871.22	457.143
871.51	294.118
871.80	185.714
872.10	307.143
>>>>>End Processed Spectral Data<<<<<
