SpectraSuite Data File
++++++++++++++++++++++++++++++++++++
Date: Wed May 13 20:33:42 PDT 2015
User: schluterlab
Dark Spectrum Present: Yes
Reference Spectrum Present: Yes
Number of Sampled Component Spectra: 1
Spectrometers: USB2E3373
Integration Time (usec): 3000 (USB2E3373)
Spectra Averaged: 3 (USB2E3373)
Boxcar Smoothing: 0 (USB2E3373)
Correct for Electrical Dark: No (USB2E3373)
Strobe/Lamp Enabled: No (USB2E3373)
Correct for Detector Non-linearity: No (USB2E3373)
Correct for Stray Light: No (USB2E3373)
Number of Pixels in Processed Spectrum: 2048
>>>>>Begin Processed Spectral Data<<<<<
178.53	0.000
178.91	-875.000
179.29	-1075.000
179.67	-122.222
180.04	-850.000
180.42	2250.000
180.80	860.000
181.18	-875.000
181.56	471.429
181.94	0.000
182.31	-442.857
182.69	1533.333
183.07	-387.500
183.45	-366.667
183.83	363.636
184.20	-300.000
184.58	1700.000
184.96	4000.000
185.34	-560.000
185.72	-400.000
186.09	-1200.000
186.47	2500.000
186.85	1700.000
187.23	4100.000
187.61	-1366.667
187.98	950.000
188.36	481.818
188.74	418.182
189.12	-580.000
189.49	340.000
189.87	-3200.000
190.25	-800.000
190.63	285.714
191.00	284.615
191.38	733.333
191.76	-825.000
192.14	950.000
192.51	425.000
192.89	883.333
193.27	362.500
193.65	-800.000
194.02	360.000
194.40	620.000
194.78	430.000
195.15	300.000
195.53	400.000
195.91	-1300.000
196.29	281.250
196.66	263.158
197.04	-260.000
197.42	0.000
197.79	440.000
198.17	-3800.000
198.55	500.000
198.92	475.000
199.30	500.000
199.68	0.000
200.05	311.111
200.43	542.857
200.81	2800.000
201.18	1133.333
201.56	-1000.000
201.94	377.778
202.31	377.778
202.69	358.333
203.07	380.000
203.44	0.000
203.82	875.000
204.19	500.000
204.57	321.429
204.95	362.500
205.32	1100.000
205.70	436.364
206.08	285.714
206.45	2300.000
206.83	268.750
207.20	750.000
207.58	740.000
207.96	227.778
208.33	662.500
208.71	-616.667
209.08	414.286
209.46	422.222
209.84	327.273
210.21	-1166.667
210.59	1125.000
210.96	-287.500
211.34	1800.000
211.71	370.000
212.09	700.000
212.46	0.000
212.84	1233.333
213.22	1050.000
213.59	-3800.000
213.97	583.333
214.34	528.571
214.72	400.000
215.09	860.000
215.47	-1550.000
215.84	-1950.000
216.22	1333.333
216.59	264.286
216.97	950.000
217.34	318.182
217.72	-450.000
218.09	0.000
218.47	-4000.000
218.84	455.556
219.22	542.857
219.59	1266.667
219.97	-357.143
220.34	500.000
220.72	-1066.667
221.09	257.143
221.47	1200.000
221.84	-566.667
222.22	0.000
222.59	850.000
222.97	-1500.000
223.34	920.000
223.72	346.154
224.09	800.000
224.46	1850.000
224.84	-3400.000
225.21	-700.000
225.59	-4000.000
225.96	580.000
226.34	255.000
226.71	2100.000
227.08	587.500
227.46	550.000
227.83	-525.000
228.21	-1800.000
228.58	411.111
228.95	-1650.000
229.33	-1450.000
229.70	1266.667
230.08	442.857
230.45	-580.000
230.82	341.667
231.20	716.667
231.57	457.143
231.95	366.667
232.32	213.636
232.69	263.636
233.07	328.571
233.44	292.308
233.81	-1266.667
234.19	247.368
234.56	350.000
234.93	291.667
235.31	445.455
235.68	276.923
236.05	335.714
236.43	133.333
236.80	184.211
237.17	3300.000
237.55	171.429
237.92	175.000
238.29	123.810
238.67	167.742
239.04	144.828
239.41	125.000
239.79	102.174
240.16	111.905
240.53	127.273
240.91	105.882
241.28	94.000
241.65	102.000
242.02	81.159
242.40	96.774
242.77	85.000
243.14	79.570
243.51	73.034
243.89	67.059
244.26	51.111
244.63	73.118
245.00	60.638
245.38	67.327
245.75	55.140
246.12	55.046
246.49	61.314
246.87	60.800
247.24	49.231
247.61	47.857
247.98	52.288
248.36	51.351
248.73	50.318
249.10	61.146
249.47	46.328
249.84	47.594
250.22	46.524
250.59	52.071
250.96	51.515
251.33	48.815
251.70	47.525
252.08	40.952
252.45	42.601
252.82	39.565
253.19	41.702
253.56	38.431
253.94	45.228
254.31	45.312
254.68	43.462
255.05	39.114
255.42	45.935
255.79	42.647
256.16	44.765
256.54	41.343
256.91	43.416
257.28	39.928
257.65	40.924
258.02	42.857
258.39	43.533
258.76	39.799
259.14	39.881
259.51	36.170
259.88	36.335
260.25	40.785
260.62	39.595
260.99	38.509
261.36	42.342
261.73	36.390
262.10	38.372
262.47	37.465
262.85	35.376
263.22	36.467
263.59	44.160
263.96	38.736
264.33	34.987
264.70	38.421
265.07	38.107
265.44	36.111
265.81	36.010
266.18	37.186
266.55	32.927
266.92	36.855
267.29	38.889
267.66	36.239
268.03	35.227
268.40	35.514
268.77	36.277
269.14	33.559
269.51	38.375
269.88	36.131
270.25	32.731
270.62	34.607
270.99	38.710
271.36	36.266
271.73	37.617
272.10	35.000
272.47	34.409
272.84	35.931
273.21	35.220
273.58	34.061
273.95	31.866
274.32	35.744
274.69	35.760
275.06	32.677
275.43	34.894
275.80	33.868
276.17	33.809
276.54	32.432
276.91	36.166
277.28	34.766
277.65	32.108
278.02	33.126
278.39	34.766
278.76	33.091
279.13	33.774
279.50	33.520
279.87	33.865
280.23	30.938
280.60	34.236
280.97	32.348
281.34	32.743
281.71	35.091
282.08	33.973
282.45	30.909
282.82	33.215
283.19	32.086
283.56	33.509
283.92	33.333
284.29	29.982
284.66	31.942
285.03	30.380
285.40	32.746
285.77	33.333
286.14	31.088
286.51	32.833
286.87	32.308
287.24	32.248
287.61	31.942
287.98	29.870
288.35	29.952
288.72	29.907
289.08	31.612
289.45	30.478
289.82	27.967
290.19	29.042
290.56	29.862
290.93	28.701
291.29	28.221
291.66	27.581
292.03	29.360
292.40	29.515
292.77	27.663
293.13	29.104
293.50	26.968
293.87	27.852
294.24	28.444
294.60	26.638
294.97	25.727
295.34	27.080
295.71	28.267
296.08	26.211
296.44	25.722
296.81	28.005
297.18	26.965
297.55	23.879
297.91	27.836
298.28	25.703
298.65	25.849
299.02	25.560
299.38	25.100
299.75	23.989
300.12	23.499
300.48	25.000
300.85	24.291
301.22	23.694
301.59	23.737
301.95	24.055
302.32	23.492
302.69	22.461
303.05	22.909
303.42	23.086
303.79	23.783
304.15	21.911
304.52	21.669
304.89	22.997
305.25	22.970
305.62	23.443
305.99	23.377
306.35	22.483
306.72	23.206
307.09	23.751
307.45	23.649
307.82	21.094
308.19	23.179
308.55	22.546
308.92	23.201
309.29	22.175
309.65	20.785
310.02	21.882
310.38	23.333
310.75	22.703
311.12	22.416
311.48	23.615
311.85	22.746
312.22	22.060
312.58	21.830
312.95	22.914
313.31	20.583
313.68	22.453
314.05	22.288
314.41	22.814
314.78	21.954
315.14	22.046
315.51	21.524
315.87	22.475
316.24	20.854
316.61	22.515
316.97	20.450
317.34	20.352
317.70	22.467
318.07	22.810
318.43	21.918
318.80	22.774
319.16	21.469
319.53	21.670
319.89	22.286
320.26	22.100
320.62	21.825
320.99	22.626
321.35	22.121
321.72	21.971
322.08	21.422
322.45	23.483
322.81	22.481
323.18	22.351
323.54	21.243
323.91	22.453
324.27	21.511
324.64	20.876
325.00	21.551
325.37	22.202
325.73	21.724
326.10	21.094
326.46	22.312
326.83	21.829
327.19	22.630
327.56	21.603
327.92	21.785
328.29	22.804
328.65	22.099
329.01	22.834
329.38	20.074
329.74	20.960
330.11	21.678
330.47	20.202
330.84	22.335
331.20	20.947
331.56	21.651
331.93	20.278
332.29	21.650
332.66	21.947
333.02	20.201
333.38	21.951
333.75	22.014
334.11	21.174
334.48	22.005
334.84	21.967
335.20	21.636
335.57	20.399
335.93	19.643
336.29	20.879
336.66	21.551
337.02	21.448
337.38	19.815
337.75	21.301
338.11	20.770
338.47	20.810
338.84	20.990
339.20	20.275
339.56	20.894
339.93	20.091
340.29	19.746
340.65	19.964
341.02	20.681
341.38	21.352
341.74	20.614
342.11	20.349
342.47	19.912
342.83	20.291
343.20	21.818
343.56	19.798
343.92	20.965
344.28	20.918
344.65	20.464
345.01	19.949
345.37	20.669
345.73	19.712
346.10	19.523
346.46	19.831
346.82	19.934
347.19	19.298
347.55	19.130
347.91	19.741
348.27	20.049
348.63	21.488
349.00	19.337
349.36	19.376
349.72	19.407
350.08	19.449
350.45	19.203
350.81	19.415
351.17	20.097
351.53	19.492
351.89	19.224
352.26	20.916
352.62	20.209
352.98	20.827
353.34	19.885
353.70	18.003
354.07	18.952
354.43	18.651
354.79	17.458
355.15	19.393
355.51	20.464
355.87	19.347
356.24	20.765
356.60	18.605
356.96	18.584
357.32	18.561
357.68	19.213
358.04	19.161
358.40	19.319
358.77	19.875
359.13	18.706
359.49	18.353
359.85	18.254
360.21	19.059
360.57	19.066
360.93	18.769
361.29	18.972
361.66	18.344
362.02	18.657
362.38	19.544
362.74	18.824
363.10	18.061
363.46	18.269
363.82	18.745
364.18	19.016
364.54	19.168
364.90	18.768
365.26	17.868
365.62	19.430
365.98	18.188
366.35	18.052
366.71	18.655
367.07	18.791
367.43	18.433
367.79	18.844
368.15	19.756
368.51	17.805
368.87	18.630
369.23	18.142
369.59	18.537
369.95	17.794
370.31	18.162
370.67	17.536
371.03	18.727
371.39	18.805
371.75	18.235
372.11	18.279
372.47	17.815
372.83	18.732
373.19	18.136
373.55	17.738
373.91	18.189
374.27	17.251
374.63	17.673
374.99	18.432
375.35	17.516
375.71	17.752
376.07	19.136
376.42	17.950
376.78	17.826
377.14	18.453
377.50	18.079
377.86	17.553
378.22	17.383
378.58	16.729
378.94	17.348
379.30	16.285
379.66	18.274
380.02	17.752
380.38	16.879
380.74	17.047
381.09	17.787
381.45	18.070
381.81	17.752
382.17	18.217
382.53	17.233
382.89	18.333
383.25	16.323
383.61	17.348
383.97	17.949
384.32	17.904
384.68	17.348
385.04	17.087
385.40	16.842
385.76	17.199
386.12	17.163
386.48	17.495
386.83	17.511
387.19	17.996
387.55	16.883
387.91	17.533
388.27	16.554
388.62	17.763
388.98	16.892
389.34	17.897
389.70	17.903
390.06	17.807
390.42	17.575
390.77	17.557
391.13	17.613
391.49	17.386
391.85	16.868
392.20	16.151
392.56	17.109
392.92	17.245
393.28	16.391
393.64	16.727
393.99	16.799
394.35	16.625
394.71	16.939
395.07	16.449
395.42	16.749
395.78	17.430
396.14	17.132
396.50	17.920
396.85	17.038
397.21	16.461
397.57	17.483
397.92	16.827
398.28	16.312
398.64	17.384
399.00	16.900
399.35	16.751
399.71	16.667
400.07	18.037
400.42	16.687
400.78	17.370
401.14	16.768
401.49	17.134
401.85	17.604
402.21	16.587
402.57	16.595
402.92	15.889
403.28	16.615
403.63	16.832
403.99	16.688
404.35	16.545
404.70	16.547
405.06	15.900
405.42	16.656
405.77	16.000
406.13	17.043
406.49	17.090
406.84	17.484
407.20	16.548
407.55	16.528
407.91	17.267
408.27	16.720
408.62	16.737
408.98	16.667
409.34	16.790
409.69	17.161
410.05	17.658
410.40	17.187
410.76	16.846
411.11	17.129
411.47	17.188
411.83	17.349
412.18	16.945
412.54	17.559
412.89	17.831
413.25	16.057
413.60	17.171
413.96	15.908
414.31	17.375
414.67	17.047
415.03	17.285
415.38	17.784
415.74	16.527
416.09	17.570
416.45	16.801
416.80	16.127
417.16	17.158
417.51	16.656
417.87	16.891
418.22	16.593
418.58	17.301
418.93	17.199
419.29	17.441
419.64	17.191
420.00	17.561
420.35	16.928
420.71	16.677
421.06	16.885
421.42	17.485
421.77	17.209
422.12	16.283
422.48	16.028
422.83	17.239
423.19	16.685
423.54	17.237
423.90	16.812
424.25	17.253
424.61	17.024
424.96	17.026
425.31	17.220
425.67	16.685
426.02	17.029
426.38	17.277
426.73	17.028
427.09	15.745
427.44	16.676
427.79	16.331
428.15	16.845
428.50	16.735
428.85	17.819
429.21	16.510
429.56	16.952
429.92	16.759
430.27	16.187
430.62	16.027
430.98	15.880
431.33	16.649
431.68	16.440
432.04	16.667
432.39	16.448
432.74	16.996
433.10	16.695
433.45	16.793
433.80	16.297
434.16	16.987
434.51	17.474
434.86	16.249
435.22	16.732
435.57	17.143
435.92	17.437
436.28	17.438
436.63	16.943
436.98	16.600
437.34	17.472
437.69	17.328
438.04	17.088
438.39	17.433
438.75	17.316
439.10	16.816
439.45	17.355
439.81	17.402
440.16	16.714
440.51	17.575
440.86	17.661
441.22	16.796
441.57	17.251
441.92	17.144
442.27	17.492
442.63	16.377
442.98	17.859
443.33	17.228
443.68	16.520
444.03	16.545
444.39	16.650
444.74	16.234
445.09	17.305
445.44	16.348
445.79	16.230
446.15	16.623
446.50	16.855
446.85	16.855
447.20	16.777
447.55	16.695
447.91	16.602
448.26	16.917
448.61	16.789
448.96	17.442
449.31	17.717
449.66	16.826
450.02	16.713
450.37	16.383
450.72	17.823
451.07	16.271
451.42	16.474
451.77	16.970
452.12	16.455
452.47	16.667
452.83	17.191
453.18	16.932
453.53	17.069
453.88	16.657
454.23	17.095
454.58	17.444
454.93	18.182
455.28	16.584
455.63	16.990
455.98	18.274
456.34	17.651
456.69	17.470
457.04	17.461
457.39	17.066
457.74	17.005
458.09	17.711
458.44	17.218
458.79	17.245
459.14	17.494
459.49	17.104
459.84	16.343
460.19	17.266
460.54	16.551
460.89	17.334
461.24	17.790
461.59	17.664
461.94	17.509
462.29	17.211
462.64	17.230
462.99	17.046
463.34	18.400
463.69	17.886
464.04	17.507
464.39	18.145
464.74	17.231
465.09	17.793
465.44	17.064
465.79	17.226
466.14	17.515
466.49	17.742
466.84	17.221
467.19	17.924
467.54	17.562
467.89	17.647
468.24	17.277
468.59	16.850
468.94	17.349
469.29	17.545
469.64	18.541
469.99	18.133
470.34	17.966
470.68	17.744
471.03	18.707
471.38	18.833
471.73	18.454
472.08	18.224
472.43	18.028
472.78	18.170
473.13	17.972
473.48	18.102
473.83	16.829
474.17	17.486
474.52	17.680
474.87	18.447
475.22	18.398
475.57	17.732
475.92	17.844
476.27	17.362
476.61	17.375
476.96	16.932
477.31	17.164
477.66	17.779
478.01	17.407
478.36	17.451
478.70	17.549
479.05	18.104
479.40	17.503
479.75	17.234
480.10	17.247
480.45	17.087
480.79	17.200
481.14	17.368
481.49	17.798
481.84	17.467
482.19	17.492
482.53	17.202
482.88	16.892
483.23	17.477
483.58	17.925
483.92	17.151
484.27	16.383
484.62	17.241
484.97	16.279
485.31	16.473
485.66	16.003
486.01	15.438
486.36	15.147
486.70	14.952
487.05	15.359
487.40	15.220
487.75	15.142
488.09	15.863
488.44	15.577
488.79	15.624
489.13	16.348
489.48	16.762
489.83	16.918
490.17	17.229
490.52	16.696
490.87	17.730
491.22	17.644
491.56	17.130
491.91	17.543
492.26	17.317
492.60	17.512
492.95	17.353
493.30	17.944
493.64	17.779
493.99	17.688
494.34	17.068
494.68	17.766
495.03	17.528
495.37	17.590
495.72	17.251
496.07	17.865
496.41	16.991
496.76	17.986
497.11	17.605
497.45	17.979
497.80	16.987
498.14	17.681
498.49	17.220
498.84	17.977
499.18	17.238
499.53	17.569
499.87	17.614
500.22	17.899
500.56	18.010
500.91	17.308
501.26	17.781
501.60	18.178
501.95	17.278
502.29	17.573
502.64	18.156
502.98	17.719
503.33	17.687
503.67	17.865
504.02	17.820
504.36	17.174
504.71	17.538
505.06	17.976
505.40	17.939
505.75	18.081
506.09	17.541
506.44	17.810
506.78	17.633
507.13	18.122
507.47	18.434
507.82	18.845
508.16	18.338
508.51	18.011
508.85	17.825
509.19	17.857
509.54	18.214
509.88	18.135
510.23	18.406
510.57	18.782
510.92	17.556
511.26	17.780
511.61	18.102
511.95	17.693
512.30	17.922
512.64	18.700
512.98	18.060
513.33	18.469
513.67	18.463
514.02	17.803
514.36	19.443
514.70	17.930
515.05	17.736
515.39	18.732
515.74	18.356
516.08	19.564
516.42	19.090
516.77	19.287
517.11	18.313
517.46	18.679
517.80	19.686
518.14	18.471
518.49	19.370
518.83	18.864
519.17	19.457
519.52	19.185
519.86	19.338
520.20	19.538
520.55	19.689
520.89	19.465
521.23	19.240
521.58	19.148
521.92	19.351
522.26	19.707
522.61	18.754
522.95	20.012
523.29	19.111
523.64	19.695
523.98	19.901
524.32	19.602
524.66	19.242
525.01	19.301
525.35	19.207
525.69	19.273
526.04	19.564
526.38	19.951
526.72	19.325
527.06	19.335
527.41	18.750
527.75	20.064
528.09	20.295
528.43	20.013
528.78	19.668
529.12	19.333
529.46	20.147
529.80	20.050
530.15	19.938
530.49	19.138
530.83	20.063
531.17	20.561
531.51	21.077
531.86	19.484
532.20	20.860
532.54	20.820
532.88	20.475
533.22	19.363
533.57	19.753
533.91	19.446
534.25	20.231
534.59	19.219
534.93	19.631
535.27	19.252
535.62	20.330
535.96	20.276
536.30	19.263
536.64	19.897
536.98	19.973
537.32	19.750
537.66	19.067
538.01	19.684
538.35	19.005
538.69	20.549
539.03	19.298
539.37	19.042
539.71	19.119
540.05	19.608
540.39	19.203
540.73	19.340
541.07	19.598
541.42	19.765
541.76	20.258
542.10	19.211
542.44	19.404
542.78	20.290
543.12	19.002
543.46	20.459
543.80	19.584
544.14	19.384
544.48	18.984
544.82	18.987
545.16	19.193
545.50	19.794
545.84	19.422
546.18	19.461
546.52	19.615
546.86	19.244
547.20	19.892
547.54	20.441
547.88	19.133
548.22	19.303
548.56	19.245
548.90	19.078
549.24	18.923
549.58	19.577
549.92	19.849
550.26	20.313
550.60	19.433
550.94	20.000
551.28	18.654
551.62	19.482
551.96	19.719
552.30	21.160
552.64	20.690
552.98	19.525
553.32	19.353
553.66	19.836
554.00	19.835
554.34	19.876
554.68	19.671
555.02	18.829
555.36	20.320
555.69	19.418
556.03	19.515
556.37	19.441
556.71	19.236
557.05	19.958
557.39	19.384
557.73	20.254
558.07	20.015
558.41	19.392
558.75	20.206
559.08	19.687
559.42	20.559
559.76	20.221
560.10	19.843
560.44	19.986
560.78	18.962
561.12	19.525
561.45	20.078
561.79	19.117
562.13	19.450
562.47	19.945
562.81	19.944
563.15	19.331
563.48	20.093
563.82	19.830
564.16	19.490
564.50	18.945
564.84	18.458
565.17	19.112
565.51	18.978
565.85	19.416
566.19	19.224
566.52	19.316
566.86	18.987
567.20	19.045
567.54	18.607
567.88	18.903
568.21	19.206
568.55	18.706
568.89	17.510
569.23	17.424
569.56	16.964
569.90	16.679
570.24	16.613
570.57	16.627
570.91	16.645
571.25	16.059
571.59	16.171
571.92	15.927
572.26	15.771
572.60	15.886
572.93	15.862
573.27	16.119
573.61	16.192
573.95	15.866
574.28	15.503
574.62	15.525
574.96	16.033
575.29	15.082
575.63	15.396
575.97	15.048
576.30	15.720
576.64	15.517
576.98	15.508
577.31	15.226
577.65	15.071
577.98	15.420
578.32	14.853
578.66	15.241
578.99	15.430
579.33	14.766
579.67	15.009
580.00	15.344
580.34	15.330
580.67	15.268
581.01	15.539
581.35	15.238
581.68	15.120
582.02	14.815
582.35	14.864
582.69	14.800
583.02	15.150
583.36	15.149
583.70	15.385
584.03	14.890
584.37	15.758
584.70	15.125
585.04	14.922
585.37	15.867
585.71	15.789
586.04	15.632
586.38	15.465
586.72	15.631
587.05	15.186
587.39	15.277
587.72	15.640
588.06	15.315
588.39	15.336
588.73	15.606
589.06	16.298
589.40	15.758
589.73	16.015
590.07	16.370
590.40	16.259
590.73	16.354
591.07	16.484
591.40	16.238
591.74	16.970
592.07	16.928
592.41	16.825
592.74	16.180
593.08	16.622
593.41	16.197
593.75	16.271
594.08	16.125
594.41	16.225
594.75	16.599
595.08	16.249
595.42	16.813
595.75	16.453
596.09	16.297
596.42	16.699
596.75	16.125
597.09	17.446
597.42	16.695
597.75	16.171
598.09	17.174
598.42	16.366
598.76	16.011
599.09	16.382
599.42	16.448
599.76	16.325
600.09	16.211
600.42	15.924
600.76	16.179
601.09	15.993
601.42	16.514
601.76	16.926
602.09	16.403
602.42	16.043
602.76	16.888
603.09	16.562
603.42	16.087
603.76	16.311
604.09	16.518
604.42	17.203
604.76	17.798
605.09	17.038
605.42	16.588
605.75	16.722
606.09	16.267
606.42	16.387
606.75	16.425
607.09	16.702
607.42	16.346
607.75	16.118
608.08	16.717
608.42	17.212
608.75	17.358
609.08	17.114
609.41	17.277
609.75	16.532
610.08	17.295
610.41	16.899
610.74	16.462
611.07	17.391
611.41	16.928
611.74	18.150
612.07	17.495
612.40	17.471
612.73	17.211
613.07	17.565
613.40	17.957
613.73	17.619
614.06	18.118
614.39	17.934
614.72	17.316
615.06	17.752
615.39	17.622
615.72	17.229
616.05	17.491
616.38	17.121
616.71	17.815
617.05	17.845
617.38	17.980
617.71	18.619
618.04	18.930
618.37	18.155
618.70	18.108
619.03	18.947
619.36	18.398
619.69	19.014
620.03	19.437
620.36	18.783
620.69	18.767
621.02	19.395
621.35	19.029
621.68	19.782
622.01	19.969
622.34	20.575
622.67	19.924
623.00	18.635
623.33	19.514
623.66	19.800
623.99	20.692
624.32	19.330
624.65	19.209
624.99	19.405
625.32	18.320
625.65	19.309
625.98	18.909
626.31	20.995
626.64	20.816
626.97	20.449
627.30	20.116
627.63	21.493
627.96	20.606
628.29	20.997
628.62	20.952
628.95	22.075
629.28	22.080
629.61	21.173
629.94	20.667
630.26	21.163
630.59	21.258
630.92	21.169
631.25	20.237
631.58	21.822
631.91	22.617
632.24	21.835
632.57	21.196
632.90	21.820
633.23	23.043
633.56	21.921
633.89	23.556
634.22	22.815
634.55	22.959
634.88	22.635
635.20	25.090
635.53	23.012
635.86	24.381
636.19	23.882
636.52	22.953
636.85	22.451
637.18	21.774
637.51	21.158
637.83	21.578
638.16	24.041
638.49	24.685
638.82	23.135
639.15	25.250
639.48	22.195
639.81	23.592
640.13	23.698
640.46	24.564
640.79	23.118
641.12	22.146
641.45	23.045
641.77	24.595
642.10	25.585
642.43	24.474
642.76	26.935
643.09	25.460
643.41	22.914
643.74	25.617
644.07	24.390
644.40	26.074
644.73	29.291
645.05	25.515
645.38	24.329
645.71	25.443
646.04	24.419
646.36	27.212
646.69	25.585
647.02	28.231
647.35	26.976
647.67	26.372
648.00	27.480
648.33	23.927
648.66	26.364
648.98	24.738
649.31	23.318
649.64	25.859
649.96	23.547
650.29	25.908
650.62	23.786
650.94	25.446
651.27	27.196
651.60	26.622
651.92	25.719
652.25	24.267
652.58	25.078
652.90	24.171
653.23	24.345
653.56	23.780
653.88	26.466
654.21	26.224
654.54	24.587
654.86	24.611
655.19	22.838
655.52	16.198
655.84	14.159
656.17	17.891
656.49	23.420
656.82	22.670
657.15	16.376
657.47	11.592
657.80	8.796
658.13	8.773
658.45	12.842
658.78	12.475
659.10	13.055
659.43	13.479
659.75	14.069
660.08	15.253
660.41	18.156
660.73	20.584
661.06	21.338
661.38	26.545
661.71	27.885
662.03	26.824
662.36	24.851
662.68	27.108
663.01	28.687
663.33	27.601
663.66	29.412
663.98	24.406
664.31	27.731
664.63	24.899
664.96	25.755
665.28	27.664
665.61	26.121
665.93	25.956
666.26	25.963
666.58	26.569
666.91	29.175
667.23	27.416
667.56	26.566
667.88	30.342
668.21	27.932
668.53	25.163
668.86	27.706
669.18	28.998
669.50	30.217
669.83	27.887
670.15	30.222
670.48	29.847
670.80	28.664
671.13	28.875
671.45	27.872
671.77	27.495
672.10	26.987
672.42	26.855
672.75	26.534
673.07	25.704
673.39	25.678
673.72	25.195
674.04	27.059
674.37	26.990
674.69	28.834
675.01	26.987
675.34	28.542
675.66	30.105
675.98	29.124
676.31	28.992
676.63	27.176
676.95	29.560
677.28	27.804
677.60	29.011
677.92	28.692
678.25	25.873
678.57	27.888
678.89	25.251
679.22	24.558
679.54	26.145
679.86	26.055
680.18	25.045
680.51	24.468
680.83	26.157
681.15	24.906
681.48	25.331
681.80	25.532
682.12	26.628
682.44	23.791
682.77	26.273
683.09	27.897
683.41	29.268
683.73	26.490
684.06	28.512
684.38	25.832
684.70	24.612
685.02	25.891
685.34	25.275
685.67	23.776
685.99	23.883
686.31	22.696
686.63	23.145
686.96	23.750
687.28	24.007
687.60	22.826
687.92	24.314
688.24	26.046
688.56	24.900
688.89	25.934
689.21	27.729
689.53	26.305
689.85	24.612
690.17	26.501
690.49	28.450
690.82	28.271
691.14	25.223
691.46	24.895
691.78	25.301
692.10	26.240
692.42	25.948
692.74	23.651
693.06	26.596
693.39	27.515
693.71	24.236
694.03	26.526
694.35	25.758
694.67	25.858
694.99	28.049
695.31	26.471
695.63	24.641
695.95	25.672
696.27	25.381
696.59	28.756
696.91	29.275
697.23	24.648
697.56	26.226
697.88	23.926
698.20	23.750
698.52	24.731
698.84	27.394
699.16	28.341
699.48	24.941
699.80	29.952
700.12	30.390
700.44	29.708
700.76	29.834
701.08	29.598
701.40	27.933
701.72	27.114
702.04	35.227
702.36	30.595
702.68	29.178
703.00	30.194
703.32	26.862
703.64	25.737
703.96	30.919
704.28	27.326
704.60	34.311
704.91	29.674
705.23	28.739
705.55	32.558
705.87	35.548
706.19	31.449
706.51	35.202
706.83	33.636
707.15	30.252
707.47	27.778
707.79	26.044
708.11	26.941
708.43	26.429
708.74	28.316
709.06	27.273
709.38	26.772
709.70	28.488
710.02	31.454
710.34	30.909
710.66	32.239
710.98	29.261
711.29	29.651
711.61	32.743
711.93	28.846
712.25	33.441
712.57	30.147
712.89	34.602
713.20	31.611
713.52	32.895
713.84	30.380
714.16	28.963
714.48	28.736
714.80	32.523
715.11	29.395
715.43	28.487
715.75	28.696
716.07	29.073
716.39	30.094
716.70	31.229
717.02	30.935
717.34	31.802
717.66	32.090
717.97	34.263
718.29	28.148
718.61	31.752
718.93	33.824
719.24	33.910
719.56	26.780
719.88	29.492
720.20	33.784
720.51	31.359
720.83	34.944
721.15	29.104
721.46	31.560
721.78	31.183
722.10	34.340
722.42	30.827
722.73	33.333
723.05	29.508
723.37	35.223
723.68	32.432
724.00	32.927
724.32	34.274
724.63	32.927
724.95	32.218
725.27	42.510
725.58	34.766
725.90	35.766
726.22	32.830
726.53	30.208
726.85	30.034
727.16	33.452
727.48	31.206
727.80	31.818
728.11	31.884
728.43	31.154
728.74	31.183
729.06	28.102
729.38	31.985
729.69	34.164
730.01	27.304
730.32	29.861
730.64	29.097
730.96	29.043
731.27	33.775
731.59	29.358
731.90	28.571
732.22	27.950
732.53	25.697
732.85	27.244
733.16	28.939
733.48	32.890
733.80	30.195
734.11	30.255
734.43	30.178
734.74	26.571
735.06	27.221
735.37	30.058
735.69	29.618
736.00	29.085
736.32	34.891
736.63	28.754
736.95	32.268
737.26	26.531
737.58	28.387
737.89	30.769
738.21	33.106
738.52	23.571
738.83	27.925
739.15	31.923
739.46	32.482
739.78	28.819
740.09	28.308
740.41	31.613
740.72	27.526
741.04	34.444
741.35	32.500
741.66	34.667
741.98	34.906
742.29	39.713
742.61	41.379
742.92	35.294
743.23	29.915
743.55	31.600
743.86	30.263
744.18	38.938
744.49	40.191
744.80	40.376
745.12	39.091
745.43	36.123
745.74	39.189
746.06	36.239
746.37	34.529
746.68	34.842
747.00	35.648
747.31	37.143
747.62	33.628
747.94	31.718
748.25	32.340
748.56	33.480
748.88	38.614
749.19	41.500
749.50	37.209
749.82	32.927
750.13	30.612
750.44	25.182
750.75	34.386
751.07	30.547
751.38	34.146
751.69	33.935
752.01	30.827
752.32	28.881
752.63	31.560
752.94	31.557
753.26	36.800
753.57	27.236
753.88	32.812
754.19	30.714
754.51	32.639
754.82	26.715
755.13	33.208
755.44	34.586
755.75	30.657
756.07	29.787
756.38	27.737
756.69	30.537
757.00	28.443
757.31	26.409
757.63	29.240
757.94	26.810
758.25	26.961
758.56	24.938
758.87	24.194
759.18	28.182
759.50	23.511
759.81	28.349
760.12	25.625
760.43	27.507
760.74	26.087
761.05	26.271
761.36	26.471
761.67	29.261
761.99	26.708
762.30	26.389
762.61	33.206
762.92	30.859
763.23	33.613
763.54	34.000
763.85	33.203
764.16	32.308
764.47	33.080
764.78	25.088
765.10	27.532
765.41	27.729
765.72	27.545
766.03	26.332
766.34	21.667
766.65	38.723
766.96	32.479
767.27	36.041
767.58	39.583
767.89	40.000
768.20	40.805
768.51	35.533
768.82	38.991
769.13	28.862
769.44	31.579
769.75	31.330
770.06	27.982
770.37	31.674
770.68	33.333
770.99	28.444
771.30	30.328
771.61	30.493
771.92	30.738
772.23	35.714
772.54	30.769
772.85	30.366
773.16	37.766
773.47	32.609
773.78	39.086
774.09	32.143
774.39	40.351
774.70	38.272
775.01	50.725
775.32	49.673
775.63	44.079
775.94	47.482
776.25	51.969
776.56	47.761
776.87	54.098
777.18	46.094
777.48	46.565
777.79	46.212
778.10	45.185
778.41	57.143
778.72	40.876
779.03	40.940
779.34	42.282
779.65	31.757
779.95	41.104
780.26	45.752
780.57	48.276
780.88	53.125
781.19	44.361
781.50	47.973
781.80	41.509
782.11	35.028
782.42	39.873
782.73	41.718
783.04	41.216
783.34	45.070
783.65	50.000
783.96	52.985
784.27	37.762
784.57	41.727
784.88	48.148
785.19	45.238
785.50	44.340
785.81	50.000
786.11	59.836
786.42	43.411
786.73	48.673
787.04	54.717
787.34	42.857
787.65	55.000
787.96	46.847
788.26	50.413
788.57	43.220
788.88	52.893
789.19	49.306
789.49	46.970
789.80	47.328
790.11	59.048
790.41	59.406
790.72	66.265
791.03	52.174
791.33	53.488
791.64	49.485
791.95	58.416
792.25	57.778
792.56	58.442
792.87	71.795
793.17	69.620
793.48	68.966
793.79	54.023
794.09	55.682
794.40	50.420
794.70	49.265
795.01	43.704
795.32	34.532
795.62	51.969
795.93	48.276
796.23	48.673
796.54	57.647
796.85	52.703
797.15	64.789
797.46	69.697
797.76	67.470
798.07	68.354
798.37	64.615
798.68	66.667
798.99	47.887
799.29	67.532
799.60	54.545
799.90	68.493
800.21	71.642
800.51	70.690
800.82	70.175
801.12	72.131
801.43	77.273
801.73	71.622
802.04	98.413
802.34	65.432
802.65	62.500
802.95	100.000
803.26	84.375
803.56	65.714
803.87	58.462
804.17	83.824
804.48	92.593
804.78	82.759
805.09	66.176
805.39	86.538
805.70	91.071
806.00	81.967
806.30	66.667
806.61	54.878
806.91	49.367
807.22	68.421
807.52	64.179
807.83	76.056
808.13	76.563
808.43	83.333
808.74	50.000
809.04	76.812
809.35	76.119
809.65	77.632
809.95	95.161
810.26	66.102
810.56	87.302
810.86	113.636
811.17	102.381
811.47	85.000
811.77	87.037
812.08	80.000
812.38	92.000
812.69	105.556
812.99	118.182
813.29	106.122
813.59	80.952
813.90	114.286
814.20	76.364
814.50	75.385
814.81	73.529
815.11	77.551
815.41	81.967
815.72	123.810
816.02	94.545
816.32	104.762
816.62	87.500
816.93	100.000
817.23	95.238
817.53	100.000
817.84	118.182
818.14	117.391
818.44	97.778
818.74	138.235
819.04	115.000
819.35	105.714
819.65	129.412
819.95	135.714
820.25	155.000
820.56	128.205
820.86	111.364
821.16	109.302
821.46	92.308
821.76	120.000
822.07	111.429
822.37	105.000
822.67	151.515
822.97	72.549
823.27	175.000
823.57	116.216
823.88	132.500
824.18	140.000
824.48	109.524
824.78	164.000
825.08	108.333
825.38	129.730
825.69	104.878
825.99	158.333
826.29	124.138
826.59	102.632
826.89	81.579
827.19	141.176
827.49	141.935
827.79	111.364
828.09	109.091
828.39	78.723
828.70	100.000
829.00	118.519
829.30	125.806
829.60	97.500
829.90	226.667
830.20	142.857
830.50	117.391
830.80	182.609
831.10	133.333
831.40	160.000
831.70	152.174
832.00	161.538
832.30	177.778
832.60	218.750
832.90	173.333
833.20	285.714
833.50	138.710
833.80	124.138
834.10	146.875
834.40	169.231
834.70	211.111
835.00	242.857
835.30	140.000
835.60	169.231
835.90	124.138
836.20	257.143
836.50	186.207
836.80	152.000
837.10	125.000
837.40	152.381
837.70	223.529
838.00	148.148
838.30	147.619
838.60	219.048
838.90	165.385
839.19	200.000
839.49	278.571
839.79	270.000
840.09	210.000
840.39	190.476
840.69	173.913
840.99	183.333
841.29	260.000
841.59	208.333
841.88	262.500
842.18	137.931
842.48	238.095
842.78	186.667
843.08	165.217
843.38	134.375
843.68	600.000
843.97	200.000
844.27	151.724
844.57	214.286
844.87	200.000
845.17	151.852
845.47	833.333
845.76	344.444
846.06	270.588
846.36	250.000
846.66	292.857
846.96	218.750
847.25	336.364
847.55	336.364
847.85	178.261
848.15	460.000
848.44	278.571
848.74	200.000
849.04	288.235
849.34	440.000
849.63	200.000
849.93	300.000
850.23	760.000
850.53	285.714
850.82	1150.000
851.12	-2600.000
851.42	2300.000
851.71	225.000
852.01	-733.333
852.31	133.333
852.61	1200.000
852.90	171.429
853.20	164.000
853.50	241.176
853.79	161.905
854.09	166.667
854.39	206.250
854.68	137.838
854.98	145.161
855.28	123.333
855.57	182.759
855.87	192.593
856.17	189.474
856.46	186.667
856.76	176.471
857.05	141.379
857.35	112.500
857.65	240.000
857.94	178.261
858.24	176.923
858.53	220.000
858.83	181.818
859.13	246.667
859.42	0.000
859.72	422.222
860.01	290.909
860.31	163.636
860.60	210.526
860.90	182.609
861.20	466.667
861.49	291.667
861.79	-3700.000
862.08	587.500
862.38	238.095
862.67	161.538
862.97	247.059
863.26	322.222
863.56	166.667
863.85	300.000
864.15	362.500
864.44	333.333
864.74	650.000
865.03	512.500
865.33	257.895
865.62	281.818
865.92	307.692
866.21	200.000
866.51	0.000
866.80	281.818
867.10	760.000
867.39	353.846
867.69	300.000
867.98	189.474
868.27	272.727
868.57	247.368
868.86	-3100.000
869.16	243.750
869.45	1350.000
869.75	-3300.000
870.04	291.667
870.33	514.286
870.63	850.000
870.92	1550.000
871.22	542.857
871.51	252.941
871.80	190.476
872.10	300.000
>>>>>End Processed Spectral Data<<<<<
