SpectraSuite Data File
++++++++++++++++++++++++++++++++++++
Date: Wed May 13 20:34:09 PDT 2015
User: schluterlab
Dark Spectrum Present: Yes
Reference Spectrum Present: Yes
Number of Sampled Component Spectra: 1
Spectrometers: USB2E3373
Integration Time (usec): 3000 (USB2E3373)
Spectra Averaged: 3 (USB2E3373)
Boxcar Smoothing: 0 (USB2E3373)
Correct for Electrical Dark: No (USB2E3373)
Strobe/Lamp Enabled: No (USB2E3373)
Correct for Detector Non-linearity: No (USB2E3373)
Correct for Stray Light: No (USB2E3373)
Number of Pixels in Processed Spectrum: 2048
>>>>>Begin Processed Spectral Data<<<<<
178.53	0.000
178.91	-1150.000
179.29	-1075.000
179.67	-144.444
180.04	-775.000
180.42	1500.000
180.80	760.000
181.18	-750.000
181.56	514.286
181.94	0.000
182.31	-385.714
182.69	1333.333
183.07	-387.500
183.45	-444.444
183.83	390.909
184.20	-150.000
184.58	1750.000
184.96	4200.000
185.34	-420.000
185.72	-325.000
186.09	-1850.000
186.47	1650.000
186.85	1850.000
187.23	2500.000
187.61	-1466.667
187.98	975.000
188.36	436.364
188.74	363.636
189.12	-580.000
189.49	420.000
189.87	-2700.000
190.25	-825.000
190.63	328.571
191.00	307.692
191.38	733.333
191.76	-975.000
192.14	1075.000
192.51	412.500
192.89	866.667
193.27	387.500
193.65	-875.000
194.02	320.000
194.40	580.000
194.78	460.000
195.15	366.667
195.53	500.000
195.91	-1300.000
196.29	243.750
196.66	247.368
197.04	-220.000
197.42	0.000
197.79	450.000
198.17	-4000.000
198.55	528.571
198.92	462.500
199.30	560.000
199.68	0.000
200.05	233.333
200.43	585.714
200.81	3300.000
201.18	1133.333
201.56	-1433.333
201.94	422.222
202.31	533.333
202.69	325.000
203.07	400.000
203.44	0.000
203.82	825.000
204.19	585.714
204.57	328.571
204.95	562.500
205.32	933.333
205.70	409.091
206.08	300.000
206.45	1750.000
206.83	268.750
207.20	616.667
207.58	340.000
207.96	266.667
208.33	487.500
208.71	-466.667
209.08	585.714
209.46	344.444
209.84	281.818
210.21	-1200.000
210.59	1000.000
210.96	-350.000
211.34	1600.000
211.71	470.000
212.09	766.667
212.46	0.000
212.84	1200.000
213.22	900.000
213.59	-2300.000
213.97	700.000
214.34	714.286
214.72	400.000
215.09	720.000
215.47	-1450.000
215.84	-1550.000
216.22	1266.667
216.59	328.571
216.97	900.000
217.34	327.273
217.72	-383.333
218.09	0.000
218.47	-2300.000
218.84	444.444
219.22	585.714
219.59	1200.000
219.97	-342.857
220.34	680.000
220.72	-1466.667
221.09	357.143
221.47	1200.000
221.84	-583.333
222.22	0.000
222.59	1000.000
222.97	-2350.000
223.34	940.000
223.72	323.077
224.09	680.000
224.46	1700.000
224.84	-3300.000
225.21	-800.000
225.59	-3300.000
225.96	590.000
226.34	225.000
226.71	1500.000
227.08	400.000
227.46	450.000
227.83	-700.000
228.21	-1450.000
228.58	377.778
228.95	-1400.000
229.33	-2050.000
229.70	900.000
230.08	642.857
230.45	-600.000
230.82	316.667
231.20	516.667
231.57	471.429
231.95	391.667
232.32	168.182
232.69	318.182
233.07	671.429
233.44	315.385
233.81	-1366.667
234.19	242.105
234.56	300.000
234.93	300.000
235.31	363.636
235.68	246.154
236.05	250.000
236.43	121.212
236.80	221.053
237.17	3100.000
237.55	161.905
237.92	167.857
238.29	209.524
238.67	125.806
239.04	189.655
239.41	100.000
239.79	80.435
240.16	111.905
240.53	79.545
240.91	70.588
241.28	78.000
241.65	90.000
242.02	75.362
242.40	79.032
242.77	75.000
243.14	59.140
243.51	64.045
243.89	51.765
244.26	47.778
244.63	58.065
245.00	51.064
245.38	56.436
245.75	53.271
246.12	49.541
246.49	51.825
246.87	65.600
247.24	52.308
247.61	46.429
247.98	50.980
248.36	40.541
248.73	38.217
249.10	46.497
249.47	37.853
249.84	37.433
250.22	38.503
250.59	36.095
250.96	42.929
251.33	39.336
251.70	40.594
252.08	35.238
252.45	35.874
252.82	37.826
253.19	40.426
253.56	35.294
253.94	36.929
254.31	38.672
254.68	33.462
255.05	35.793
255.42	31.301
255.79	34.191
256.16	33.213
256.54	27.562
256.91	32.740
257.28	30.935
257.65	33.003
258.02	34.783
258.39	30.599
258.76	30.435
259.14	32.738
259.51	29.787
259.88	30.124
260.25	32.326
260.62	32.370
260.99	31.056
261.36	32.733
261.73	33.524
262.10	28.779
262.47	33.239
262.85	31.755
263.22	27.066
263.59	32.194
263.96	29.670
264.33	26.632
264.70	31.842
265.07	29.156
265.44	28.788
265.81	28.954
266.18	29.146
266.55	29.268
266.92	30.221
267.29	29.398
267.66	25.917
268.03	30.227
268.40	30.140
268.77	28.878
269.14	28.829
269.51	30.023
269.88	30.070
270.25	27.991
270.62	29.438
270.99	32.903
271.36	27.253
271.73	29.206
272.10	29.783
272.47	28.387
272.84	29.004
273.21	27.044
273.58	24.454
273.95	27.044
274.32	28.306
274.69	29.122
275.06	26.378
275.43	29.362
275.80	28.457
276.17	27.902
276.54	30.977
276.91	30.830
277.28	26.367
277.65	26.692
278.02	26.915
278.39	29.492
278.76	27.818
279.13	27.736
279.50	28.119
279.87	26.096
280.23	26.946
280.60	25.338
280.97	25.323
281.34	27.080
281.71	27.273
282.08	29.175
282.45	24.182
282.82	23.268
283.19	24.064
283.56	25.614
283.92	25.888
284.29	24.339
284.66	25.408
285.03	24.231
285.40	24.472
285.77	25.084
286.14	25.907
286.51	25.500
286.87	25.641
287.24	26.873
287.61	24.077
287.98	24.188
288.35	24.564
288.72	24.455
289.08	24.257
289.45	23.888
289.82	23.577
290.19	24.176
290.56	23.430
290.93	22.356
291.29	24.540
291.66	22.861
292.03	23.692
292.40	23.495
292.77	21.006
293.13	23.582
293.50	21.429
293.87	21.481
294.24	19.111
294.60	21.397
294.97	19.913
295.34	22.849
295.71	21.875
296.08	21.510
296.44	21.320
296.81	20.740
297.18	21.545
297.55	18.734
297.91	20.317
298.28	20.080
298.65	21.540
299.02	20.158
299.38	21.912
299.75	18.194
300.12	19.285
300.48	18.875
300.85	20.345
301.22	19.363
301.59	17.424
301.95	20.151
302.32	19.769
302.69	19.474
303.05	18.182
303.42	18.765
303.79	19.592
304.15	18.298
304.52	19.119
304.89	17.538
305.25	17.285
305.62	19.706
305.99	20.071
306.35	19.239
306.72	17.601
307.09	19.423
307.45	19.032
307.82	17.076
308.19	18.874
308.55	18.986
308.92	19.656
309.29	17.212
309.65	18.134
310.02	19.556
310.38	16.882
310.75	17.529
311.12	19.959
311.48	18.077
311.85	17.925
312.22	17.898
312.58	17.983
312.95	20.063
313.31	18.738
313.68	18.815
314.05	20.710
314.41	21.206
314.78	19.537
315.14	19.464
315.51	20.597
315.87	20.297
316.24	18.967
316.61	21.053
316.97	20.939
317.34	18.885
317.70	21.989
318.07	21.752
318.43	22.016
318.80	22.680
319.16	23.635
319.53	23.265
319.89	25.238
320.26	26.000
320.62	25.198
320.99	25.758
321.35	26.061
321.72	27.310
322.08	29.516
322.45	30.249
322.81	29.554
323.18	31.214
323.54	31.540
323.91	31.698
324.27	32.887
324.64	31.594
325.00	31.921
325.37	33.394
325.73	35.278
326.10	34.598
326.46	34.767
326.83	36.324
327.19	35.525
327.56	36.760
327.92	37.008
328.29	37.356
328.65	39.134
329.01	38.087
329.38	38.945
329.74	39.058
330.11	39.868
330.47	41.230
330.84	41.085
331.20	41.166
331.56	40.000
331.93	41.389
332.29	41.083
332.66	40.973
333.02	41.773
333.38	41.554
333.75	42.246
334.11	40.480
334.48	41.970
334.84	43.199
335.20	42.909
335.57	41.886
335.93	39.821
336.29	42.216
336.66	41.749
337.02	41.086
337.38	43.056
337.75	41.533
338.11	42.525
338.47	43.094
338.84	42.530
339.20	41.743
339.56	43.339
339.93	43.091
340.29	41.848
340.65	42.513
341.02	42.845
341.38	42.438
341.74	42.719
342.11	43.581
342.47	42.467
342.83	42.038
343.20	41.558
343.56	42.291
343.92	42.544
344.28	40.391
344.65	41.359
345.01	40.320
345.37	41.767
345.73	41.878
346.10	40.835
346.46	40.000
346.82	41.680
347.19	41.103
347.55	39.984
347.91	40.939
348.27	41.167
348.63	41.973
349.00	40.534
349.36	39.655
349.72	40.497
350.08	40.113
350.45	40.928
350.81	40.861
351.17	38.169
351.53	40.213
351.89	37.376
352.26	39.779
352.62	39.374
352.98	38.331
353.34	38.537
353.70	38.789
354.07	38.226
354.43	38.016
354.79	37.570
355.15	39.824
355.51	40.687
355.87	39.347
356.24	38.925
356.60	38.974
356.96	38.134
357.32	37.694
357.68	39.134
358.04	37.767
358.40	37.846
358.77	37.246
359.13	35.912
359.49	37.647
359.85	36.587
360.21	37.081
360.57	37.276
360.93	38.615
361.29	37.793
361.66	36.533
362.02	36.791
362.38	37.414
362.74	37.054
363.10	37.454
363.46	36.464
363.82	36.659
364.18	37.372
364.54	36.850
364.90	36.686
365.26	36.544
365.62	37.034
365.98	36.158
366.35	35.530
366.71	36.659
367.07	35.980
367.43	37.808
367.79	36.545
368.15	37.069
368.51	35.683
368.87	36.974
369.23	36.284
369.59	35.554
369.95	35.147
370.31	36.254
370.67	34.928
371.03	35.655
371.39	36.152
371.75	34.779
372.11	33.926
372.47	37.170
372.83	34.654
373.19	34.754
373.55	36.585
373.91	36.966
374.27	33.883
374.63	34.764
374.99	35.169
375.35	34.613
375.71	34.887
376.07	34.431
376.42	34.663
376.78	35.586
377.14	35.346
377.50	34.901
377.86	33.045
378.22	34.703
378.58	32.957
378.94	33.627
379.30	32.697
379.66	34.454
380.02	34.459
380.38	32.605
380.74	34.514
381.09	33.496
381.45	33.743
381.81	34.521
382.17	33.439
382.53	33.270
382.89	33.765
383.25	33.896
383.61	33.643
383.97	34.084
384.32	33.687
384.68	32.962
385.04	34.050
385.40	31.950
385.76	32.125
386.12	33.161
386.48	33.291
386.83	34.060
387.19	33.890
387.55	32.591
387.91	32.830
388.27	32.557
388.62	32.637
388.98	32.310
389.34	32.916
389.70	32.066
390.06	32.700
390.42	32.555
390.77	33.206
391.13	33.504
391.49	32.931
391.85	32.909
392.20	31.293
392.56	33.081
392.92	31.371
393.28	31.953
393.64	32.194
393.99	32.315
394.35	32.630
394.71	32.058
395.07	30.841
395.42	32.509
395.78	32.379
396.14	31.161
396.50	33.521
396.85	31.596
397.21	31.751
397.57	31.184
397.92	32.212
398.28	30.549
398.64	32.019
399.00	31.505
399.35	31.190
399.71	31.655
400.07	31.993
400.42	31.718
400.78	31.785
401.14	30.549
401.49	30.328
401.85	31.639
402.21	30.479
402.57	30.413
402.92	30.958
403.28	31.168
403.63	30.693
403.99	29.554
404.35	30.909
404.70	30.935
405.06	30.402
405.42	30.568
405.77	30.571
406.13	30.869
406.49	29.805
406.84	30.715
407.20	29.610
407.55	30.440
407.91	30.467
408.27	30.313
408.62	29.862
408.98	30.576
409.34	30.197
409.69	29.742
410.05	29.740
410.40	29.786
410.76	30.227
411.11	31.062
411.47	30.032
411.83	29.688
412.18	28.695
412.54	29.514
412.89	30.241
413.25	30.283
413.60	30.327
413.96	28.719
414.31	29.830
414.67	30.038
415.03	30.000
415.38	30.412
415.74	30.611
416.09	30.503
416.45	29.719
416.80	29.412
417.16	30.965
417.51	30.458
417.87	29.159
418.22	29.148
418.58	29.890
418.93	30.467
419.29	28.899
419.64	29.975
420.00	29.024
420.35	29.101
420.71	29.468
421.06	29.117
421.42	29.649
421.77	29.372
422.12	28.523
422.48	28.764
422.83	29.528
423.19	29.448
423.54	29.019
423.90	29.275
424.25	28.587
424.61	29.405
424.96	28.805
425.31	29.181
425.67	28.764
426.02	30.000
426.38	29.121
426.73	29.023
427.09	29.483
427.44	29.672
427.79	28.752
428.15	29.167
428.50	29.374
428.85	28.963
429.21	27.940
429.56	29.031
429.92	28.384
430.27	28.103
430.62	28.315
430.98	28.542
431.33	28.144
431.68	28.796
432.04	28.594
432.39	28.898
432.74	28.785
433.10	28.240
433.45	28.863
433.80	27.772
434.16	28.953
434.51	28.526
434.86	28.506
435.22	28.738
435.57	29.301
435.92	28.789
436.28	29.300
436.63	29.139
436.98	28.334
437.34	28.921
437.69	29.697
438.04	28.724
438.39	28.418
438.75	28.530
439.10	28.715
439.45	29.457
439.81	28.278
440.16	28.289
440.51	28.412
440.86	29.010
441.22	28.198
441.57	28.079
441.92	28.301
442.27	29.117
442.63	28.699
442.98	29.972
443.33	28.750
443.68	29.117
444.03	28.209
444.39	28.578
444.74	28.788
445.09	29.003
445.44	29.142
445.79	28.303
446.15	28.904
446.50	28.756
446.85	28.366
447.20	28.455
447.55	29.202
447.91	27.965
448.26	28.937
448.61	29.452
448.96	28.682
449.31	28.796
449.66	28.925
450.02	28.412
450.37	27.268
450.72	29.216
451.07	27.910
451.42	28.389
451.77	29.008
452.12	28.580
452.47	28.172
452.83	28.497
453.18	28.056
453.53	30.056
453.88	27.761
454.23	28.093
454.58	28.710
454.93	29.498
455.28	28.491
455.63	28.034
455.98	29.345
456.34	28.832
456.69	28.679
457.04	28.297
457.39	28.229
457.74	29.193
458.09	28.062
458.44	28.335
458.79	27.983
459.14	28.781
459.49	28.955
459.84	28.532
460.19	28.639
460.54	27.488
460.89	28.470
461.24	29.205
461.59	29.053
461.94	27.867
462.29	28.368
462.64	28.143
462.99	27.716
463.34	29.800
463.69	28.205
464.04	27.536
464.39	28.754
464.74	28.045
465.09	28.408
465.44	27.645
465.79	27.405
466.14	27.750
466.49	28.087
466.84	28.371
467.19	28.968
467.54	28.562
467.89	27.731
468.24	27.632
468.59	29.121
468.94	28.650
469.29	28.920
469.64	29.652
469.99	28.620
470.34	27.675
470.68	28.807
471.03	28.707
471.38	29.534
471.73	27.648
472.08	29.145
472.43	28.329
472.78	28.242
473.13	28.306
473.48	27.965
473.83	29.024
474.17	26.696
474.52	28.660
474.87	28.722
475.22	28.091
475.57	27.566
475.92	27.350
476.27	26.832
476.61	27.358
476.96	27.323
477.31	27.054
477.66	28.063
478.01	27.026
478.36	28.027
478.70	26.791
479.05	27.849
479.40	26.970
479.75	28.470
480.10	28.032
480.45	26.987
480.79	27.090
481.14	27.397
481.49	26.910
481.84	27.252
482.19	27.260
482.53	26.835
482.88	26.710
483.23	26.495
483.58	28.025
483.92	26.570
484.27	26.144
484.62	26.552
484.97	26.173
485.31	26.267
485.66	24.631
486.01	24.300
486.36	24.509
486.70	25.055
487.05	25.530
487.40	25.817
487.75	25.958
488.09	26.479
488.44	26.551
488.79	27.378
489.13	27.502
489.48	26.183
489.83	26.068
490.17	27.093
490.52	26.439
490.87	26.504
491.22	26.512
491.56	26.651
491.91	27.082
492.26	26.504
492.60	26.959
492.95	25.538
493.30	26.589
493.64	26.132
493.99	26.648
494.34	27.012
494.68	26.832
495.03	26.645
495.37	26.152
495.72	26.852
496.07	26.914
496.41	25.752
496.76	26.825
497.11	26.204
497.45	25.990
497.80	26.152
498.14	25.894
498.49	26.000
498.84	25.887
499.18	26.429
499.53	26.211
499.87	26.421
500.22	26.425
500.56	27.184
500.91	25.769
501.26	25.605
501.60	26.673
501.95	25.710
502.29	26.148
502.64	26.210
502.98	25.666
503.33	26.051
503.67	25.058
504.02	26.193
504.36	25.550
504.71	27.113
505.06	26.169
505.40	26.057
505.75	26.133
506.09	25.510
506.44	26.246
506.78	26.059
507.13	27.007
507.47	26.061
507.82	25.380
508.16	26.798
508.51	26.687
508.85	25.670
509.19	24.949
509.54	25.612
509.88	25.245
510.23	26.992
510.57	27.090
510.92	26.463
511.26	25.077
511.61	26.815
511.95	25.835
512.30	25.928
512.64	25.416
512.98	26.099
513.33	25.910
513.67	25.880
514.02	24.946
514.36	25.341
514.70	26.840
515.05	26.436
515.39	26.865
515.74	25.732
516.08	26.383
516.42	25.860
516.77	26.644
517.11	25.860
517.46	26.072
517.80	26.190
518.14	25.883
518.49	26.313
518.83	25.682
519.17	24.769
519.52	25.354
519.86	25.841
520.20	25.896
520.55	26.272
520.89	26.521
521.23	27.262
521.58	25.990
521.92	26.577
522.26	26.297
522.61	26.231
522.95	25.169
523.29	26.354
523.64	25.915
523.98	25.262
524.32	25.694
524.66	26.037
525.01	26.042
525.35	25.403
525.69	25.616
526.04	25.296
526.38	25.320
526.72	26.074
527.06	25.989
527.41	25.062
527.75	26.881
528.09	26.461
528.43	25.876
528.78	25.876
529.12	24.667
529.46	26.332
529.80	26.114
530.15	26.231
530.49	24.369
530.83	25.759
531.17	26.371
531.51	27.237
531.86	25.871
532.20	26.010
532.54	26.457
532.88	26.123
533.22	24.984
533.57	25.370
533.91	24.925
534.25	24.970
534.59	25.930
534.93	24.747
535.27	25.407
535.62	25.763
535.96	25.800
536.30	25.111
536.64	25.306
536.98	26.344
537.32	26.004
537.66	25.200
538.01	26.201
538.35	24.822
538.69	25.144
539.03	25.536
539.37	23.578
539.71	23.137
540.05	25.229
540.39	26.047
540.73	23.868
541.07	26.411
541.42	25.375
541.76	24.968
542.10	24.968
542.44	25.298
542.78	26.614
543.12	24.568
543.46	26.098
543.80	26.220
544.14	24.326
544.48	25.143
544.82	25.401
545.16	25.504
545.50	24.871
545.84	24.866
546.18	25.724
546.52	25.258
546.86	25.223
547.20	25.354
547.54	24.248
547.88	25.765
548.22	24.408
548.56	24.654
548.90	24.328
549.24	24.714
549.58	24.557
549.92	25.069
550.26	25.923
550.60	24.481
550.94	25.141
551.28	24.653
551.62	25.306
551.96	24.491
552.30	24.710
552.64	26.031
552.98	24.949
553.32	25.624
553.66	25.153
554.00	24.640
554.34	23.188
554.68	25.107
555.02	24.189
555.36	24.426
555.69	24.019
556.03	24.293
556.37	24.693
556.71	24.147
557.05	24.860
557.39	24.563
557.73	24.347
558.07	24.946
558.41	24.385
558.75	24.761
559.08	25.429
559.42	25.170
559.76	24.632
560.10	24.483
560.44	23.340
560.78	23.353
561.12	24.604
561.45	24.707
561.79	24.192
562.13	25.017
562.47	24.658
562.81	24.547
563.15	23.880
563.48	24.204
563.82	24.070
564.16	23.610
564.50	24.023
564.84	23.641
565.17	23.810
565.51	23.387
565.85	23.858
566.19	24.421
566.52	23.496
566.86	23.267
567.20	23.939
567.54	23.059
567.88	22.759
568.21	23.492
568.55	23.256
568.89	22.519
569.23	21.658
569.56	22.186
569.90	22.302
570.24	21.708
570.57	21.421
570.91	20.976
571.25	21.526
571.59	21.237
571.92	21.169
572.26	21.433
572.60	22.492
572.93	21.349
573.27	21.295
573.61	20.854
573.95	21.370
574.28	20.905
574.62	21.113
574.96	20.502
575.29	20.829
575.63	21.265
575.97	21.114
576.30	21.057
576.64	21.178
576.98	21.366
577.31	20.587
577.65	20.651
577.98	20.285
578.32	20.175
578.66	20.797
578.99	20.817
579.33	21.133
579.67	20.530
580.00	21.242
580.34	20.954
580.67	20.941
581.01	20.553
581.35	20.045
581.68	20.179
582.02	19.661
582.35	20.289
582.69	20.447
583.02	20.611
583.36	21.074
583.70	21.653
584.03	21.473
584.37	21.318
584.70	20.899
585.04	20.548
585.37	20.690
585.71	20.583
586.04	20.802
586.38	20.899
586.72	20.933
587.05	20.674
587.39	20.554
587.72	21.077
588.06	20.784
588.39	21.372
588.73	21.003
589.06	21.377
589.40	21.616
589.73	21.260
590.07	20.961
590.40	20.716
590.73	21.858
591.07	21.937
591.40	21.763
591.74	21.775
592.07	21.902
592.41	21.621
592.74	20.487
593.08	20.886
593.41	20.500
593.75	19.925
594.08	21.220
594.41	21.138
594.75	21.294
595.08	21.403
595.42	21.506
595.75	21.189
596.09	21.780
596.42	22.122
596.75	21.486
597.09	22.208
597.42	20.995
597.75	21.690
598.09	21.913
598.42	21.778
598.76	21.727
599.09	20.601
599.42	20.415
599.76	20.644
600.09	20.583
600.42	20.343
600.76	20.107
601.09	20.984
601.42	21.347
601.76	20.759
602.09	20.791
602.42	20.900
602.76	21.725
603.09	21.046
603.42	20.734
603.76	20.846
604.09	20.279
604.42	21.362
604.76	22.143
605.09	21.319
605.42	20.222
605.75	20.406
606.09	20.008
606.42	20.229
606.75	20.614
607.09	20.511
607.42	20.796
607.75	20.675
608.08	20.669
608.42	21.336
608.75	21.416
609.08	20.490
609.41	21.133
609.75	21.296
610.08	21.254
610.41	20.531
610.74	20.766
611.07	21.294
611.41	21.246
611.74	21.518
612.07	21.377
612.40	21.668
612.73	21.263
613.07	22.091
613.40	22.328
613.73	21.447
614.06	21.398
614.39	21.395
614.72	21.789
615.06	21.586
615.39	20.807
615.72	21.012
616.05	20.255
616.38	21.568
616.71	22.268
617.05	21.790
617.38	21.768
617.71	20.841
618.04	22.055
618.37	21.348
618.70	20.971
619.03	22.368
619.36	22.064
619.69	22.394
620.03	21.909
620.36	22.326
620.69	21.644
621.02	22.861
621.35	21.770
621.68	21.729
622.01	22.910
622.34	22.088
622.67	21.901
623.00	21.937
623.33	20.372
623.66	22.230
623.99	21.355
624.32	21.541
624.65	22.246
624.99	20.963
625.32	21.506
625.65	22.014
625.98	22.982
626.31	22.784
626.64	22.531
626.97	22.028
627.30	22.028
627.63	23.790
627.96	24.054
628.29	22.485
628.62	23.879
628.95	24.717
629.28	22.354
629.61	23.648
629.94	23.810
630.26	22.974
630.59	22.593
630.92	22.414
631.25	22.409
631.58	23.524
631.91	23.225
632.24	22.679
632.57	22.875
632.90	22.368
633.23	23.154
633.56	23.051
633.89	23.783
634.22	25.199
634.55	22.367
634.88	22.515
635.20	24.373
635.53	24.699
635.86	24.381
636.19	23.059
636.52	22.837
636.85	22.910
637.18	23.157
637.51	24.113
637.83	21.332
638.16	24.425
638.49	24.307
638.82	22.756
639.15	22.250
639.48	23.940
639.81	24.263
640.13	23.958
640.46	24.832
640.79	23.118
641.12	24.209
641.45	25.419
641.77	24.006
642.10	25.585
642.43	24.174
642.76	23.839
643.09	25.767
643.41	23.824
643.74	26.543
644.07	23.780
644.40	26.380
644.73	25.197
645.05	25.040
645.38	24.487
645.71	23.027
646.04	23.920
646.36	27.212
646.69	25.920
647.02	24.490
647.35	26.632
647.67	23.894
648.00	25.203
648.33	24.917
648.66	22.121
648.98	27.436
649.31	23.169
649.64	24.963
649.96	25.037
650.29	25.276
650.62	25.405
650.94	27.066
651.27	25.845
651.60	24.792
651.92	25.399
652.25	25.407
652.58	24.611
652.90	23.697
653.23	22.034
653.56	23.780
653.88	26.149
654.21	24.487
654.54	24.917
654.86	25.234
655.19	22.432
655.52	16.079
655.84	14.533
656.17	18.553
656.49	25.719
656.82	26.863
657.15	21.498
657.47	16.107
657.80	12.681
658.13	13.440
658.45	20.346
658.78	20.646
659.10	21.723
659.43	22.532
659.75	22.823
660.08	23.861
660.41	24.302
660.73	24.142
661.06	23.408
661.38	27.091
661.71	26.346
662.03	28.402
662.36	26.640
662.68	26.506
663.01	29.495
663.33	24.204
663.66	26.050
663.98	27.214
664.31	25.420
664.63	25.304
664.96	26.559
665.28	28.074
665.61	24.172
665.93	24.346
666.26	25.761
666.58	25.105
666.91	27.484
667.23	28.539
667.56	24.838
667.88	25.855
668.21	26.439
668.53	27.983
668.86	26.190
669.18	28.358
669.50	28.043
669.83	28.976
670.15	29.556
670.48	25.272
670.80	28.017
671.13	26.327
671.45	24.043
671.77	27.495
672.10	26.063
672.42	24.382
672.75	24.710
673.07	23.944
673.39	23.146
673.72	24.609
674.04	23.922
674.37	22.330
674.69	25.767
675.01	25.314
675.34	28.337
675.66	28.000
675.98	27.088
676.31	25.210
676.63	26.752
676.95	26.625
677.28	24.065
677.60	26.593
677.92	27.637
678.25	25.462
678.57	25.498
678.89	24.649
679.22	25.147
679.54	25.954
679.86	24.220
680.18	24.508
680.51	25.177
680.83	23.132
681.15	24.340
681.48	25.898
681.80	25.532
682.12	24.330
682.44	21.857
682.77	25.051
683.09	29.828
683.41	25.499
683.73	23.620
684.06	26.033
684.38	23.483
684.70	24.806
685.02	24.578
685.34	24.176
685.67	23.427
685.99	21.306
686.31	23.720
686.63	22.261
686.96	22.857
687.28	24.368
687.60	22.645
687.92	23.766
688.24	23.954
688.56	24.096
688.89	25.104
689.21	27.511
689.53	24.635
689.85	26.829
690.17	22.981
690.49	23.355
690.82	27.804
691.14	25.670
691.46	23.840
691.78	23.494
692.10	24.587
692.42	28.144
692.74	23.859
693.06	24.894
693.39	26.899
693.71	24.891
694.03	22.737
694.35	25.108
694.67	27.002
694.99	28.780
695.31	24.755
695.63	25.837
695.95	23.472
696.27	26.142
696.59	25.130
696.91	28.756
697.23	20.892
697.56	24.520
697.88	22.495
698.20	25.417
698.52	27.742
698.84	24.499
699.16	24.654
699.48	24.703
699.80	28.019
700.12	27.532
700.44	25.199
700.76	27.901
701.08	30.460
701.40	25.140
701.72	27.405
702.04	32.102
702.36	26.062
702.68	27.762
703.00	27.424
703.32	24.468
703.64	28.954
703.96	24.791
704.28	27.616
704.60	28.152
704.91	31.751
705.23	29.912
705.55	32.558
705.87	30.565
706.19	27.562
706.51	28.660
706.83	28.485
707.15	31.653
707.47	25.000
707.79	25.061
708.11	25.799
708.43	24.286
708.74	25.510
709.06	28.831
709.38	27.822
709.70	29.070
710.02	27.300
710.34	26.970
710.66	28.657
710.98	27.557
711.29	27.616
711.61	28.909
711.93	26.282
712.25	27.653
712.57	31.985
712.89	29.412
713.20	26.140
713.52	27.632
713.84	27.848
714.16	27.134
714.48	28.161
714.80	31.915
715.11	25.937
715.43	26.113
715.75	28.116
716.07	26.518
716.39	24.765
716.70	27.907
717.02	30.576
717.34	31.449
717.66	31.343
717.97	34.661
718.29	28.519
718.61	28.467
718.93	30.147
719.24	32.526
719.56	28.814
719.88	29.492
720.20	28.041
720.51	28.223
720.83	32.714
721.15	27.239
721.46	24.823
721.78	28.315
722.10	29.434
722.42	27.068
722.73	33.333
723.05	28.279
723.37	28.745
723.68	28.958
724.00	27.642
724.32	31.855
724.63	29.268
724.95	34.728
725.27	34.008
725.58	30.469
725.90	33.212
726.22	28.679
726.53	32.639
726.85	26.280
727.16	28.470
727.48	27.305
727.80	27.652
728.11	28.261
728.43	30.385
728.74	25.806
729.06	32.117
729.38	30.882
729.69	30.605
730.01	26.962
730.32	28.819
730.64	29.766
730.96	24.092
731.27	28.146
731.59	27.217
731.90	27.114
732.22	24.224
732.53	28.173
732.85	27.564
733.16	25.402
733.48	27.243
733.80	28.571
734.11	29.618
734.43	25.444
734.74	25.429
735.06	26.648
735.37	32.370
735.69	26.433
736.00	27.124
736.32	27.726
736.63	26.198
736.95	29.712
737.26	22.109
737.58	23.548
737.89	29.097
738.21	27.304
738.52	27.143
738.83	27.925
739.15	26.538
739.46	31.752
739.78	25.347
740.09	25.231
740.41	25.806
740.72	24.739
741.04	28.148
741.35	29.583
741.66	34.222
741.98	29.245
742.29	32.057
742.61	34.483
742.92	33.032
743.23	30.769
743.55	32.000
743.86	27.193
744.18	32.743
744.49	33.493
744.80	35.211
745.12	42.727
745.43	32.159
745.74	33.784
746.06	31.651
746.37	36.323
746.68	35.294
747.00	35.185
747.31	33.810
747.62	28.761
747.94	32.599
748.25	24.681
748.56	31.718
748.88	34.158
749.19	36.500
749.50	34.419
749.82	27.642
750.13	25.306
750.44	25.547
750.75	31.228
751.07	32.154
751.38	31.707
751.69	29.603
752.01	27.068
752.32	32.491
752.63	30.851
752.94	31.967
753.26	34.400
753.57	26.423
753.88	28.906
754.19	26.786
754.51	31.597
754.82	26.354
755.13	32.453
755.44	25.188
755.75	31.022
756.07	27.305
756.38	24.088
756.69	27.181
757.00	27.246
757.31	24.332
757.63	22.807
757.94	24.397
758.25	24.020
758.56	21.728
758.87	23.387
759.18	27.879
759.50	27.586
759.81	25.857
760.12	24.062
760.43	25.215
760.74	23.098
761.05	27.966
761.36	22.193
761.67	28.977
761.99	26.708
762.30	28.472
762.61	29.771
762.92	31.641
763.23	25.210
763.54	30.000
763.85	29.297
764.16	33.077
764.47	32.319
764.78	26.855
765.10	24.684
765.41	28.319
765.72	25.749
766.03	28.527
766.34	29.000
766.65	25.957
766.96	30.342
767.27	40.102
767.58	36.979
767.89	41.053
768.20	39.655
768.51	29.442
768.82	31.193
769.13	28.049
769.44	23.482
769.75	30.043
770.06	25.688
770.37	32.127
770.68	34.259
770.99	32.000
771.30	25.820
771.61	27.803
771.92	27.869
772.23	38.655
772.54	31.795
772.85	31.937
773.16	35.106
773.47	38.587
773.78	34.518
774.09	36.905
774.39	41.520
774.70	38.272
775.01	42.029
775.32	42.484
775.63	40.789
775.94	38.129
776.25	43.307
776.56	47.761
776.87	49.180
777.18	42.188
777.48	44.275
777.79	40.152
778.10	41.481
778.41	49.107
778.72	35.036
779.03	35.570
779.34	37.584
779.65	40.541
779.95	31.902
780.26	43.791
780.57	43.448
780.88	49.219
781.19	44.361
781.50	42.568
781.80	47.170
782.11	26.554
782.42	39.241
782.73	37.423
783.04	43.919
783.34	37.324
783.65	45.205
783.96	47.015
784.27	41.259
784.57	38.849
784.88	24.074
785.19	56.349
785.50	36.792
785.81	50.000
786.11	49.180
786.42	47.287
786.73	39.823
787.04	40.566
787.34	47.321
787.65	59.000
787.96	44.144
788.26	39.669
788.57	44.068
788.88	47.934
789.19	45.833
789.49	46.970
789.80	50.382
790.11	55.238
790.41	57.426
790.72	57.831
791.03	44.565
791.33	62.791
791.64	67.010
791.95	53.465
792.25	58.889
792.56	41.558
792.87	71.795
793.17	75.949
793.48	71.264
793.79	54.023
794.09	46.591
794.40	42.017
794.70	45.588
795.01	36.296
795.32	38.129
795.62	43.307
795.93	41.379
796.23	41.593
796.54	49.412
796.85	62.162
797.15	87.324
797.46	62.121
797.76	66.265
798.07	72.152
798.37	67.692
798.68	65.152
798.99	57.746
799.29	57.143
799.60	50.000
799.90	63.014
800.21	67.164
800.51	89.655
800.82	89.474
801.12	77.049
801.43	77.273
801.73	71.622
802.04	76.190
802.34	61.728
802.65	70.312
802.95	71.186
803.26	75.000
803.56	52.857
803.87	67.692
804.17	69.118
804.48	83.333
804.78	70.690
805.09	58.824
805.39	73.077
805.70	58.929
806.00	78.689
806.30	68.182
806.61	59.756
806.91	49.367
807.22	47.368
807.52	38.806
807.83	63.380
808.13	59.375
808.43	68.333
808.74	63.158
809.04	65.217
809.35	77.612
809.65	71.053
809.95	88.710
810.26	64.407
810.56	71.429
810.86	113.636
811.17	85.714
811.47	75.000
811.77	85.185
812.08	89.091
812.38	90.000
812.69	80.556
812.99	102.273
813.29	89.796
813.59	85.714
813.90	91.837
814.20	74.545
814.50	66.154
814.81	88.235
815.11	87.755
815.41	68.852
815.72	130.952
816.02	76.364
816.32	104.762
816.62	95.000
816.93	107.317
817.23	128.571
817.53	77.273
817.84	133.333
818.14	113.043
818.44	75.556
818.74	141.176
819.04	100.000
819.35	88.571
819.65	114.706
819.95	139.286
820.25	125.000
820.56	117.949
820.86	104.545
821.16	118.605
821.46	110.256
821.76	96.000
822.07	88.571
822.37	102.500
822.67	136.364
822.97	84.314
823.27	164.286
823.57	116.216
823.88	145.000
824.18	166.667
824.48	126.190
824.78	168.000
825.08	91.667
825.38	121.622
825.69	70.732
825.99	162.500
826.29	120.690
826.59	102.632
826.89	121.053
827.19	126.471
827.49	141.935
827.79	109.091
828.09	100.000
828.39	95.745
828.70	93.878
829.00	129.630
829.30	119.355
829.60	100.000
829.90	233.333
830.20	103.571
830.50	165.217
830.80	204.348
831.10	130.000
831.40	136.667
831.70	126.087
832.00	138.462
832.30	114.815
832.60	250.000
832.90	190.000
833.20	228.571
833.50	138.710
833.80	131.034
834.10	134.375
834.40	153.846
834.70	250.000
835.00	185.714
835.30	131.429
835.60	200.000
835.90	165.517
836.20	192.857
836.50	165.517
836.80	132.000
837.10	125.000
837.40	195.238
837.70	235.294
838.00	151.852
838.30	161.905
838.60	204.762
838.90	153.846
839.19	165.000
839.49	300.000
839.79	230.000
840.09	190.000
840.39	171.429
840.69	160.870
840.99	216.667
841.29	370.000
841.59	233.333
841.88	250.000
842.18	172.414
842.48	219.048
842.78	163.333
843.08	182.609
843.38	153.125
843.68	583.333
843.97	169.231
844.27	124.138
844.57	233.333
844.87	268.750
845.17	122.222
845.47	1500.000
845.76	233.333
846.06	235.294
846.36	225.000
846.66	235.714
846.96	187.500
847.25	345.455
847.55	254.545
847.85	186.957
848.15	320.000
848.44	321.429
848.74	172.222
849.04	264.706
849.34	440.000
849.63	178.947
849.93	300.000
850.23	800.000
850.53	271.429
850.82	1400.000
851.12	-2700.000
851.42	3200.000
851.71	250.000
852.01	-500.000
852.31	175.000
852.61	1266.667
852.90	195.238
853.20	168.000
853.50	247.059
853.79	185.714
854.09	133.333
854.39	237.500
854.68	143.243
854.98	119.355
855.28	126.667
855.57	179.310
855.87	151.852
856.17	163.158
856.46	200.000
856.76	223.529
857.05	141.379
857.35	187.500
857.65	260.000
857.94	147.826
858.24	196.154
858.53	190.000
858.83	177.273
859.13	280.000
859.42	0.000
859.72	422.222
860.01	272.727
860.31	204.545
860.60	231.579
860.90	182.609
861.20	444.444
861.49	350.000
861.79	-3100.000
862.08	587.500
862.38	219.048
862.67	200.000
862.97	294.118
863.26	433.333
863.56	222.222
863.85	258.333
864.15	362.500
864.44	313.333
864.74	533.333
865.03	450.000
865.33	210.526
865.62	345.455
865.92	307.692
866.21	208.333
866.51	0.000
866.80	272.727
867.10	680.000
867.39	338.462
867.69	354.545
867.98	142.105
868.27	281.818
868.57	247.368
868.86	-2500.000
869.16	287.500
869.45	1350.000
869.75	-2800.000
870.04	316.667
870.33	371.429
870.63	750.000
870.92	1550.000
871.22	557.143
871.51	270.588
871.80	166.667
872.10	328.571
>>>>>End Processed Spectral Data<<<<<
