SpectraSuite Data File
++++++++++++++++++++++++++++++++++++
Date: Wed May 13 20:34:17 PDT 2015
User: schluterlab
Dark Spectrum Present: Yes
Reference Spectrum Present: Yes
Number of Sampled Component Spectra: 1
Spectrometers: USB2E3373
Integration Time (usec): 3000 (USB2E3373)
Spectra Averaged: 3 (USB2E3373)
Boxcar Smoothing: 0 (USB2E3373)
Correct for Electrical Dark: No (USB2E3373)
Strobe/Lamp Enabled: No (USB2E3373)
Correct for Detector Non-linearity: No (USB2E3373)
Correct for Stray Light: No (USB2E3373)
Number of Pixels in Processed Spectrum: 2048
>>>>>Begin Processed Spectral Data<<<<<
178.53	0.000
178.91	-1075.000
179.29	-875.000
179.67	-111.111
180.04	-1025.000
180.42	1500.000
180.80	860.000
181.18	-725.000
181.56	442.857
181.94	0.000
182.31	-328.571
182.69	1300.000
183.07	-475.000
183.45	-322.222
183.83	454.545
184.20	-190.000
184.58	1550.000
184.96	3900.000
185.34	-540.000
185.72	-400.000
186.09	-1550.000
186.47	1750.000
186.85	1550.000
187.23	2800.000
187.61	-1466.667
187.98	975.000
188.36	472.727
188.74	372.727
189.12	-540.000
189.49	380.000
189.87	-3800.000
190.25	-650.000
190.63	314.286
191.00	353.846
191.38	666.667
191.76	-925.000
192.14	1425.000
192.51	512.500
192.89	716.667
193.27	387.500
193.65	-725.000
194.02	410.000
194.40	540.000
194.78	380.000
195.15	333.333
195.53	430.000
195.91	-1600.000
196.29	237.500
196.66	305.263
197.04	-130.000
197.42	0.000
197.79	400.000
198.17	-2700.000
198.55	428.571
198.92	475.000
199.30	700.000
199.68	0.000
200.05	283.333
200.43	557.143
200.81	3600.000
201.18	1166.667
201.56	-1066.667
201.94	488.889
202.31	400.000
202.69	291.667
203.07	320.000
203.44	0.000
203.82	950.000
204.19	571.429
204.57	300.000
204.95	437.500
205.32	1066.667
205.70	354.545
206.08	292.857
206.45	1800.000
206.83	237.500
207.20	433.333
207.58	560.000
207.96	205.556
208.33	600.000
208.71	-400.000
209.08	600.000
209.46	388.889
209.84	390.909
210.21	-1166.667
210.59	1050.000
210.96	-400.000
211.34	2100.000
211.71	430.000
212.09	466.667
212.46	0.000
212.84	1033.333
213.22	900.000
213.59	-2100.000
213.97	550.000
214.34	728.571
214.72	381.818
215.09	540.000
215.47	-1600.000
215.84	-1800.000
216.22	1366.667
216.59	300.000
216.97	900.000
217.34	345.455
217.72	-550.000
218.09	0.000
218.47	-4200.000
218.84	444.444
219.22	585.714
219.59	1333.333
219.97	-371.429
220.34	800.000
220.72	-1566.667
221.09	292.857
221.47	1100.000
221.84	-666.667
222.22	0.000
222.59	1250.000
222.97	-1900.000
223.34	620.000
223.72	330.769
224.09	740.000
224.46	1800.000
224.84	-2800.000
225.21	-740.000
225.59	-3600.000
225.96	520.000
226.34	235.000
226.71	1850.000
227.08	625.000
227.46	390.000
227.83	-750.000
228.21	-1350.000
228.58	444.444
228.95	-2000.000
229.33	-1200.000
229.70	1200.000
230.08	600.000
230.45	-720.000
230.82	341.667
231.20	650.000
231.57	585.714
231.95	366.667
232.32	159.091
232.69	263.636
233.07	542.857
233.44	300.000
233.81	-966.667
234.19	242.105
234.56	325.000
234.93	275.000
235.31	236.364
235.68	246.154
236.05	171.429
236.43	139.394
236.80	178.947
237.17	2500.000
237.55	138.095
237.92	142.857
238.29	119.048
238.67	96.774
239.04	120.690
239.41	91.667
239.79	78.261
240.16	107.143
240.53	77.273
240.91	45.098
241.28	70.000
241.65	56.000
242.02	82.609
242.40	70.968
242.77	51.667
243.14	41.935
243.51	40.449
243.89	42.353
244.26	31.111
244.63	50.538
245.00	38.298
245.38	33.663
245.75	28.037
246.12	28.440
246.49	40.146
246.87	32.800
247.24	33.077
247.61	30.000
247.98	26.797
248.36	20.946
248.73	29.936
249.10	29.299
249.47	24.294
249.84	25.134
250.22	21.925
250.59	21.302
250.96	29.798
251.33	19.905
251.70	25.248
252.08	18.571
252.45	17.040
252.82	16.087
253.19	19.574
253.56	21.176
253.94	24.066
254.31	19.922
254.68	20.385
255.05	15.498
255.42	19.106
255.79	13.603
256.16	20.217
256.54	15.548
256.91	18.149
257.28	10.791
257.65	16.172
258.02	17.081
258.39	17.350
258.76	14.381
259.14	17.262
259.51	14.590
259.88	13.354
260.25	14.199
260.62	14.451
260.99	12.733
261.36	14.114
261.73	13.181
262.10	10.465
262.47	13.521
262.85	13.928
263.22	9.972
263.59	18.803
263.96	13.187
264.33	14.360
264.70	11.579
265.07	12.532
265.44	11.111
265.81	10.949
266.18	12.814
266.55	12.683
266.92	11.794
267.29	12.037
267.66	11.009
268.03	12.273
268.40	13.084
268.77	8.592
269.14	11.486
269.51	13.770
269.88	9.790
270.25	11.738
270.62	10.337
270.99	10.968
271.36	13.090
271.73	10.047
272.10	9.783
272.47	12.473
272.84	11.255
273.21	11.950
273.58	8.734
273.95	8.595
274.32	12.397
274.69	10.707
275.06	10.827
275.43	10.638
275.80	9.419
276.17	9.165
276.54	12.266
276.91	11.265
277.28	9.375
277.65	10.445
278.02	8.075
278.39	13.672
278.76	11.273
279.13	8.868
279.50	10.428
279.87	9.163
280.23	9.980
280.60	10.251
280.97	9.427
281.34	12.389
281.71	11.091
282.08	11.132
282.45	8.909
282.82	10.124
283.19	9.091
283.56	10.175
283.92	10.152
284.29	8.466
284.66	8.893
285.03	8.318
285.40	8.803
285.77	8.586
286.14	8.636
286.51	12.333
286.87	10.256
287.24	11.401
287.61	9.631
287.98	10.065
288.35	9.984
288.72	8.879
289.08	9.390
289.45	8.731
289.82	9.431
290.19	8.006
290.56	7.810
290.93	8.006
291.29	8.589
291.66	8.997
292.03	10.029
292.40	8.664
292.77	8.580
293.13	9.254
293.50	8.163
293.87	7.407
294.24	8.000
294.60	7.132
294.97	8.285
295.34	9.309
295.71	8.807
296.08	7.407
296.44	7.840
296.81	6.605
297.18	7.724
297.55	6.201
297.91	6.201
298.28	8.434
298.65	7.833
299.02	8.827
299.38	7.171
299.75	6.065
300.12	5.875
300.48	8.000
300.85	7.522
301.22	6.242
301.59	6.313
301.95	7.305
302.32	5.905
302.69	7.288
303.05	6.545
303.42	5.309
303.79	7.248
304.15	5.594
304.52	5.794
304.89	6.620
305.25	6.961
305.62	8.154
305.99	7.084
306.35	7.383
306.72	6.839
307.09	6.770
307.45	7.995
307.82	5.246
308.19	6.402
308.55	6.041
308.92	6.122
309.29	6.019
309.65	5.938
310.02	5.814
310.38	6.237
310.75	6.125
311.12	7.677
311.48	6.374
311.85	7.128
312.22	7.076
312.58	5.509
312.95	7.286
313.31	5.922
313.68	6.549
314.05	9.073
314.41	7.638
314.78	6.546
315.14	7.746
315.51	7.930
315.87	7.921
316.24	7.150
316.61	6.920
316.97	6.458
317.34	6.556
317.70	8.222
318.07	8.373
318.43	8.513
318.80	8.810
319.16	9.040
319.53	8.537
319.89	9.524
320.26	10.800
320.62	10.714
320.99	10.505
321.35	10.202
321.72	12.526
322.08	10.760
322.45	12.537
322.81	13.081
323.18	12.139
323.54	12.152
323.91	14.528
324.27	13.193
324.64	13.886
325.00	13.616
325.37	15.560
325.73	15.350
326.10	14.916
326.46	14.427
326.83	15.617
327.19	15.884
327.56	15.331
327.92	16.885
328.29	16.681
328.65	15.101
329.01	17.148
329.38	16.836
329.74	15.882
330.11	16.871
330.47	17.539
330.84	17.371
331.20	17.122
331.56	17.248
331.93	16.944
332.29	18.279
332.66	18.584
333.02	17.459
333.38	18.248
333.75	18.093
334.11	17.705
334.48	17.036
334.84	17.371
335.20	18.000
335.57	16.591
335.93	16.429
336.29	17.582
336.66	17.313
337.02	17.195
337.38	18.333
337.75	17.469
338.11	17.010
338.47	18.140
338.84	19.432
339.20	16.972
339.56	17.974
339.93	16.091
340.29	17.482
340.65	18.004
341.02	18.935
341.38	17.438
341.74	17.632
342.11	17.729
342.47	18.062
342.83	17.295
343.20	17.576
343.56	16.765
343.92	16.579
344.28	17.347
344.65	18.057
345.01	16.667
345.37	15.952
345.73	17.005
346.10	17.306
346.46	17.373
346.82	16.886
347.19	15.873
347.55	16.502
347.91	16.909
348.27	17.502
348.63	17.057
349.00	16.909
349.36	16.667
349.72	15.958
350.08	15.559
350.45	17.413
350.81	16.572
351.17	16.613
351.53	16.462
351.89	15.347
352.26	16.496
352.62	16.359
352.98	16.207
353.34	16.352
353.70	15.630
354.07	16.048
354.43	15.238
354.79	15.688
355.15	16.281
355.51	15.907
355.87	15.837
356.24	17.020
356.60	15.076
356.96	16.573
357.32	16.026
357.68	15.354
358.04	15.360
358.40	15.519
358.77	15.493
359.13	14.838
359.49	14.980
359.85	15.159
360.21	14.673
360.57	15.953
360.93	15.154
361.29	15.042
361.66	13.700
362.02	15.672
362.38	15.361
362.74	15.551
363.10	14.138
363.46	14.674
363.82	14.210
364.18	15.345
364.54	14.339
364.90	15.368
365.26	15.221
365.62	15.047
365.98	13.733
366.35	13.610
366.71	14.895
367.07	14.202
367.43	14.514
367.79	14.918
368.15	14.511
368.51	14.244
368.87	13.847
369.23	14.557
369.59	14.337
369.95	13.529
370.31	14.387
370.67	14.203
371.03	14.382
371.39	13.921
371.75	14.632
372.11	14.225
372.47	14.223
372.83	14.914
373.19	13.584
373.55	14.117
373.91	14.580
374.27	13.608
374.63	13.382
374.99	14.901
375.35	13.538
375.71	13.639
376.07	14.815
376.42	13.067
376.78	14.248
377.14	13.908
377.50	13.775
377.86	13.298
378.22	13.717
378.58	13.158
378.94	13.199
379.30	13.168
379.66	13.832
380.02	13.943
380.38	13.054
380.74	14.226
381.09	13.692
381.45	14.075
381.81	13.636
382.17	13.185
382.53	12.390
382.89	14.321
383.25	13.759
383.61	13.321
383.97	14.009
384.32	12.851
384.68	12.515
385.04	12.723
385.40	13.251
385.76	13.329
386.12	12.824
386.48	12.964
386.83	13.470
387.19	13.544
387.55	12.492
387.91	11.911
388.27	13.059
388.62	13.645
388.98	12.408
389.34	13.329
389.70	12.692
390.06	13.752
390.42	12.387
390.77	13.677
391.13	12.380
391.49	14.150
391.85	12.794
392.20	12.366
392.56	12.437
392.92	12.949
393.28	11.598
393.64	12.770
393.99	13.134
394.35	12.221
394.71	12.296
395.07	12.087
395.42	12.114
395.78	12.850
396.14	13.097
396.50	12.970
396.85	13.096
397.21	12.330
397.57	12.647
397.92	12.680
398.28	11.379
398.64	12.485
399.00	12.311
399.35	12.014
399.71	13.252
400.07	11.650
400.42	13.006
400.78	12.847
401.14	12.256
401.49	12.060
401.85	11.615
402.21	12.156
402.57	11.906
402.92	12.736
403.28	12.117
403.63	12.376
403.99	11.083
404.35	12.061
404.70	11.631
405.06	11.939
405.42	12.227
405.77	10.971
406.13	12.302
406.49	12.005
406.84	12.345
407.20	11.407
407.55	12.572
407.91	11.733
408.27	11.678
408.62	11.981
408.98	12.071
409.34	11.685
409.69	12.323
410.05	12.020
410.40	11.988
410.76	10.992
411.11	12.666
411.47	11.182
411.83	11.607
412.18	12.059
412.54	11.519
412.89	11.807
413.25	12.338
413.60	12.724
413.96	11.658
414.31	11.786
414.67	12.357
415.03	11.391
415.38	12.049
415.74	11.961
416.09	11.888
416.45	11.245
416.80	11.765
417.16	12.534
417.51	11.480
417.87	10.533
418.22	11.356
418.58	11.879
418.93	11.425
419.29	12.222
419.64	12.154
420.00	11.463
420.35	11.536
420.71	11.536
421.06	11.635
421.42	11.287
421.77	11.771
422.12	10.949
422.48	11.225
422.83	10.833
423.19	11.989
423.54	11.492
423.90	11.652
424.25	11.502
424.61	11.131
424.96	11.778
425.31	11.130
425.67	10.899
426.02	11.029
426.38	12.393
426.73	11.527
427.09	11.185
427.44	11.041
427.79	11.213
428.15	11.310
428.50	11.644
428.85	12.396
429.21	10.933
429.56	10.938
429.92	11.072
430.27	11.221
430.62	10.241
430.98	10.742
431.33	10.876
431.68	11.257
432.04	11.502
432.39	10.908
432.74	11.071
433.10	11.602
433.45	10.845
433.80	10.698
434.16	11.699
434.51	10.895
434.86	11.460
435.22	11.062
435.57	11.185
435.92	10.825
436.28	11.862
436.63	11.700
436.98	11.048
437.34	11.032
437.69	11.610
438.04	11.074
438.39	11.045
438.75	11.447
439.10	11.844
439.45	10.921
439.81	10.151
440.16	11.519
440.51	11.775
440.86	11.870
441.22	10.679
441.57	11.093
441.92	11.361
442.27	12.002
442.63	11.164
442.98	11.493
443.33	10.924
443.68	10.842
444.03	11.030
444.39	10.370
444.74	10.660
445.09	11.482
445.44	10.880
445.79	10.539
446.15	11.752
446.50	11.632
446.85	11.048
447.20	12.035
447.55	11.390
447.91	10.425
448.26	11.742
448.61	11.532
448.96	10.797
449.31	11.361
449.66	11.311
450.02	10.585
450.37	10.998
450.72	10.829
451.07	10.786
451.42	10.821
451.77	11.861
452.12	11.952
452.47	11.318
452.83	11.072
453.18	10.880
453.53	11.565
453.88	10.986
454.23	12.074
454.58	11.629
454.93	12.206
455.28	11.097
455.63	10.619
455.98	11.845
456.34	11.307
456.69	11.396
457.04	11.641
457.39	10.929
457.74	11.201
458.09	11.961
458.44	11.060
458.79	10.358
459.14	11.061
459.49	12.259
459.84	11.191
460.19	10.725
460.54	11.053
460.89	11.081
461.24	10.565
461.59	11.912
461.94	11.282
462.29	11.869
462.64	11.742
462.99	11.191
463.34	12.200
463.69	11.757
464.04	11.710
464.39	12.000
464.74	11.230
465.09	10.615
465.44	10.416
465.79	10.626
466.14	11.330
466.49	10.567
466.84	11.442
467.19	11.467
467.54	11.375
467.89	11.285
468.24	11.169
468.59	12.271
468.94	11.423
469.29	11.118
469.64	12.985
469.99	11.299
470.34	11.162
470.68	10.991
471.03	10.952
471.38	11.744
471.73	11.526
472.08	12.039
472.43	10.867
472.78	10.797
473.13	10.911
473.48	11.298
473.83	10.488
474.17	11.450
474.52	10.670
474.87	12.026
475.22	11.201
475.57	10.908
475.92	10.834
476.27	10.710
476.61	11.031
476.96	11.105
477.31	10.413
477.66	10.886
478.01	10.664
478.36	10.947
478.70	10.903
479.05	10.543
479.40	10.798
479.75	10.320
480.10	10.388
480.45	10.138
480.79	9.699
481.14	10.078
481.49	10.109
481.84	10.197
482.19	10.086
482.53	10.183
482.88	10.470
483.23	10.888
483.58	10.828
483.92	10.169
484.27	9.499
484.62	10.345
484.97	10.091
485.31	10.034
485.66	8.972
486.01	8.714
486.36	8.895
486.70	9.133
487.05	8.863
487.40	9.448
487.75	9.474
488.09	9.645
488.44	9.706
488.79	9.620
489.13	10.008
489.48	9.666
489.83	9.754
490.17	10.609
490.52	10.363
490.87	9.950
491.22	10.095
491.56	9.795
491.91	9.819
492.26	9.554
492.60	10.415
492.95	9.448
493.30	9.953
493.64	9.939
493.99	9.889
494.34	10.731
494.68	10.256
495.03	9.586
495.37	10.517
495.72	9.893
496.07	10.348
496.41	9.912
496.76	10.422
497.11	9.905
497.45	9.921
497.80	10.125
498.14	9.372
498.49	10.146
498.84	10.642
499.18	10.095
499.53	9.829
499.87	9.879
500.22	10.080
500.56	10.534
500.91	10.048
501.26	10.242
501.60	10.252
501.95	9.533
502.29	9.888
502.64	9.823
502.98	9.771
503.33	9.141
503.67	10.394
504.02	9.775
504.36	9.920
504.71	9.477
505.06	10.072
505.40	10.647
505.75	9.450
506.09	9.524
506.44	9.719
506.78	10.229
507.13	9.541
507.47	10.606
507.82	10.638
508.16	10.182
508.51	10.350
508.85	9.335
509.19	9.541
509.54	10.000
509.88	9.531
510.23	9.409
510.57	10.578
510.92	9.477
511.26	9.558
511.61	10.581
511.95	9.290
512.30	9.332
512.64	10.210
512.98	10.718
513.33	10.225
513.67	9.392
514.02	9.145
514.36	10.377
514.70	10.238
515.05	9.314
515.39	10.376
515.74	9.741
516.08	9.950
516.42	10.433
516.77	10.424
517.11	9.878
517.46	9.876
517.80	10.046
518.14	9.959
518.49	9.452
518.83	10.341
519.17	10.566
519.52	9.734
519.86	10.211
520.20	10.405
520.55	10.652
520.89	9.428
521.23	10.615
521.58	10.204
521.92	10.104
522.26	10.067
522.61	10.405
522.95	10.190
523.29	10.347
523.64	10.610
523.98	9.489
524.32	10.374
524.66	9.922
525.01	9.620
525.35	9.789
525.69	9.791
526.04	10.031
526.38	9.945
526.72	10.429
527.06	9.605
527.41	8.601
527.75	10.547
528.09	9.955
528.43	10.516
528.78	10.326
529.12	10.667
529.46	10.410
529.80	10.025
530.15	10.280
530.49	9.785
530.83	9.620
531.17	10.183
531.51	11.284
531.86	9.806
532.20	10.039
532.54	10.442
532.88	10.719
533.22	9.307
533.57	9.444
533.91	10.054
534.25	9.842
534.59	10.555
534.93	9.756
535.27	9.777
535.62	9.402
535.96	9.918
536.30	8.900
536.64	10.109
536.98	9.688
537.32	9.677
537.66	10.200
538.01	9.612
538.35	9.696
538.69	9.828
539.03	8.902
539.37	9.329
539.71	8.555
540.05	10.458
540.39	9.900
540.73	9.638
541.07	10.318
541.42	10.241
541.76	10.387
542.10	11.125
542.44	9.404
542.78	10.672
543.12	9.405
543.46	9.770
543.80	10.020
544.14	9.564
544.48	9.587
544.82	9.365
545.16	10.345
545.50	10.026
545.84	9.005
546.18	9.630
546.52	10.323
546.86	9.966
547.20	10.856
547.54	10.154
547.88	9.821
548.22	9.651
548.56	10.000
548.90	9.795
549.24	9.495
549.58	9.754
549.92	9.066
550.26	9.730
550.60	9.544
550.94	8.380
551.28	9.071
551.62	9.849
551.96	9.333
552.30	10.444
552.64	9.398
552.98	10.576
553.32	10.317
553.66	9.952
554.00	10.226
554.34	9.386
554.68	9.371
555.02	10.367
555.36	10.160
555.69	9.811
556.03	10.162
556.37	9.004
556.71	9.141
557.05	9.874
557.39	10.217
557.73	9.951
558.07	10.152
558.41	8.973
558.75	10.360
559.08	9.993
559.42	9.221
559.76	10.000
560.10	9.136
560.44	9.434
560.78	8.051
561.12	9.828
561.45	11.017
561.79	9.690
562.13	9.658
562.47	9.768
562.81	9.414
563.15	9.231
563.48	9.615
563.82	9.263
564.16	8.698
564.50	8.789
564.84	9.735
565.17	9.524
565.51	9.329
565.85	9.518
566.19	8.704
566.52	8.930
566.86	8.861
567.20	9.434
567.54	8.847
567.88	8.474
568.21	9.312
568.55	8.544
568.89	7.879
569.23	8.512
569.56	8.340
569.90	8.189
570.24	8.432
570.57	8.024
570.91	8.080
571.25	8.153
571.59	7.894
571.92	7.517
572.26	7.452
572.60	7.508
572.93	7.736
573.27	7.986
573.61	7.984
573.95	7.649
574.28	7.312
574.62	7.604
574.96	7.288
575.29	7.420
575.63	7.393
575.97	7.368
576.30	7.594
576.64	7.278
576.98	7.098
577.31	7.255
577.65	6.992
577.98	7.077
578.32	7.149
578.66	7.023
578.99	7.647
579.33	7.238
579.67	7.103
580.00	7.288
580.34	7.285
580.67	7.421
581.01	7.623
581.35	7.118
581.68	7.142
582.02	6.979
582.35	6.854
582.69	7.258
583.02	7.156
583.36	7.401
583.70	7.168
584.03	7.393
584.37	7.536
584.70	7.445
585.04	7.534
585.37	7.339
585.71	7.519
586.04	7.586
586.38	7.288
586.72	7.898
587.05	7.281
587.39	7.546
587.72	7.627
588.06	7.311
588.39	7.407
588.73	7.275
589.06	7.728
589.40	7.710
589.73	7.955
590.07	7.794
590.40	7.490
590.73	7.572
591.07	7.937
591.40	8.646
591.74	8.182
592.07	7.941
592.41	8.020
592.74	8.165
593.08	7.662
593.41	7.687
593.75	7.495
594.08	7.643
594.41	7.777
594.75	7.468
595.08	7.910
595.42	7.776
595.75	7.336
596.09	7.886
596.42	8.369
596.75	8.316
597.09	8.225
597.42	7.462
597.75	7.848
598.09	8.174
598.42	8.033
598.76	7.215
599.09	7.716
599.42	7.751
599.76	7.650
600.09	7.796
600.42	7.670
600.76	7.750
601.09	7.577
601.42	7.725
601.76	7.818
602.09	7.470
602.42	7.922
602.76	8.263
603.09	7.592
603.42	7.497
603.76	7.546
604.09	7.212
604.42	7.705
604.76	8.351
605.09	7.864
605.42	7.311
605.75	8.237
606.09	7.401
606.42	7.724
606.75	7.549
607.09	8.372
607.42	8.087
607.75	7.173
608.08	7.555
608.42	8.158
608.75	8.431
609.08	8.372
609.41	7.996
609.75	8.480
610.08	7.917
610.41	7.402
610.74	7.852
611.07	8.251
611.41	8.243
611.74	8.597
612.07	8.437
612.40	8.552
612.73	8.421
613.07	8.567
613.40	8.583
613.73	7.446
614.06	8.602
614.39	8.600
614.72	8.632
615.06	8.193
615.39	8.015
615.72	8.384
616.05	7.921
616.38	7.949
616.71	8.670
617.05	8.775
617.38	8.419
617.71	8.649
618.04	8.293
618.37	8.634
618.70	8.836
619.03	9.474
619.36	9.233
619.69	10.070
620.03	9.753
620.36	9.358
620.69	10.000
621.02	9.071
621.35	8.927
621.68	8.411
622.01	8.978
622.34	9.607
622.67	8.365
623.00	8.951
623.33	8.863
623.66	9.078
623.99	8.247
624.32	8.845
624.65	9.605
624.99	8.003
625.32	8.400
625.65	9.166
625.98	8.686
626.31	10.031
626.64	9.061
626.97	9.227
627.30	8.894
627.63	9.844
627.96	10.008
628.29	9.274
628.62	10.430
628.95	10.755
629.28	10.128
629.61	9.716
629.94	10.000
630.26	9.914
630.59	10.200
630.92	10.728
631.25	9.674
631.58	9.910
631.91	10.345
632.24	10.232
632.57	10.283
632.90	9.978
633.23	11.186
633.56	11.525
633.89	11.212
634.22	10.783
634.55	12.071
634.88	10.539
635.20	12.067
635.53	11.687
635.86	11.015
636.19	9.765
636.52	10.265
636.85	10.424
637.18	10.253
637.51	11.584
637.83	8.755
638.16	9.207
638.49	9.446
638.82	12.769
639.15	12.375
639.48	12.469
639.81	10.590
640.13	11.328
640.46	11.946
640.79	11.625
641.12	11.417
641.45	11.732
641.77	11.340
642.10	10.380
642.43	10.511
642.76	11.765
643.09	13.497
643.41	12.747
643.74	12.809
644.07	11.433
644.40	11.656
644.73	13.858
645.05	12.837
645.38	10.900
645.71	12.399
646.04	12.791
646.36	15.192
646.69	12.375
647.02	13.435
647.35	15.636
647.67	13.982
648.00	14.634
648.33	12.211
648.66	11.515
648.98	12.744
649.31	10.463
649.64	11.211
649.96	11.624
650.29	10.427
650.62	11.003
650.94	13.290
651.27	12.838
651.60	13.977
651.92	12.939
652.25	9.935
652.58	11.371
652.90	13.428
653.23	11.248
653.56	10.236
653.88	12.520
654.21	12.638
654.54	11.221
654.86	13.240
655.19	11.351
655.52	6.635
655.84	5.506
656.17	6.547
656.49	9.028
656.82	9.260
657.15	7.191
657.47	5.389
657.80	4.224
658.13	4.376
658.45	6.535
658.78	6.325
659.10	7.030
659.43	7.080
659.75	7.414
660.08	7.975
660.41	9.311
660.73	11.944
661.06	10.828
661.38	15.091
661.71	14.038
662.03	13.807
662.36	10.736
662.68	12.651
663.01	13.333
663.33	12.527
663.66	15.756
663.98	15.119
664.31	15.126
664.63	13.968
664.96	12.676
665.28	13.730
665.61	15.010
665.93	12.274
666.26	13.590
666.58	13.598
666.91	13.953
667.23	13.483
667.56	12.527
667.88	15.812
668.21	15.778
668.53	11.063
668.86	13.203
669.18	17.058
669.50	14.130
669.83	16.340
670.15	13.778
670.48	14.597
670.80	14.871
671.13	15.287
671.45	13.617
671.77	15.886
672.10	12.939
672.42	12.721
672.75	12.769
673.07	11.620
673.39	10.850
673.72	12.500
674.04	13.333
674.37	13.010
674.69	12.474
675.01	11.925
675.34	15.195
675.66	16.211
675.98	15.479
676.31	16.387
676.63	14.013
676.95	13.836
677.28	11.682
677.60	12.088
677.92	15.190
678.25	12.731
678.57	14.143
678.89	11.824
679.22	13.949
679.54	13.168
679.86	16.881
680.18	11.270
680.51	11.348
680.83	13.345
681.15	14.340
681.48	14.745
681.80	11.605
682.12	12.644
682.44	12.186
682.77	12.831
683.09	14.807
683.41	14.191
683.73	15.453
684.06	15.083
684.38	12.329
684.70	14.535
685.02	12.383
685.34	13.370
685.67	11.014
685.99	13.058
686.31	12.628
686.63	10.954
686.96	12.857
687.28	12.816
687.60	11.957
687.92	15.174
688.24	11.027
688.56	12.851
688.89	11.411
689.21	15.066
689.53	13.152
689.85	15.299
690.17	11.180
690.49	16.348
690.82	13.084
691.14	11.830
691.46	12.447
691.78	13.052
692.10	13.636
692.42	12.774
692.74	12.656
693.06	11.064
693.39	14.784
693.71	11.354
694.03	15.158
694.35	12.554
694.67	11.213
694.99	15.854
695.31	12.255
695.63	14.833
695.95	14.425
696.27	13.452
696.59	13.472
696.91	15.026
697.23	10.329
697.56	14.072
697.88	12.883
698.20	10.833
698.52	13.333
698.84	11.581
699.16	12.212
699.48	15.677
699.80	16.184
700.12	17.922
700.44	14.854
700.76	16.298
701.08	16.092
701.40	14.246
701.72	19.534
702.04	18.466
702.36	13.314
702.68	15.581
703.00	13.296
703.32	14.894
703.64	13.941
703.96	11.699
704.28	14.244
704.60	14.956
704.91	16.320
705.23	16.422
705.55	18.272
705.87	17.608
706.19	16.254
706.51	19.003
706.83	17.576
707.15	20.168
707.47	16.667
707.79	14.496
708.11	17.123
708.43	13.571
708.74	12.500
709.06	16.883
709.38	14.436
709.70	17.151
710.02	15.430
710.34	15.152
710.66	17.313
710.98	17.898
711.29	16.860
711.61	18.879
711.93	18.269
712.25	19.936
712.57	17.279
712.89	20.415
713.20	16.717
713.52	19.408
713.84	13.291
714.16	16.463
714.48	14.943
714.80	19.149
715.11	17.003
715.43	16.024
715.75	18.261
716.07	15.974
716.39	16.301
716.70	20.266
717.02	16.547
717.34	15.901
717.66	22.015
717.97	17.928
718.29	17.407
718.61	18.248
718.93	20.956
719.24	17.301
719.56	19.322
719.88	16.610
720.20	21.622
720.51	19.512
720.83	15.613
721.15	14.925
721.46	18.794
721.78	21.864
722.10	17.358
722.42	20.677
722.73	16.854
723.05	20.492
723.37	16.599
723.68	20.077
724.00	21.951
724.32	19.355
724.63	19.919
724.95	15.481
725.27	21.862
725.58	21.094
725.90	18.978
726.22	18.113
726.53	15.625
726.85	21.160
727.16	18.505
727.48	18.794
727.80	17.045
728.11	14.493
728.43	19.615
728.74	19.355
729.06	24.088
729.38	19.118
729.69	18.149
730.01	14.334
730.32	16.667
730.64	17.726
730.96	16.502
731.27	18.212
731.59	16.514
731.90	18.367
732.22	13.975
732.53	15.480
732.85	16.987
733.16	18.971
733.48	14.950
733.80	18.831
734.11	18.471
734.43	18.047
734.74	18.571
735.06	14.040
735.37	18.786
735.69	14.968
736.00	17.320
736.32	15.576
736.63	13.099
736.95	14.377
737.26	12.245
737.58	15.806
737.89	15.050
738.21	21.160
738.52	18.214
738.83	18.113
739.15	19.231
739.46	20.438
739.78	17.361
740.09	16.308
740.41	19.355
740.72	19.164
741.04	17.778
741.35	16.250
741.66	23.556
741.98	17.925
742.29	21.053
742.61	22.414
742.92	20.814
743.23	23.504
743.55	20.400
743.86	23.246
744.18	22.124
744.49	24.880
744.80	21.596
745.12	21.818
745.43	23.348
745.74	19.820
746.06	24.771
746.37	22.870
746.68	21.719
747.00	21.759
747.31	18.571
747.62	20.354
747.94	18.062
748.25	16.596
748.56	24.229
748.88	23.267
749.19	25.500
749.50	20.465
749.82	15.447
750.13	17.551
750.44	20.073
750.75	20.000
751.07	20.579
751.38	19.512
751.69	14.801
752.01	18.045
752.32	20.939
752.63	21.277
752.94	18.852
753.26	23.600
753.57	17.073
753.88	19.922
754.19	16.786
754.51	21.181
754.82	14.801
755.13	21.132
755.44	18.797
755.75	18.978
756.07	18.085
756.38	12.409
756.69	19.463
757.00	17.964
757.31	16.617
757.63	15.789
757.94	16.890
758.25	17.157
758.56	11.852
758.87	17.473
759.18	16.667
759.50	14.420
759.81	16.199
760.12	14.062
760.43	14.900
760.74	15.489
761.05	15.819
761.36	17.112
761.67	15.057
761.99	14.907
762.30	15.972
762.61	18.321
762.92	21.484
763.23	21.429
763.54	26.400
763.85	19.922
764.16	18.846
764.47	17.871
764.78	14.841
765.10	14.241
765.41	16.224
765.72	16.467
766.03	15.047
766.34	19.000
766.65	20.426
766.96	17.094
767.27	22.335
767.58	22.396
767.89	27.895
768.20	21.264
768.51	24.365
768.82	25.229
769.13	19.106
769.44	19.838
769.75	18.455
770.06	20.642
770.37	23.982
770.68	25.000
770.99	18.222
771.30	14.754
771.61	19.731
771.92	21.311
772.23	25.210
772.54	23.077
772.85	24.607
773.16	20.745
773.47	27.174
773.78	29.442
774.09	27.381
774.39	32.164
774.70	25.309
775.01	33.333
775.32	32.680
775.63	29.605
775.94	25.899
776.25	28.346
776.56	29.104
776.87	32.787
777.18	28.906
777.48	37.405
777.79	30.303
778.10	37.037
778.41	31.250
778.72	27.737
779.03	29.530
779.34	29.530
779.65	27.027
779.95	28.834
780.26	33.987
780.57	31.724
780.88	39.844
781.19	33.835
781.50	36.486
781.80	29.560
782.11	29.944
782.42	29.114
782.73	26.380
783.04	29.730
783.34	30.986
783.65	38.356
783.96	36.567
784.27	29.371
784.57	25.899
784.88	29.630
785.19	38.889
785.50	40.566
785.81	39.552
786.11	32.787
786.42	39.535
786.73	29.204
787.04	33.962
787.34	29.464
787.65	33.000
787.96	34.234
788.26	27.273
788.57	38.136
788.88	32.231
789.19	39.583
789.49	40.909
789.80	35.115
790.11	47.619
790.41	55.446
790.72	44.578
791.03	34.783
791.33	39.535
791.64	45.361
791.95	39.604
792.25	52.222
792.56	44.156
792.87	47.436
793.17	68.354
793.48	48.276
793.79	50.575
794.09	43.182
794.40	34.454
794.70	43.382
795.01	30.370
795.32	33.094
795.62	35.433
795.93	33.621
796.23	30.973
796.54	35.294
796.85	40.541
797.15	61.972
797.46	46.970
797.76	54.217
798.07	53.165
798.37	46.154
798.68	45.455
798.99	42.254
799.29	55.844
799.60	44.318
799.90	58.904
800.21	67.164
800.51	62.069
800.82	59.649
801.12	59.016
801.43	71.212
801.73	60.811
802.04	69.841
802.34	58.025
802.65	78.125
802.95	67.797
803.26	70.313
803.56	50.000
803.87	55.385
804.17	61.765
804.48	94.444
804.78	58.621
805.09	64.706
805.39	73.077
805.70	64.286
806.00	65.574
806.30	57.576
806.61	47.561
806.91	55.696
807.22	59.211
807.52	40.299
807.83	60.563
808.13	54.688
808.43	63.333
808.74	47.368
809.04	68.116
809.35	55.224
809.65	59.211
809.95	85.484
810.26	66.102
810.56	65.079
810.86	90.909
811.17	90.476
811.47	73.333
811.77	85.185
812.08	72.727
812.38	80.000
812.69	77.778
812.99	79.545
813.29	91.837
813.59	40.476
813.90	73.469
814.20	54.545
814.50	49.231
814.81	83.824
815.11	77.551
815.41	68.852
815.72	88.095
816.02	78.182
816.32	90.476
816.62	87.500
816.93	73.171
817.23	102.381
817.53	86.364
817.84	81.818
818.14	82.609
818.44	66.667
818.74	100.000
819.04	90.000
819.35	85.714
819.65	132.353
819.95	110.714
820.25	120.000
820.56	102.564
820.86	109.091
821.16	86.047
821.46	107.692
821.76	78.000
822.07	102.857
822.37	100.000
822.67	100.000
822.97	74.510
823.27	153.571
823.57	116.216
823.88	110.000
824.18	143.333
824.48	88.095
824.78	108.000
825.08	108.333
825.38	110.811
825.69	75.610
825.99	120.833
826.29	96.552
826.59	126.316
826.89	76.316
827.19	129.412
827.49	125.806
827.79	84.091
828.09	111.364
828.39	68.085
828.70	85.714
829.00	114.815
829.30	112.903
829.60	102.500
829.90	246.667
830.20	125.000
830.50	113.043
830.80	113.043
831.10	156.667
831.40	106.667
831.70	117.391
832.00	146.154
832.30	151.852
832.60	250.000
832.90	143.333
833.20	271.429
833.50	129.032
833.80	134.483
834.10	137.500
834.40	173.077
834.70	188.889
835.00	261.905
835.30	134.286
835.60	192.308
835.90	158.621
836.20	192.857
836.50	137.931
836.80	128.000
837.10	144.444
837.40	247.619
837.70	282.353
838.00	103.704
838.30	147.619
838.60	223.810
838.90	157.692
839.19	195.000
839.49	257.143
839.79	195.000
840.09	155.000
840.39	157.143
840.69	165.217
840.99	177.778
841.29	270.000
841.59	191.667
841.88	275.000
842.18	144.828
842.48	204.762
842.78	153.333
843.08	200.000
843.38	146.875
843.68	500.000
843.97	161.538
844.27	144.828
844.57	223.810
844.87	268.750
845.17	159.259
845.47	1066.667
845.76	333.333
846.06	141.176
846.36	312.500
846.66	278.571
846.96	218.750
847.25	363.636
847.55	254.545
847.85	182.609
848.15	390.000
848.44	228.571
848.74	105.556
849.04	182.353
849.34	290.000
849.63	205.263
849.93	236.364
850.23	780.000
850.53	314.286
850.82	2050.000
851.12	-2800.000
851.42	2600.000
851.71	230.000
852.01	-833.333
852.31	150.000
852.61	1066.667
852.90	238.095
853.20	160.000
853.50	247.059
853.79	180.952
854.09	112.500
854.39	250.000
854.68	121.622
854.98	129.032
855.28	123.333
855.57	151.724
855.87	174.074
856.17	142.105
856.46	240.000
856.76	176.471
857.05	158.621
857.35	162.500
857.65	226.667
857.94	156.522
858.24	173.077
858.53	245.000
858.83	181.818
859.13	226.667
859.42	0.000
859.72	388.889
860.01	290.909
860.31	200.000
860.60	200.000
860.90	173.913
861.20	344.444
861.49	375.000
861.79	-4000.000
862.08	375.000
862.38	238.095
862.67	292.308
862.97	294.118
863.26	444.444
863.56	227.778
863.85	216.667
864.15	412.500
864.44	213.333
864.74	600.000
865.03	512.500
865.33	221.053
865.62	318.182
865.92	376.923
866.21	200.000
866.51	0.000
866.80	318.182
867.10	840.000
867.39	284.615
867.69	272.727
867.98	189.474
868.27	363.636
868.57	184.211
868.86	-2300.000
869.16	231.250
869.45	1650.000
869.75	-4200.000
870.04	300.000
870.33	500.000
870.63	675.000
870.92	1500.000
871.22	542.857
871.51	235.294
871.80	157.143
872.10	285.714
>>>>>End Processed Spectral Data<<<<<
