SpectraSuite Data File
++++++++++++++++++++++++++++++++++++
Date: Wed May 13 20:34:03 PDT 2015
User: schluterlab
Dark Spectrum Present: Yes
Reference Spectrum Present: Yes
Number of Sampled Component Spectra: 1
Spectrometers: USB2E3373
Integration Time (usec): 3000 (USB2E3373)
Spectra Averaged: 3 (USB2E3373)
Boxcar Smoothing: 0 (USB2E3373)
Correct for Electrical Dark: No (USB2E3373)
Strobe/Lamp Enabled: No (USB2E3373)
Correct for Detector Non-linearity: No (USB2E3373)
Correct for Stray Light: No (USB2E3373)
Number of Pixels in Processed Spectrum: 2048
>>>>>Begin Processed Spectral Data<<<<<
178.53	0.000
178.91	-800.000
179.29	-1050.000
179.67	-127.778
180.04	-875.000
180.42	1800.000
180.80	840.000
181.18	-675.000
181.56	528.571
181.94	0.000
182.31	-471.429
182.69	1400.000
183.07	-375.000
183.45	-355.556
183.83	490.909
184.20	-240.000
184.58	1700.000
184.96	4600.000
185.34	-560.000
185.72	-525.000
186.09	-1500.000
186.47	1500.000
186.85	1850.000
187.23	3800.000
187.61	-1133.333
187.98	1025.000
188.36	481.818
188.74	436.364
189.12	-600.000
189.49	420.000
189.87	-3300.000
190.25	-650.000
190.63	314.286
191.00	284.615
191.38	600.000
191.76	-1025.000
192.14	1075.000
192.51	350.000
192.89	633.333
193.27	500.000
193.65	-675.000
194.02	370.000
194.40	660.000
194.78	450.000
195.15	400.000
195.53	460.000
195.91	-950.000
196.29	237.500
196.66	231.579
197.04	-300.000
197.42	0.000
197.79	430.000
198.17	-2800.000
198.55	542.857
198.92	612.500
199.30	820.000
199.68	0.000
200.05	288.889
200.43	500.000
200.81	3000.000
201.18	1000.000
201.56	-1100.000
201.94	444.444
202.31	422.222
202.69	250.000
203.07	390.000
203.44	0.000
203.82	950.000
204.19	614.286
204.57	335.714
204.95	437.500
205.32	1033.333
205.70	381.818
206.08	285.714
206.45	2200.000
206.83	287.500
207.20	800.000
207.58	340.000
207.96	244.444
208.33	675.000
208.71	-516.667
209.08	600.000
209.46	400.000
209.84	327.273
210.21	-1066.667
210.59	1025.000
210.96	-287.500
211.34	1800.000
211.71	510.000
212.09	400.000
212.46	0.000
212.84	1133.333
213.22	1075.000
213.59	-3200.000
213.97	616.667
214.34	485.714
214.72	490.909
215.09	660.000
215.47	-1250.000
215.84	-1850.000
216.22	1333.333
216.59	321.429
216.97	1000.000
217.34	372.727
217.72	-500.000
218.09	0.000
218.47	-4200.000
218.84	522.222
219.22	514.286
219.59	1300.000
219.97	-342.857
220.34	780.000
220.72	-1333.333
221.09	335.714
221.47	1175.000
221.84	-683.333
222.22	0.000
222.59	900.000
222.97	-1900.000
223.34	920.000
223.72	269.231
224.09	900.000
224.46	1700.000
224.84	-4300.000
225.21	-840.000
225.59	-3600.000
225.96	340.000
226.34	235.000
226.71	2100.000
227.08	387.500
227.46	370.000
227.83	-775.000
228.21	-1350.000
228.58	433.333
228.95	-1350.000
229.33	-1550.000
229.70	1533.333
230.08	571.429
230.45	-520.000
230.82	325.000
231.20	550.000
231.57	357.143
231.95	325.000
232.32	181.818
232.69	281.818
233.07	485.714
233.44	246.154
233.81	-1166.667
234.19	231.579
234.56	308.333
234.93	291.667
235.31	309.091
235.68	184.615
236.05	278.571
236.43	124.242
236.80	189.474
237.17	2900.000
237.55	138.095
237.92	178.571
238.29	180.952
238.67	112.903
239.04	165.517
239.41	100.000
239.79	91.304
240.16	102.381
240.53	81.818
240.91	70.588
241.28	88.000
241.65	80.000
242.02	69.565
242.40	67.742
242.77	68.333
243.14	59.140
243.51	61.798
243.89	44.706
244.26	54.444
244.63	37.634
245.00	48.936
245.38	56.436
245.75	42.991
246.12	45.872
246.49	48.175
246.87	40.000
247.24	40.000
247.61	30.714
247.98	33.333
248.36	32.432
248.73	26.752
249.10	43.949
249.47	33.898
249.84	34.225
250.22	29.412
250.59	28.994
250.96	34.343
251.33	28.436
251.70	30.693
252.08	26.190
252.45	29.148
252.82	26.957
253.19	31.915
253.56	25.098
253.94	24.481
254.31	27.734
254.68	28.846
255.05	24.723
255.42	26.423
255.79	26.838
256.16	29.603
256.54	23.322
256.91	23.488
257.28	21.942
257.65	21.452
258.02	22.360
258.39	21.451
258.76	21.405
259.14	22.917
259.51	21.277
259.88	18.634
260.25	22.054
260.62	21.387
260.99	21.739
261.36	23.423
261.73	20.917
262.10	21.512
262.47	22.535
262.85	21.727
263.22	23.077
263.59	22.792
263.96	20.055
264.33	22.193
264.70	25.263
265.07	19.182
265.44	18.434
265.81	19.221
266.18	20.101
266.55	18.049
266.92	19.656
267.29	18.981
267.66	19.725
268.03	20.909
268.40	20.794
268.77	19.332
269.14	18.018
269.51	18.962
269.88	21.445
270.25	18.962
270.62	17.753
270.99	21.720
271.36	21.459
271.73	18.224
272.10	17.609
272.47	21.075
272.84	19.481
273.21	19.497
273.58	15.721
273.95	17.820
274.32	16.942
274.69	16.274
275.06	15.551
275.43	18.936
275.80	18.236
276.17	17.719
276.54	17.879
276.91	17.589
277.28	16.406
277.65	17.215
278.02	16.563
278.39	18.945
278.76	16.545
279.13	18.491
279.50	17.318
279.87	17.729
280.23	18.363
280.60	14.700
280.97	17.930
281.34	18.230
281.71	19.273
282.08	17.466
282.45	16.000
282.82	17.584
283.19	16.043
283.56	15.789
283.92	17.766
284.29	15.697
284.66	16.697
285.03	15.371
285.40	14.965
285.77	15.657
286.14	15.371
286.51	14.500
286.87	17.607
287.24	18.078
287.61	14.286
287.98	15.909
288.35	17.116
288.72	16.822
289.08	17.684
289.45	14.003
289.82	17.398
290.19	14.600
290.56	15.620
290.93	13.293
291.29	13.344
291.66	14.897
292.03	15.988
292.40	16.446
292.77	14.497
293.13	15.373
293.50	13.411
293.87	13.630
294.24	13.778
294.60	13.974
294.97	13.953
295.34	14.245
295.71	14.062
296.08	12.536
296.44	13.480
296.81	11.889
297.18	15.718
297.55	11.609
297.91	12.533
298.28	13.387
298.65	15.666
299.02	13.702
299.38	11.421
299.75	11.590
300.12	12.644
300.48	11.875
300.85	13.070
301.22	12.102
301.59	13.131
301.95	12.720
302.32	11.297
302.69	12.425
303.05	12.242
303.42	12.099
303.79	12.911
304.15	11.655
304.52	11.240
304.89	11.963
305.25	11.021
305.62	12.118
305.99	12.279
306.35	12.864
306.72	12.892
307.09	12.431
307.45	13.063
307.82	10.826
308.19	12.252
308.55	13.808
308.92	12.137
309.29	12.038
309.65	11.771
310.02	12.051
310.38	11.828
310.75	13.200
311.12	13.101
311.48	12.539
311.85	12.579
312.22	12.903
312.58	12.474
312.95	13.516
313.31	12.816
313.68	14.137
314.05	15.779
314.41	14.874
314.78	14.804
315.14	14.995
315.51	14.315
315.87	15.743
316.24	14.598
316.61	15.302
316.97	15.166
317.34	16.536
317.70	17.973
318.07	18.383
318.43	18.982
318.80	19.681
319.16	19.303
319.53	19.418
319.89	19.238
320.26	21.700
320.62	22.718
320.99	21.818
321.35	22.020
321.72	22.382
322.08	23.889
322.45	24.478
322.81	26.066
323.18	25.530
323.54	25.510
323.91	26.509
324.27	26.291
324.64	27.586
325.00	26.240
325.37	27.389
325.73	28.905
326.10	28.861
326.46	30.018
326.83	30.975
327.19	30.401
327.56	31.359
327.92	30.709
328.29	31.943
328.65	30.847
329.01	31.498
329.38	31.452
329.74	32.225
330.11	33.176
330.47	34.068
330.84	33.180
331.20	32.878
331.56	33.578
331.93	32.870
332.29	34.161
332.66	33.894
333.02	34.004
333.38	33.966
333.75	34.403
334.11	33.274
334.48	33.274
334.84	34.099
335.20	36.273
335.57	33.998
335.93	32.857
336.29	33.791
336.66	34.355
337.02	34.480
337.38	34.630
337.75	33.957
338.11	33.124
338.47	34.991
338.84	33.914
339.20	33.486
339.56	34.945
339.93	32.909
340.29	32.790
340.65	33.155
341.02	34.642
341.38	33.363
341.74	32.807
342.11	34.410
342.47	33.656
342.83	33.048
343.20	34.805
343.56	33.109
343.92	32.982
344.28	32.313
344.65	34.222
345.01	32.744
345.37	32.676
345.73	32.995
346.10	33.674
346.46	32.458
346.82	31.219
347.19	32.498
347.55	31.445
347.91	32.767
348.27	32.950
348.63	31.940
349.00	31.958
349.36	32.266
349.72	33.280
350.08	31.929
350.45	33.116
350.81	30.626
351.17	31.199
351.53	31.450
351.89	31.436
352.26	32.123
352.62	31.516
352.98	31.118
353.34	31.389
353.70	30.769
354.07	32.419
354.43	30.794
354.79	30.571
355.15	30.966
355.51	31.974
355.87	30.449
356.24	30.212
356.60	29.912
356.96	30.732
357.32	30.989
357.68	30.551
358.04	29.691
358.40	30.245
358.77	30.047
359.13	29.597
359.49	30.510
359.85	28.016
360.21	29.107
360.57	29.261
360.93	29.846
361.29	29.252
361.66	29.412
362.02	29.925
362.38	29.810
362.74	29.390
363.10	29.164
363.46	28.467
363.82	28.345
364.18	29.222
364.54	29.123
364.90	28.399
365.26	28.235
365.62	29.364
365.98	28.269
366.35	27.364
366.71	27.404
367.07	26.948
367.43	28.810
367.79	28.837
368.15	28.807
368.51	28.198
368.87	27.766
369.23	28.603
369.59	27.878
369.95	27.426
370.31	27.635
370.67	27.681
371.03	28.839
371.39	27.697
371.75	28.456
372.11	26.743
372.47	27.346
372.83	28.458
373.19	26.879
373.55	26.977
373.91	26.657
374.27	27.010
374.63	26.764
374.99	27.895
375.35	26.797
375.71	26.731
376.07	27.709
376.42	27.166
376.78	26.640
377.14	25.373
377.50	26.689
377.86	24.801
378.22	26.738
378.58	24.812
378.94	25.959
379.30	26.018
379.66	26.840
380.02	25.921
380.38	26.108
380.74	26.050
381.09	24.939
381.45	27.167
381.81	25.921
382.17	26.115
382.53	25.346
382.89	25.247
383.25	25.078
383.61	25.960
383.97	26.016
384.32	25.702
384.68	24.659
385.04	24.831
385.40	25.139
385.76	24.754
386.12	25.194
386.48	25.236
386.83	25.978
387.19	26.036
387.55	24.613
387.91	25.030
388.27	24.402
388.62	25.999
388.98	24.693
389.34	25.594
389.70	24.709
390.06	24.651
390.42	24.838
390.77	24.873
391.13	25.080
391.49	25.444
391.85	24.570
392.20	23.722
392.56	24.306
392.92	24.308
393.28	23.136
393.64	23.501
393.99	24.130
394.35	23.945
394.71	23.839
395.07	23.551
395.42	24.166
395.78	23.982
396.14	23.464
396.50	23.935
396.85	23.649
397.21	23.058
397.57	23.311
397.92	23.738
398.28	23.094
398.64	24.074
399.00	23.335
399.35	23.237
399.71	23.438
400.07	23.182
400.42	23.129
400.78	23.703
401.14	23.720
401.49	24.358
401.85	22.747
402.21	22.335
402.57	22.949
402.92	24.023
403.28	23.298
403.63	22.401
403.99	23.248
404.35	22.545
404.70	22.422
405.06	22.889
405.42	22.957
405.77	22.800
406.13	22.178
406.49	22.472
406.84	22.150
407.20	21.631
407.55	23.229
407.91	23.133
408.27	22.782
408.62	22.577
408.98	22.181
409.34	22.325
409.69	21.935
410.05	22.367
410.40	22.997
410.76	21.983
411.11	22.316
411.47	21.342
411.83	22.786
412.18	21.769
412.54	21.731
412.89	21.928
413.25	21.370
413.60	21.989
413.96	21.129
414.31	21.446
414.67	22.053
415.03	21.656
415.38	21.907
415.74	22.122
416.09	22.796
416.45	21.419
416.80	22.208
417.16	22.252
417.51	22.163
417.87	21.387
418.22	22.208
418.58	22.079
418.93	21.376
419.29	21.197
419.64	22.040
420.00	20.854
420.35	20.986
420.71	21.937
421.06	21.301
421.42	20.994
421.77	21.917
422.12	20.663
422.48	20.237
422.83	21.607
423.19	21.326
423.54	20.952
423.90	20.870
424.25	22.055
424.61	21.607
424.96	21.108
425.31	20.598
425.67	20.730
426.02	20.686
426.38	21.306
426.73	21.065
427.09	21.398
427.44	20.529
427.79	20.932
428.15	21.071
428.50	20.304
428.85	21.216
429.21	20.596
429.56	19.803
429.92	20.584
430.27	20.407
430.62	20.686
430.98	20.602
431.33	20.258
431.68	20.733
432.04	20.234
432.39	19.874
432.74	20.467
433.10	20.656
433.45	20.175
433.80	19.734
434.16	20.299
434.51	20.526
434.86	20.582
435.22	20.456
435.57	20.304
435.92	19.836
436.28	20.819
436.63	21.026
436.98	20.664
437.34	21.109
437.69	21.120
438.04	20.798
438.39	20.597
438.75	20.744
439.10	20.112
439.45	20.720
439.81	19.940
440.16	19.932
440.51	20.680
440.86	20.672
441.22	19.855
441.57	20.170
441.92	20.317
442.27	20.721
442.63	19.747
442.98	21.239
443.33	20.054
443.68	20.341
444.03	20.400
444.39	19.523
444.74	20.184
445.09	20.216
445.44	20.394
445.79	20.287
446.15	20.593
446.50	19.440
446.85	19.733
447.20	19.582
447.55	20.268
447.91	20.518
448.26	19.811
448.61	19.898
448.96	20.764
449.31	20.641
449.66	19.752
450.02	20.223
450.37	19.785
450.72	20.305
451.07	19.866
451.42	19.149
451.77	20.317
452.12	20.554
452.47	20.398
452.83	20.105
453.18	19.804
453.53	20.965
453.88	19.728
454.23	19.546
454.58	20.412
454.93	21.170
455.28	19.202
455.63	19.782
455.98	21.012
456.34	20.038
456.69	20.225
457.04	20.681
457.39	19.988
457.74	19.675
458.09	20.012
458.44	19.498
458.79	19.631
459.14	19.357
459.49	19.790
459.84	19.612
460.19	19.269
460.54	20.255
460.89	19.144
461.24	20.522
461.59	21.034
461.94	20.160
462.29	20.534
462.64	19.400
462.99	20.299
463.34	20.733
463.69	19.887
464.04	20.464
464.39	19.594
464.74	20.024
465.09	20.145
465.44	19.391
465.79	19.128
466.14	19.431
466.49	18.632
466.84	20.023
467.19	19.795
467.54	19.500
467.89	19.808
468.24	20.070
468.59	20.452
468.94	19.304
469.29	19.794
469.64	20.415
469.99	20.839
470.34	20.476
470.68	20.043
471.03	20.000
471.38	19.319
471.73	19.787
472.08	20.132
472.43	20.101
472.78	19.947
473.13	20.154
473.48	19.600
473.83	20.610
474.17	20.411
474.52	20.099
474.87	19.907
475.22	19.617
475.57	19.130
475.92	19.596
476.27	18.884
476.61	18.974
476.96	18.252
477.31	19.048
477.66	19.256
478.01	18.662
478.36	19.355
478.70	18.847
479.05	18.637
479.40	18.577
479.75	18.709
480.10	18.539
480.45	18.515
480.79	18.586
481.14	18.395
481.49	19.079
481.84	18.519
482.19	18.492
482.53	18.578
482.88	18.520
483.23	18.738
483.58	18.744
483.92	18.369
484.27	17.516
484.62	18.190
484.97	17.777
485.31	17.877
485.66	16.740
486.01	16.323
486.36	15.920
486.70	16.691
487.05	16.779
487.40	16.854
487.75	17.360
488.09	17.106
488.44	17.512
488.79	17.541
489.13	17.953
489.48	17.863
489.83	18.084
490.17	18.238
490.52	18.423
490.87	17.775
491.22	18.417
491.56	18.223
491.91	17.822
492.26	17.363
492.60	18.203
492.95	17.727
493.30	18.318
493.64	18.339
493.99	17.734
494.34	18.270
494.68	18.636
495.03	18.468
495.37	18.055
495.72	17.544
496.07	18.561
496.41	17.965
496.76	18.470
497.11	18.010
497.45	18.444
497.80	18.138
498.14	18.019
498.49	17.707
498.84	18.552
499.18	18.429
499.53	18.234
499.87	18.034
500.22	17.805
500.56	17.961
500.91	17.740
501.26	17.354
501.60	18.700
501.95	17.278
502.29	17.948
502.64	17.691
502.98	17.578
503.33	17.550
503.67	17.819
504.02	17.961
504.36	17.688
504.71	17.978
505.06	18.072
505.40	17.210
505.75	17.213
506.09	17.590
506.44	17.612
506.78	17.730
507.13	17.466
507.47	18.737
507.82	18.440
508.16	17.528
508.51	17.504
508.85	17.825
509.19	17.653
509.54	17.704
509.88	17.156
510.23	18.458
510.57	18.731
510.92	17.866
511.26	17.986
511.61	18.102
511.95	17.537
512.30	17.126
512.64	17.786
512.98	18.328
513.33	18.683
513.67	17.876
514.02	18.290
514.36	18.187
514.70	17.543
515.05	18.182
515.39	18.789
515.74	17.286
516.08	18.278
516.42	18.257
516.77	19.119
517.11	18.257
517.46	17.664
517.80	17.944
518.14	17.834
518.49	18.203
518.83	17.841
519.17	17.898
519.52	17.997
519.86	18.140
520.20	18.613
520.55	18.133
520.89	18.674
521.23	18.275
521.58	17.947
521.92	18.065
522.26	17.755
522.61	17.383
522.95	17.557
523.29	17.833
523.64	18.659
523.98	18.299
524.32	17.973
524.66	18.461
525.01	18.444
525.35	18.154
525.69	17.426
526.04	17.944
526.38	18.792
526.72	17.669
527.06	17.702
527.41	17.450
527.75	18.521
528.09	18.240
528.43	18.547
528.78	18.500
529.12	17.455
529.46	18.371
529.80	18.379
530.15	18.754
530.49	17.908
530.83	18.797
531.17	19.386
531.51	19.780
531.86	17.677
532.20	19.492
532.54	17.937
532.88	17.587
533.22	17.989
533.57	18.333
533.91	17.459
534.25	18.044
534.59	17.328
534.93	17.192
535.27	17.441
535.62	18.315
535.96	17.577
536.30	17.673
536.64	18.223
536.98	18.381
537.32	17.577
537.66	18.067
538.01	17.182
538.35	18.100
538.69	18.826
539.03	17.739
539.37	17.252
539.71	16.267
540.05	17.516
540.39	17.807
540.73	17.400
541.07	18.819
541.42	17.808
541.76	18.581
542.10	17.788
542.44	18.609
542.78	18.972
543.12	18.106
543.46	18.164
543.80	18.608
544.14	17.908
544.48	18.413
544.82	17.447
545.16	18.152
545.50	17.674
545.84	17.876
546.18	17.710
546.52	17.412
546.86	18.557
547.20	17.802
547.54	18.036
547.88	18.941
548.22	16.999
548.56	16.604
548.90	17.093
549.24	16.902
549.58	18.076
549.92	17.376
550.26	18.253
550.60	17.842
550.94	17.183
551.28	16.898
551.62	18.045
551.96	16.912
552.30	18.157
552.64	17.850
552.98	17.492
553.32	17.465
553.66	17.860
554.00	17.502
554.34	17.667
554.68	17.597
555.02	16.996
555.36	17.467
555.69	17.118
556.03	17.833
556.37	17.462
556.71	16.985
557.05	17.297
557.39	17.005
557.73	17.078
558.07	17.694
558.41	17.656
558.75	17.781
559.08	16.779
559.42	17.838
559.76	18.015
560.10	16.916
560.44	17.051
560.78	16.700
561.12	17.678
561.45	16.819
561.79	16.809
562.13	16.633
562.47	16.940
562.81	17.085
563.15	16.656
563.48	17.241
563.82	17.025
564.16	16.612
564.50	16.341
564.84	16.688
565.17	16.795
565.51	16.038
565.85	16.624
566.19	16.155
566.52	17.099
566.86	16.275
567.20	17.276
567.54	15.925
567.88	15.915
568.21	16.772
568.55	16.330
568.89	15.272
569.23	14.750
569.56	15.830
569.90	15.245
570.24	14.568
570.57	14.655
570.91	13.833
571.25	13.743
571.59	13.903
571.92	14.113
572.26	14.443
572.60	14.474
572.93	14.183
573.27	13.783
573.61	14.210
573.95	13.798
574.28	13.693
574.62	13.776
574.96	13.333
575.29	13.458
575.63	13.669
575.97	13.512
576.30	13.702
576.64	13.520
576.98	13.539
577.31	13.101
577.65	13.181
577.98	13.490
578.32	13.106
578.66	13.061
578.99	13.056
579.33	13.314
579.67	13.135
580.00	13.330
580.34	13.598
580.67	13.094
581.01	13.605
581.35	13.193
581.68	13.130
582.02	12.839
582.35	12.893
582.69	13.114
583.02	13.120
583.36	13.419
583.70	13.087
584.03	13.558
584.37	13.808
584.70	13.480
585.04	13.552
585.37	12.978
585.71	13.158
586.04	13.675
586.38	13.506
586.72	14.195
587.05	13.230
587.39	13.351
587.72	13.527
588.06	13.180
588.39	13.855
588.73	13.640
589.06	14.117
589.40	13.805
589.73	13.974
590.07	14.591
590.40	13.738
590.73	14.091
591.07	14.733
591.40	14.804
591.74	15.022
592.07	14.398
592.41	14.427
592.74	14.082
593.08	13.824
593.41	13.445
593.75	13.398
594.08	13.879
594.41	13.892
594.75	14.529
595.08	13.851
595.42	14.186
595.75	13.889
596.09	14.232
596.42	14.617
596.75	14.352
597.09	14.935
597.42	14.713
597.75	14.015
598.09	14.652
598.42	14.390
598.76	13.660
599.09	13.417
599.42	13.428
599.76	13.946
600.09	13.698
600.42	13.623
600.76	13.357
601.09	13.224
601.42	13.470
601.76	14.118
602.09	13.597
602.42	14.013
602.76	14.712
603.09	14.044
603.42	13.471
603.76	13.529
604.09	13.028
604.42	14.391
604.76	14.551
605.09	13.543
605.42	13.596
605.75	13.907
606.09	13.461
606.42	14.140
606.75	13.978
607.09	14.274
607.42	14.549
607.75	13.291
608.08	13.461
608.42	14.433
608.75	14.157
609.08	14.200
609.41	13.993
609.75	14.054
610.08	14.797
610.41	14.106
610.74	14.617
611.07	15.069
611.41	14.868
611.74	14.882
612.07	15.166
612.40	15.058
612.73	14.211
613.07	15.517
613.40	14.639
613.73	13.791
614.06	14.140
614.39	14.840
614.72	14.737
615.06	15.494
615.39	14.119
615.72	14.877
616.05	13.982
616.38	15.231
616.71	15.024
617.05	15.135
617.38	14.191
617.71	14.595
618.04	14.663
618.37	14.607
618.70	14.810
619.03	15.263
619.36	15.275
619.69	15.070
620.03	15.728
620.36	15.842
620.69	16.712
621.02	16.667
621.35	15.583
621.68	16.277
622.01	15.170
622.34	16.793
622.67	16.274
623.00	15.334
623.33	14.582
623.66	15.368
623.99	15.979
624.32	15.264
624.65	15.537
624.99	14.802
625.32	15.062
625.65	16.003
625.98	15.988
626.31	16.641
626.64	16.163
626.97	16.376
627.30	16.126
627.63	16.817
627.96	16.316
628.29	16.273
628.62	17.292
628.95	16.887
629.28	16.697
629.61	16.865
629.94	17.333
630.26	16.111
630.59	17.064
630.92	17.050
631.25	16.584
631.58	17.518
631.91	16.227
632.24	16.561
632.57	18.363
632.90	16.996
633.23	16.555
633.56	18.079
633.89	19.932
634.22	18.615
634.55	18.580
634.88	17.964
635.20	17.921
635.53	17.952
635.86	19.802
636.19	17.647
636.52	18.108
636.85	17.526
637.18	18.088
637.51	19.267
637.83	16.523
638.16	17.775
638.49	18.892
638.82	17.446
639.15	18.000
639.48	20.075
639.81	18.633
640.13	20.313
640.46	19.866
640.79	19.683
641.12	18.707
641.45	18.436
641.77	17.526
642.10	18.129
642.43	19.369
642.76	17.802
643.09	19.785
643.41	18.058
643.74	20.370
644.07	18.598
644.40	20.399
644.73	21.260
645.05	21.553
645.38	20.853
645.71	21.578
646.04	18.605
646.36	23.539
646.69	20.903
647.02	20.408
647.35	19.072
647.67	20.177
648.00	20.163
648.33	17.822
648.66	18.485
648.98	19.040
649.31	17.937
649.64	20.030
649.96	19.225
650.29	22.275
650.62	18.608
650.94	19.611
651.27	22.466
651.60	20.133
651.92	20.927
652.25	18.893
652.58	19.470
652.90	21.169
653.23	18.336
653.56	21.575
653.88	20.285
654.21	19.431
654.54	18.812
654.86	20.249
655.19	17.297
655.52	12.074
655.84	9.800
656.17	12.490
656.49	17.064
656.82	17.068
657.15	13.297
657.47	9.700
657.80	7.439
658.13	7.836
658.45	11.797
658.78	11.509
659.10	11.866
659.43	12.457
659.75	13.131
660.08	14.241
660.41	16.108
660.73	17.916
661.06	17.516
661.38	21.818
661.71	21.731
662.03	19.724
662.36	21.272
662.68	22.289
663.01	21.818
663.33	20.170
663.66	18.067
663.98	19.654
664.31	23.950
664.63	19.433
664.96	18.310
665.28	21.721
665.61	20.273
665.93	19.718
666.26	21.501
666.58	21.967
666.91	21.987
667.23	22.022
667.56	22.894
667.88	23.077
668.21	21.748
668.53	22.560
668.86	23.593
669.18	25.160
669.50	21.739
669.83	24.183
670.15	22.889
670.48	19.172
670.80	21.121
671.13	25.478
671.45	21.277
671.77	20.978
672.10	19.778
672.42	16.784
672.75	20.564
673.07	20.423
673.39	19.168
673.72	19.727
674.04	20.196
674.37	20.971
674.69	17.996
675.01	20.502
675.34	22.998
675.66	24.842
675.98	21.792
676.31	23.529
676.63	19.745
676.95	21.174
677.28	21.262
677.60	22.637
677.92	24.684
678.25	20.329
678.57	20.319
678.89	21.443
679.22	20.039
679.54	20.611
679.86	22.569
680.18	20.036
680.51	19.504
680.83	19.929
681.15	21.509
681.48	20.983
681.80	19.536
682.12	18.008
682.44	19.149
682.77	20.978
683.09	21.888
683.41	21.064
683.73	22.517
684.06	20.661
684.38	19.569
684.70	18.605
685.02	20.263
685.34	19.414
685.67	16.259
685.99	18.385
686.31	19.113
686.63	19.081
686.96	18.214
687.28	18.953
687.60	18.116
687.92	21.024
688.24	20.913
688.56	20.482
688.89	20.124
689.21	22.707
689.53	21.712
689.85	22.395
690.17	21.739
690.49	21.656
690.82	24.299
691.14	21.429
691.46	20.464
691.78	19.880
692.10	21.281
692.42	22.555
692.74	16.598
693.06	22.340
693.39	20.945
693.71	20.087
694.03	20.842
694.35	20.130
694.67	16.934
694.99	22.439
695.31	18.382
695.63	21.770
695.95	20.538
696.27	18.528
696.59	20.466
696.91	23.834
697.23	18.310
697.56	22.814
697.88	18.609
698.20	19.375
698.52	22.796
698.84	20.713
699.16	20.276
699.48	21.140
699.80	22.464
700.12	24.935
700.44	27.321
700.76	22.376
701.08	26.724
701.40	22.346
701.72	23.324
702.04	25.852
702.36	18.697
702.68	22.946
703.00	24.377
703.32	22.872
703.64	21.984
703.96	23.677
704.28	22.093
704.60	22.581
704.91	27.003
705.23	24.340
705.55	26.246
705.87	28.904
706.19	26.148
706.51	22.430
706.83	21.515
707.15	22.969
707.47	21.212
707.79	21.130
708.11	20.776
708.43	20.238
708.74	19.643
709.06	23.377
709.38	22.310
709.70	23.547
710.02	22.849
710.34	23.030
710.66	25.672
710.98	25.568
711.29	20.930
711.61	25.959
711.93	21.154
712.25	27.010
712.57	21.324
712.89	22.491
713.20	23.708
713.52	23.684
713.84	21.519
714.16	24.085
714.48	21.552
714.80	25.532
715.11	22.767
715.43	23.739
715.75	25.507
716.07	23.003
716.39	22.884
716.70	23.588
717.02	25.180
717.34	24.028
717.66	29.478
717.97	33.068
718.29	28.148
718.61	26.642
718.93	28.676
719.24	26.298
719.56	22.034
719.88	25.424
720.20	26.689
720.51	27.526
720.83	28.996
721.15	24.627
721.46	23.404
721.78	22.222
722.10	27.170
722.42	30.827
722.73	22.846
723.05	22.131
723.37	24.696
723.68	29.344
724.00	24.797
724.32	27.823
724.63	30.488
724.95	27.197
725.27	29.555
725.58	30.078
725.90	30.292
726.22	26.792
726.53	26.736
726.85	24.915
727.16	25.623
727.48	26.950
727.80	26.136
728.11	25.362
728.43	25.000
728.74	26.523
729.06	26.642
729.38	25.368
729.69	28.114
730.01	22.526
730.32	22.569
730.64	26.087
730.96	21.122
731.27	26.490
731.59	25.994
731.90	22.449
732.22	24.534
732.53	21.362
732.85	22.436
733.16	26.688
733.48	24.917
733.80	21.753
734.11	23.248
734.43	23.373
734.74	20.286
735.06	18.338
735.37	23.699
735.69	19.427
736.00	24.510
736.32	28.349
736.63	21.086
736.95	23.642
737.26	18.367
737.58	23.548
737.89	24.749
738.21	23.208
738.52	24.643
738.83	22.264
739.15	26.154
739.46	24.818
739.78	25.347
740.09	24.308
740.41	24.516
740.72	20.557
741.04	26.667
741.35	26.667
741.66	31.111
741.98	26.415
742.29	30.622
742.61	37.069
742.92	26.244
743.23	29.060
743.55	25.200
743.86	24.561
744.18	30.531
744.49	28.230
744.80	32.394
745.12	32.727
745.43	26.872
745.74	33.333
746.06	29.817
746.37	30.045
746.68	28.507
747.00	25.463
747.31	29.524
747.62	30.973
747.94	24.229
748.25	23.830
748.56	33.921
748.88	27.228
749.19	30.000
749.50	27.442
749.82	25.203
750.13	24.490
750.44	24.453
750.75	24.912
751.07	24.437
751.38	24.739
751.69	24.549
752.01	22.556
752.32	28.159
752.63	25.887
752.94	21.721
753.26	30.800
753.57	19.106
753.88	33.594
754.19	27.500
754.51	22.569
754.82	23.105
755.13	27.170
755.44	21.805
755.75	20.438
756.07	23.404
756.38	20.073
756.69	24.161
757.00	23.653
757.31	22.849
757.63	22.807
757.94	22.788
758.25	19.363
758.56	19.259
758.87	19.624
759.18	22.727
759.50	21.630
759.81	23.364
760.12	22.813
760.43	24.355
760.74	21.467
761.05	19.209
761.36	20.321
761.67	23.295
761.99	20.497
762.30	26.042
762.61	27.481
762.92	25.000
763.23	24.370
763.54	26.800
763.85	24.609
764.16	28.462
764.47	25.856
764.78	24.028
765.10	23.101
765.41	20.354
765.72	22.156
766.03	23.824
766.34	20.667
766.65	26.383
766.96	26.923
767.27	31.472
767.58	31.250
767.89	35.789
768.20	29.310
768.51	29.442
768.82	27.982
769.13	25.610
769.44	23.077
769.75	26.609
770.06	20.183
770.37	30.769
770.68	31.481
770.99	27.556
771.30	24.180
771.61	26.906
771.92	29.918
772.23	32.353
772.54	30.769
772.85	32.984
773.16	34.043
773.47	33.696
773.78	32.487
774.09	27.976
774.39	36.257
774.70	32.099
775.01	35.507
775.32	37.255
775.63	28.947
775.94	32.374
776.25	44.094
776.56	38.806
776.87	42.623
777.18	45.313
777.48	46.565
777.79	43.939
778.10	42.963
778.41	45.536
778.72	31.387
779.03	30.201
779.34	37.584
779.65	40.541
779.95	38.650
780.26	41.176
780.57	43.448
780.88	47.656
781.19	33.835
781.50	39.865
781.80	29.560
782.11	31.073
782.42	31.646
782.73	30.061
783.04	39.189
783.34	36.620
783.65	39.041
783.96	40.299
784.27	30.070
784.57	38.129
784.88	39.815
785.19	46.825
785.50	35.849
785.81	43.284
786.11	36.885
786.42	45.736
786.73	43.363
787.04	38.679
787.34	47.321
787.65	44.000
787.96	38.739
788.26	42.975
788.57	48.305
788.88	49.587
789.19	39.583
789.49	39.394
789.80	32.824
790.11	57.143
790.41	49.505
790.72	54.217
791.03	45.652
791.33	46.512
791.64	45.361
791.95	48.515
792.25	55.556
792.56	55.844
792.87	73.077
793.17	62.025
793.48	66.667
793.79	55.172
794.09	48.864
794.40	43.697
794.70	38.235
795.01	38.519
795.32	38.849
795.62	41.732
795.93	44.828
796.23	36.283
796.54	41.176
796.85	71.622
797.15	74.648
797.46	50.000
797.76	66.265
798.07	64.557
798.37	53.846
798.68	72.727
798.99	47.887
799.29	61.039
799.60	54.545
799.90	65.753
800.21	58.209
800.51	51.724
800.82	70.175
801.12	47.541
801.43	72.727
801.73	52.703
802.04	60.317
802.34	65.432
802.65	62.500
802.95	76.271
803.26	76.562
803.56	51.429
803.87	52.308
804.17	72.059
804.48	90.741
804.78	68.966
805.09	66.176
805.39	82.692
805.70	53.571
806.00	85.246
806.30	60.606
806.61	73.171
806.91	49.367
807.22	60.526
807.52	38.806
807.83	54.930
808.13	78.125
808.43	66.667
808.74	46.053
809.04	53.623
809.35	65.672
809.65	60.526
809.95	80.645
810.26	77.966
810.56	73.016
810.86	77.273
811.17	107.143
811.47	90.000
811.77	74.074
812.08	81.818
812.38	80.000
812.69	100.000
812.99	118.182
813.29	79.592
813.59	92.857
813.90	104.082
814.20	74.545
814.50	60.000
814.81	82.353
815.11	81.633
815.41	73.770
815.72	95.238
816.02	83.636
816.32	95.238
816.62	77.500
816.93	95.122
817.23	107.143
817.53	100.000
817.84	124.242
818.14	95.652
818.44	91.111
818.74	117.647
819.04	120.000
819.35	125.714
819.65	132.353
819.95	132.143
820.25	80.000
820.56	128.205
820.86	95.455
821.16	111.628
821.46	112.821
821.76	86.000
822.07	128.571
822.37	90.000
822.67	145.455
822.97	64.706
823.27	121.429
823.57	102.703
823.88	107.500
824.18	133.333
824.48	126.190
824.78	164.000
825.08	141.667
825.38	116.216
825.69	107.317
825.99	150.000
826.29	117.241
826.59	121.053
826.89	131.579
827.19	117.647
827.49	129.032
827.79	100.000
828.09	109.091
828.39	82.979
828.70	85.714
829.00	122.222
829.30	116.129
829.60	85.000
829.90	200.000
830.20	132.143
830.50	126.087
830.80	169.565
831.10	140.000
831.40	120.000
831.70	147.826
832.00	153.846
832.30	129.630
832.60	256.250
832.90	153.333
833.20	307.143
833.50	138.710
833.80	120.690
834.10	150.000
834.40	161.538
834.70	222.222
835.00	261.905
835.30	85.714
835.60	230.769
835.90	124.138
836.20	200.000
836.50	117.241
836.80	144.000
837.10	133.333
837.40	242.857
837.70	200.000
838.00	129.630
838.30	185.714
838.60	204.762
838.90	184.615
839.19	215.000
839.49	307.143
839.79	270.000
840.09	180.000
840.39	195.238
840.69	178.261
840.99	211.111
841.29	280.000
841.59	133.333
841.88	237.500
842.18	148.276
842.48	176.190
842.78	150.000
843.08	139.130
843.38	150.000
843.68	533.333
843.97	180.769
844.27	162.069
844.57	223.810
844.87	237.500
845.17	144.444
845.47	1066.667
845.76	300.000
846.06	223.529
846.36	375.000
846.66	250.000
846.96	187.500
847.25	281.818
847.55	290.909
847.85	208.696
848.15	300.000
848.44	264.286
848.74	205.556
849.04	211.765
849.34	420.000
849.63	194.737
849.93	363.636
850.23	720.000
850.53	285.714
850.82	1400.000
851.12	-3500.000
851.42	4300.000
851.71	190.000
852.01	-800.000
852.31	179.167
852.61	1100.000
852.90	190.476
853.20	156.000
853.50	188.235
853.79	176.190
854.09	183.333
854.39	212.500
854.68	140.541
854.98	132.258
855.28	133.333
855.57	175.862
855.87	148.148
856.17	231.579
856.46	226.667
856.76	211.765
857.05	158.621
857.35	137.500
857.65	253.333
857.94	160.870
858.24	180.769
858.53	195.000
858.83	150.000
859.13	240.000
859.42	0.000
859.72	444.444
860.01	245.455
860.31	186.364
860.60	226.316
860.90	143.478
861.20	211.111
861.49	350.000
861.79	-2900.000
862.08	462.500
862.38	185.714
862.67	238.462
862.97	217.647
863.26	366.667
863.56	183.333
863.85	258.333
864.15	287.500
864.44	193.333
864.74	666.667
865.03	437.500
865.33	215.789
865.62	418.182
865.92	276.923
866.21	250.000
866.51	0.000
866.80	327.273
867.10	780.000
867.39	338.462
867.69	327.273
867.98	221.053
868.27	309.091
868.57	189.474
868.86	-3300.000
869.16	237.500
869.45	2050.000
869.75	-3300.000
870.04	308.333
870.33	457.143
870.63	700.000
870.92	1950.000
871.22	414.286
871.51	282.353
871.80	142.857
872.10	171.429
>>>>>End Processed Spectral Data<<<<<
