SpectraSuite Data File
++++++++++++++++++++++++++++++++++++
Date: Wed May 13 20:35:43 PDT 2015
User: schluterlab
Dark Spectrum Present: Yes
Reference Spectrum Present: Yes
Number of Sampled Component Spectra: 1
Spectrometers: USB2E3373
Integration Time (usec): 3000 (USB2E3373)
Spectra Averaged: 3 (USB2E3373)
Boxcar Smoothing: 0 (USB2E3373)
Correct for Electrical Dark: No (USB2E3373)
Strobe/Lamp Enabled: No (USB2E3373)
Correct for Detector Non-linearity: No (USB2E3373)
Correct for Stray Light: No (USB2E3373)
Number of Pixels in Processed Spectrum: 2048
>>>>>Begin Processed Spectral Data<<<<<
178.53	0.000
178.91	-850.000
179.29	-925.000
179.67	-155.556
180.04	-975.000
180.42	1550.000
180.80	720.000
181.18	-925.000
181.56	442.857
181.94	0.000
182.31	-471.429
182.69	1400.000
183.07	-437.500
183.45	-400.000
183.83	463.636
184.20	-250.000
184.58	1950.000
184.96	4200.000
185.34	-600.000
185.72	-437.500
186.09	-1500.000
186.47	2100.000
186.85	2000.000
187.23	3100.000
187.61	-833.333
187.98	950.000
188.36	463.636
188.74	318.182
189.12	-600.000
189.49	380.000
189.87	-3500.000
190.25	-750.000
190.63	364.286
191.00	276.923
191.38	700.000
191.76	-850.000
192.14	825.000
192.51	400.000
192.89	733.333
193.27	450.000
193.65	-950.000
194.02	370.000
194.40	640.000
194.78	380.000
195.15	400.000
195.53	480.000
195.91	-1150.000
196.29	250.000
196.66	226.316
197.04	-170.000
197.42	0.000
197.79	450.000
198.17	-3100.000
198.55	400.000
198.92	575.000
199.30	700.000
199.68	0.000
200.05	322.222
200.43	542.857
200.81	3500.000
201.18	1533.333
201.56	-1000.000
201.94	444.444
202.31	422.222
202.69	266.667
203.07	330.000
203.44	0.000
203.82	675.000
204.19	542.857
204.57	328.571
204.95	412.500
205.32	966.667
205.70	345.455
206.08	300.000
206.45	1800.000
206.83	262.500
207.20	766.667
207.58	480.000
207.96	266.667
208.33	550.000
208.71	-666.667
209.08	614.286
209.46	444.444
209.84	336.364
210.21	-900.000
210.59	1000.000
210.96	-400.000
211.34	1950.000
211.71	450.000
212.09	350.000
212.46	0.000
212.84	1333.333
213.22	950.000
213.59	-4100.000
213.97	666.667
214.34	700.000
214.72	472.727
215.09	700.000
215.47	-1900.000
215.84	-2050.000
216.22	1466.667
216.59	350.000
216.97	1150.000
217.34	345.455
217.72	-533.333
218.09	0.000
218.47	-2800.000
218.84	600.000
219.22	514.286
219.59	1133.333
219.97	-271.429
220.34	620.000
220.72	-1433.333
221.09	371.429
221.47	1100.000
221.84	-900.000
222.22	0.000
222.59	975.000
222.97	-1950.000
223.34	1020.000
223.72	346.154
224.09	760.000
224.46	1350.000
224.84	-3000.000
225.21	-820.000
225.59	-2300.000
225.96	510.000
226.34	240.000
226.71	2150.000
227.08	450.000
227.46	470.000
227.83	-550.000
228.21	-1350.000
228.58	600.000
228.95	-1350.000
229.33	-1650.000
229.70	1100.000
230.08	628.571
230.45	-780.000
230.82	266.667
231.20	566.667
231.57	614.286
231.95	325.000
232.32	200.000
232.69	272.727
233.07	400.000
233.44	330.769
233.81	-1533.333
234.19	247.368
234.56	350.000
234.93	241.667
235.31	254.545
235.68	269.231
236.05	257.143
236.43	133.333
236.80	205.263
237.17	3200.000
237.55	171.429
237.92	185.714
238.29	171.429
238.67	119.355
239.04	137.931
239.41	111.111
239.79	100.000
240.16	123.810
240.53	104.545
240.91	92.157
241.28	82.000
241.65	88.000
242.02	75.362
242.40	82.258
242.77	73.333
243.14	61.290
243.51	61.798
243.89	61.176
244.26	65.556
244.63	50.538
245.00	60.638
245.38	54.455
245.75	54.206
246.12	58.716
246.49	55.474
246.87	52.000
247.24	59.231
247.61	41.429
247.98	45.752
248.36	46.622
248.73	44.586
249.10	48.408
249.47	43.503
249.84	48.663
250.22	46.524
250.59	45.562
250.96	48.485
251.33	41.706
251.70	46.535
252.08	42.857
252.45	41.256
252.82	38.696
253.19	40.426
253.56	41.176
253.94	41.909
254.31	37.500
254.68	41.923
255.05	38.376
255.42	38.211
255.79	36.765
256.16	38.989
256.54	33.569
256.91	38.790
257.28	33.094
257.65	41.914
258.02	40.683
258.39	34.069
258.76	35.117
259.14	36.012
259.51	32.523
259.88	31.366
260.25	36.858
260.62	34.971
260.99	38.820
261.36	36.937
261.73	33.238
262.10	34.012
262.47	36.620
262.85	34.262
263.22	33.333
263.59	36.467
263.96	29.121
264.33	34.987
264.70	35.789
265.07	34.527
265.44	32.323
265.81	32.603
266.18	35.176
266.55	33.171
266.92	31.695
267.29	33.333
267.66	32.569
268.03	33.864
268.40	31.542
268.77	31.981
269.14	30.856
269.51	32.506
269.88	33.566
270.25	30.926
270.62	32.584
270.99	30.323
271.36	31.974
271.73	32.710
272.10	33.913
272.47	32.688
272.84	31.818
273.21	31.866
273.58	31.223
273.95	30.608
274.32	30.372
274.69	30.621
275.06	32.087
275.43	30.851
275.80	31.864
276.17	30.346
276.54	33.056
276.91	30.830
277.28	31.250
277.65	33.849
278.02	32.298
278.39	32.422
278.76	30.000
279.13	30.943
279.50	31.471
279.87	31.873
280.23	27.745
280.60	30.754
280.97	30.684
281.34	29.735
281.71	30.545
282.08	32.438
282.45	28.364
282.82	29.485
283.19	27.451
283.56	28.596
283.92	30.964
284.29	27.160
284.66	29.583
285.03	30.199
285.40	28.521
285.77	29.630
286.14	30.915
286.51	30.000
286.87	30.427
287.24	31.596
287.61	27.769
287.98	29.383
288.35	28.051
288.72	28.193
289.08	27.074
289.45	26.524
289.82	25.854
290.19	26.531
290.56	26.953
290.93	26.133
291.29	28.374
291.66	25.664
292.03	26.599
292.40	28.488
292.77	23.373
293.13	24.925
293.50	25.656
293.87	24.593
294.24	25.481
294.60	24.017
294.97	24.128
295.34	25.670
295.71	25.000
296.08	21.795
296.44	22.008
296.81	22.853
297.18	24.255
297.55	21.636
297.91	22.955
298.28	21.687
298.65	23.760
299.02	22.134
299.38	21.381
299.75	20.889
300.12	21.456
300.48	20.375
300.85	22.935
301.22	21.274
301.59	21.717
301.95	20.907
302.32	22.850
302.69	20.430
303.05	21.576
303.42	19.877
303.79	20.838
304.15	20.862
304.52	20.510
304.89	19.977
305.25	21.114
305.62	20.612
305.99	21.251
306.35	20.694
306.72	21.413
307.09	20.089
307.45	20.946
307.82	21.205
308.19	20.861
308.55	20.388
308.92	20.301
309.29	20.169
309.65	20.467
310.02	21.036
310.38	19.785
310.75	20.063
311.12	20.266
311.48	19.122
311.85	20.650
312.22	20.395
312.58	20.062
312.95	20.908
313.31	19.320
313.68	20.894
314.05	21.795
314.41	20.402
314.78	20.645
315.14	19.166
315.51	19.979
315.87	20.594
316.24	20.357
316.61	22.125
316.97	20.744
317.34	20.744
317.70	22.371
318.07	21.078
318.43	22.407
318.80	22.680
319.16	21.846
319.53	21.388
319.89	22.190
320.26	23.200
320.62	23.214
320.99	22.525
321.35	22.828
321.72	23.819
322.08	24.383
322.45	23.483
322.81	24.612
323.18	25.337
323.54	24.026
323.91	25.660
324.27	25.717
324.64	25.349
325.00	25.158
325.37	27.025
325.73	27.738
326.10	27.361
326.46	27.151
326.83	28.645
327.19	28.096
327.56	29.094
327.92	29.221
328.29	29.015
328.65	30.571
329.01	29.964
329.38	29.417
329.74	30.379
330.11	30.537
330.47	30.211
330.84	31.710
331.20	31.148
331.56	31.193
331.93	29.907
332.29	30.790
332.66	32.124
333.02	30.622
333.38	30.443
333.75	33.422
334.11	31.584
334.48	31.233
334.84	31.801
335.20	32.364
335.57	31.822
335.93	31.071
336.29	31.593
336.66	32.011
337.02	30.498
337.38	33.056
337.75	31.283
338.11	31.065
338.47	32.136
338.84	32.997
339.20	32.202
339.56	33.668
339.93	32.545
340.29	31.793
340.65	32.353
341.02	33.857
341.38	33.096
341.74	33.772
342.11	33.450
342.47	33.040
342.83	31.678
343.20	34.199
343.56	32.856
343.92	32.456
344.28	32.228
344.65	33.534
345.01	31.734
345.37	33.105
345.73	31.641
346.10	33.760
346.46	32.034
346.82	32.208
347.19	32.498
347.55	32.020
347.91	33.738
348.27	33.361
348.63	34.281
349.00	32.605
349.36	32.594
349.72	33.601
350.08	32.820
350.45	32.954
350.81	32.900
351.17	34.036
351.53	33.333
351.89	32.261
352.26	33.781
352.62	34.483
352.98	33.225
353.34	33.196
353.70	32.815
354.07	33.387
354.43	32.540
354.79	33.226
355.15	31.844
355.51	33.413
355.87	34.531
356.24	33.388
356.60	31.836
356.96	33.387
357.32	33.524
357.68	32.835
358.04	33.492
358.40	33.096
358.77	33.255
359.13	33.307
359.49	33.098
359.85	33.413
360.21	33.652
360.57	35.486
360.93	33.846
361.29	33.409
361.66	32.663
362.02	33.433
362.38	33.080
362.74	33.482
363.10	33.457
363.46	34.043
363.82	33.182
364.18	34.141
364.54	34.621
364.90	34.419
365.26	34.779
365.62	34.770
365.98	33.163
366.35	33.596
366.71	34.201
367.07	34.159
367.43	34.978
367.79	35.046
368.15	34.842
368.51	34.811
368.87	34.547
369.23	35.040
369.59	34.323
369.95	34.779
370.31	33.974
370.67	33.261
371.03	34.831
371.39	34.548
371.75	34.779
372.11	33.926
372.47	35.411
372.83	35.879
373.19	34.176
373.55	34.959
373.91	35.272
374.27	34.914
374.63	35.273
374.99	35.593
375.35	34.264
375.71	34.544
376.07	35.391
376.42	36.039
376.78	34.062
377.14	35.210
377.50	35.497
377.86	34.907
378.22	36.283
378.58	34.837
378.94	35.512
379.30	35.051
379.66	36.041
380.02	35.872
380.38	34.487
380.74	35.174
381.09	36.980
381.45	37.492
381.81	36.241
382.17	34.904
382.53	35.535
382.89	35.926
383.25	37.023
383.61	37.546
383.97	37.398
384.32	35.246
384.68	35.998
385.04	35.157
385.40	35.418
385.76	35.811
386.12	37.111
386.48	36.879
386.83	36.818
387.19	38.157
387.55	36.178
387.91	36.276
388.27	36.358
388.62	37.246
388.98	35.934
389.34	36.671
389.70	37.278
390.06	36.819
390.42	37.484
390.77	36.832
391.13	36.950
391.49	37.437
391.85	36.092
392.20	37.161
392.56	36.490
392.92	37.905
393.28	36.331
393.64	37.830
393.99	36.897
394.35	36.663
394.71	37.327
395.07	36.262
395.42	36.712
395.78	37.023
396.14	36.747
396.50	36.591
396.85	35.728
397.21	35.820
397.57	36.640
397.92	36.418
398.28	36.211
398.64	37.455
399.00	36.989
399.35	35.646
399.71	36.921
400.07	37.079
400.42	36.748
400.78	36.610
401.14	36.829
401.49	36.299
401.85	37.024
402.21	35.928
402.57	36.644
402.92	36.885
403.28	37.851
403.63	37.129
403.99	36.688
404.35	37.576
404.70	36.271
405.06	36.867
405.42	37.929
405.77	36.000
406.13	36.625
406.49	37.079
406.84	35.913
407.20	36.170
407.55	36.950
407.91	37.200
408.27	37.524
408.62	35.822
408.98	35.784
409.34	36.039
409.69	36.258
410.05	36.183
410.40	36.942
410.76	36.738
411.11	35.766
411.47	36.677
411.83	36.469
412.18	35.683
412.54	35.866
412.89	35.964
413.25	36.305
413.60	35.763
413.96	35.641
414.31	35.905
414.67	36.122
415.03	35.960
415.38	36.920
415.74	36.270
416.09	36.839
416.45	34.873
416.80	35.228
417.16	37.198
417.51	37.359
417.87	36.159
418.22	35.079
418.58	36.669
418.93	35.504
419.29	35.964
419.64	35.957
420.00	35.549
420.35	35.594
420.71	36.999
421.06	35.263
421.42	35.556
421.77	35.930
422.12	34.868
422.48	35.564
422.83	34.828
423.19	34.917
423.54	35.055
423.90	35.188
424.25	35.399
424.61	35.476
424.96	34.985
425.31	35.382
425.67	35.000
426.02	34.629
426.38	35.653
426.73	35.050
427.09	35.137
427.44	35.538
427.79	34.158
428.15	35.179
428.50	34.991
428.85	35.518
429.21	35.726
429.56	34.785
429.92	34.273
430.27	34.161
430.62	34.665
430.98	34.406
431.33	34.794
431.68	34.974
432.04	33.653
432.39	35.465
432.74	34.829
433.10	34.692
433.45	34.636
433.80	34.035
434.16	34.615
434.51	34.632
434.86	34.949
435.22	34.019
435.57	35.076
435.92	33.470
436.28	34.757
436.63	34.658
436.98	33.543
437.34	34.943
437.69	35.356
438.04	33.614
438.39	34.866
438.75	34.689
439.10	33.799
439.45	35.065
439.81	33.958
440.16	33.710
440.51	34.446
440.86	34.453
441.22	33.482
441.57	32.962
441.92	33.675
442.27	33.531
442.63	34.597
442.98	34.986
443.33	33.967
443.68	33.609
444.03	33.968
444.39	32.765
444.74	33.117
445.09	33.531
445.44	32.586
445.79	33.597
446.15	33.033
446.50	33.172
446.85	34.070
447.20	33.656
447.55	32.887
447.91	32.819
448.26	32.276
448.61	33.578
448.96	33.942
449.31	32.902
449.66	32.696
450.02	32.925
450.37	33.447
450.72	33.277
451.07	32.236
451.42	33.070
451.77	32.707
452.12	33.256
452.47	32.774
452.83	32.751
453.18	32.641
453.53	33.395
453.88	31.896
454.23	32.098
454.58	32.041
454.93	33.566
455.28	31.733
455.63	31.553
455.98	32.917
456.34	32.224
456.69	32.436
457.04	32.817
457.39	32.788
457.74	31.515
458.09	31.340
458.44	32.383
458.79	30.586
459.14	32.844
459.49	32.166
459.84	31.191
460.19	31.526
460.54	30.093
460.89	31.871
461.24	30.905
461.59	32.307
461.94	30.949
462.29	31.810
462.64	31.334
462.99	30.384
463.34	32.000
463.69	30.832
464.04	30.319
464.39	31.362
464.74	30.303
465.09	30.036
465.44	30.416
465.79	30.369
466.14	30.432
466.49	30.256
466.84	30.706
467.19	30.477
467.54	30.438
467.89	29.772
468.24	30.716
468.59	30.647
468.94	30.055
469.29	30.398
469.64	30.522
469.99	29.635
470.34	28.864
470.68	30.532
471.03	28.912
471.38	30.368
471.73	29.580
472.08	29.474
472.43	28.832
472.78	29.625
473.13	29.268
473.48	30.275
473.83	29.878
474.17	29.185
474.52	29.280
474.87	30.356
475.22	28.497
475.57	29.608
475.92	28.731
476.27	29.312
476.61	28.847
476.96	28.037
477.31	28.781
477.66	28.884
478.01	28.437
478.36	28.926
478.70	27.934
479.05	28.328
479.40	28.506
479.75	28.368
480.10	28.479
480.45	27.035
480.79	26.995
481.14	27.642
481.49	28.239
481.84	27.115
482.19	27.351
482.53	27.661
482.88	26.989
483.23	27.523
483.58	27.025
483.92	27.366
484.27	27.277
484.62	27.414
484.97	26.330
485.31	26.507
485.66	26.155
486.01	25.792
486.36	25.798
486.70	25.988
487.05	26.455
487.40	25.766
487.75	25.821
488.09	26.266
488.44	25.284
488.79	25.931
489.13	26.509
489.48	26.387
489.83	25.939
490.17	26.655
490.52	25.686
490.87	25.690
491.22	26.194
491.56	25.877
491.91	25.872
492.26	25.448
492.60	26.037
492.95	25.631
493.30	25.701
493.64	26.085
493.99	25.348
494.34	25.532
494.68	26.557
495.03	26.175
495.37	25.872
495.72	25.390
496.07	26.265
496.41	24.071
496.76	25.198
497.11	25.439
497.45	25.803
497.80	25.720
498.14	25.024
498.49	25.561
498.84	24.928
499.18	25.619
499.53	25.878
499.87	25.116
500.22	25.106
500.56	26.359
500.91	25.144
501.26	25.036
501.60	25.486
501.95	24.748
502.29	25.539
502.64	24.581
502.98	24.731
503.33	24.269
503.67	25.336
504.02	24.462
504.36	24.661
504.71	24.670
505.06	24.675
505.40	24.113
505.75	24.253
506.09	24.344
506.44	24.568
506.78	23.916
507.13	24.987
507.47	24.798
507.82	25.329
508.16	24.721
508.51	24.759
508.85	23.684
509.19	24.490
509.54	24.745
509.88	24.317
510.23	23.805
510.57	24.871
510.92	24.184
511.26	24.615
511.61	24.326
511.95	23.747
512.30	23.701
512.64	23.912
512.98	23.901
513.33	24.518
513.67	22.679
514.02	23.918
514.36	23.703
514.70	24.073
515.05	24.094
515.39	24.790
515.74	24.381
516.08	23.477
516.42	24.528
516.77	25.084
517.11	23.585
517.46	24.323
517.80	24.042
518.14	23.798
518.49	24.212
518.83	23.750
519.17	23.845
519.52	23.599
519.86	24.073
520.20	23.642
520.55	24.237
520.89	23.540
521.23	23.945
521.58	23.830
521.92	24.250
522.26	23.002
522.61	23.551
522.95	23.266
523.29	23.615
523.64	23.537
523.98	23.660
524.32	23.040
524.66	23.993
525.01	23.346
525.35	23.792
525.69	23.584
526.04	23.863
526.38	23.978
526.72	23.129
527.06	23.164
527.41	21.782
527.75	24.309
528.09	23.250
528.43	23.072
528.78	23.171
529.12	22.303
529.46	23.393
529.80	23.577
530.15	23.115
530.49	22.892
530.83	23.165
531.17	23.433
531.51	24.643
531.86	22.645
532.20	23.794
532.54	23.831
532.88	24.069
533.22	22.923
533.57	22.963
533.91	23.721
534.25	23.269
534.59	23.246
534.93	22.368
535.27	22.692
535.62	22.650
535.96	23.227
536.30	22.314
536.64	23.181
536.98	22.960
537.32	21.791
537.66	22.133
538.01	23.305
538.35	23.465
538.69	22.846
539.03	22.482
539.37	21.661
539.71	21.646
540.05	22.288
540.39	21.927
540.73	21.992
541.07	23.297
541.42	22.570
541.76	23.484
542.10	22.639
542.44	23.311
542.78	23.386
543.12	22.137
543.46	22.098
543.80	24.073
544.14	21.759
544.48	22.794
544.82	22.963
545.16	22.707
545.50	21.337
545.84	23.185
546.18	22.559
546.52	22.299
546.86	22.612
547.20	22.724
547.54	22.578
547.88	22.385
548.22	22.229
548.56	22.390
548.90	21.447
549.24	22.020
549.58	22.647
549.92	21.909
550.26	23.295
550.60	21.715
550.94	22.183
551.28	22.165
551.62	23.005
551.96	21.123
552.30	22.730
552.64	21.839
552.98	22.915
553.32	21.915
553.66	23.313
554.00	22.443
554.34	21.463
554.68	23.462
555.02	22.355
555.36	21.642
555.69	21.245
556.03	21.265
556.37	21.146
556.71	21.282
557.05	22.199
557.39	21.554
557.73	22.230
558.07	22.117
558.41	21.780
558.75	22.851
559.08	21.104
559.42	22.147
559.76	21.471
560.10	20.985
560.44	21.454
560.78	20.692
561.12	21.306
561.45	21.121
561.79	20.435
562.13	20.858
562.47	21.790
562.81	21.897
563.15	20.936
563.48	20.955
563.82	21.070
564.16	21.190
564.50	20.573
564.84	21.934
565.17	20.721
565.51	21.086
565.85	21.003
566.19	19.599
566.52	20.836
566.86	20.133
567.20	20.873
567.54	20.605
567.88	20.261
568.21	21.534
568.55	20.425
568.89	20.963
569.23	20.053
569.56	20.243
569.90	20.377
570.24	20.739
570.57	20.163
570.91	18.940
571.25	19.889
571.59	20.088
571.92	19.988
572.26	19.700
572.60	20.300
572.93	19.370
573.27	20.112
573.61	19.765
573.95	19.483
574.28	19.598
574.62	19.704
574.96	19.211
575.29	19.665
575.63	19.614
575.97	19.266
576.30	19.543
576.64	19.181
576.98	19.324
577.31	19.270
577.65	19.240
577.98	19.542
578.32	19.500
578.66	19.203
578.99	19.425
579.33	19.390
579.67	19.217
580.00	18.892
580.34	19.198
580.67	18.932
581.01	19.429
581.35	19.084
581.68	19.416
582.02	18.944
582.35	19.168
582.69	19.064
583.02	18.728
583.36	19.115
583.70	19.281
584.03	18.966
584.37	19.209
584.70	18.521
585.04	18.518
585.37	19.222
585.71	19.337
586.04	19.038
586.38	19.096
586.72	19.856
587.05	19.343
587.39	18.391
587.72	19.299
588.06	19.317
588.39	19.177
588.73	19.302
589.06	19.196
589.40	19.259
589.73	19.676
590.07	19.075
590.40	18.962
590.73	19.477
591.07	19.780
591.40	19.317
591.74	20.087
592.07	19.372
592.41	19.016
592.74	18.876
593.08	19.454
593.41	19.646
593.75	18.488
594.08	19.209
594.41	19.265
594.75	19.298
595.08	18.969
595.42	18.844
595.75	18.875
596.09	19.377
596.42	19.332
596.75	18.911
597.09	19.654
597.42	18.423
597.75	19.319
598.09	19.348
598.42	19.201
598.76	18.849
599.09	18.890
599.42	19.250
599.76	19.143
600.09	18.761
600.42	18.554
600.76	18.286
601.09	18.652
601.42	19.178
601.76	18.824
602.09	18.696
602.42	18.869
602.76	19.146
603.09	18.529
603.42	19.328
603.76	18.902
604.09	19.077
604.42	18.426
604.76	19.106
605.09	19.528
605.42	18.598
605.75	18.377
606.09	18.341
606.42	18.594
606.75	18.706
607.09	18.460
607.42	19.127
607.75	18.186
608.08	18.281
608.42	19.184
608.75	18.936
609.08	18.825
609.41	18.039
609.75	18.056
610.08	18.803
610.41	18.156
610.74	18.023
611.07	19.071
611.41	18.695
611.74	18.703
612.07	19.203
612.40	19.412
612.73	18.474
613.07	19.289
613.40	19.273
613.73	17.724
614.06	18.656
614.39	18.825
614.72	18.895
615.06	19.328
615.39	19.055
615.72	18.814
616.05	18.767
616.38	18.399
616.71	19.418
617.05	18.375
617.38	18.400
617.71	18.498
618.04	19.050
618.37	18.096
618.70	18.917
619.03	19.605
619.36	18.058
619.69	19.648
620.03	19.231
620.36	19.452
620.69	19.041
621.02	19.100
621.35	18.637
621.68	18.302
622.01	19.118
622.34	19.213
622.67	18.707
623.00	18.709
623.33	19.299
623.66	18.585
623.99	20.103
624.32	19.472
624.65	18.220
624.99	18.059
625.32	18.465
625.65	19.684
625.98	19.600
626.31	19.518
626.64	20.000
626.97	18.537
627.30	18.786
627.63	19.442
627.96	20.269
628.29	19.073
628.62	19.945
628.95	20.472
629.28	19.252
629.61	19.982
629.94	19.714
630.26	18.398
630.59	18.780
630.92	19.349
631.25	18.559
631.58	19.920
631.91	18.966
632.24	18.565
632.57	19.307
632.90	19.408
633.23	18.568
633.56	19.435
633.89	19.932
634.22	20.204
634.55	20.710
634.88	18.084
635.20	19.713
635.53	19.639
635.86	19.678
636.19	18.941
636.52	19.839
636.85	19.588
637.18	20.622
637.51	20.567
637.83	18.496
638.16	20.077
638.49	19.899
638.82	19.975
639.15	19.625
639.48	19.077
639.81	19.839
640.13	20.833
640.46	21.611
640.79	20.211
641.12	18.569
641.45	19.972
641.77	20.177
642.10	21.637
642.43	19.069
642.76	20.588
643.09	21.012
643.41	20.182
643.74	20.525
644.07	20.579
644.40	21.933
644.73	21.575
645.05	21.712
645.38	19.589
645.71	20.934
646.04	19.269
646.36	21.703
646.69	21.572
647.02	22.619
647.35	21.649
647.67	21.416
648.00	23.902
648.33	19.967
648.66	21.212
648.98	21.289
649.31	20.329
649.64	20.777
649.96	19.374
650.29	20.221
650.62	20.227
650.94	21.556
651.27	22.128
651.60	20.632
651.92	20.607
652.25	19.218
652.58	20.717
652.90	22.275
653.23	19.414
653.56	19.685
653.88	19.968
654.21	21.485
654.54	20.462
654.86	20.405
655.19	20.000
655.52	15.720
655.84	15.680
656.17	20.362
656.49	27.611
656.82	27.296
657.15	20.209
657.47	14.868
657.80	11.154
658.13	11.134
658.45	16.223
658.78	15.748
659.10	15.381
659.43	15.555
659.75	16.704
660.08	16.709
660.41	17.505
660.73	19.949
661.06	20.064
661.38	21.455
661.71	21.346
662.03	22.288
662.36	17.495
662.68	22.892
663.01	23.232
663.33	22.081
663.66	21.429
663.98	21.598
664.31	23.739
664.63	22.065
664.96	18.913
665.28	21.516
665.61	21.442
665.93	20.322
666.26	21.704
666.58	22.594
666.91	21.987
667.23	22.921
667.56	19.438
667.88	22.009
668.21	22.388
668.53	21.475
668.86	18.182
669.18	24.094
669.50	21.304
669.83	25.054
670.15	22.667
670.48	22.440
670.80	23.491
671.13	24.416
671.45	20.851
671.77	24.644
672.10	22.366
672.42	21.555
672.75	22.222
673.07	21.831
673.39	21.700
673.72	19.336
674.04	20.980
674.37	21.165
674.69	19.018
675.01	19.874
675.34	21.766
675.66	23.368
675.98	21.996
676.31	22.899
676.63	23.142
676.95	19.287
677.28	18.925
677.60	22.857
677.92	23.840
678.25	20.123
678.57	23.307
678.89	23.046
679.22	22.004
679.54	20.992
679.86	22.936
680.18	22.004
680.51	20.922
680.83	21.530
681.15	21.887
681.48	21.739
681.80	20.309
682.12	20.690
682.44	20.116
682.77	22.200
683.09	21.030
683.41	20.621
683.73	22.958
684.06	23.967
684.38	20.939
684.70	21.705
685.02	21.013
685.34	21.062
685.67	20.979
685.99	21.306
686.31	21.331
686.63	20.848
686.96	21.607
687.28	21.300
687.60	21.014
687.92	20.293
688.24	20.913
688.56	24.498
688.89	23.651
689.21	22.707
689.53	22.756
689.85	24.612
690.17	20.290
690.49	24.841
690.82	20.561
691.14	18.973
691.46	20.042
691.78	21.888
692.10	23.347
692.42	22.555
692.74	20.332
693.06	21.915
693.39	24.435
693.71	24.236
694.03	22.947
694.35	21.861
694.67	20.137
694.99	22.927
695.31	21.078
695.63	20.096
695.95	23.716
696.27	18.782
696.59	21.762
696.91	25.648
697.23	20.423
697.56	23.667
697.88	18.814
698.20	21.667
698.52	22.581
698.84	21.158
699.16	21.429
699.48	23.753
699.80	21.498
700.12	23.636
700.44	22.281
700.76	20.442
701.08	23.563
701.40	23.184
701.72	27.697
702.04	27.557
702.36	20.397
702.68	24.363
703.00	24.377
703.32	23.138
703.64	24.397
703.96	21.448
704.28	21.512
704.60	26.686
704.91	25.519
705.23	26.686
705.55	29.900
705.87	27.243
706.19	24.382
706.51	25.234
706.83	25.152
707.15	23.249
707.47	22.475
707.79	25.307
708.11	19.406
708.43	22.619
708.74	20.663
709.06	23.896
709.38	21.260
709.70	22.965
710.02	25.519
710.34	21.515
710.66	24.179
710.98	27.273
711.29	25.291
711.61	27.139
711.93	25.321
712.25	27.974
712.57	23.529
712.89	26.298
713.20	25.836
713.52	23.684
713.84	25.316
714.16	23.476
714.48	20.115
714.80	27.052
715.11	22.478
715.43	24.332
715.75	25.217
716.07	22.364
716.39	19.749
716.70	26.578
717.02	27.698
717.34	28.269
717.66	24.627
717.97	29.880
718.29	26.296
718.61	27.737
718.93	27.574
719.24	26.990
719.56	26.441
719.88	26.441
720.20	23.986
720.51	29.965
720.83	27.138
721.15	21.642
721.46	24.823
721.78	28.674
722.10	25.660
722.42	28.571
722.73	25.468
723.05	25.820
723.37	25.101
723.68	27.027
724.00	30.488
724.32	25.000
724.63	29.675
724.95	25.523
725.27	29.150
725.58	29.687
725.90	28.832
726.22	29.057
726.53	25.000
726.85	26.962
727.16	22.420
727.48	26.950
727.80	25.379
728.11	25.362
728.43	23.462
728.74	24.731
729.06	32.482
729.38	30.147
729.69	29.181
730.01	26.280
730.32	30.556
730.64	24.415
730.96	21.782
731.27	26.159
731.59	27.523
731.90	23.032
732.22	24.845
732.53	21.053
732.85	26.603
733.16	24.437
733.48	23.256
733.80	27.922
734.11	22.611
734.43	26.036
734.74	22.000
735.06	22.636
735.37	26.012
735.69	21.338
736.00	25.817
736.32	23.676
736.63	26.837
736.95	27.796
737.26	20.748
737.58	22.903
737.89	25.418
738.21	26.280
738.52	22.500
738.83	26.038
739.15	28.077
739.46	27.372
739.78	26.736
740.09	25.538
740.41	26.452
740.72	22.648
741.04	28.519
741.35	28.333
741.66	33.778
741.98	28.302
742.29	35.885
742.61	31.897
742.92	28.054
743.23	27.778
743.55	30.400
743.86	27.193
744.18	28.761
744.49	33.014
744.80	33.333
745.12	32.727
745.43	30.396
745.74	31.982
746.06	30.275
746.37	27.803
746.68	31.674
747.00	31.019
747.31	32.857
747.62	28.761
747.94	30.837
748.25	24.681
748.56	32.599
748.88	29.208
749.19	36.500
749.50	30.233
749.82	23.984
750.13	26.122
750.44	23.358
750.75	30.877
751.07	28.617
751.38	29.268
751.69	27.798
752.01	26.316
752.32	28.159
752.63	28.723
752.94	28.279
753.26	28.000
753.57	23.577
753.88	30.469
754.19	27.857
754.51	27.083
754.82	25.632
755.13	24.906
755.44	24.436
755.75	21.898
756.07	25.887
756.38	23.358
756.69	24.832
757.00	24.850
757.31	24.036
757.63	24.269
757.94	23.592
758.25	25.980
758.56	23.210
758.87	22.043
759.18	24.545
759.50	24.451
759.81	29.907
760.12	21.875
760.43	27.507
760.74	25.815
761.05	23.446
761.36	25.668
761.67	23.011
761.99	27.640
762.30	26.389
762.61	30.153
762.92	32.422
763.23	26.891
763.54	32.800
763.85	23.828
764.16	31.923
764.47	30.038
764.78	25.795
765.10	20.570
765.41	21.829
765.72	26.048
766.03	27.273
766.34	23.667
766.65	27.660
766.96	31.197
767.27	28.934
767.58	35.417
767.89	34.211
768.20	28.736
768.51	30.964
768.82	31.651
769.13	30.894
769.44	26.721
769.75	28.755
770.06	29.817
770.37	33.937
770.68	31.019
770.99	29.778
771.30	26.639
771.61	29.148
771.92	31.557
772.23	31.933
772.54	32.308
772.85	35.602
773.16	39.894
773.47	37.500
773.78	38.071
774.09	36.310
774.39	32.164
774.70	32.716
775.01	37.681
775.32	37.255
775.63	40.132
775.94	31.655
776.25	44.882
776.56	36.567
776.87	33.607
777.18	46.094
777.48	45.802
777.79	45.455
778.10	40.741
778.41	41.071
778.72	38.686
779.03	40.268
779.34	35.570
779.65	35.811
779.95	39.877
780.26	31.373
780.57	39.310
780.88	50.000
781.19	37.594
781.50	38.514
781.80	38.365
782.11	32.203
782.42	37.975
782.73	31.902
783.04	39.865
783.34	42.254
783.65	49.315
783.96	41.045
784.27	36.364
784.57	33.094
784.88	42.593
785.19	37.302
785.50	42.453
785.81	44.776
786.11	58.197
786.42	48.062
786.73	39.823
787.04	53.774
787.34	43.750
787.65	49.000
787.96	51.351
788.26	37.190
788.57	45.763
788.88	47.934
789.19	51.389
789.49	46.212
789.80	41.221
790.11	43.810
790.41	47.525
790.72	39.759
791.03	52.174
791.33	50.000
791.64	54.639
791.95	48.515
792.25	46.667
792.56	51.948
792.87	73.077
793.17	63.291
793.48	56.322
793.79	49.425
794.09	45.455
794.40	35.294
794.70	52.206
795.01	30.370
795.32	33.813
795.62	44.882
795.93	40.517
796.23	43.363
796.54	47.059
796.85	58.108
797.15	78.873
797.46	53.030
797.76	56.627
798.07	49.367
798.37	58.462
798.68	56.061
798.99	54.930
799.29	66.234
799.60	42.045
799.90	69.863
800.21	71.642
800.51	68.966
800.82	75.439
801.12	75.410
801.43	68.182
801.73	48.649
802.04	66.667
802.34	65.432
802.65	65.625
802.95	71.186
803.26	68.750
803.56	71.429
803.87	66.154
804.17	50.000
804.48	98.148
804.78	65.517
805.09	52.941
805.39	63.462
805.70	75.000
806.00	65.574
806.30	60.606
806.61	58.537
806.91	60.759
807.22	53.947
807.52	34.328
807.83	78.873
808.13	70.312
808.43	70.000
808.74	55.263
809.04	82.609
809.35	58.209
809.65	67.105
809.95	70.968
810.26	69.492
810.56	79.365
810.86	102.273
811.17	104.762
811.47	73.333
811.77	79.630
812.08	78.182
812.38	84.000
812.69	66.667
812.99	115.909
813.29	93.878
813.59	83.333
813.90	93.878
814.20	63.636
814.50	46.154
814.81	76.471
815.11	71.429
815.41	77.049
815.72	116.667
816.02	78.182
816.32	116.667
816.62	87.500
816.93	117.073
817.23	123.810
817.53	113.636
817.84	130.303
818.14	82.609
818.44	102.222
818.74	126.471
819.04	110.000
819.35	114.286
819.65	105.882
819.95	132.143
820.25	105.000
820.56	138.462
820.86	97.727
821.16	83.721
821.46	87.179
821.76	120.000
822.07	88.571
822.37	115.000
822.67	142.424
822.97	84.314
823.27	153.571
823.57	110.811
823.88	120.000
824.18	146.667
824.48	114.286
824.78	124.000
825.08	125.000
825.38	108.108
825.69	112.195
825.99	162.500
826.29	144.828
826.59	102.632
826.89	107.895
827.19	141.176
827.49	112.903
827.79	120.455
828.09	77.273
828.39	102.128
828.70	89.796
829.00	133.333
829.30	141.935
829.60	95.000
829.90	206.667
830.20	164.286
830.50	152.174
830.80	156.522
831.10	163.333
831.40	153.333
831.70	100.000
832.00	180.769
832.30	151.852
832.60	150.000
832.90	160.000
833.20	335.714
833.50	167.742
833.80	131.034
834.10	137.500
834.40	126.923
834.70	205.556
835.00	180.952
835.30	114.286
835.60	169.231
835.90	155.172
836.20	257.143
836.50	144.828
836.80	164.000
837.10	138.889
837.40	223.810
837.70	247.059
838.00	174.074
838.30	142.857
838.60	161.905
838.90	130.769
839.19	180.000
839.49	264.286
839.79	180.000
840.09	195.000
840.39	214.286
840.69	165.217
840.99	188.889
841.29	290.000
841.59	225.000
841.88	256.250
842.18	124.138
842.48	276.190
842.78	143.333
843.08	178.261
843.38	150.000
843.68	700.000
843.97	176.923
844.27	165.517
844.57	223.810
844.87	225.000
845.17	151.852
845.47	700.000
845.76	400.000
846.06	205.882
846.36	487.500
846.66	192.857
846.96	225.000
847.25	227.273
847.55	318.182
847.85	226.087
848.15	340.000
848.44	228.571
848.74	122.222
849.04	217.647
849.34	350.000
849.63	136.842
849.93	309.091
850.23	520.000
850.53	335.714
850.82	1900.000
851.12	-2900.000
851.42	3100.000
851.71	160.000
852.01	-833.333
852.31	191.667
852.61	1066.667
852.90	195.238
853.20	172.000
853.50	235.294
853.79	180.952
854.09	158.333
854.39	256.250
854.68	143.243
854.98	135.484
855.28	126.667
855.57	172.414
855.87	148.148
856.17	189.474
856.46	186.667
856.76	188.235
857.05	155.172
857.35	154.167
857.65	226.667
857.94	160.870
858.24	192.308
858.53	225.000
858.83	204.545
859.13	220.000
859.42	0.000
859.72	422.222
860.01	281.818
860.31	200.000
860.60	221.053
860.90	173.913
861.20	344.444
861.49	383.333
861.79	-3200.000
862.08	475.000
862.38	171.429
862.67	223.077
862.97	235.294
863.26	422.222
863.56	188.889
863.85	258.333
864.15	362.500
864.44	293.333
864.74	566.667
865.03	487.500
865.33	194.737
865.62	309.091
865.92	284.615
866.21	283.333
866.51	0.000
866.80	309.091
867.10	820.000
867.39	376.923
867.69	372.727
867.98	157.895
868.27	418.182
868.57	226.316
868.86	-3100.000
869.16	250.000
869.45	1450.000
869.75	-2500.000
870.04	266.667
870.33	542.857
870.63	750.000
870.92	1800.000
871.22	585.714
871.51	258.824
871.80	185.714
872.10	264.286
>>>>>End Processed Spectral Data<<<<<
