SpectraSuite Data File
++++++++++++++++++++++++++++++++++++
Date: Wed May 13 20:35:41 PDT 2015
User: schluterlab
Dark Spectrum Present: Yes
Reference Spectrum Present: Yes
Number of Sampled Component Spectra: 1
Spectrometers: USB2E3373
Integration Time (usec): 3000 (USB2E3373)
Spectra Averaged: 3 (USB2E3373)
Boxcar Smoothing: 0 (USB2E3373)
Correct for Electrical Dark: No (USB2E3373)
Strobe/Lamp Enabled: No (USB2E3373)
Correct for Detector Non-linearity: No (USB2E3373)
Correct for Stray Light: No (USB2E3373)
Number of Pixels in Processed Spectrum: 2048
>>>>>Begin Processed Spectral Data<<<<<
178.53	0.000
178.91	-975.000
179.29	-850.000
179.67	-144.444
180.04	-1025.000
180.42	1800.000
180.80	800.000
181.18	-725.000
181.56	428.571
181.94	0.000
182.31	-571.429
182.69	1700.000
183.07	-362.500
183.45	-377.778
183.83	427.273
184.20	-210.000
184.58	2000.000
184.96	4100.000
185.34	-740.000
185.72	-412.500
186.09	-1600.000
186.47	2200.000
186.85	2400.000
187.23	3200.000
187.61	-966.667
187.98	900.000
188.36	418.182
188.74	318.182
189.12	-700.000
189.49	540.000
189.87	-4300.000
190.25	-800.000
190.63	292.857
191.00	276.923
191.38	500.000
191.76	-900.000
192.14	900.000
192.51	487.500
192.89	750.000
193.27	462.500
193.65	-825.000
194.02	370.000
194.40	700.000
194.78	370.000
195.15	466.667
195.53	480.000
195.91	-1200.000
196.29	256.250
196.66	252.632
197.04	-200.000
197.42	0.000
197.79	460.000
198.17	-3700.000
198.55	600.000
198.92	525.000
199.30	740.000
199.68	0.000
200.05	261.111
200.43	614.286
200.81	2700.000
201.18	1333.333
201.56	-1400.000
201.94	333.333
202.31	444.444
202.69	358.333
203.07	410.000
203.44	0.000
203.82	975.000
204.19	600.000
204.57	335.714
204.95	475.000
205.32	1133.333
205.70	363.636
206.08	314.286
206.45	2250.000
206.83	293.750
207.20	550.000
207.58	520.000
207.96	233.333
208.33	587.500
208.71	-716.667
209.08	585.714
209.46	433.333
209.84	245.455
210.21	-766.667
210.59	875.000
210.96	-325.000
211.34	1950.000
211.71	320.000
212.09	516.667
212.46	0.000
212.84	1433.333
213.22	800.000
213.59	-3200.000
213.97	500.000
214.34	600.000
214.72	490.909
215.09	740.000
215.47	-1450.000
215.84	-1800.000
216.22	1266.667
216.59	271.429
216.97	950.000
217.34	418.182
217.72	-500.000
218.09	0.000
218.47	-3600.000
218.84	488.889
219.22	614.286
219.59	1000.000
219.97	-528.571
220.34	480.000
220.72	-1066.667
221.09	321.429
221.47	1075.000
221.84	-683.333
222.22	0.000
222.59	1075.000
222.97	-1600.000
223.34	1020.000
223.72	323.077
224.09	800.000
224.46	1750.000
224.84	-2700.000
225.21	-780.000
225.59	-2900.000
225.96	450.000
226.34	205.000
226.71	1900.000
227.08	450.000
227.46	310.000
227.83	-950.000
228.21	-1700.000
228.58	444.444
228.95	-1500.000
229.33	-1650.000
229.70	1400.000
230.08	500.000
230.45	-580.000
230.82	291.667
231.20	733.333
231.57	457.143
231.95	283.333
232.32	131.818
232.69	290.909
233.07	385.714
233.44	315.385
233.81	-1000.000
234.19	226.316
234.56	366.667
234.93	350.000
235.31	318.182
235.68	184.615
236.05	250.000
236.43	112.121
236.80	163.158
237.17	3200.000
237.55	161.905
237.92	139.286
238.29	157.143
238.67	103.226
239.04	144.828
239.41	108.333
239.79	84.783
240.16	104.762
240.53	95.455
240.91	50.980
241.28	86.000
241.65	58.000
242.02	75.362
242.40	56.452
242.77	58.333
243.14	50.538
243.51	61.798
243.89	52.941
244.26	44.444
244.63	44.086
245.00	32.979
245.38	34.653
245.75	40.187
246.12	38.532
246.49	40.876
246.87	37.600
247.24	30.000
247.61	30.714
247.98	34.641
248.36	25.000
248.73	31.210
249.10	38.217
249.47	24.859
249.84	34.759
250.22	25.668
250.59	22.485
250.96	26.263
251.33	27.014
251.70	29.703
252.08	22.381
252.45	23.767
252.82	27.826
253.19	23.404
253.56	21.569
253.94	23.651
254.31	19.141
254.68	24.615
255.05	21.771
255.42	17.886
255.79	22.794
256.16	22.383
256.54	19.788
256.91	20.641
257.28	15.468
257.65	22.112
258.02	19.876
258.39	18.927
258.76	20.067
259.14	20.238
259.51	17.933
259.88	17.391
260.25	17.825
260.62	17.919
260.99	16.460
261.36	21.622
261.73	18.911
262.10	18.023
262.47	17.746
262.85	16.156
263.22	12.536
263.59	19.658
263.96	18.132
264.33	17.232
264.70	18.421
265.07	17.136
265.44	17.929
265.81	15.815
266.18	19.598
266.55	15.366
266.92	16.953
267.29	18.981
267.66	16.972
268.03	20.227
268.40	16.822
268.77	14.081
269.14	15.315
269.51	16.930
269.88	15.152
270.25	14.673
270.62	17.978
270.99	17.849
271.36	16.309
271.73	16.121
272.10	16.304
272.47	17.634
272.84	12.771
273.21	18.029
273.58	13.755
273.95	13.836
274.32	13.843
274.69	14.989
275.06	12.992
275.43	14.043
275.80	14.629
276.17	13.442
276.54	14.553
276.91	13.834
277.28	13.477
277.65	13.540
278.02	14.286
278.39	16.406
278.76	14.000
279.13	14.717
279.50	15.456
279.87	15.538
280.23	14.970
280.60	14.700
280.97	13.494
281.34	13.097
281.71	16.545
282.08	14.779
282.45	12.727
282.82	17.052
283.19	11.586
283.56	12.982
283.92	15.059
284.29	13.757
284.66	13.249
285.03	13.924
285.40	13.908
285.77	13.973
286.14	12.953
286.51	13.000
286.87	15.043
287.24	12.215
287.61	13.804
287.98	12.987
288.35	12.678
288.72	13.396
289.08	14.241
289.45	10.708
289.82	13.171
290.19	12.245
290.56	13.476
290.93	12.085
291.29	11.350
291.66	14.159
292.03	15.552
292.40	12.482
292.77	11.686
293.13	12.239
293.50	11.370
293.87	12.148
294.24	11.852
294.60	11.790
294.97	10.901
295.34	11.566
295.71	11.790
296.08	10.684
296.44	11.417
296.81	10.040
297.18	12.466
297.55	8.839
297.91	10.950
298.28	12.182
298.65	11.227
299.02	11.726
299.38	12.351
299.75	9.569
300.12	9.451
300.48	9.875
300.85	10.234
301.22	10.191
301.59	8.965
301.95	10.076
302.32	10.013
302.69	10.872
303.05	9.939
303.42	9.877
303.79	11.099
304.15	9.557
304.52	7.648
304.89	9.059
305.25	10.905
305.62	10.419
305.99	10.153
306.35	10.515
306.72	10.090
307.09	11.654
307.45	10.473
307.82	8.371
308.19	10.486
308.55	9.493
308.92	9.667
309.29	9.504
309.65	10.286
310.02	8.985
310.38	9.355
310.75	9.820
311.12	10.235
311.48	9.509
311.85	10.273
312.22	9.573
312.58	8.732
312.95	10.137
313.31	9.709
313.68	10.187
314.05	11.243
314.41	10.352
314.78	9.164
315.14	10.030
315.51	10.608
315.87	11.485
316.24	10.626
316.61	10.526
316.97	11.350
317.34	10.861
317.70	11.090
318.07	11.550
318.43	12.035
318.80	12.933
319.16	10.829
319.53	12.289
319.89	13.238
320.26	13.500
320.62	13.194
320.99	13.232
321.35	13.939
321.72	14.476
322.08	14.511
322.45	15.721
322.81	15.504
323.18	14.644
323.54	15.306
323.91	16.981
324.27	15.966
324.64	16.309
325.00	15.960
325.37	16.924
325.73	17.684
326.10	18.270
326.46	18.369
326.83	18.550
327.19	18.531
327.56	18.990
327.92	18.548
328.29	21.029
328.65	21.179
329.01	19.043
329.38	20.537
329.74	20.406
330.11	20.829
330.47	21.947
330.84	23.254
331.20	20.856
331.56	22.110
331.93	21.481
332.29	21.207
332.66	22.301
333.02	22.212
333.38	23.035
333.75	23.084
334.11	23.221
334.48	23.159
334.84	24.540
335.20	23.818
335.57	22.937
335.93	22.054
336.29	22.436
336.66	23.625
337.02	22.443
337.38	23.611
337.75	23.173
338.11	23.724
338.47	23.573
338.84	24.840
339.20	25.138
339.56	24.909
339.93	23.000
340.29	23.732
340.65	24.688
341.02	24.520
341.38	24.466
341.74	23.509
342.11	23.406
342.47	24.846
342.83	23.801
343.20	26.061
343.56	25.190
343.92	24.298
344.28	25.340
344.65	25.021
345.01	24.411
345.37	24.357
345.73	25.635
346.10	24.893
346.46	24.915
346.82	25.206
347.19	25.230
347.55	24.959
347.91	24.353
348.27	26.541
348.63	24.415
349.00	24.919
349.36	25.205
349.72	25.501
350.08	23.825
350.45	26.444
350.81	25.508
351.17	25.446
351.53	25.553
351.89	25.083
352.26	26.361
352.62	26.303
352.98	25.851
353.34	25.719
353.70	24.550
354.07	25.565
354.43	25.714
354.79	25.181
355.15	24.022
355.51	26.779
355.87	25.551
356.24	25.814
356.60	25.822
356.96	26.227
357.32	26.574
357.68	25.669
358.04	25.812
358.40	25.732
358.77	26.761
359.13	25.651
359.49	26.745
359.85	24.921
360.21	25.279
360.57	27.082
360.93	26.154
361.29	26.304
361.66	26.006
362.02	26.194
362.38	26.920
362.74	26.562
363.10	26.055
363.46	26.266
363.82	26.606
364.18	26.505
364.54	26.523
364.90	26.416
365.26	26.324
365.62	26.297
365.98	26.735
366.35	25.716
366.71	26.464
367.07	27.021
367.43	27.286
367.79	27.409
368.15	27.658
368.51	26.526
368.87	27.766
369.23	27.725
369.59	27.227
369.95	26.838
370.31	26.496
370.67	26.087
371.03	28.015
371.39	27.187
371.75	27.647
372.11	26.529
372.47	28.446
372.83	27.810
373.19	27.168
373.55	28.160
373.91	28.203
374.27	26.942
374.63	26.545
374.99	28.390
375.35	26.867
375.71	27.073
376.07	27.709
376.42	28.267
376.78	28.429
377.14	26.934
377.50	28.874
377.86	26.263
378.22	27.623
378.58	27.318
378.94	28.158
379.30	28.244
379.66	27.982
380.02	27.764
380.38	27.322
380.74	27.851
381.09	27.323
381.45	28.765
381.81	28.747
382.17	28.408
382.53	27.862
382.89	28.642
383.25	27.267
383.61	28.748
383.97	28.018
384.32	27.760
384.68	28.625
385.04	27.966
385.40	27.554
385.76	28.133
386.12	28.174
386.48	28.823
386.83	28.736
387.19	28.015
387.55	28.448
387.91	27.872
388.27	28.449
388.62	28.703
388.98	27.703
389.34	28.723
389.70	28.449
390.06	29.087
390.42	28.988
390.77	29.135
391.13	27.888
391.49	28.426
391.85	28.071
392.20	27.571
392.56	29.167
392.92	28.487
393.28	28.107
393.64	28.537
393.99	28.345
394.35	27.419
394.71	28.294
395.07	26.916
395.42	28.739
395.78	28.372
396.14	28.988
396.50	28.759
396.85	29.561
397.21	27.065
397.57	28.146
397.92	27.704
398.28	27.859
398.64	28.076
399.00	27.868
399.35	28.314
399.71	28.241
400.07	28.681
400.42	28.773
400.78	27.986
401.14	27.256
401.49	28.896
401.85	27.102
402.21	27.844
402.57	28.254
402.92	27.680
403.28	28.232
403.63	27.723
403.99	27.580
404.35	27.939
404.70	27.038
405.06	27.024
405.42	28.010
405.77	27.143
406.13	27.201
406.49	28.208
406.84	27.702
407.20	27.600
407.55	26.994
407.91	28.267
408.27	28.143
408.62	28.055
408.98	28.309
409.34	27.675
409.69	28.387
410.05	27.138
410.40	27.095
410.76	27.419
411.11	27.503
411.47	27.348
411.83	27.550
412.18	26.036
412.54	27.086
412.89	27.229
413.25	27.450
413.60	27.301
413.96	27.019
414.31	27.400
414.67	26.933
415.03	26.424
415.38	27.706
415.74	27.331
416.09	27.564
416.45	26.841
416.80	26.966
417.16	28.217
417.51	26.941
417.87	26.654
418.22	27.066
418.58	27.050
418.93	26.781
419.29	26.862
419.64	26.826
420.00	26.280
420.35	26.725
420.71	26.539
421.06	25.716
421.42	26.023
421.77	26.009
422.12	25.884
422.48	25.796
422.83	27.315
423.19	25.414
423.54	24.840
423.90	25.275
424.25	26.410
424.61	25.774
424.96	25.598
425.31	25.803
425.67	24.944
426.02	26.000
426.38	25.763
426.73	25.336
427.09	25.532
427.44	24.497
427.79	25.762
428.15	25.595
428.50	24.985
428.85	24.791
429.21	24.186
429.56	24.520
429.92	25.214
430.27	25.323
430.62	24.424
430.98	24.805
431.33	24.485
431.68	25.183
432.04	24.494
432.39	24.329
432.74	24.476
433.10	24.222
433.45	24.781
433.80	24.002
434.16	24.252
434.51	24.105
434.86	24.629
435.22	24.625
435.57	24.195
435.92	24.283
436.28	24.259
436.63	24.724
436.98	24.041
437.34	23.137
437.69	23.862
438.04	23.272
438.39	23.642
438.75	23.998
439.10	23.464
439.45	24.085
439.81	23.263
440.16	22.473
440.51	24.077
440.86	24.841
441.22	22.636
441.57	23.779
441.92	23.234
442.27	23.466
442.63	23.065
442.98	23.211
443.33	23.370
443.68	22.303
444.03	23.621
444.39	22.152
444.74	22.781
445.09	22.749
445.44	22.526
445.79	22.316
446.15	22.922
446.50	22.456
446.85	21.994
447.20	22.743
447.55	22.166
447.91	21.732
448.26	23.094
448.61	21.933
448.96	23.256
449.31	22.385
449.66	21.666
450.02	21.671
450.37	21.655
450.72	22.899
451.07	21.755
451.42	21.398
451.77	22.020
452.12	21.709
452.47	21.704
452.83	20.979
453.18	21.760
453.53	22.573
453.88	21.028
454.23	20.741
454.58	21.199
454.93	21.996
455.28	21.135
455.63	20.995
455.98	21.786
456.34	21.859
456.69	22.167
457.04	21.548
457.39	21.040
457.74	20.720
458.09	21.449
458.44	21.209
458.79	20.607
459.14	21.445
459.49	20.724
459.84	20.720
460.19	20.860
460.54	19.907
460.89	20.406
461.24	19.976
461.59	20.802
461.94	20.838
462.29	20.831
462.64	20.676
462.99	19.974
463.34	21.267
463.69	20.575
464.04	19.420
464.39	19.826
464.74	19.786
465.09	19.059
465.44	19.224
465.79	19.519
466.14	19.485
466.49	19.633
466.84	19.965
467.19	21.123
467.54	20.688
467.89	19.328
468.24	19.837
468.59	20.452
468.94	19.487
469.29	19.087
469.64	20.013
469.99	19.215
470.34	19.683
470.68	19.828
471.03	18.844
471.38	18.833
471.73	19.054
472.08	19.474
472.43	18.907
472.78	18.499
473.13	18.742
473.48	19.913
473.83	18.110
474.17	19.166
474.52	18.238
474.87	19.381
475.22	18.398
475.57	18.001
475.92	18.056
476.27	18.602
476.61	17.816
476.96	17.977
477.31	18.001
477.66	18.326
478.01	18.296
478.36	17.927
478.70	17.186
479.05	17.945
479.40	18.117
479.75	18.099
480.10	17.942
480.45	17.135
480.79	16.627
481.14	17.319
481.49	17.750
481.84	16.598
482.19	16.765
482.53	17.523
482.88	16.892
483.23	17.150
483.58	17.152
483.92	17.901
484.27	16.471
484.62	16.681
484.97	16.397
485.31	16.199
485.66	15.364
486.01	15.125
486.36	15.372
486.70	15.044
487.05	15.381
487.40	15.373
487.75	15.498
488.09	15.863
488.44	15.844
488.79	15.769
489.13	16.387
489.48	16.109
489.83	15.580
490.17	15.914
490.52	16.696
490.87	16.327
491.22	16.053
491.56	15.945
491.91	15.775
492.26	15.939
492.60	16.452
492.95	15.856
493.30	15.561
493.64	16.519
493.99	15.645
494.34	15.819
494.68	15.522
495.03	16.071
495.37	15.449
495.72	14.571
496.07	16.009
496.41	15.442
496.76	15.435
497.11	15.804
497.45	15.463
497.80	15.931
498.14	15.121
498.49	15.561
498.84	15.868
499.18	15.238
499.53	15.764
499.87	15.657
500.22	14.932
500.56	16.359
500.91	15.577
501.26	16.074
501.60	15.710
501.95	15.399
502.29	15.089
502.64	15.596
502.98	15.101
503.33	15.174
503.67	15.777
504.02	14.406
504.36	15.629
504.71	15.046
505.06	15.325
505.40	14.584
505.75	15.429
506.09	15.403
506.44	14.899
506.78	15.441
507.13	15.447
507.47	15.354
507.82	15.805
508.16	15.502
508.51	15.880
508.85	14.697
509.19	14.388
509.54	15.969
509.88	14.838
510.23	15.064
510.57	15.944
510.92	15.018
511.26	15.057
511.61	14.834
511.95	14.614
512.30	14.369
512.64	15.261
512.98	14.791
513.33	14.668
513.67	14.141
514.02	14.340
514.36	14.965
514.70	15.329
515.05	13.720
515.39	14.863
515.74	14.640
516.08	15.539
516.42	14.595
516.77	15.608
517.11	14.650
517.46	15.519
517.80	15.505
518.14	14.360
518.49	14.119
518.83	15.511
519.17	15.300
519.52	14.601
519.86	15.060
520.20	15.029
520.55	14.841
520.89	14.964
521.23	15.199
521.58	14.826
521.92	15.370
522.26	14.887
522.61	14.579
522.95	14.119
523.29	15.033
523.64	15.305
523.98	15.034
524.32	14.837
524.66	14.793
525.01	14.890
525.35	14.684
525.69	13.855
526.04	14.704
526.38	15.192
526.72	14.417
527.06	14.940
527.41	13.490
527.75	15.241
528.09	15.222
528.43	14.595
528.78	14.813
529.12	14.242
529.46	14.268
529.80	14.480
530.15	14.642
530.49	13.785
530.83	15.253
531.17	15.078
531.51	15.888
531.86	14.710
532.20	14.993
532.54	15.054
532.88	14.121
533.22	14.366
533.57	14.136
533.91	14.389
534.25	14.824
534.59	14.460
534.93	15.289
535.27	13.820
535.62	14.042
535.96	15.443
536.30	13.541
536.64	14.617
536.98	14.333
537.32	14.088
537.66	14.533
538.01	15.010
538.35	15.385
538.69	14.422
539.03	14.230
539.37	13.866
539.71	12.897
540.05	14.118
540.39	14.286
540.73	13.519
541.07	14.082
541.42	14.351
541.76	14.774
542.10	14.748
542.44	14.172
542.78	14.756
543.12	13.884
543.46	15.016
543.80	14.769
544.14	14.056
544.48	14.159
544.82	14.368
545.16	13.923
545.50	14.524
545.84	14.180
546.18	14.815
546.52	14.246
546.86	13.746
547.20	13.958
547.54	14.496
547.88	14.668
548.22	14.446
548.56	14.151
548.90	13.572
549.24	13.401
549.58	14.256
549.92	13.805
550.26	14.631
550.60	13.693
550.94	13.944
551.28	13.899
551.62	13.947
551.96	13.684
552.30	14.608
552.64	14.604
552.98	13.898
553.32	14.160
553.66	14.656
554.00	14.001
554.34	13.872
554.68	14.163
555.02	13.329
555.36	13.779
555.69	13.261
556.03	13.526
556.37	14.188
556.71	12.824
557.05	12.885
557.39	13.786
557.73	13.761
558.07	12.618
558.41	12.446
558.75	14.107
559.08	15.213
559.42	13.454
559.76	14.118
560.10	13.562
560.44	12.788
560.78	13.041
561.12	13.984
561.45	14.276
561.79	13.777
562.13	13.347
562.47	13.730
562.81	12.831
563.15	12.910
563.48	13.793
563.82	13.046
564.16	12.623
564.50	13.672
564.84	13.148
565.17	13.642
565.51	13.674
565.85	13.642
566.19	12.461
566.52	12.603
566.86	12.658
567.20	13.443
567.54	12.728
567.88	12.493
568.21	13.704
568.55	12.841
568.89	12.354
569.23	12.344
569.56	11.943
569.90	11.623
570.24	11.984
570.57	11.901
570.91	11.959
571.25	11.767
571.59	12.548
571.92	11.348
572.26	11.698
572.60	11.982
572.93	11.244
573.27	11.920
573.61	11.753
573.95	11.447
574.28	11.432
574.62	11.200
574.96	10.729
575.29	10.839
575.63	11.103
575.97	11.247
576.30	11.312
576.64	11.044
576.98	11.206
577.31	11.114
577.65	11.075
577.98	11.057
578.32	11.021
578.66	11.195
578.99	11.185
579.33	11.208
579.67	10.679
580.00	11.100
580.34	11.011
580.67	10.730
581.01	11.041
581.35	10.882
581.68	11.028
582.02	10.880
582.35	11.013
582.69	10.802
583.02	10.860
583.36	10.952
583.70	10.839
584.03	11.129
584.37	11.436
584.70	11.181
585.04	11.155
585.37	11.137
585.71	11.419
586.04	10.727
586.38	10.867
586.72	11.654
587.05	10.894
587.39	10.844
587.72	11.312
588.06	10.592
588.39	11.550
588.73	11.440
589.06	11.530
589.40	11.481
589.73	11.580
590.07	11.317
590.40	11.217
590.73	11.514
591.07	11.966
591.40	12.020
591.74	11.861
592.07	11.038
592.41	11.658
592.74	11.348
593.08	11.426
593.41	11.262
593.75	11.274
594.08	11.297
594.41	11.417
594.75	11.534
595.08	11.382
595.42	11.559
595.75	11.254
596.09	11.228
596.42	11.473
596.75	11.060
597.09	11.991
597.42	10.961
597.75	11.470
598.09	11.522
598.42	11.125
598.76	10.944
599.09	11.060
599.42	10.917
599.76	11.420
600.09	10.893
600.42	10.920
600.76	10.643
601.09	10.893
601.42	11.035
601.76	11.233
602.09	10.988
602.42	11.226
602.76	11.487
603.09	11.448
603.42	11.636
603.76	10.976
604.09	11.206
604.42	11.088
604.76	12.105
605.09	11.402
605.42	10.902
605.75	11.921
606.09	10.736
606.42	10.789
606.75	11.074
607.09	11.176
607.42	10.954
607.75	10.422
608.08	10.812
608.42	11.251
608.75	11.542
609.08	11.240
609.41	11.138
609.75	11.196
610.08	11.499
610.41	11.080
610.74	11.116
611.07	11.117
611.41	11.433
611.74	11.212
612.07	11.491
612.40	12.120
612.73	11.263
613.07	11.530
613.40	11.638
613.73	11.064
614.06	11.667
614.39	12.008
614.72	11.895
615.06	12.027
615.39	11.093
615.72	11.452
616.05	10.792
616.38	11.395
616.71	11.639
617.05	12.014
617.38	11.726
617.71	11.652
618.04	12.440
618.37	11.177
618.70	12.010
619.03	12.632
619.36	11.745
619.69	11.972
620.03	11.607
620.36	12.233
620.69	13.151
621.02	12.684
621.35	12.529
621.68	11.215
622.01	12.616
622.34	12.935
622.67	11.635
623.00	11.812
623.33	12.652
623.66	12.223
623.99	13.328
624.32	12.482
624.65	12.641
624.99	11.331
625.32	11.586
625.65	11.871
625.98	12.913
626.31	12.675
626.64	12.408
626.97	12.136
627.30	12.884
627.63	12.879
627.96	12.111
628.29	13.036
628.62	13.266
628.95	14.811
629.28	13.595
629.61	13.566
629.94	13.238
630.26	11.916
630.59	12.297
630.92	12.452
631.25	12.636
631.58	13.614
631.91	13.387
632.24	12.236
632.57	13.431
632.90	12.829
633.23	13.087
633.56	15.254
633.89	12.684
634.22	12.713
634.55	15.030
634.88	13.174
635.20	13.859
635.53	14.217
635.86	14.728
636.19	12.235
636.52	13.264
636.85	11.913
637.18	12.903
637.51	14.657
637.83	10.604
638.16	13.299
638.49	13.602
638.82	14.791
639.15	13.875
639.48	15.461
639.81	13.539
640.13	16.146
640.46	14.362
640.79	14.267
641.12	13.343
641.45	13.827
641.77	14.580
642.10	14.181
642.43	12.913
642.76	14.087
643.09	15.337
643.41	15.326
643.74	16.821
644.07	13.415
644.40	15.951
644.73	16.063
645.05	16.323
645.38	14.218
645.71	14.493
646.04	15.116
646.36	18.030
646.69	17.057
647.02	15.816
647.35	16.323
647.67	16.283
648.00	15.935
648.33	13.366
648.66	14.242
648.98	14.693
649.31	13.752
649.64	13.303
649.96	14.605
650.29	16.430
650.62	15.696
650.94	14.263
651.27	16.047
651.60	15.141
651.92	16.773
652.25	12.541
652.58	15.265
652.90	16.430
653.23	15.562
653.56	13.386
653.88	13.946
654.21	15.640
654.54	15.017
654.86	14.953
655.19	12.162
655.52	10.161
655.84	8.240
656.17	10.232
656.49	13.738
656.82	14.030
657.15	10.736
657.47	7.782
657.80	6.133
658.13	6.100
658.45	9.366
658.78	9.466
659.10	9.910
659.43	10.688
659.75	10.942
660.08	10.949
660.41	12.849
660.73	14.485
661.06	15.764
661.38	16.364
661.71	16.346
662.03	17.949
662.36	13.917
662.68	17.470
663.01	17.172
663.33	14.650
663.66	15.966
663.98	14.687
664.31	13.025
664.63	16.397
664.96	12.072
665.28	17.008
665.61	14.620
665.93	14.487
666.26	17.039
666.58	16.527
666.91	19.662
667.23	17.528
667.56	15.983
667.88	17.735
668.21	15.352
668.53	16.269
668.86	19.481
669.18	20.682
669.50	18.043
669.83	18.736
670.15	17.111
670.48	12.418
670.80	15.948
671.13	17.410
671.45	15.745
671.77	17.312
672.10	14.972
672.42	15.018
672.75	14.594
673.07	14.965
673.39	15.009
673.72	15.234
674.04	16.078
674.37	13.398
674.69	15.951
675.01	16.109
675.34	17.454
675.66	16.842
675.98	16.293
676.31	17.017
676.63	16.985
676.95	17.400
677.28	16.121
677.60	17.802
677.92	18.987
678.25	16.427
678.57	16.932
678.89	16.834
679.22	15.324
679.54	17.366
679.86	17.798
680.18	14.132
680.51	17.021
680.83	16.370
681.15	16.604
681.48	16.446
681.80	14.700
682.12	16.284
682.44	13.346
682.77	16.497
683.09	18.026
683.41	17.738
683.73	15.894
684.06	17.769
684.38	14.677
684.70	17.442
685.02	15.572
685.34	14.835
685.67	11.538
685.99	16.151
686.31	13.652
686.63	14.488
686.96	13.929
687.28	14.982
687.60	12.862
687.92	17.185
688.24	15.970
688.56	16.265
688.89	15.560
689.21	19.651
689.53	16.910
689.85	16.630
690.17	15.528
690.49	21.656
690.82	14.019
691.14	14.286
691.46	13.924
691.78	16.867
692.10	16.322
692.42	16.766
692.74	14.108
693.06	16.170
693.39	15.400
693.71	16.157
694.03	17.895
694.35	14.069
694.67	15.332
694.99	18.049
695.31	15.931
695.63	18.660
695.95	14.914
696.27	15.736
696.59	17.617
696.91	16.321
697.23	15.493
697.56	15.565
697.88	14.519
698.20	15.417
698.52	16.129
698.84	17.372
699.16	17.051
699.48	17.815
699.80	16.425
700.12	19.221
700.44	18.568
700.76	18.232
701.08	16.667
701.40	17.039
701.72	21.574
702.04	22.159
702.36	15.297
702.68	18.980
703.00	18.837
703.32	16.489
703.64	17.694
703.96	18.663
704.28	18.314
704.60	18.768
704.91	17.507
705.23	21.114
705.55	23.588
705.87	26.246
706.19	20.141
706.51	22.118
706.83	22.121
707.15	17.647
707.47	14.899
707.79	18.182
708.11	17.123
708.43	18.095
708.74	18.367
709.06	16.883
709.38	19.160
709.70	18.605
710.02	19.288
710.34	17.879
710.66	17.612
710.98	21.023
711.29	19.477
711.61	22.714
711.93	17.628
712.25	20.579
712.57	17.647
712.89	22.145
713.20	19.757
713.52	20.066
713.84	21.203
714.16	18.598
714.48	20.690
714.80	23.404
715.11	16.138
715.43	17.804
715.75	19.710
716.07	22.045
716.39	20.376
716.70	20.266
717.02	19.784
717.34	20.141
717.66	21.642
717.97	23.506
718.29	20.000
718.61	21.898
718.93	20.221
719.24	20.069
719.56	19.661
719.88	18.983
720.20	25.676
720.51	19.861
720.83	22.305
721.15	20.149
721.46	17.730
721.78	26.523
722.10	23.774
722.42	23.684
722.73	19.476
723.05	19.672
723.37	21.862
723.68	19.691
724.00	20.732
724.32	23.790
724.63	25.203
724.95	18.410
725.27	26.316
725.58	24.219
725.90	24.088
726.22	20.000
726.53	19.444
726.85	29.010
727.16	21.708
727.48	21.277
727.80	21.212
728.11	23.551
728.43	18.462
728.74	22.222
729.06	23.358
729.38	24.632
729.69	24.555
730.01	19.454
730.32	17.361
730.64	22.408
730.96	19.802
731.27	19.868
731.59	19.878
731.90	22.741
732.22	18.634
732.53	18.576
732.85	21.795
733.16	18.650
733.48	17.940
733.80	20.779
734.11	20.064
734.43	21.006
734.74	16.571
735.06	19.198
735.37	23.410
735.69	15.924
736.00	20.915
736.32	21.184
736.63	18.850
736.95	19.169
737.26	20.408
737.58	15.161
737.89	23.411
738.21	20.478
738.52	25.000
738.83	20.377
739.15	20.769
739.46	22.993
739.78	20.139
740.09	20.923
740.41	19.677
740.72	19.512
741.04	22.593
741.35	21.250
741.66	27.556
741.98	24.528
742.29	27.751
742.61	22.845
742.92	21.719
743.23	23.932
743.55	26.400
743.86	25.000
744.18	24.779
744.49	30.144
744.80	27.230
745.12	29.091
745.43	22.026
745.74	26.577
746.06	28.440
746.37	24.215
746.68	23.982
747.00	27.315
747.31	26.667
747.62	20.796
747.94	18.502
748.25	21.702
748.56	23.789
748.88	24.257
749.19	29.500
749.50	23.721
749.82	28.455
750.13	14.286
750.44	18.613
750.75	21.053
751.07	24.437
751.38	20.209
751.69	21.661
752.01	19.173
752.32	22.383
752.63	22.340
752.94	27.049
753.26	22.000
753.57	21.951
753.88	22.266
754.19	18.214
754.51	22.569
754.82	19.856
755.13	19.623
755.44	19.925
755.75	21.533
756.07	20.213
756.38	16.423
756.69	22.148
757.00	18.263
757.31	18.398
757.63	19.298
757.94	18.767
758.25	17.402
758.56	16.543
758.87	17.473
759.18	17.879
759.50	16.928
759.81	20.249
760.12	17.188
760.43	18.625
760.74	19.565
761.05	17.514
761.36	15.775
761.67	17.045
761.99	15.839
762.30	20.833
762.61	15.649
762.92	27.344
763.23	23.109
763.54	25.200
763.85	22.266
764.16	25.385
764.47	24.335
764.78	19.788
765.10	16.772
765.41	21.239
765.72	20.659
766.03	21.630
766.34	19.000
766.65	22.553
766.96	25.641
767.27	23.858
767.58	28.125
767.89	26.316
768.20	25.862
768.51	26.904
768.82	24.771
769.13	23.171
769.44	21.862
769.75	18.884
770.06	16.972
770.37	21.719
770.68	26.389
770.99	24.444
771.30	18.443
771.61	27.803
771.92	23.770
772.23	29.832
772.54	24.615
772.85	24.084
773.16	29.255
773.47	34.239
773.78	30.457
774.09	20.238
774.39	30.994
774.70	28.395
775.01	34.783
775.32	33.987
775.63	34.211
775.94	34.532
776.25	37.795
776.56	38.806
776.87	40.164
777.18	37.500
777.48	33.588
777.79	31.818
778.10	25.185
778.41	30.357
778.72	27.007
779.03	32.886
779.34	34.899
779.65	27.703
779.95	28.221
780.26	33.333
780.57	33.793
780.88	48.438
781.19	39.850
781.50	34.459
781.80	33.962
782.11	25.989
782.42	29.114
782.73	20.245
783.04	34.459
783.34	36.620
783.65	39.726
783.96	36.567
784.27	31.469
784.57	30.216
784.88	32.407
785.19	38.095
785.50	33.962
785.81	38.060
786.11	44.262
786.42	45.736
786.73	35.398
787.04	32.075
787.34	47.321
787.65	39.000
787.96	41.441
788.26	29.752
788.57	38.136
788.88	47.934
789.19	38.194
789.49	42.424
789.80	35.115
790.11	40.952
790.41	51.485
790.72	36.145
791.03	45.652
791.33	47.674
791.64	41.237
791.95	41.584
792.25	47.778
792.56	45.455
792.87	52.564
793.17	54.430
793.48	49.425
793.79	48.276
794.09	50.000
794.40	34.454
794.70	41.912
795.01	33.333
795.32	31.655
795.62	33.858
795.93	31.897
796.23	48.673
796.54	47.059
796.85	44.595
797.15	56.338
797.46	50.000
797.76	60.241
798.07	56.962
798.37	40.000
798.68	53.030
798.99	47.887
799.29	61.039
799.60	56.818
799.90	65.753
800.21	71.642
800.51	48.276
800.82	68.421
801.12	65.574
801.43	56.061
801.73	50.000
802.04	63.492
802.34	62.963
802.65	64.063
802.95	96.610
803.26	82.813
803.56	60.000
803.87	58.462
804.17	61.765
804.48	77.778
804.78	75.862
805.09	67.647
805.39	65.385
805.70	73.214
806.00	93.443
806.30	50.000
806.61	57.317
806.91	44.304
807.22	46.053
807.52	46.269
807.83	67.606
808.13	62.500
808.43	68.333
808.74	59.211
809.04	72.464
809.35	59.701
809.65	63.158
809.95	83.871
810.26	59.322
810.56	80.952
810.86	63.636
811.17	90.476
811.47	80.000
811.77	74.074
812.08	76.364
812.38	98.000
812.69	100.000
812.99	115.909
813.29	79.592
813.59	66.667
813.90	100.000
814.20	90.909
814.50	76.923
814.81	57.353
815.11	77.551
815.41	70.492
815.72	109.524
816.02	90.909
816.32	90.476
816.62	97.500
816.93	90.244
817.23	88.095
817.53	68.182
817.84	78.788
818.14	102.174
818.44	102.222
818.74	135.294
819.04	97.500
819.35	74.286
819.65	111.765
819.95	128.571
820.25	125.000
820.56	115.385
820.86	106.818
821.16	90.698
821.46	61.538
821.76	94.000
822.07	102.857
822.37	110.000
822.67	84.848
822.97	84.314
823.27	125.000
823.57	135.135
823.88	135.000
824.18	150.000
824.48	100.000
824.78	172.000
825.08	125.000
825.38	102.703
825.69	87.805
825.99	154.167
826.29	106.897
826.59	92.105
826.89	113.158
827.19	117.647
827.49	154.839
827.79	109.091
828.09	102.273
828.39	108.511
828.70	75.510
829.00	148.148
829.30	100.000
829.60	115.000
829.90	200.000
830.20	121.429
830.50	60.870
830.80	169.565
831.10	136.667
831.40	143.333
831.70	134.783
832.00	150.000
832.30	114.815
832.60	187.500
832.90	156.667
833.20	335.714
833.50	135.484
833.80	151.724
834.10	112.500
834.40	150.000
834.70	211.111
835.00	214.286
835.30	131.429
835.60	238.462
835.90	141.379
836.20	221.429
836.50	151.724
836.80	124.000
837.10	125.000
837.40	190.476
837.70	188.235
838.00	133.333
838.30	157.143
838.60	204.762
838.90	173.077
839.19	175.000
839.49	235.714
839.79	245.000
840.09	195.000
840.39	195.238
840.69	147.826
840.99	183.333
841.29	310.000
841.59	166.667
841.88	262.500
842.18	141.379
842.48	190.476
842.78	133.333
843.08	173.913
843.38	146.875
843.68	683.333
843.97	196.154
844.27	189.655
844.57	228.571
844.87	268.750
845.17	144.444
845.47	900.000
845.76	388.889
846.06	205.882
846.36	312.500
846.66	257.143
846.96	212.500
847.25	236.364
847.55	218.182
847.85	165.217
848.15	340.000
848.44	307.143
848.74	161.111
849.04	223.529
849.34	400.000
849.63	189.474
849.93	318.182
850.23	660.000
850.53	250.000
850.82	1750.000
851.12	-3300.000
851.42	3300.000
851.71	170.000
852.01	-966.667
852.31	204.167
852.61	1133.333
852.90	185.714
853.20	188.000
853.50	188.235
853.79	204.762
854.09	175.000
854.39	231.250
854.68	118.919
854.98	109.677
855.28	130.000
855.57	148.276
855.87	151.852
856.17	226.316
856.46	233.333
856.76	164.706
857.05	155.172
857.35	141.667
857.65	200.000
857.94	173.913
858.24	161.538
858.53	230.000
858.83	168.182
859.13	213.333
859.42	0.000
859.72	466.667
860.01	354.545
860.31	177.273
860.60	147.368
860.90	165.217
861.20	400.000
861.49	366.667
861.79	-3100.000
862.08	387.500
862.38	233.333
862.67	176.923
862.97	252.941
863.26	366.667
863.56	177.778
863.85	333.333
864.15	287.500
864.44	206.667
864.74	600.000
865.03	375.000
865.33	221.053
865.62	290.909
865.92	284.615
866.21	283.333
866.51	0.000
866.80	345.455
867.10	740.000
867.39	307.692
867.69	318.182
867.98	210.526
868.27	236.364
868.57	242.105
868.86	-2900.000
869.16	175.000
869.45	1000.000
869.75	-2800.000
870.04	325.000
870.33	471.429
870.63	600.000
870.92	1850.000
871.22	428.571
871.51	241.176
871.80	176.190
872.10	278.571
>>>>>End Processed Spectral Data<<<<<
