SpectraSuite Data File
++++++++++++++++++++++++++++++++++++
Date: Wed May 13 20:35:23 PDT 2015
User: schluterlab
Dark Spectrum Present: Yes
Reference Spectrum Present: Yes
Number of Sampled Component Spectra: 1
Spectrometers: USB2E3373
Integration Time (usec): 3000 (USB2E3373)
Spectra Averaged: 3 (USB2E3373)
Boxcar Smoothing: 0 (USB2E3373)
Correct for Electrical Dark: No (USB2E3373)
Strobe/Lamp Enabled: No (USB2E3373)
Correct for Detector Non-linearity: No (USB2E3373)
Correct for Stray Light: No (USB2E3373)
Number of Pixels in Processed Spectrum: 2048
>>>>>Begin Processed Spectral Data<<<<<
178.53	0.000
178.91	-600.000
179.29	-850.000
179.67	-172.222
180.04	-950.000
180.42	1450.000
180.80	840.000
181.18	-825.000
181.56	442.857
181.94	0.000
182.31	-485.714
182.69	1200.000
183.07	-412.500
183.45	-388.889
183.83	372.727
184.20	-310.000
184.58	1600.000
184.96	2800.000
185.34	-620.000
185.72	-375.000
186.09	-1850.000
186.47	2150.000
186.85	1750.000
187.23	4500.000
187.61	-1233.333
187.98	1150.000
188.36	436.364
188.74	345.455
189.12	-720.000
189.49	290.000
189.87	-2600.000
190.25	-900.000
190.63	357.143
191.00	307.692
191.38	550.000
191.76	-850.000
192.14	1350.000
192.51	475.000
192.89	816.667
193.27	425.000
193.65	-925.000
194.02	350.000
194.40	700.000
194.78	320.000
195.15	391.667
195.53	440.000
195.91	-1250.000
196.29	256.250
196.66	268.421
197.04	-150.000
197.42	0.000
197.79	490.000
198.17	-3200.000
198.55	471.429
198.92	537.500
199.30	800.000
199.68	0.000
200.05	244.444
200.43	585.714
200.81	3500.000
201.18	1166.667
201.56	-900.000
201.94	388.889
202.31	455.556
202.69	283.333
203.07	550.000
203.44	0.000
203.82	875.000
204.19	585.714
204.57	342.857
204.95	387.500
205.32	1133.333
205.70	418.182
206.08	357.143
206.45	1350.000
206.83	275.000
207.20	783.333
207.58	520.000
207.96	255.556
208.33	562.500
208.71	-616.667
209.08	628.571
209.46	377.778
209.84	336.364
210.21	-1266.667
210.59	1100.000
210.96	-400.000
211.34	1900.000
211.71	450.000
212.09	500.000
212.46	0.000
212.84	1333.333
213.22	1125.000
213.59	-3800.000
213.97	616.667
214.34	528.571
214.72	418.182
215.09	740.000
215.47	-1450.000
215.84	-2250.000
216.22	1400.000
216.59	307.143
216.97	1075.000
217.34	327.273
217.72	-616.667
218.09	0.000
218.47	-3500.000
218.84	444.444
219.22	557.143
219.59	1100.000
219.97	-485.714
220.34	700.000
220.72	-1133.333
221.09	335.714
221.47	1150.000
221.84	-700.000
222.22	0.000
222.59	1125.000
222.97	-1250.000
223.34	680.000
223.72	353.846
224.09	760.000
224.46	1200.000
224.84	-3900.000
225.21	-840.000
225.59	-4000.000
225.96	520.000
226.34	205.000
226.71	1850.000
227.08	387.500
227.46	480.000
227.83	-725.000
228.21	-1350.000
228.58	466.667
228.95	-1600.000
229.33	-1450.000
229.70	1400.000
230.08	571.429
230.45	-520.000
230.82	358.333
231.20	566.667
231.57	500.000
231.95	350.000
232.32	177.273
232.69	309.091
233.07	400.000
233.44	230.769
233.81	-1000.000
234.19	268.421
234.56	333.333
234.93	233.333
235.31	372.727
235.68	246.154
236.05	271.429
236.43	130.303
236.80	210.526
237.17	3300.000
237.55	200.000
237.92	175.000
238.29	185.714
238.67	158.065
239.04	168.966
239.41	133.333
239.79	86.957
240.16	130.952
240.53	115.909
240.91	101.961
241.28	94.000
241.65	100.000
242.02	94.203
242.40	82.258
242.77	96.667
243.14	80.645
243.51	74.157
243.89	91.765
244.26	70.000
244.63	77.419
245.00	61.702
245.38	71.287
245.75	56.075
246.12	77.064
246.49	64.234
246.87	76.000
247.24	71.538
247.61	56.429
247.98	61.438
248.36	62.838
248.73	60.510
249.10	59.873
249.47	57.062
249.84	59.358
250.22	52.941
250.59	62.722
250.96	54.040
251.33	60.190
251.70	58.416
252.08	53.333
252.45	55.157
252.82	55.652
253.19	55.745
253.56	48.235
253.94	56.846
254.31	51.172
254.68	51.923
255.05	53.137
255.42	52.033
255.79	51.103
256.16	51.986
256.54	49.117
256.91	53.025
257.28	45.683
257.65	52.805
258.02	49.068
258.39	47.950
258.76	52.843
259.14	48.214
259.51	47.720
259.88	47.826
260.25	51.360
260.62	50.289
260.99	50.311
261.36	49.249
261.73	49.857
262.10	47.674
262.47	47.887
262.85	48.189
263.22	41.595
263.59	47.578
263.96	45.330
264.33	44.909
264.70	47.105
265.07	48.338
265.44	47.980
265.81	42.092
266.18	48.492
266.55	42.927
266.92	45.946
267.29	48.611
267.66	45.872
268.03	44.773
268.40	46.729
268.77	44.630
269.14	44.144
269.51	43.567
269.88	46.853
270.25	43.792
270.62	45.393
270.99	44.301
271.36	44.635
271.73	46.729
272.10	43.696
272.47	46.022
272.84	44.372
273.21	45.912
273.58	41.048
273.95	44.654
274.32	43.802
274.69	45.182
275.06	40.157
275.43	44.894
275.80	42.685
276.17	44.603
276.54	40.748
276.91	42.095
277.28	43.750
277.65	42.940
278.02	41.615
278.39	44.727
278.76	42.545
279.13	42.075
279.50	39.479
279.87	43.625
280.23	44.112
280.60	43.907
280.97	41.035
281.34	41.062
281.71	42.182
282.08	43.570
282.45	42.545
282.82	42.096
283.19	40.463
283.56	41.053
283.92	43.824
284.29	41.093
284.66	42.650
285.03	43.219
285.40	42.254
285.77	40.067
286.14	39.551
286.51	41.333
286.87	40.513
287.24	41.694
287.61	41.252
287.98	38.636
288.35	39.461
288.72	38.941
289.08	38.185
289.45	37.562
289.82	39.187
290.19	36.421
290.56	37.672
290.93	36.254
291.29	38.037
291.66	34.956
292.03	37.645
292.40	35.536
292.77	36.095
293.13	36.269
293.50	35.277
293.87	34.963
294.24	35.259
294.60	34.061
294.97	35.320
295.34	32.299
295.71	34.091
296.08	32.479
296.44	35.351
296.81	33.818
297.18	35.366
297.55	32.322
297.91	33.509
298.28	34.003
298.65	32.768
299.02	31.621
299.38	33.068
299.75	30.054
300.12	31.673
300.48	31.750
300.85	30.210
301.22	32.484
301.59	31.313
301.95	30.856
302.32	31.451
302.69	30.944
303.05	30.667
303.42	30.123
303.79	30.125
304.15	29.604
304.52	28.621
304.89	30.894
305.25	30.510
305.62	30.691
305.99	30.342
306.35	28.747
306.72	30.717
307.09	29.190
307.45	31.532
307.82	28.348
308.19	29.801
308.55	30.636
308.92	28.786
309.29	29.250
309.65	28.526
310.02	29.704
310.38	27.634
310.75	29.778
311.12	29.887
311.48	30.721
311.85	31.027
312.22	29.761
312.58	30.042
312.95	30.306
313.31	28.835
313.68	31.497
314.05	32.347
314.41	30.452
314.78	31.017
315.14	30.387
315.51	30.587
315.87	32.277
316.24	31.281
316.61	31.287
316.97	31.311
317.34	31.311
317.70	32.600
318.07	32.339
318.43	32.192
318.80	32.615
319.16	32.486
319.53	31.426
319.89	33.524
320.26	33.400
320.62	33.631
320.99	33.333
321.35	34.949
321.72	35.113
322.08	35.834
322.45	36.219
322.81	35.174
323.18	36.127
323.54	35.993
323.91	36.604
324.27	37.285
324.64	36.533
325.00	35.978
325.37	36.761
325.73	38.241
326.10	37.070
326.46	38.710
326.83	39.172
327.19	38.514
327.56	37.456
327.92	39.458
328.29	38.953
328.65	39.411
329.01	39.982
329.38	40.518
329.74	41.090
330.11	40.339
330.47	41.139
330.84	39.890
331.20	40.528
331.56	40.000
331.93	40.926
332.29	40.284
332.66	41.327
333.02	40.219
333.38	41.644
333.75	42.157
334.11	42.616
334.48	41.526
334.84	42.463
335.20	42.091
335.57	42.883
335.93	41.339
336.29	40.751
336.66	42.651
337.02	41.900
337.38	42.222
337.75	42.068
338.11	41.808
338.47	41.252
338.84	41.980
339.20	42.018
339.56	44.526
339.93	42.636
340.29	41.848
340.65	42.068
341.02	41.972
341.38	43.950
341.74	41.491
342.11	42.183
342.47	42.203
342.83	41.010
343.20	44.156
343.56	42.460
343.92	42.895
344.28	42.347
344.65	44.024
345.01	42.340
345.37	41.767
345.73	42.640
346.10	41.773
346.46	42.203
346.82	42.092
347.19	41.855
347.55	41.051
347.91	42.152
348.27	42.646
348.63	42.559
349.00	42.314
349.36	43.103
349.72	43.705
350.08	43.193
350.45	43.043
350.81	42.161
351.17	42.464
351.53	43.079
351.89	41.914
352.26	43.489
352.62	43.865
352.98	42.220
353.34	43.632
353.70	43.290
354.07	43.468
354.43	42.460
354.79	42.317
355.15	43.496
355.51	44.285
355.87	44.898
356.24	43.485
356.60	41.299
356.96	43.524
357.32	43.990
357.68	43.228
358.04	43.626
358.40	43.626
358.77	43.114
359.13	43.883
359.49	43.686
359.85	43.095
360.21	45.774
360.57	44.280
360.93	45.846
361.29	43.235
361.66	44.118
362.02	44.776
362.38	46.540
362.74	45.461
363.10	44.486
363.46	44.314
363.82	45.729
364.18	44.347
364.54	46.582
364.90	44.476
365.26	45.368
365.62	45.800
365.98	44.777
366.35	43.983
366.71	46.421
367.07	45.375
367.43	45.718
367.79	46.253
368.15	46.767
368.51	46.003
368.87	46.467
369.23	45.501
369.59	46.778
369.95	46.029
370.31	46.225
370.67	45.652
371.03	46.142
371.39	48.032
371.75	46.765
372.11	47.013
372.47	47.214
372.83	47.839
373.19	46.171
373.55	48.115
373.91	48.527
374.27	46.873
374.63	47.782
374.99	48.023
375.35	45.569
375.71	47.019
376.07	47.394
376.42	47.730
376.78	47.449
377.14	47.083
377.50	48.609
377.86	46.809
378.22	48.420
378.58	47.243
378.94	48.586
379.30	46.819
379.66	47.081
380.02	47.912
380.38	48.270
380.74	47.719
381.09	47.555
381.45	48.187
381.81	47.666
382.17	48.599
382.53	48.302
382.89	48.272
383.25	49.531
383.61	49.690
383.97	47.967
384.32	48.160
384.68	47.026
385.04	47.880
385.40	48.483
385.76	48.464
386.12	49.806
386.48	48.899
386.83	49.391
387.19	48.980
387.55	48.052
387.91	48.730
388.27	47.456
388.62	48.556
388.98	49.140
389.34	48.686
389.70	47.210
390.06	50.253
390.42	48.444
390.77	48.601
391.13	50.223
391.49	48.985
391.85	47.613
392.20	46.814
392.56	47.854
392.92	48.499
393.28	47.870
393.64	48.681
393.99	48.442
394.35	49.132
394.71	49.247
395.07	48.349
395.42	47.899
395.78	48.791
396.14	47.734
396.50	49.812
396.85	48.379
397.21	47.904
397.57	46.993
397.92	47.897
398.28	47.478
398.64	48.746
399.00	48.237
399.35	47.377
399.71	48.090
400.07	46.718
400.42	48.282
400.78	48.432
401.14	47.195
401.49	47.642
401.85	48.578
402.21	47.425
402.57	47.687
402.92	48.991
403.28	47.158
403.63	47.525
403.99	47.006
404.35	47.455
404.70	47.122
405.06	47.117
405.42	47.224
405.77	46.000
406.13	46.388
406.49	47.546
406.84	46.781
407.20	46.986
407.55	47.798
407.91	47.933
408.27	47.096
408.62	46.659
408.98	46.140
409.34	47.109
409.69	47.677
410.05	48.017
410.40	46.544
410.76	46.655
411.11	46.441
411.47	46.645
411.83	47.282
412.18	45.949
412.54	46.824
412.89	45.542
413.25	46.163
413.60	46.325
413.96	45.719
414.31	47.509
414.67	46.388
415.03	46.887
415.38	48.003
415.74	47.267
416.09	47.420
416.45	46.051
416.80	45.869
417.16	47.453
417.51	47.113
417.87	45.536
418.22	46.057
418.58	46.804
418.93	46.192
419.29	46.722
419.64	46.599
420.00	46.768
420.35	45.913
420.71	45.607
421.06	45.227
421.42	45.965
421.77	45.572
422.12	45.143
422.48	45.116
422.83	46.010
423.19	45.414
423.54	45.270
423.90	45.449
424.25	45.338
424.61	44.464
424.96	45.015
425.31	45.127
425.67	44.888
426.02	44.400
426.38	46.886
426.73	44.646
427.09	44.377
427.44	45.543
427.79	45.486
428.15	44.643
428.50	45.699
428.85	44.994
429.21	45.003
429.56	45.049
429.92	44.238
430.27	44.489
430.62	44.137
430.98	43.695
431.33	43.711
431.68	45.654
432.04	43.557
432.39	45.060
432.74	44.883
433.10	45.727
433.45	44.781
433.80	44.900
434.16	44.925
434.51	44.842
434.86	45.211
435.22	45.025
435.57	45.593
435.92	44.997
436.28	45.136
436.63	45.971
436.98	45.449
437.34	45.677
437.69	46.616
438.04	44.519
438.39	46.030
438.75	46.717
439.10	45.642
439.45	45.100
439.81	45.317
440.16	45.398
440.51	45.284
440.86	45.918
441.22	45.106
441.57	45.382
441.92	46.264
442.27	46.071
442.63	45.814
442.98	45.746
443.33	44.402
443.68	45.638
444.03	45.632
444.39	45.278
444.74	45.346
445.09	45.445
445.44	44.943
445.79	45.473
446.15	45.580
446.50	45.557
446.85	46.146
447.20	45.589
447.55	45.505
447.91	46.387
448.26	45.799
448.61	46.467
448.96	45.570
449.31	46.175
449.66	46.033
450.02	45.794
450.37	46.032
450.72	46.080
451.07	46.557
451.42	46.140
451.77	46.271
452.12	45.670
452.47	46.828
452.83	46.562
453.18	45.966
453.53	47.124
453.88	46.899
454.23	46.503
454.58	45.972
454.93	46.790
455.28	46.509
455.63	45.752
455.98	47.381
456.34	45.729
456.69	47.151
457.04	47.988
457.39	45.587
457.74	45.270
458.09	46.233
458.44	46.465
458.79	44.197
459.14	46.614
459.49	45.651
459.84	44.931
460.19	45.374
460.54	44.850
460.89	45.639
461.24	46.934
461.59	46.833
461.94	46.239
462.29	46.944
462.64	46.139
462.99	46.779
463.34	46.467
463.69	45.403
464.04	46.203
464.39	45.391
464.74	45.395
465.09	45.657
465.44	45.097
465.79	45.917
466.14	45.211
466.49	45.217
466.84	44.950
467.19	45.323
467.54	45.438
467.89	46.038
468.24	45.259
468.59	46.703
468.94	45.388
469.29	46.851
469.64	47.055
469.99	46.143
470.34	46.037
470.68	45.618
471.03	47.347
471.38	45.309
471.73	45.436
472.08	47.105
472.43	45.917
472.78	46.215
473.13	47.240
473.48	46.816
473.83	46.098
474.17	46.235
474.52	47.643
474.87	46.060
475.22	46.198
475.57	45.298
475.92	45.831
476.27	46.505
476.61	45.229
476.96	46.124
477.31	45.892
477.66	47.155
478.01	45.687
478.36	45.796
478.70	45.431
479.05	45.687
479.40	46.264
479.75	46.823
480.10	45.080
480.45	44.455
480.79	45.628
481.14	45.499
481.49	44.613
481.84	45.816
482.19	45.434
482.53	45.413
482.88	44.625
483.23	45.794
483.58	46.042
483.92	45.314
484.27	44.575
484.62	43.879
484.97	43.910
485.31	43.493
485.66	41.912
486.01	40.512
486.36	40.606
486.70	41.966
487.05	42.512
487.40	42.799
487.75	43.154
488.09	44.283
488.44	43.929
488.79	44.412
489.13	44.423
489.48	44.413
489.83	44.929
490.17	45.024
490.52	44.110
490.87	44.505
491.22	44.338
491.56	43.872
491.91	44.253
492.26	43.408
492.60	44.516
492.95	43.031
493.30	44.112
493.64	44.097
493.99	44.197
494.34	44.958
494.68	44.734
495.03	44.549
495.37	43.695
495.72	44.591
496.07	44.176
496.41	42.832
496.76	44.503
497.11	44.800
497.45	44.155
497.80	43.378
498.14	44.493
498.49	44.049
498.84	44.775
499.18	44.286
499.53	44.634
499.87	43.989
500.22	44.418
500.56	45.874
500.91	44.519
501.26	43.385
501.60	45.610
501.95	43.492
502.29	44.705
502.64	44.413
502.98	44.787
503.33	43.739
503.67	44.176
504.02	44.013
504.36	44.221
504.71	44.406
505.06	43.952
505.40	44.968
505.75	43.732
506.09	45.190
506.44	44.746
506.78	44.861
507.13	46.138
507.47	45.303
507.82	45.339
508.16	45.187
508.51	45.865
508.85	45.035
509.19	44.898
509.54	44.847
509.88	45.492
510.23	45.039
510.57	46.491
510.92	46.245
511.26	45.015
511.61	45.643
511.95	44.259
512.30	45.970
512.64	46.212
512.98	46.570
513.33	46.306
513.67	45.838
514.02	44.968
514.36	46.914
514.70	46.375
515.05	46.180
515.39	46.495
515.74	47.466
516.08	46.954
516.42	46.559
516.77	47.436
517.11	46.948
517.46	48.081
517.80	46.748
518.14	47.134
518.49	48.191
518.83	47.216
519.17	47.171
519.52	48.670
519.86	49.173
520.20	48.208
520.55	48.654
520.89	49.513
521.23	49.397
521.58	48.259
521.92	48.806
522.26	48.383
522.61	50.218
522.95	50.153
523.29	49.300
523.64	50.244
523.98	49.908
524.32	48.794
524.66	49.248
525.01	50.000
525.35	49.195
525.69	49.384
526.04	49.034
526.38	48.871
526.72	49.325
527.06	50.534
527.41	48.886
527.75	51.383
528.09	51.509
528.43	50.669
528.78	49.969
529.12	49.576
529.46	50.643
529.80	50.371
530.15	51.028
530.49	49.169
530.83	51.076
531.17	52.676
531.51	51.751
531.86	51.032
532.20	51.499
532.54	50.352
532.88	50.963
533.22	49.781
533.57	50.309
533.91	51.174
534.25	51.276
534.59	49.176
534.93	50.387
535.27	49.366
535.62	50.244
535.96	50.282
536.30	50.668
536.64	50.419
536.98	52.024
537.32	49.506
537.66	50.067
538.01	51.942
538.35	50.743
538.69	51.053
539.03	49.968
539.37	49.457
539.71	48.995
540.05	50.719
540.39	51.628
540.73	49.418
541.07	50.941
541.42	50.554
541.76	50.516
542.10	50.647
542.44	51.258
542.78	52.108
543.12	50.352
543.46	50.230
543.80	50.813
544.14	49.679
544.48	50.413
544.82	50.032
545.16	50.163
545.50	49.871
545.84	51.478
546.18	50.168
546.52	51.411
546.86	50.447
547.20	50.978
547.54	50.835
547.88	51.403
548.22	49.066
548.56	49.245
548.90	50.000
549.24	51.044
549.58	50.887
549.92	50.687
550.26	51.278
550.60	49.378
550.94	50.915
551.28	50.037
551.62	50.324
551.96	50.456
552.30	50.785
552.64	49.425
552.98	50.576
553.32	49.764
553.66	49.830
554.00	51.132
554.34	49.689
554.68	51.073
555.02	50.000
555.36	50.104
555.69	50.135
556.03	49.192
556.37	49.454
556.71	49.591
557.05	49.930
557.39	50.805
557.73	49.682
558.07	51.051
558.41	51.302
558.75	50.698
559.08	51.230
559.42	51.398
559.76	50.515
560.10	49.179
560.44	49.476
560.78	47.505
561.12	49.142
561.45	48.501
561.79	50.033
562.13	48.893
562.47	48.702
562.81	50.139
563.15	48.361
563.48	50.000
563.82	49.576
564.16	48.463
564.50	48.828
564.84	47.219
565.17	47.748
565.51	49.201
565.85	48.985
566.19	48.153
566.52	48.132
566.86	46.233
567.20	48.290
567.54	47.717
567.88	46.551
568.21	47.196
568.55	46.411
568.89	46.547
569.23	44.385
569.56	45.142
569.90	45.321
570.24	44.779
570.57	44.237
570.91	42.469
571.25	42.063
571.59	43.211
571.92	43.059
572.26	43.674
572.60	43.664
572.93	43.088
573.27	42.857
573.61	43.076
573.95	42.041
574.28	42.613
574.62	42.201
574.96	41.338
575.29	41.683
575.63	42.200
575.97	41.187
576.30	42.246
576.64	41.597
576.98	41.857
577.31	41.335
577.65	41.629
577.98	40.671
578.32	41.223
578.66	40.545
578.99	41.885
579.33	41.854
579.67	40.890
580.00	41.237
580.34	42.050
580.67	41.220
581.01	41.579
581.35	40.295
581.68	40.469
582.02	40.651
582.35	40.958
582.69	41.027
583.02	41.745
583.36	42.126
583.70	41.983
584.03	42.215
584.37	42.003
584.70	41.693
585.04	40.998
585.37	41.170
585.71	41.471
586.04	40.783
586.38	41.902
586.72	42.336
587.05	41.538
587.39	41.240
587.72	41.510
588.06	41.916
588.39	42.359
588.73	41.889
589.06	42.412
589.40	42.795
589.73	42.274
590.07	42.527
590.40	42.528
590.73	43.208
591.07	44.200
591.40	43.273
591.74	43.853
592.07	42.539
592.41	43.241
592.74	41.461
593.08	41.739
593.41	40.810
593.75	40.537
594.08	41.737
594.41	41.923
594.75	41.811
595.08	41.947
595.42	41.856
595.75	41.702
596.09	42.696
596.42	41.847
596.75	42.550
597.09	42.641
597.42	42.159
597.75	42.648
598.09	43.391
598.42	42.053
598.76	40.819
599.09	40.783
599.42	40.466
599.76	41.325
600.09	40.474
600.42	41.892
600.76	41.429
601.09	41.202
601.42	41.058
601.76	41.404
602.09	41.107
602.42	42.476
602.76	42.160
603.09	41.857
603.42	42.718
603.76	41.387
604.09	41.722
604.42	42.234
604.76	42.261
605.09	42.551
605.42	41.599
605.75	40.563
606.09	40.992
606.42	41.765
606.75	42.057
607.09	40.938
607.42	41.891
607.75	40.591
608.08	42.162
608.42	41.865
608.75	41.389
609.08	40.934
609.41	41.504
609.75	41.210
610.08	41.235
610.41	40.875
610.74	41.438
611.07	42.638
611.41	42.100
611.74	42.433
612.07	42.650
612.40	42.812
612.73	42.263
613.07	42.403
613.40	42.865
613.73	40.797
614.06	42.903
614.39	41.846
614.72	41.053
615.06	42.542
615.39	41.189
615.72	41.411
616.05	41.786
616.38	42.635
616.71	42.874
617.05	42.226
617.38	42.694
617.71	43.063
618.04	42.608
618.37	41.810
618.70	43.248
619.03	43.816
619.36	43.652
619.69	43.310
620.03	43.132
620.36	42.447
620.69	43.699
621.02	43.068
621.35	44.009
621.68	43.380
622.01	45.046
622.34	43.343
622.67	43.346
623.00	43.360
623.33	43.531
623.66	43.674
623.99	44.330
624.32	41.441
624.65	42.655
624.99	41.431
625.32	43.592
625.65	43.727
625.98	45.119
626.31	44.090
626.64	43.265
626.97	44.223
627.30	44.057
627.63	42.986
627.96	45.080
628.29	43.920
628.62	45.471
628.95	45.472
629.28	44.252
629.61	46.104
629.94	46.286
630.26	46.235
630.59	45.091
630.92	46.169
631.25	44.620
631.58	45.245
631.91	44.320
632.24	45.886
632.57	48.374
632.90	45.504
633.23	45.973
633.56	46.893
633.89	45.527
634.22	45.970
634.55	48.994
634.88	45.269
635.20	46.834
635.53	47.229
635.86	47.525
636.19	45.294
636.52	45.675
636.85	46.277
637.18	45.507
637.51	46.809
637.83	44.513
638.16	46.547
638.49	47.355
638.82	46.903
639.15	46.750
639.48	46.883
639.81	47.989
640.13	46.615
640.46	47.248
640.79	48.217
641.12	46.217
641.45	47.905
641.77	49.779
642.10	46.930
642.43	47.447
642.76	48.762
643.09	49.693
643.41	49.469
643.74	48.302
644.07	46.646
644.40	48.620
644.73	50.236
645.05	48.653
645.38	47.393
645.71	50.403
646.04	51.163
646.36	49.249
646.69	50.167
647.02	47.619
647.35	48.797
647.67	51.858
648.00	46.829
648.33	49.340
648.66	48.485
648.98	45.877
649.31	47.982
649.64	45.590
649.96	49.776
650.29	47.551
650.62	48.544
650.94	49.109
651.27	48.649
651.60	48.586
651.92	47.284
652.25	47.068
652.58	47.975
652.90	48.341
653.23	45.455
653.56	47.244
653.88	45.166
654.21	47.709
654.54	48.185
654.86	47.508
655.19	43.919
655.52	33.413
655.84	29.426
656.17	37.352
656.49	51.557
656.82	53.336
657.15	41.511
657.47	31.636
657.80	24.370
658.13	25.296
658.45	38.089
658.78	38.370
659.10	39.641
659.43	40.334
659.75	41.268
660.08	42.595
660.41	45.158
660.73	48.793
661.06	49.682
661.38	50.000
661.71	50.962
662.03	52.268
662.36	47.913
662.68	49.398
663.01	49.495
663.33	51.380
663.66	50.630
663.98	52.268
664.31	50.420
664.63	50.607
664.96	49.296
665.28	50.615
665.61	49.513
665.93	50.101
666.26	48.479
666.58	46.234
666.91	49.471
667.23	54.607
667.56	47.084
667.88	51.496
668.21	50.746
668.53	47.939
668.86	45.022
669.18	52.665
669.50	49.130
669.83	50.109
670.15	51.556
670.48	49.891
670.80	51.078
671.13	50.743
671.45	51.064
671.77	50.305
672.10	46.211
672.42	43.993
672.75	44.610
673.07	45.246
673.39	44.665
673.72	46.875
674.04	48.824
674.37	46.796
674.69	48.466
675.01	48.745
675.34	49.487
675.66	50.316
675.98	48.676
676.31	47.899
676.63	48.195
676.95	48.428
677.28	49.533
677.60	46.374
677.92	48.312
678.25	45.380
678.57	47.809
678.89	46.092
679.22	45.187
679.54	46.374
679.86	45.321
680.18	44.186
680.51	47.163
680.83	43.238
681.15	44.528
681.48	47.826
681.80	46.228
682.12	44.636
682.44	43.714
682.77	49.491
683.09	49.356
683.41	47.450
683.73	49.669
684.06	48.760
684.38	44.423
684.70	45.930
685.02	46.717
685.34	45.055
685.67	44.406
685.99	40.722
686.31	42.833
686.63	43.993
686.96	42.500
687.28	45.487
687.60	42.935
687.92	45.338
688.24	45.627
688.56	48.996
688.89	46.266
689.21	48.253
689.53	46.973
689.85	47.894
690.17	43.892
690.49	47.134
690.82	50.467
691.14	45.982
691.46	44.726
691.78	47.189
692.10	51.446
692.42	45.709
692.74	43.776
693.06	44.681
693.39	46.407
693.71	49.563
694.03	45.895
694.35	45.671
694.67	44.622
694.99	50.000
695.31	46.078
695.63	45.215
695.95	49.878
696.27	47.970
696.59	46.891
696.91	48.446
697.23	44.131
697.56	45.203
697.88	42.740
698.20	42.708
698.52	44.301
698.84	43.430
699.16	46.313
699.48	45.131
699.80	46.618
700.12	49.351
700.44	48.541
700.76	44.199
701.08	46.552
701.40	46.369
701.72	49.854
702.04	53.693
702.36	45.609
702.68	53.258
703.00	49.307
703.32	47.340
703.64	47.185
703.96	46.797
704.28	47.384
704.60	45.748
704.91	50.445
705.23	46.041
705.55	53.821
705.87	52.824
706.19	50.883
706.51	42.991
706.83	48.485
707.15	47.339
707.47	44.444
707.79	47.912
708.11	45.662
708.43	43.333
708.74	44.133
709.06	47.792
709.38	48.031
709.70	47.093
710.02	47.478
710.34	46.970
710.66	47.463
710.98	48.011
711.29	48.547
711.61	51.622
711.93	45.513
712.25	52.412
712.57	53.676
712.89	50.519
713.20	46.809
713.52	48.355
713.84	44.304
714.16	41.768
714.48	48.563
714.80	50.152
715.11	44.669
715.43	44.510
715.75	46.377
716.07	46.006
716.39	44.514
716.70	49.834
717.02	46.763
717.34	48.057
717.66	52.612
717.97	56.574
718.29	50.741
718.61	54.015
718.93	49.265
719.24	46.021
719.56	48.136
719.88	48.475
720.20	48.649
720.51	49.826
720.83	49.442
721.15	49.254
721.46	46.099
721.78	52.330
722.10	54.340
722.42	48.120
722.73	49.813
723.05	52.459
723.37	51.012
723.68	49.421
724.00	51.626
724.32	51.613
724.63	46.748
724.95	51.883
725.27	52.227
725.58	46.875
725.90	50.730
726.22	47.547
726.53	46.181
726.85	47.099
727.16	49.822
727.48	51.773
727.80	51.136
728.11	44.565
728.43	46.154
728.74	47.312
729.06	46.350
729.38	52.574
729.69	49.110
730.01	45.051
730.32	45.486
730.64	45.819
730.96	44.224
731.27	48.675
731.59	47.706
731.90	44.023
732.22	43.168
732.53	40.248
732.85	42.308
733.16	43.408
733.48	46.179
733.80	44.156
734.11	48.089
734.43	44.675
734.74	43.429
735.06	42.693
735.37	44.798
735.69	48.726
736.00	49.673
736.32	45.171
736.63	42.173
736.95	45.367
737.26	41.497
737.58	40.323
737.89	46.154
738.21	42.662
738.52	47.500
738.83	40.377
739.15	46.538
739.46	47.445
739.78	46.875
740.09	44.615
740.41	46.129
740.72	43.902
741.04	47.407
741.35	49.583
741.66	52.444
741.98	46.698
742.29	54.545
742.61	53.448
742.92	51.584
743.23	49.573
743.55	50.400
743.86	48.684
744.18	53.097
744.49	56.459
744.80	50.235
745.12	48.182
745.43	52.863
745.74	47.297
746.06	48.165
746.37	54.260
746.68	52.941
747.00	54.167
747.31	53.810
747.62	51.770
747.94	49.339
748.25	40.000
748.56	48.899
748.88	46.040
749.19	57.500
749.50	53.023
749.82	47.967
750.13	46.939
750.44	46.350
750.75	46.316
751.07	45.016
751.38	48.432
751.69	47.653
752.01	44.737
752.32	45.848
752.63	47.872
752.94	47.131
753.26	47.600
753.57	47.561
753.88	45.703
754.19	38.929
754.51	47.569
754.82	40.433
755.13	48.302
755.44	46.241
755.75	41.606
756.07	48.227
756.38	43.431
756.69	43.624
757.00	39.820
757.31	40.950
757.63	42.982
757.94	42.627
758.25	38.480
758.56	37.778
758.87	38.978
759.18	40.909
759.50	42.947
759.81	39.252
760.12	43.125
760.43	41.834
760.74	40.217
761.05	43.503
761.36	38.770
761.67	43.182
761.99	42.857
762.30	44.097
762.61	44.275
762.92	46.094
763.23	47.059
763.54	44.000
763.85	47.266
764.16	50.769
764.47	47.909
764.78	43.110
765.10	43.038
765.41	39.233
765.72	37.425
766.03	41.693
766.34	44.000
766.65	47.660
766.96	44.444
767.27	48.731
767.58	53.646
767.89	52.105
768.20	54.023
768.51	48.731
768.82	50.459
769.13	41.870
769.44	41.700
769.75	48.069
770.06	43.119
770.37	45.701
770.68	54.167
770.99	48.889
771.30	39.344
771.61	48.879
771.92	47.951
772.23	50.000
772.54	47.179
772.85	55.497
773.16	49.468
773.47	55.435
773.78	51.777
774.09	51.190
774.39	49.708
774.70	54.321
775.01	55.072
775.32	54.248
775.63	50.000
775.94	58.993
776.25	59.055
776.56	63.433
776.87	61.475
777.18	57.031
777.48	58.779
777.79	54.545
778.10	58.519
778.41	53.571
778.72	49.635
779.03	49.664
779.34	55.034
779.65	52.027
779.95	51.534
780.26	61.438
780.57	54.483
780.88	62.500
781.19	62.406
781.50	60.135
781.80	55.346
782.11	48.023
782.42	50.633
782.73	52.147
783.04	55.405
783.34	55.634
783.65	66.438
783.96	61.940
784.27	55.245
784.57	63.309
784.88	49.074
785.19	67.460
785.50	58.491
785.81	53.731
786.11	58.197
786.42	62.016
786.73	57.522
787.04	69.811
787.34	63.393
787.65	69.000
787.96	60.360
788.26	49.587
788.57	61.864
788.88	61.983
789.19	62.500
789.49	60.606
789.80	57.252
790.11	79.048
790.41	70.297
790.72	67.470
791.03	65.217
791.33	67.442
791.64	72.165
791.95	68.317
792.25	68.889
792.56	72.727
792.87	80.769
793.17	82.278
793.48	75.862
793.79	66.667
794.09	70.455
794.40	52.941
794.70	66.912
795.01	48.889
795.32	55.396
795.62	51.181
795.93	59.483
796.23	61.947
796.54	68.235
796.85	82.432
797.15	92.958
797.46	72.727
797.76	72.289
798.07	82.278
798.37	89.231
798.68	78.788
798.99	77.465
799.29	67.532
799.60	67.045
799.90	69.863
800.21	88.060
800.51	77.586
800.82	108.772
801.12	75.410
801.43	93.939
801.73	89.189
802.04	98.413
802.34	64.198
802.65	82.813
802.95	100.000
803.26	101.563
803.56	78.571
803.87	80.000
804.17	82.353
804.48	112.963
804.78	72.414
805.09	79.412
805.39	94.231
805.70	83.929
806.00	96.721
806.30	78.788
806.61	73.171
806.91	67.089
807.22	71.053
807.52	76.119
807.83	84.507
808.13	85.938
808.43	85.000
808.74	76.316
809.04	94.203
809.35	76.119
809.65	72.368
809.95	109.677
810.26	88.136
810.56	87.302
810.86	97.727
811.17	114.286
811.47	110.000
811.77	85.185
812.08	109.091
812.38	114.000
812.69	141.667
812.99	125.000
813.29	97.959
813.59	90.476
813.90	114.286
814.20	109.091
814.50	72.308
814.81	105.882
815.11	108.163
815.41	85.246
815.72	133.333
816.02	94.545
816.32	111.905
816.62	115.000
816.93	112.195
817.23	138.095
817.53	97.727
817.84	136.364
818.14	119.565
818.44	84.444
818.74	141.176
819.04	87.500
819.35	120.000
819.65	135.294
819.95	139.286
820.25	165.000
820.56	141.026
820.86	129.545
821.16	113.953
821.46	120.513
821.76	116.000
822.07	145.714
822.37	142.500
822.67	148.485
822.97	78.431
823.27	167.857
823.57	140.541
823.88	157.500
824.18	156.667
824.48	121.429
824.78	196.000
825.08	150.000
825.38	129.730
825.69	119.512
825.99	179.167
826.29	165.517
826.59	126.316
826.89	126.316
827.19	120.588
827.49	132.258
827.79	136.364
828.09	129.545
828.39	117.021
828.70	106.122
829.00	111.111
829.30	116.129
829.60	117.500
829.90	200.000
830.20	153.571
830.50	139.130
830.80	195.652
831.10	146.667
831.40	170.000
831.70	143.478
832.00	219.231
832.30	203.704
832.60	231.250
832.90	160.000
833.20	335.714
833.50	148.387
833.80	124.138
834.10	178.125
834.40	142.308
834.70	266.667
835.00	266.667
835.30	148.571
835.60	276.923
835.90	165.517
836.20	242.857
836.50	141.379
836.80	136.000
837.10	144.444
837.40	209.524
837.70	252.941
838.00	162.963
838.30	204.762
838.60	209.524
838.90	180.769
839.19	220.000
839.49	292.857
839.79	295.000
840.09	200.000
840.39	223.810
840.69	234.783
840.99	194.444
841.29	350.000
841.59	241.667
841.88	268.750
842.18	179.310
842.48	185.714
842.78	173.333
843.08	204.348
843.38	140.625
843.68	666.667
843.97	169.231
844.27	165.517
844.57	233.333
844.87	250.000
845.17	188.889
845.47	966.667
845.76	311.111
846.06	223.529
846.36	412.500
846.66	300.000
846.96	181.250
847.25	309.091
847.55	309.091
847.85	213.043
848.15	320.000
848.44	264.286
848.74	177.778
849.04	264.706
849.34	460.000
849.63	252.632
849.93	354.545
850.23	940.000
850.53	350.000
850.82	1750.000
851.12	-3700.000
851.42	3500.000
851.71	240.000
852.01	-1166.667
852.31	200.000
852.61	1133.333
852.90	214.286
853.20	184.000
853.50	335.294
853.79	290.476
854.09	170.833
854.39	268.750
854.68	148.649
854.98	164.516
855.28	130.000
855.57	165.517
855.87	159.259
856.17	163.158
856.46	160.000
856.76	235.294
857.05	175.862
857.35	195.833
857.65	233.333
857.94	195.652
858.24	165.385
858.53	245.000
858.83	227.273
859.13	233.333
859.42	0.000
859.72	333.333
860.01	363.636
860.31	181.818
860.60	194.737
860.90	186.957
861.20	400.000
861.49	300.000
861.79	-3300.000
862.08	487.500
862.38	200.000
862.67	284.615
862.97	288.235
863.26	444.444
863.56	205.556
863.85	316.667
864.15	500.000
864.44	280.000
864.74	566.667
865.03	562.500
865.33	178.947
865.62	281.818
865.92	400.000
866.21	216.667
866.51	0.000
866.80	263.636
867.10	820.000
867.39	307.692
867.69	327.273
867.98	226.316
868.27	372.727
868.57	236.842
868.86	-3800.000
869.16	237.500
869.45	1400.000
869.75	-2900.000
870.04	366.667
870.33	485.714
870.63	650.000
870.92	2300.000
871.22	514.286
871.51	252.941
871.80	185.714
872.10	321.429
>>>>>End Processed Spectral Data<<<<<
