SpectraSuite Data File
++++++++++++++++++++++++++++++++++++
Date: Wed May 13 20:37:02 PDT 2015
User: schluterlab
Dark Spectrum Present: Yes
Reference Spectrum Present: Yes
Number of Sampled Component Spectra: 1
Spectrometers: USB2E3373
Integration Time (usec): 3000 (USB2E3373)
Spectra Averaged: 3 (USB2E3373)
Boxcar Smoothing: 0 (USB2E3373)
Correct for Electrical Dark: No (USB2E3373)
Strobe/Lamp Enabled: No (USB2E3373)
Correct for Detector Non-linearity: No (USB2E3373)
Correct for Stray Light: No (USB2E3373)
Number of Pixels in Processed Spectrum: 2048
>>>>>Begin Processed Spectral Data<<<<<
178.53	0.000
178.91	-875.000
179.29	-1125.000
179.67	-155.556
180.04	-800.000
180.42	1750.000
180.80	700.000
181.18	-475.000
181.56	500.000
181.94	0.000
182.31	-500.000
182.69	1266.667
183.07	-375.000
183.45	-322.222
183.83	418.182
184.20	-130.000
184.58	1650.000
184.96	4100.000
185.34	-600.000
185.72	-462.500
186.09	-1650.000
186.47	2050.000
186.85	2100.000
187.23	3000.000
187.61	-1400.000
187.98	1050.000
188.36	409.091
188.74	409.091
189.12	-500.000
189.49	390.000
189.87	-2600.000
190.25	-725.000
190.63	250.000
191.00	323.077
191.38	533.333
191.76	-900.000
192.14	1100.000
192.51	387.500
192.89	833.333
193.27	412.500
193.65	-750.000
194.02	340.000
194.40	640.000
194.78	430.000
195.15	400.000
195.53	460.000
195.91	-1600.000
196.29	225.000
196.66	289.474
197.04	-320.000
197.42	0.000
197.79	500.000
198.17	-3400.000
198.55	428.571
198.92	575.000
199.30	540.000
199.68	0.000
200.05	227.778
200.43	571.429
200.81	3800.000
201.18	1466.667
201.56	-1166.667
201.94	400.000
202.31	444.444
202.69	258.333
203.07	370.000
203.44	0.000
203.82	975.000
204.19	600.000
204.57	328.571
204.95	512.500
205.32	1166.667
205.70	354.545
206.08	257.143
206.45	1650.000
206.83	287.500
207.20	650.000
207.58	460.000
207.96	277.778
208.33	500.000
208.71	-616.667
209.08	528.571
209.46	333.333
209.84	381.818
210.21	-1000.000
210.59	850.000
210.96	-325.000
211.34	2000.000
211.71	420.000
212.09	533.333
212.46	0.000
212.84	1166.667
213.22	1275.000
213.59	-2900.000
213.97	533.333
214.34	600.000
214.72	454.545
215.09	820.000
215.47	-1800.000
215.84	-1750.000
216.22	1133.333
216.59	242.857
216.97	1075.000
217.34	400.000
217.72	-516.667
218.09	0.000
218.47	-3200.000
218.84	411.111
219.22	485.714
219.59	1100.000
219.97	-371.429
220.34	700.000
220.72	-1300.000
221.09	292.857
221.47	1075.000
221.84	-616.667
222.22	0.000
222.59	975.000
222.97	-2000.000
223.34	700.000
223.72	307.692
224.09	760.000
224.46	1700.000
224.84	-2900.000
225.21	-760.000
225.59	-2700.000
225.96	390.000
226.34	230.000
226.71	1700.000
227.08	437.500
227.46	370.000
227.83	-650.000
228.21	-1400.000
228.58	466.667
228.95	-2150.000
229.33	-1750.000
229.70	1533.333
230.08	528.571
230.45	-480.000
230.82	291.667
231.20	566.667
231.57	371.429
231.95	366.667
232.32	145.455
232.69	290.909
233.07	428.571
233.44	238.462
233.81	-800.000
234.19	189.474
234.56	300.000
234.93	208.333
235.31	263.636
235.68	238.462
236.05	278.571
236.43	154.545
236.80	131.579
237.17	2800.000
237.55	161.905
237.92	153.571
238.29	161.905
238.67	83.871
239.04	134.483
239.41	116.667
239.79	95.652
240.16	95.238
240.53	79.545
240.91	82.353
241.28	82.000
241.65	56.000
242.02	68.116
242.40	66.129
242.77	71.667
243.14	61.290
243.51	66.292
243.89	55.294
244.26	50.000
244.63	50.538
245.00	46.809
245.38	52.475
245.75	43.925
246.12	38.532
246.49	51.095
246.87	46.400
247.24	46.154
247.61	40.000
247.98	43.137
248.36	34.459
248.73	30.573
249.10	40.764
249.47	35.028
249.84	36.364
250.22	36.364
250.59	33.136
250.96	39.899
251.33	34.597
251.70	34.653
252.08	28.571
252.45	30.942
252.82	29.130
253.19	28.511
253.56	29.412
253.94	29.876
254.31	25.000
254.68	31.154
255.05	26.937
255.42	29.268
255.79	27.941
256.16	27.076
256.54	25.442
256.91	27.402
257.28	25.540
257.65	29.373
258.02	28.261
258.39	26.183
258.76	25.753
259.14	25.893
259.51	28.267
259.88	22.360
260.25	31.118
260.62	23.410
260.99	22.981
261.36	27.628
261.73	27.221
262.10	22.384
262.47	27.606
262.85	24.791
263.22	23.932
263.59	27.635
263.96	22.802
264.33	23.760
264.70	25.000
265.07	24.552
265.44	23.485
265.81	22.141
266.18	25.126
266.55	24.146
266.92	24.816
267.29	24.769
267.66	24.312
268.03	24.091
268.40	24.299
268.77	22.912
269.14	21.847
269.51	25.056
269.88	23.310
270.25	23.702
270.62	23.596
270.99	25.161
271.36	21.674
271.73	22.897
272.10	21.739
272.47	22.796
272.84	24.242
273.21	22.432
273.58	20.524
273.95	19.706
274.32	20.455
274.69	21.842
275.06	20.276
275.43	21.489
275.80	21.242
276.17	22.607
276.54	20.374
276.91	21.937
277.28	20.703
277.65	22.050
278.02	19.462
278.39	23.242
278.76	20.182
279.13	21.887
279.50	20.857
279.87	19.721
280.23	20.559
280.60	21.470
280.97	18.299
281.34	20.531
281.71	20.727
282.08	22.073
282.45	20.182
282.82	20.426
283.19	20.499
283.56	21.053
283.92	19.966
284.29	19.048
284.66	19.238
285.03	18.807
285.40	19.014
285.77	18.519
286.14	16.062
286.51	20.500
286.87	20.513
287.24	19.381
287.61	18.620
287.98	19.643
288.35	19.176
288.72	18.692
289.08	17.997
289.45	20.099
289.82	18.699
290.19	16.954
290.56	18.989
290.93	15.408
291.29	17.331
291.66	16.814
292.03	18.169
292.40	17.034
292.77	16.272
293.13	18.209
293.50	17.055
293.87	17.185
294.24	17.037
294.60	14.847
294.97	17.006
295.34	17.630
295.71	15.767
296.08	15.527
296.44	16.094
296.81	15.456
297.18	17.615
297.55	14.248
297.91	14.776
298.28	15.395
298.65	15.796
299.02	15.020
299.38	14.874
299.75	13.342
300.12	13.538
300.48	14.125
300.85	14.057
301.22	15.669
301.59	14.394
301.95	14.861
302.32	15.276
302.69	13.859
303.05	14.182
303.42	14.198
303.79	14.949
304.15	13.403
304.52	14.021
304.89	14.518
305.25	13.689
305.62	15.402
305.99	14.640
306.35	14.430
306.72	13.453
307.09	15.427
307.45	15.878
307.82	13.504
308.19	14.349
308.55	14.024
308.92	14.930
309.29	13.411
309.65	12.831
310.02	12.896
310.38	14.194
310.75	14.784
311.12	14.023
311.48	13.898
311.85	12.998
312.22	13.736
312.58	13.306
312.95	14.044
313.31	12.913
313.68	13.514
314.05	14.201
314.41	13.668
314.78	13.696
315.14	14.101
315.51	14.521
315.87	13.960
316.24	14.300
316.61	14.327
316.97	13.894
317.34	13.112
317.70	14.818
318.07	15.688
318.43	14.481
318.80	16.870
319.16	15.725
319.53	14.634
319.89	16.476
320.26	17.500
320.62	17.560
320.99	16.465
321.35	16.768
321.72	17.351
322.08	17.473
322.45	18.706
322.81	19.186
323.18	18.593
323.54	18.646
323.91	18.774
324.27	18.929
324.64	18.453
325.00	19.387
325.37	19.472
325.73	21.634
326.10	21.006
326.46	21.147
326.83	22.519
327.19	21.605
327.56	22.387
327.92	21.522
328.29	23.514
328.65	23.020
329.01	22.924
329.38	22.942
329.74	22.992
330.11	24.976
330.47	23.691
330.84	25.092
331.20	24.499
331.56	24.587
331.93	24.815
332.29	23.780
332.66	25.841
333.02	25.411
333.38	25.565
333.75	26.292
334.11	25.445
334.48	25.555
334.84	26.287
335.20	26.636
335.57	25.839
335.93	23.929
336.29	26.648
336.66	26.961
337.02	25.430
337.38	26.481
337.75	26.471
338.11	26.052
338.47	26.335
338.84	26.398
339.20	25.413
339.56	26.825
339.93	26.182
340.29	26.359
340.65	26.916
341.02	28.010
341.38	27.046
341.74	26.404
342.11	26.638
342.47	27.313
342.83	27.825
343.20	26.667
343.56	26.369
343.92	27.895
344.28	26.446
344.65	26.225
345.01	26.431
345.37	26.672
345.73	26.819
346.10	27.451
346.46	26.695
346.82	26.689
347.19	26.817
347.55	25.616
347.91	27.427
348.27	28.513
348.63	27.174
349.00	26.052
349.36	27.586
349.72	26.303
350.08	26.499
350.45	27.339
350.81	27.701
351.17	26.661
351.53	27.600
351.89	25.495
352.26	27.624
352.62	27.105
352.98	27.715
353.34	26.869
353.70	27.087
354.07	26.613
354.43	27.063
354.79	26.468
355.15	25.858
355.51	28.377
355.87	26.776
356.24	27.280
356.60	25.261
356.96	27.514
357.32	27.555
357.68	27.638
358.04	26.128
358.40	27.553
358.77	26.839
359.13	25.651
359.49	26.431
359.85	25.476
360.21	26.077
360.57	26.615
360.93	25.923
361.29	26.379
361.66	25.464
362.02	27.090
362.38	25.627
362.74	26.265
363.10	27.313
363.46	25.605
363.82	26.531
364.18	27.093
364.54	26.226
364.90	27.479
365.26	26.103
365.62	26.808
365.98	26.662
366.35	26.218
366.71	26.681
367.07	26.584
367.43	28.157
367.79	26.338
368.15	26.796
368.51	26.090
368.87	26.124
369.23	26.993
369.59	26.720
369.95	26.618
370.31	26.282
370.67	27.101
371.03	27.416
371.39	25.219
371.75	26.250
372.11	25.818
372.47	26.540
372.83	26.585
373.19	25.289
373.55	26.090
373.91	28.351
374.27	25.911
374.63	26.909
374.99	26.201
375.35	25.750
375.71	26.525
376.07	25.103
376.42	26.410
376.78	26.706
377.14	26.052
377.50	26.358
377.86	26.197
378.22	26.043
378.58	25.815
378.94	25.644
379.30	26.018
379.66	25.888
380.02	26.536
380.38	25.076
380.74	25.750
381.09	26.956
381.45	26.245
381.81	26.229
382.17	26.815
382.53	26.289
382.89	26.790
383.25	26.892
383.61	26.270
383.97	27.017
384.32	25.889
384.68	25.589
385.04	25.200
385.40	26.006
385.76	25.676
386.12	26.425
386.48	26.809
386.83	27.325
387.19	26.902
387.55	25.232
387.91	26.481
388.27	24.954
388.62	26.675
388.98	25.614
389.34	26.408
389.70	26.242
390.06	26.996
390.42	25.875
390.77	26.336
391.13	25.846
391.49	26.523
391.85	26.289
392.20	24.543
392.56	25.947
392.92	26.251
393.28	24.911
393.64	26.559
393.99	25.046
394.35	25.496
394.71	24.592
395.07	25.919
395.42	24.907
395.78	24.936
396.14	25.388
396.50	25.564
396.85	25.493
397.21	24.661
397.57	25.480
397.92	25.120
398.28	23.767
398.64	24.791
399.00	24.678
399.35	24.140
399.71	23.611
400.07	25.310
400.42	25.092
400.78	24.608
401.14	25.244
401.49	24.597
401.85	24.077
402.21	24.731
402.57	24.121
402.92	23.960
403.28	24.672
403.63	23.886
403.99	23.885
404.35	24.121
404.70	23.201
405.06	22.889
405.42	23.394
405.77	22.571
406.13	22.912
406.49	23.241
406.84	23.686
407.20	22.163
407.55	22.910
407.91	22.133
408.27	23.357
408.62	22.577
408.98	22.978
409.34	22.325
409.69	22.194
410.05	22.119
410.40	22.936
410.76	21.804
411.11	22.135
411.47	22.364
411.83	23.030
412.18	21.583
412.54	21.980
412.89	21.988
413.25	21.370
413.60	21.927
413.96	20.219
414.31	20.960
414.67	22.180
415.03	21.589
415.38	21.585
415.74	20.707
416.09	22.404
416.45	20.817
416.80	21.084
417.16	22.453
417.51	21.102
417.87	20.873
418.22	21.199
418.58	21.627
418.93	21.253
419.29	20.687
419.64	20.151
420.00	20.976
420.35	20.522
420.71	20.263
421.06	20.406
421.42	20.117
421.77	20.235
422.12	19.989
422.48	19.914
422.83	20.151
423.19	19.669
423.54	19.153
423.90	19.652
424.25	19.542
424.61	18.810
424.96	19.534
425.31	19.324
425.67	18.876
426.02	19.543
426.38	19.353
426.73	18.373
427.09	18.663
427.44	18.056
427.79	18.746
428.15	18.690
428.50	18.315
428.85	18.951
429.21	17.946
429.56	18.144
429.92	17.967
430.27	18.073
430.62	18.024
430.98	18.163
431.33	17.938
431.68	18.272
432.04	17.945
432.39	18.504
432.74	18.193
433.10	18.223
433.45	18.134
433.80	17.627
434.16	17.682
434.51	18.526
434.86	18.130
435.22	17.009
435.57	17.690
435.92	17.028
436.28	17.675
436.63	18.598
436.98	16.829
437.34	17.233
437.69	17.853
438.04	17.707
438.39	17.493
438.75	17.257
439.10	17.430
439.45	17.178
439.81	17.402
440.16	17.617
440.51	17.165
440.86	17.545
441.22	16.685
441.57	17.144
441.92	16.735
442.27	17.653
442.63	16.272
442.98	17.634
443.33	16.793
443.68	16.624
444.03	17.570
444.39	16.650
444.74	16.721
445.09	16.873
445.44	16.512
445.79	17.021
446.15	16.993
446.50	16.478
446.85	15.519
447.20	16.726
447.55	16.136
447.91	16.437
448.26	16.694
448.61	16.846
448.96	16.390
449.31	17.435
449.66	16.488
450.02	16.490
450.37	16.213
450.72	16.300
451.07	15.844
451.42	15.866
451.77	16.735
452.12	15.473
452.47	16.107
452.83	16.375
453.18	16.687
453.53	16.759
453.88	16.184
454.23	16.139
454.58	16.657
454.93	16.847
455.28	16.397
455.63	15.655
455.98	17.143
456.34	16.080
456.69	15.780
457.04	15.728
457.39	16.072
457.74	15.670
458.09	16.159
458.44	15.849
458.79	15.727
459.14	16.140
459.49	16.521
459.84	15.457
460.19	15.203
460.54	15.394
460.89	15.634
461.24	15.240
461.59	16.560
461.94	15.660
462.29	15.846
462.64	15.635
462.99	15.355
463.34	17.067
463.69	15.322
464.04	15.710
464.39	15.826
464.74	15.330
465.09	15.742
465.44	15.845
465.79	14.933
466.14	15.818
466.49	14.794
466.84	15.528
467.19	15.691
467.54	15.937
467.89	15.006
468.24	15.590
468.59	15.446
468.94	14.417
469.29	15.360
469.64	16.466
469.99	15.765
470.34	14.927
470.68	15.445
471.03	15.442
471.38	14.732
471.73	15.923
472.08	15.329
472.43	14.322
472.78	14.417
473.13	15.661
473.48	15.231
473.83	14.207
474.17	14.748
474.52	14.888
474.87	15.120
475.22	14.800
475.57	14.347
475.92	15.135
476.27	14.374
476.61	14.672
476.96	14.678
477.31	14.443
477.66	14.278
478.01	14.323
478.36	14.225
478.70	15.109
479.05	14.590
479.40	14.176
479.75	14.387
480.10	13.867
480.45	13.898
480.79	13.808
481.14	14.971
481.49	13.621
481.84	13.992
482.19	14.130
482.53	13.211
482.88	14.379
483.23	14.533
483.58	13.558
483.92	14.574
484.27	13.203
484.62	13.621
484.97	13.441
485.31	13.322
485.66	13.029
486.01	12.620
486.36	12.295
486.70	12.463
487.05	12.765
487.40	12.334
487.75	12.158
488.09	12.466
488.44	12.742
488.79	13.092
489.13	13.025
489.48	12.806
489.83	13.681
490.17	13.371
490.52	13.242
490.87	13.704
491.22	13.097
491.56	12.984
491.91	13.309
492.26	12.954
492.60	13.779
492.95	13.424
493.30	13.318
493.64	13.019
493.99	13.092
494.34	13.414
494.68	14.194
495.03	13.393
495.37	13.169
495.72	13.645
496.07	13.968
496.41	12.788
496.76	13.412
497.11	12.742
497.45	13.833
497.80	13.196
498.14	12.802
498.49	12.537
498.84	13.375
499.18	13.000
499.53	13.010
499.87	13.374
500.22	13.000
500.56	14.029
500.91	13.462
501.26	13.229
501.60	13.289
501.95	13.474
502.29	13.636
502.64	13.361
502.98	13.417
503.33	13.300
503.67	13.364
504.02	12.956
504.36	12.962
504.71	13.483
505.06	13.446
505.40	12.591
505.75	12.247
506.09	12.828
506.44	13.863
506.78	13.736
507.13	12.721
507.47	12.727
507.82	13.222
508.16	13.374
508.51	13.191
508.85	12.959
509.19	13.418
509.54	13.010
509.88	13.395
510.23	12.494
510.57	14.241
510.92	13.309
511.26	13.361
511.61	13.952
511.95	12.735
512.30	13.256
512.64	13.272
512.98	13.451
513.33	13.812
513.67	13.447
514.02	13.095
514.36	13.326
514.70	13.669
515.05	12.716
515.39	13.460
515.74	13.119
516.08	14.142
516.42	14.151
516.77	13.657
517.11	12.819
517.46	13.544
517.80	13.763
518.14	12.913
518.49	13.419
518.83	13.466
519.17	13.568
519.52	13.186
519.86	13.862
520.20	14.162
520.55	14.004
520.89	14.112
521.23	13.390
521.58	13.625
521.92	12.982
522.26	12.447
522.61	13.146
522.95	13.382
523.29	13.390
523.64	13.049
523.98	13.678
524.32	13.329
524.66	13.770
525.01	13.235
525.35	13.755
525.69	13.054
526.04	13.707
526.38	13.057
526.72	14.233
527.06	13.120
527.41	12.376
527.75	13.955
528.09	13.038
528.43	13.958
528.78	13.768
529.12	12.727
529.46	13.533
529.80	13.366
530.15	14.206
530.49	13.354
530.83	13.228
531.17	13.773
531.51	15.240
531.86	13.097
532.20	14.537
532.54	13.709
532.88	13.800
533.22	13.429
533.57	13.457
533.91	13.064
534.25	13.913
534.59	13.240
534.93	14.277
535.27	13.036
535.62	13.797
535.96	13.497
536.30	13.414
536.64	13.844
536.98	13.537
537.32	12.837
537.66	13.467
538.01	13.891
538.35	13.575
538.69	13.784
539.03	13.060
539.37	12.907
539.71	12.378
540.05	14.183
540.39	13.289
540.73	13.131
541.07	14.536
541.42	12.916
541.76	13.032
542.10	13.001
542.44	12.517
542.78	14.361
543.12	12.476
543.46	13.443
543.80	13.468
544.14	12.580
544.48	13.206
544.82	13.149
545.16	13.468
545.50	12.404
545.84	13.105
546.18	13.603
546.52	13.833
546.86	13.540
547.20	13.688
547.54	12.558
547.88	14.094
548.22	13.387
548.56	13.774
548.90	13.444
549.24	13.737
549.58	13.984
549.92	13.599
550.26	13.494
550.60	13.555
550.94	13.944
551.28	12.363
551.62	13.587
551.96	12.912
552.30	13.311
552.64	14.199
552.98	13.288
553.32	13.891
553.66	14.724
554.00	13.452
554.34	12.905
554.68	14.092
555.02	13.047
555.36	13.083
555.69	12.855
556.03	12.382
556.37	12.415
556.71	12.824
557.05	13.025
557.39	13.016
557.73	13.479
558.07	14.068
558.41	12.952
558.75	13.813
559.08	14.243
559.42	13.983
559.76	12.794
560.10	13.776
560.44	13.697
560.78	13.373
561.12	13.720
561.45	12.647
561.79	12.657
562.13	12.676
562.47	14.071
562.81	13.110
563.15	13.244
563.48	13.528
563.82	13.568
564.16	12.688
564.50	12.500
564.84	12.010
565.17	13.578
565.51	12.716
565.85	13.769
566.19	12.523
566.52	12.286
566.86	12.719
567.20	13.149
567.54	13.356
567.88	12.493
568.21	13.439
568.55	12.336
568.89	12.305
569.23	11.898
569.56	12.227
569.90	12.566
570.24	12.056
570.57	11.221
570.91	11.118
571.25	11.736
571.59	11.105
571.92	11.204
572.26	11.930
572.60	11.081
572.93	11.394
573.27	11.121
573.61	11.195
573.95	11.344
574.28	11.357
574.62	11.297
574.96	10.944
575.29	11.178
575.63	11.077
575.97	10.778
576.30	11.046
576.64	10.639
576.98	10.622
577.31	11.021
577.65	11.270
577.98	10.796
578.32	10.743
578.66	10.964
578.99	10.888
579.33	10.579
579.67	10.362
580.00	10.573
580.34	10.916
580.67	10.659
581.01	10.951
581.35	11.066
581.68	10.824
582.02	10.897
582.35	10.796
582.69	10.839
583.02	10.504
583.36	10.952
583.70	10.889
584.03	10.763
584.37	11.067
584.70	10.841
585.04	10.861
585.37	11.184
585.71	11.067
586.04	10.824
586.38	10.946
586.72	11.461
587.05	10.676
587.39	10.633
587.72	11.234
588.06	10.619
588.39	10.919
588.73	11.030
589.06	11.530
589.40	11.380
589.73	11.404
590.07	11.103
590.40	11.034
590.73	11.319
591.07	12.210
591.40	11.430
591.74	12.208
592.07	11.126
592.41	12.154
592.74	11.648
593.08	11.426
593.41	11.579
593.75	11.274
594.08	11.566
594.41	11.771
594.75	11.091
595.08	11.238
595.42	11.419
595.75	10.933
596.09	11.641
596.42	12.102
596.75	11.017
597.09	11.905
597.42	11.762
597.75	12.074
598.09	11.609
598.42	11.813
598.76	11.634
599.09	11.441
599.42	11.536
599.76	11.384
600.09	11.148
600.42	11.432
600.76	10.929
601.09	11.257
601.42	11.111
601.76	11.613
602.09	11.304
602.42	11.146
602.76	11.487
603.09	11.369
603.42	11.909
603.76	11.623
604.09	11.477
604.42	11.415
604.76	12.020
605.09	11.053
605.42	11.030
605.75	11.465
606.09	11.427
606.42	11.688
606.75	11.282
607.09	12.055
607.42	11.339
607.75	11.181
608.08	10.899
608.42	12.371
608.75	11.226
609.08	11.147
609.41	11.518
609.75	11.339
610.08	12.017
610.41	11.732
610.74	11.447
611.07	11.117
611.41	11.678
611.74	12.016
612.07	11.957
612.40	11.962
612.73	11.263
613.07	12.069
613.40	12.375
613.73	11.641
614.06	11.452
614.39	11.327
614.72	11.947
615.06	11.450
615.39	12.049
615.72	11.605
616.05	11.058
616.38	12.062
616.71	12.352
617.05	12.014
617.38	12.267
617.71	11.952
618.04	12.680
618.37	11.354
618.70	11.761
619.03	12.961
619.36	12.492
619.69	12.254
620.03	13.118
620.36	13.302
620.69	11.986
621.02	13.643
621.35	12.373
621.68	12.072
622.01	13.080
622.34	12.859
622.67	11.711
623.00	12.399
623.33	11.866
623.66	12.938
623.99	11.856
624.32	12.910
624.65	12.641
624.99	11.331
625.32	11.875
625.65	12.322
625.98	12.452
626.31	13.142
626.64	13.143
626.97	14.048
627.30	13.051
627.63	14.110
627.96	14.214
628.29	13.998
628.62	13.907
628.95	13.774
629.28	13.504
629.61	13.841
629.94	14.000
630.26	12.297
630.59	14.204
630.92	12.548
631.25	13.031
631.58	13.914
631.91	12.880
632.24	12.975
632.57	13.012
632.90	13.706
633.23	13.535
633.56	14.011
633.89	14.949
634.22	15.437
634.55	13.728
634.88	14.251
635.20	16.607
635.53	13.373
635.86	13.243
636.19	15.294
636.52	14.994
636.85	13.746
637.18	13.825
637.51	16.076
637.83	12.824
638.16	13.939
638.49	15.113
638.82	15.550
639.15	16.000
639.48	13.342
639.81	14.343
640.13	15.625
640.46	14.899
640.79	15.059
641.12	13.618
641.45	13.966
641.77	14.433
642.10	16.228
642.43	13.363
642.76	15.789
643.09	15.951
643.41	15.781
643.74	15.586
644.07	15.549
644.40	16.411
644.73	17.480
645.05	15.214
645.38	16.588
645.71	14.815
646.04	17.774
646.36	17.028
646.69	16.388
647.02	17.347
647.35	16.667
647.67	15.398
648.00	18.211
648.33	16.172
648.66	15.455
648.98	16.942
649.31	14.051
649.64	16.592
649.96	16.841
650.29	15.166
650.62	15.858
650.94	17.990
651.27	18.243
651.60	15.308
651.92	16.294
652.25	16.287
652.58	16.978
652.90	15.956
653.23	14.792
653.56	15.591
653.88	16.799
654.21	17.852
654.54	14.356
654.86	14.486
655.19	15.135
655.52	11.058
655.84	10.290
656.17	12.490
656.49	16.793
656.82	16.092
657.15	11.584
657.47	8.359
657.80	6.413
658.13	6.165
658.45	9.005
658.78	8.698
659.10	9.064
659.43	9.326
659.75	9.245
660.08	10.759
660.41	13.594
660.73	14.485
661.06	13.376
661.38	18.182
661.71	18.654
662.03	17.751
662.36	14.911
662.68	17.269
663.01	16.566
663.33	16.773
663.66	15.336
663.98	16.631
664.31	15.756
664.63	14.575
664.96	17.505
665.28	19.057
665.61	16.764
665.93	18.109
666.26	15.416
666.58	15.690
666.91	18.605
667.23	17.303
667.56	14.903
667.88	19.017
668.21	17.484
668.53	15.401
668.86	15.368
669.18	18.977
669.50	18.478
669.83	18.519
670.15	18.000
670.48	15.251
670.80	18.534
671.13	17.197
671.45	16.596
671.77	17.923
672.10	15.712
672.42	15.548
672.75	14.760
673.07	14.965
673.39	15.009
673.72	14.844
674.04	17.451
674.37	17.864
674.69	16.564
675.01	18.410
675.34	19.507
675.66	20.000
675.98	16.904
676.31	16.807
676.63	19.321
676.95	17.400
677.28	17.290
677.60	18.901
677.92	19.198
678.25	17.043
678.57	18.526
678.89	18.437
679.22	15.521
679.54	18.130
679.86	18.532
680.18	18.068
680.51	16.667
680.83	16.370
681.15	19.623
681.48	18.147
681.80	17.021
682.12	18.774
682.44	13.733
682.77	17.515
683.09	19.742
683.41	18.625
683.73	17.660
684.06	18.388
684.38	16.634
684.70	17.248
685.02	17.824
685.34	16.850
685.67	15.385
685.99	17.010
686.31	16.382
686.63	14.841
686.96	16.607
687.28	15.343
687.60	13.768
687.92	17.185
688.24	15.779
688.56	17.269
688.89	19.710
689.21	18.122
689.53	18.163
689.85	18.625
690.17	15.735
690.49	18.471
690.82	16.822
691.14	17.634
691.46	16.456
691.78	16.466
692.10	18.182
692.42	18.563
692.74	14.938
693.06	18.936
693.39	19.302
693.71	16.812
694.03	17.474
694.35	16.017
694.67	17.162
694.99	20.488
695.31	14.461
695.63	19.856
695.95	17.359
696.27	12.690
696.59	16.321
696.91	19.171
697.23	15.962
697.56	18.977
697.88	14.315
698.20	14.375
698.52	15.484
698.84	16.036
699.16	17.051
699.48	16.865
699.80	18.357
700.12	19.740
700.44	18.037
700.76	19.613
701.08	18.678
701.40	18.156
701.72	21.866
702.04	23.011
702.36	18.697
702.68	19.547
703.00	18.560
703.32	18.617
703.64	20.912
703.96	20.891
704.28	22.093
704.60	19.062
704.91	19.585
705.23	20.821
705.55	25.249
705.87	22.259
706.19	19.788
706.51	20.249
706.83	21.515
707.15	20.448
707.47	17.424
707.79	19.656
708.11	19.178
708.43	18.095
708.74	16.837
709.06	20.779
709.38	20.472
709.70	20.930
710.02	20.475
710.34	19.091
710.66	18.507
710.98	21.875
711.29	24.128
711.61	22.124
711.93	16.346
712.25	22.186
712.57	20.956
712.89	22.491
713.20	22.492
713.52	19.737
713.84	17.722
714.16	20.427
714.48	19.253
714.80	23.404
715.11	21.037
715.43	21.365
715.75	20.870
716.07	18.530
716.39	23.824
716.70	20.598
717.02	24.101
717.34	19.788
717.66	27.612
717.97	20.717
718.29	23.333
718.61	19.708
718.93	23.897
719.24	20.069
719.56	20.678
719.88	19.661
720.20	29.054
720.51	21.951
720.83	27.881
721.15	23.507
721.46	17.730
721.78	24.373
722.10	26.792
722.42	21.805
722.73	22.472
723.05	19.262
723.37	23.887
723.68	25.097
724.00	20.325
724.32	23.790
724.63	23.577
724.95	21.757
725.27	20.243
725.58	21.875
725.90	25.912
726.22	18.868
726.53	22.569
726.85	22.867
727.16	23.132
727.48	19.149
727.80	21.212
728.11	20.652
728.43	19.615
728.74	24.014
729.06	24.088
729.38	26.838
729.69	23.488
730.01	20.478
730.32	26.736
730.64	21.739
730.96	18.812
731.27	23.510
731.59	22.324
731.90	19.534
732.22	17.391
732.53	20.743
732.85	21.154
733.16	21.222
733.48	19.601
733.80	21.429
734.11	20.701
734.43	21.893
734.74	19.429
735.06	18.911
735.37	23.988
735.69	21.656
736.00	22.549
736.32	23.364
736.63	20.767
736.95	23.323
737.26	18.707
737.58	19.355
737.89	19.398
738.21	21.843
738.52	19.286
738.83	23.774
739.15	20.385
739.46	27.737
739.78	22.222
740.09	21.538
740.41	22.581
740.72	15.679
741.04	21.481
741.35	22.917
741.66	32.000
741.98	23.113
742.29	26.794
742.61	26.724
742.92	26.244
743.23	25.214
743.55	27.600
743.86	27.193
744.18	27.876
744.49	26.316
744.80	29.108
745.12	30.909
745.43	26.872
745.74	26.577
746.06	27.982
746.37	25.561
746.68	25.792
747.00	29.167
747.31	30.952
747.62	22.566
747.94	18.943
748.25	23.830
748.56	22.907
748.88	27.723
749.19	28.000
749.50	26.047
749.82	24.797
750.13	16.327
750.44	28.102
750.75	23.509
751.07	23.151
751.38	22.300
751.69	23.827
752.01	21.053
752.32	18.051
752.63	22.340
752.94	23.770
753.26	28.000
753.57	21.138
753.88	25.781
754.19	25.000
754.51	23.958
754.82	18.412
755.13	20.377
755.44	24.060
755.75	22.993
756.07	20.567
756.38	16.058
756.69	23.490
757.00	18.563
757.31	22.849
757.63	23.099
757.94	19.571
758.25	19.118
758.56	18.519
758.87	17.473
759.18	22.727
759.50	22.571
759.81	19.626
760.12	19.687
760.43	22.063
760.74	22.554
761.05	19.492
761.36	15.775
761.67	23.011
761.99	18.944
762.30	21.181
762.61	26.718
762.92	25.000
763.23	22.689
763.54	28.000
763.85	22.266
764.16	28.846
764.47	27.376
764.78	20.848
765.10	20.253
765.41	22.714
765.72	20.659
766.03	24.138
766.34	19.667
766.65	21.277
766.96	24.359
767.27	33.503
767.58	29.688
767.89	29.474
768.20	30.460
768.51	27.919
768.82	27.982
769.13	20.325
769.44	22.672
769.75	24.893
770.06	17.890
770.37	23.982
770.68	24.074
770.99	26.667
771.30	20.082
771.61	29.596
771.92	26.230
772.23	31.513
772.54	28.205
772.85	32.461
773.16	31.383
773.47	33.696
773.78	32.995
774.09	27.976
774.39	32.164
774.70	29.012
775.01	30.435
775.32	39.869
775.63	32.895
775.94	28.058
776.25	36.220
776.56	38.806
776.87	36.066
777.18	35.156
777.48	45.802
777.79	37.121
778.10	37.037
778.41	41.071
778.72	29.927
779.03	30.872
779.34	34.899
779.65	33.108
779.95	36.810
780.26	40.523
780.57	40.000
780.88	44.531
781.19	36.090
781.50	34.459
781.80	32.075
782.11	32.768
782.42	24.051
782.73	30.675
783.04	44.595
783.34	40.845
783.65	44.521
783.96	40.299
784.27	27.273
784.57	32.374
784.88	33.333
785.19	53.175
785.50	47.170
785.81	44.776
786.11	44.262
786.42	44.186
786.73	42.478
787.04	46.226
787.34	46.429
787.65	41.000
787.96	41.441
788.26	36.364
788.57	49.153
788.88	42.975
789.19	38.194
789.49	44.697
789.80	37.405
790.11	47.619
790.41	50.495
790.72	54.217
791.03	51.087
791.33	48.837
791.64	53.608
791.95	54.455
792.25	51.111
792.56	55.844
792.87	65.385
793.17	58.228
793.48	57.471
793.79	55.172
794.09	53.409
794.40	47.059
794.70	38.235
795.01	31.111
795.32	35.252
795.62	42.520
795.93	33.621
796.23	35.398
796.54	51.765
796.85	39.189
797.15	73.239
797.46	53.030
797.76	61.446
798.07	62.025
798.37	66.154
798.68	66.667
798.99	40.845
799.29	57.143
799.60	43.182
799.90	67.123
800.21	70.149
800.51	68.966
800.82	68.421
801.12	59.016
801.43	63.636
801.73	48.649
802.04	76.190
802.34	58.025
802.65	81.250
802.95	76.271
803.26	75.000
803.56	58.571
803.87	66.154
804.17	63.235
804.48	87.037
804.78	67.241
805.09	58.824
805.39	71.154
805.70	78.571
806.00	59.016
806.30	60.606
806.61	52.439
806.91	45.570
807.22	50.000
807.52	35.821
807.83	56.338
808.13	53.125
808.43	70.000
808.74	44.737
809.04	57.971
809.35	64.179
809.65	63.158
809.95	77.419
810.26	64.407
810.56	76.190
810.86	95.455
811.17	85.714
811.47	66.667
811.77	66.667
812.08	83.636
812.38	98.000
812.69	105.556
812.99	109.091
813.29	77.551
813.59	71.429
813.90	106.122
814.20	81.818
814.50	61.538
814.81	58.824
815.11	73.469
815.41	73.770
815.72	123.810
816.02	72.727
816.32	88.095
816.62	85.000
816.93	112.195
817.23	85.714
817.53	81.818
817.84	124.242
818.14	84.783
818.44	68.889
818.74	123.529
819.04	97.500
819.35	85.714
819.65	120.588
819.95	139.286
820.25	160.000
820.56	115.385
820.86	106.818
821.16	113.953
821.46	87.179
821.76	92.000
822.07	102.857
822.37	125.000
822.67	121.212
822.97	78.431
823.27	114.286
823.57	97.297
823.88	125.000
824.18	123.333
824.48	119.048
824.78	176.000
825.08	129.167
825.38	116.216
825.69	100.000
825.99	145.833
826.29	93.103
826.59	118.421
826.89	102.632
827.19	120.588
827.49	141.935
827.79	93.182
828.09	102.273
828.39	93.617
828.70	100.000
829.00	114.815
829.30	80.645
829.60	80.000
829.90	293.333
830.20	114.286
830.50	113.043
830.80	113.043
831.10	150.000
831.40	133.333
831.70	126.087
832.00	126.923
832.30	144.444
832.60	243.750
832.90	143.333
833.20	250.000
833.50	138.710
833.80	131.034
834.10	150.000
834.40	142.308
834.70	216.667
835.00	200.000
835.30	117.143
835.60	207.692
835.90	137.931
836.20	242.857
836.50	131.034
836.80	144.000
837.10	127.778
837.40	185.714
837.70	205.882
838.00	166.667
838.30	157.143
838.60	223.810
838.90	153.846
839.19	160.000
839.49	228.571
839.79	190.000
840.09	210.000
840.39	185.714
840.69	165.217
840.99	188.889
841.29	330.000
841.59	250.000
841.88	212.500
842.18	117.241
842.48	214.286
842.78	160.000
843.08	156.522
843.38	168.750
843.68	550.000
843.97	184.615
844.27	162.069
844.57	157.143
844.87	300.000
845.17	174.074
845.47	1033.333
845.76	277.778
846.06	252.941
846.36	325.000
846.66	250.000
846.96	287.500
847.25	281.818
847.55	218.182
847.85	204.348
848.15	350.000
848.44	242.857
848.74	161.111
849.04	294.118
849.34	380.000
849.63	184.211
849.93	236.364
850.23	800.000
850.53	364.286
850.82	1400.000
851.12	-1900.000
851.42	2800.000
851.71	210.000
852.01	-833.333
852.31	145.833
852.61	1166.667
852.90	247.619
853.20	196.000
853.50	288.235
853.79	195.238
854.09	137.500
854.39	187.500
854.68	148.649
854.98	138.710
855.28	143.333
855.57	162.069
855.87	111.111
856.17	152.632
856.46	200.000
856.76	217.647
857.05	155.172
857.35	133.333
857.65	260.000
857.94	152.174
858.24	188.462
858.53	190.000
858.83	159.091
859.13	233.333
859.42	0.000
859.72	455.556
860.01	263.636
860.31	140.909
860.60	252.632
860.90	169.565
861.20	422.222
861.49	375.000
861.79	-3400.000
862.08	412.500
862.38	209.524
862.67	223.077
862.97	252.941
863.26	322.222
863.56	211.111
863.85	258.333
864.15	412.500
864.44	280.000
864.74	400.000
865.03	400.000
865.33	152.632
865.62	327.273
865.92	338.462
866.21	325.000
866.51	0.000
866.80	236.364
867.10	720.000
867.39	315.385
867.69	327.273
867.98	189.474
868.27	290.909
868.57	278.947
868.86	-2700.000
869.16	231.250
869.45	1650.000
869.75	-3200.000
870.04	291.667
870.33	428.571
870.63	675.000
870.92	2350.000
871.22	514.286
871.51	258.824
871.80	152.381
872.10	257.143
>>>>>End Processed Spectral Data<<<<<
