SpectraSuite Data File
++++++++++++++++++++++++++++++++++++
Date: Wed May 13 20:36:26 PDT 2015
User: schluterlab
Dark Spectrum Present: Yes
Reference Spectrum Present: Yes
Number of Sampled Component Spectra: 1
Spectrometers: USB2E3373
Integration Time (usec): 3000 (USB2E3373)
Spectra Averaged: 3 (USB2E3373)
Boxcar Smoothing: 0 (USB2E3373)
Correct for Electrical Dark: No (USB2E3373)
Strobe/Lamp Enabled: No (USB2E3373)
Correct for Detector Non-linearity: No (USB2E3373)
Correct for Stray Light: No (USB2E3373)
Number of Pixels in Processed Spectrum: 2048
>>>>>Begin Processed Spectral Data<<<<<
178.53	0.000
178.91	-950.000
179.29	-1000.000
179.67	-144.444
180.04	-1175.000
180.42	1700.000
180.80	860.000
181.18	-475.000
181.56	500.000
181.94	0.000
182.31	-442.857
182.69	1433.333
183.07	-500.000
183.45	-477.778
183.83	427.273
184.20	-240.000
184.58	1500.000
184.96	3700.000
185.34	-540.000
185.72	-325.000
186.09	-1900.000
186.47	2350.000
186.85	1950.000
187.23	4300.000
187.61	-1300.000
187.98	850.000
188.36	372.727
188.74	454.545
189.12	-620.000
189.49	410.000
189.87	-3700.000
190.25	-775.000
190.63	321.429
191.00	384.615
191.38	716.667
191.76	-650.000
192.14	1125.000
192.51	475.000
192.89	650.000
193.27	387.500
193.65	-875.000
194.02	520.000
194.40	640.000
194.78	500.000
195.15	391.667
195.53	490.000
195.91	-1600.000
196.29	256.250
196.66	263.158
197.04	-180.000
197.42	0.000
197.79	490.000
198.17	-3000.000
198.55	542.857
198.92	587.500
199.30	580.000
199.68	0.000
200.05	255.556
200.43	457.143
200.81	2700.000
201.18	1200.000
201.56	-1066.667
201.94	411.111
202.31	400.000
202.69	391.667
203.07	340.000
203.44	0.000
203.82	950.000
204.19	557.143
204.57	371.429
204.95	550.000
205.32	933.333
205.70	363.636
206.08	250.000
206.45	1050.000
206.83	275.000
207.20	666.667
207.58	560.000
207.96	194.444
208.33	600.000
208.71	-583.333
209.08	571.429
209.46	433.333
209.84	445.455
210.21	-1200.000
210.59	925.000
210.96	-350.000
211.34	1950.000
211.71	440.000
212.09	483.333
212.46	0.000
212.84	1466.667
213.22	1050.000
213.59	-3700.000
213.97	666.667
214.34	514.286
214.72	500.000
215.09	560.000
215.47	-1450.000
215.84	-2200.000
216.22	1066.667
216.59	300.000
216.97	900.000
217.34	327.273
217.72	-483.333
218.09	0.000
218.47	-3300.000
218.84	455.556
219.22	457.143
219.59	933.333
219.97	-314.286
220.34	680.000
220.72	-1333.333
221.09	335.714
221.47	1150.000
221.84	-683.333
222.22	0.000
222.59	1025.000
222.97	-1400.000
223.34	680.000
223.72	361.538
224.09	900.000
224.46	1700.000
224.84	-3000.000
225.21	-520.000
225.59	-3500.000
225.96	490.000
226.34	225.000
226.71	1800.000
227.08	450.000
227.46	330.000
227.83	-875.000
228.21	-1550.000
228.58	411.111
228.95	-2050.000
229.33	-1650.000
229.70	1033.333
230.08	600.000
230.45	-660.000
230.82	316.667
231.20	616.667
231.57	371.429
231.95	400.000
232.32	177.273
232.69	218.182
233.07	514.286
233.44	246.154
233.81	-1066.667
234.19	157.895
234.56	241.667
234.93	258.333
235.31	309.091
235.68	184.615
236.05	285.714
236.43	112.121
236.80	152.632
237.17	3000.000
237.55	142.857
237.92	153.571
238.29	161.905
238.67	122.581
239.04	131.034
239.41	80.556
239.79	56.522
240.16	90.476
240.53	70.455
240.91	56.863
241.28	72.000
241.65	52.000
242.02	66.667
242.40	64.516
242.77	53.333
243.14	43.011
243.51	48.315
243.89	36.471
244.26	32.222
244.63	43.011
245.00	37.234
245.38	35.644
245.75	28.972
246.12	22.936
246.49	39.416
246.87	33.600
247.24	26.923
247.61	27.857
247.98	22.222
248.36	14.865
248.73	26.115
249.10	27.389
249.47	22.599
249.84	24.599
250.22	17.647
250.59	26.036
250.96	20.707
251.33	20.853
251.70	23.762
252.08	18.095
252.45	17.937
252.82	19.130
253.19	22.553
253.56	18.039
253.94	19.917
254.31	16.406
254.68	18.077
255.05	18.081
255.42	15.854
255.79	18.015
256.16	17.329
256.54	12.721
256.91	14.591
257.28	9.712
257.65	14.521
258.02	14.907
258.39	12.618
258.76	11.371
259.14	13.690
259.51	14.894
259.88	11.801
260.25	15.408
260.62	10.116
260.99	13.975
261.36	16.216
261.73	13.467
262.10	9.884
262.47	11.549
262.85	11.142
263.22	6.268
263.59	12.251
263.96	13.187
264.33	12.010
264.70	10.526
265.07	12.020
265.44	11.616
265.81	11.679
266.18	9.296
266.55	10.244
266.92	11.057
267.29	12.269
267.66	10.550
268.03	11.136
268.40	9.579
268.77	10.979
269.14	9.234
269.51	11.738
269.88	10.256
270.25	11.287
270.62	9.663
270.99	12.903
271.36	10.300
271.73	7.710
272.10	10.217
272.47	11.613
272.84	10.606
273.21	12.788
273.58	8.079
273.95	9.224
274.32	10.331
274.69	10.707
275.06	7.480
275.43	11.702
275.80	12.024
276.17	9.980
276.54	10.187
276.91	9.289
277.28	8.008
277.65	11.219
278.02	9.110
278.39	11.328
278.76	8.182
279.13	7.736
279.50	10.056
279.87	8.765
280.23	7.984
280.60	7.930
280.97	9.427
281.34	8.673
281.71	10.182
282.08	8.829
282.45	8.000
282.82	7.815
283.19	8.200
283.56	10.351
283.92	8.629
284.29	8.995
284.66	8.167
285.03	8.318
285.40	8.275
285.77	9.091
286.14	8.808
286.51	7.333
286.87	9.573
287.24	8.795
287.61	9.149
287.98	7.955
288.35	8.716
288.72	6.854
289.08	7.825
289.45	7.084
289.82	7.967
290.19	7.221
290.56	7.198
290.93	6.193
291.29	6.748
291.66	8.112
292.03	9.448
292.40	8.664
292.77	6.213
293.13	5.970
293.50	5.831
293.87	6.519
294.24	5.630
294.60	4.658
294.97	7.122
295.34	8.322
295.71	6.392
296.08	4.986
296.44	5.227
296.81	6.605
297.18	7.724
297.55	4.749
297.91	6.332
298.28	6.693
298.65	7.180
299.02	8.037
299.38	6.906
299.75	4.852
300.12	4.598
300.48	6.125
300.85	6.782
301.22	6.242
301.59	5.177
301.95	6.297
302.32	6.162
302.69	5.137
303.05	5.697
303.42	5.802
303.79	5.776
304.15	4.779
304.52	5.910
304.89	5.110
305.25	5.452
305.62	6.002
305.99	5.903
306.35	5.817
306.72	5.493
307.09	6.215
307.45	5.856
307.82	4.911
308.19	6.071
308.55	5.717
308.92	4.404
309.29	4.646
309.65	3.712
310.02	6.765
310.38	5.376
310.75	4.752
311.12	6.244
311.48	6.270
311.85	5.765
312.22	5.099
312.58	5.405
312.95	4.752
313.31	4.854
313.68	5.405
314.05	6.016
314.41	5.327
314.78	5.841
315.14	5.561
315.51	5.046
315.87	6.337
316.24	5.958
316.61	5.263
316.97	5.577
317.34	4.207
317.70	5.832
318.07	5.775
318.43	5.675
318.80	6.279
319.16	5.556
319.53	5.347
319.89	5.143
320.26	6.300
320.62	4.960
320.99	5.859
321.35	5.455
321.72	6.263
322.08	6.318
322.45	6.766
322.81	6.492
323.18	7.225
323.54	6.030
323.91	6.604
324.27	4.876
324.64	4.380
325.00	5.681
325.37	6.187
325.73	6.643
326.10	6.090
326.46	6.093
326.83	6.471
327.19	5.209
327.56	4.704
327.92	6.737
328.29	6.744
328.65	6.446
329.01	6.859
329.38	6.290
329.74	6.279
330.11	6.032
330.47	6.887
330.84	6.618
331.20	6.466
331.56	6.422
331.93	4.815
332.29	6.389
332.66	7.522
333.02	6.856
333.38	6.775
333.75	6.863
334.11	6.584
334.48	6.211
334.84	6.066
335.20	6.727
335.57	5.621
335.93	5.714
336.29	5.220
336.66	6.583
337.02	5.430
337.38	6.574
337.75	6.417
338.11	6.088
338.47	6.262
338.84	6.874
339.20	5.321
339.56	6.387
339.93	5.364
340.29	5.888
340.65	6.061
341.02	6.283
341.38	6.406
341.74	5.702
342.11	5.590
342.47	6.256
342.83	6.678
343.20	7.100
343.56	5.813
343.92	5.175
344.28	6.888
344.65	6.879
345.01	4.966
345.37	5.146
345.73	6.430
346.10	4.945
346.46	5.593
346.82	5.766
347.19	5.263
347.55	5.255
347.91	6.472
348.27	6.163
348.63	5.769
349.00	5.421
349.36	6.076
349.72	5.774
350.08	6.402
350.45	5.452
350.81	5.524
351.17	5.673
351.53	5.897
351.89	4.785
352.26	6.472
352.62	6.014
352.98	5.186
353.34	5.423
353.70	4.664
354.07	6.532
354.43	6.270
354.79	5.068
355.15	4.789
355.51	6.155
355.87	5.388
356.24	5.456
356.60	4.892
356.96	5.149
357.32	6.051
357.68	6.063
358.04	6.097
358.40	6.888
358.77	5.869
359.13	4.893
359.49	5.176
359.85	4.048
360.21	4.785
360.57	5.992
360.93	5.231
361.29	5.518
361.66	4.489
362.02	5.672
362.38	5.171
362.74	6.101
363.10	5.551
363.46	4.696
363.82	4.006
364.18	5.286
364.54	6.166
364.90	5.028
365.26	4.853
365.62	5.771
365.98	4.529
366.35	4.083
366.71	5.640
367.07	4.661
367.43	4.209
367.79	5.211
368.15	5.029
368.51	4.433
368.87	4.568
369.23	5.413
369.59	4.345
369.95	5.074
370.31	5.484
370.67	5.000
371.03	5.318
371.39	4.592
371.75	5.441
372.11	4.339
372.47	6.012
372.83	5.620
373.19	4.408
373.55	4.213
373.91	5.376
374.27	5.292
374.63	3.855
374.99	5.367
375.35	3.768
375.71	4.935
376.07	6.173
376.42	5.089
376.78	5.103
377.14	4.817
377.50	5.629
377.86	4.987
378.22	4.994
378.58	4.574
378.94	4.525
379.30	3.753
379.66	5.013
380.02	5.283
380.38	3.704
380.74	4.862
381.09	5.073
381.45	5.224
381.81	5.098
382.17	5.223
382.53	4.088
382.89	4.877
383.25	4.065
383.61	4.957
383.97	4.753
384.32	4.679
384.68	4.151
385.04	4.978
385.40	3.653
385.76	4.791
386.12	3.692
386.48	4.909
386.83	3.849
387.19	5.318
387.55	5.133
387.91	4.958
388.27	4.598
388.62	4.917
388.98	4.423
389.34	5.131
389.70	5.150
390.06	5.133
390.42	4.929
390.77	4.898
391.13	4.340
391.49	4.632
391.85	4.838
392.20	3.659
392.56	4.482
392.92	4.768
393.28	3.491
393.64	4.197
393.99	4.887
394.35	4.777
394.71	5.082
395.07	4.424
395.42	4.326
395.78	4.771
396.14	4.780
396.50	5.138
396.85	5.086
397.21	4.624
397.57	4.774
397.92	4.447
398.28	4.484
398.64	4.480
399.00	4.645
399.35	3.779
399.71	4.861
400.07	5.204
400.42	4.601
400.78	5.609
401.14	4.024
401.49	4.597
401.85	4.416
402.21	4.072
402.57	3.886
402.92	4.918
403.28	5.122
403.63	4.765
403.99	3.503
404.35	4.242
404.70	4.676
405.06	4.019
405.42	4.803
405.77	4.514
406.13	4.402
406.49	4.258
406.84	4.607
407.20	3.842
407.55	3.957
407.91	4.267
408.27	4.084
408.62	4.214
408.98	4.657
409.34	4.367
409.69	4.710
410.05	3.903
410.40	4.832
410.76	4.241
411.11	4.584
411.47	4.920
411.83	5.254
412.18	4.143
412.54	4.172
412.89	4.578
413.25	4.723
413.60	4.509
413.96	4.432
414.31	4.678
414.67	4.373
415.03	4.570
415.38	4.961
415.74	4.823
416.09	4.637
416.45	4.150
416.80	4.759
417.16	4.893
417.51	4.977
417.87	3.854
418.22	5.237
418.58	4.842
418.93	4.300
419.29	4.456
419.64	4.408
420.00	4.390
420.35	5.043
420.71	4.842
421.06	4.415
421.42	4.737
421.77	4.933
422.12	3.706
422.48	4.533
422.83	4.543
423.19	4.862
423.54	4.585
423.90	4.986
424.25	4.858
424.61	5.000
424.96	4.898
425.31	4.707
425.67	4.663
426.02	4.171
426.38	4.701
426.73	4.447
427.09	4.438
427.44	4.830
427.79	4.025
428.15	4.940
428.50	4.389
428.85	5.721
429.21	4.307
429.56	4.406
429.92	4.278
430.27	4.220
430.62	4.506
430.98	4.619
431.33	4.639
431.68	4.555
432.04	5.165
432.39	4.226
432.74	4.010
433.10	4.641
433.45	4.606
433.80	3.659
434.16	3.900
434.51	4.211
434.86	4.675
435.22	4.614
435.57	4.377
435.92	3.803
436.28	4.330
436.63	5.408
436.98	4.179
437.34	4.234
437.69	4.492
438.04	4.328
438.39	4.776
438.75	4.707
439.10	4.246
439.45	4.782
439.81	4.048
440.16	3.557
440.51	4.159
440.86	4.806
441.22	4.116
441.57	4.299
441.92	4.708
442.27	3.983
442.63	4.371
442.98	5.352
443.33	5.272
443.68	4.285
444.03	4.880
444.39	3.505
444.74	4.600
445.09	4.474
445.44	4.483
445.79	4.404
446.15	4.606
446.50	4.200
446.85	4.419
447.20	4.386
447.55	4.243
447.91	4.688
448.26	4.396
448.61	4.522
448.96	4.485
449.31	4.218
449.66	4.840
450.02	4.178
450.37	4.308
450.72	4.681
451.07	4.083
451.42	4.559
451.77	4.874
452.12	4.619
452.47	5.286
452.83	3.788
453.18	4.951
453.53	5.566
453.88	4.312
454.23	5.320
454.58	4.603
454.93	5.976
455.28	4.177
455.63	4.369
455.98	5.476
456.34	4.271
456.69	4.759
457.04	4.520
457.39	4.442
457.74	4.411
458.09	5.520
458.44	4.333
458.79	4.610
459.14	4.684
459.49	4.787
459.84	4.875
460.19	4.537
460.54	4.688
460.89	4.169
461.24	5.768
461.59	6.450
461.94	5.549
462.29	5.282
462.64	4.786
462.99	4.489
463.34	6.267
463.69	5.003
464.04	4.870
464.39	5.565
464.74	5.110
465.09	4.463
465.44	4.654
465.79	4.698
466.14	5.145
466.49	5.006
466.84	4.612
467.19	5.311
467.54	4.750
467.89	5.042
468.24	4.770
468.59	5.311
468.94	4.765
469.29	4.306
469.64	6.627
469.99	5.142
470.34	4.227
470.68	4.813
471.03	4.014
471.38	5.281
471.73	4.997
472.08	5.263
472.43	5.088
472.78	5.267
473.13	5.841
473.48	5.181
473.83	4.878
474.17	4.107
474.52	4.963
474.87	5.254
475.22	5.340
475.57	4.460
475.92	4.567
476.27	4.453
476.61	4.413
476.96	4.398
477.31	4.657
477.66	4.923
478.01	4.705
478.36	4.654
478.70	4.309
479.05	4.952
479.40	5.271
479.75	4.779
480.10	4.523
480.45	4.664
480.79	4.634
481.14	4.599
481.49	4.794
481.84	4.710
482.19	4.271
482.53	4.358
482.88	4.235
483.23	4.112
483.58	4.868
483.92	4.358
484.27	3.791
484.62	4.181
484.97	4.060
485.31	4.315
485.66	3.466
486.01	3.095
486.36	3.142
486.70	3.331
487.05	3.676
487.40	3.294
487.75	3.532
488.09	4.034
488.44	3.936
488.79	4.123
489.13	4.316
489.48	4.241
489.83	4.100
490.17	4.296
490.52	4.517
490.87	4.523
491.22	4.775
491.56	3.872
491.91	4.374
492.26	3.996
492.60	4.931
492.95	3.742
493.30	3.832
493.64	4.386
493.99	4.178
494.34	4.857
494.68	5.266
495.03	4.229
495.37	4.653
495.72	3.947
496.07	4.316
496.41	4.292
496.76	4.485
497.11	4.728
497.45	4.844
497.80	4.271
498.14	4.106
498.49	4.049
498.84	4.219
499.18	4.476
499.53	4.274
499.87	4.427
500.22	4.192
500.56	4.709
500.91	4.327
501.26	4.931
501.60	4.129
501.95	4.766
502.29	4.733
502.64	4.097
502.98	4.441
503.33	4.433
503.67	4.548
504.02	4.958
504.36	5.007
504.71	3.957
505.06	4.675
505.40	4.959
505.75	3.809
506.09	4.325
506.44	4.588
506.78	4.627
507.13	4.997
507.47	5.202
507.82	4.255
508.16	5.117
508.51	4.972
508.85	4.022
509.19	4.541
509.54	4.694
509.88	3.916
510.23	5.141
510.57	5.831
510.92	4.091
511.26	4.471
511.61	4.564
511.95	4.384
512.30	4.401
512.64	4.138
512.98	4.930
513.33	5.032
513.67	4.856
514.02	4.167
514.36	4.424
514.70	4.704
515.05	4.852
515.39	4.936
515.74	4.842
516.08	4.975
516.42	5.383
516.77	5.630
517.11	4.717
517.46	5.305
517.80	4.646
518.14	4.574
518.49	4.959
518.83	5.057
519.17	4.503
519.52	5.376
519.86	5.590
520.20	5.376
520.55	5.206
520.89	5.596
521.23	5.247
521.58	4.922
521.92	5.573
522.26	4.576
522.61	4.735
522.95	5.402
523.29	4.869
523.64	4.939
523.98	5.422
524.32	5.247
524.66	5.232
525.01	5.453
525.35	4.647
525.69	5.542
526.04	5.234
526.38	5.491
526.72	5.399
527.06	4.896
527.41	4.641
527.75	5.466
528.09	5.909
528.43	5.417
528.78	5.655
529.12	5.212
529.46	5.266
529.80	5.384
530.15	5.981
530.49	4.554
530.83	5.696
531.17	6.070
531.51	6.809
531.86	4.903
532.20	5.932
532.54	6.022
532.88	5.712
533.22	5.809
533.57	5.617
533.91	5.057
534.25	4.982
534.59	6.284
534.93	5.651
535.27	5.492
535.62	4.701
535.96	6.215
536.30	4.959
536.64	5.924
536.98	5.707
537.32	5.069
537.66	5.467
538.01	5.332
538.35	5.559
538.69	6.445
539.03	4.938
539.37	5.687
539.71	3.889
540.05	4.837
540.39	5.183
540.73	6.080
541.07	6.554
541.42	5.675
541.76	5.742
542.10	6.533
542.44	5.364
542.78	5.665
543.12	4.926
543.46	6.033
543.80	5.270
544.14	4.814
544.48	6.222
544.82	5.324
545.16	4.684
545.50	5.206
545.84	5.645
546.18	5.589
546.52	6.125
546.86	5.086
547.20	5.597
547.54	6.146
547.88	7.334
548.22	5.791
548.56	6.164
548.90	4.930
549.24	5.118
549.58	5.935
549.92	5.975
550.26	6.037
550.60	5.740
550.94	5.000
551.28	5.194
551.62	5.895
551.96	5.053
552.30	5.734
552.64	5.950
552.98	6.237
553.32	6.204
553.66	6.544
554.00	6.452
554.34	6.004
554.68	6.724
555.02	5.501
555.36	6.054
555.69	5.277
556.03	5.653
556.37	6.480
556.71	4.434
557.05	5.182
557.39	6.088
557.73	6.563
558.07	6.164
558.41	6.151
558.75	4.849
559.08	7.159
559.42	5.745
559.76	5.956
560.10	5.853
560.44	5.870
560.78	5.456
561.12	5.079
561.45	6.389
561.79	5.933
562.13	5.231
562.47	5.260
562.81	4.881
563.15	5.619
563.48	5.902
563.82	4.631
564.16	5.101
564.50	5.729
564.84	5.120
565.17	5.405
565.51	5.048
565.85	5.266
566.19	5.448
566.52	5.256
566.86	4.762
567.20	5.778
567.54	4.623
567.88	5.323
568.21	5.397
568.55	5.460
568.89	5.156
569.23	4.857
569.56	4.939
569.90	4.642
570.24	4.090
570.57	4.726
570.91	4.072
571.25	4.200
571.59	4.330
571.92	4.090
572.26	4.737
572.60	4.234
572.93	4.378
573.27	4.614
573.61	4.690
573.95	4.419
574.28	4.121
574.62	3.936
574.96	3.990
575.29	4.098
575.63	3.913
575.97	3.827
576.30	4.381
576.64	4.043
576.98	3.646
577.31	3.951
577.65	3.713
577.98	4.001
578.32	3.733
578.66	3.816
578.99	4.040
579.33	4.043
579.67	3.722
580.00	3.812
580.34	4.058
580.67	3.994
581.01	4.340
581.35	3.968
581.68	3.868
582.02	3.691
582.35	3.671
582.69	3.923
583.02	3.746
583.36	4.312
583.70	4.096
584.03	4.336
584.37	4.374
584.70	3.997
585.04	4.256
585.37	4.240
585.71	4.323
586.04	4.180
586.38	4.232
586.72	4.502
587.05	4.156
587.39	3.958
587.72	4.226
588.06	3.842
588.39	4.499
588.73	4.253
589.06	4.519
589.40	4.377
589.73	4.329
590.07	4.235
590.40	4.384
590.73	4.372
591.07	5.128
591.40	4.935
591.74	4.762
592.07	4.319
592.41	5.085
592.74	4.719
593.08	4.197
593.41	4.682
593.75	4.154
594.08	4.459
594.41	4.631
594.75	4.140
595.08	4.152
595.42	4.869
595.75	4.665
596.09	4.957
596.42	5.069
596.75	4.517
597.09	5.714
597.42	4.469
597.75	4.442
598.09	4.913
598.42	4.854
598.76	4.580
599.09	4.219
599.42	4.403
599.76	4.832
600.09	4.189
600.42	4.675
600.76	4.750
601.09	4.335
601.42	4.414
601.76	4.896
602.09	4.585
602.42	4.896
602.76	5.361
603.09	4.721
603.42	4.725
603.76	4.268
604.09	4.265
604.42	4.321
604.76	4.977
605.09	4.980
605.42	4.275
605.75	4.801
606.09	4.067
606.42	4.414
606.75	4.479
607.09	5.483
607.42	4.279
607.75	4.473
608.08	4.472
608.42	5.199
608.75	5.140
609.08	4.810
609.41	4.474
609.75	4.621
610.08	5.325
610.41	4.981
610.74	4.683
611.07	4.694
611.41	5.005
611.74	5.078
612.07	5.124
612.40	5.299
612.73	4.947
613.07	5.119
613.40	5.161
613.73	4.667
614.06	4.462
614.39	5.296
614.72	5.053
615.06	5.987
615.39	4.193
615.72	5.061
616.05	5.157
616.38	4.447
616.71	5.166
617.05	5.889
617.38	4.750
617.71	5.405
618.04	5.108
618.37	5.381
618.70	5.476
619.03	6.184
619.36	5.771
619.69	5.845
620.03	5.838
620.36	6.217
620.69	6.986
621.02	6.121
621.35	5.325
621.68	5.530
622.01	5.573
622.34	6.959
622.67	5.779
623.00	5.429
623.33	5.647
623.66	5.504
623.99	5.965
624.32	5.207
624.65	5.297
624.99	5.170
625.32	5.576
625.65	5.860
625.98	6.072
626.31	6.065
626.64	5.714
626.97	6.151
627.30	5.653
627.63	6.809
627.96	6.224
628.29	6.387
628.62	6.862
628.95	7.453
629.28	6.569
629.61	7.608
629.94	6.571
630.26	6.196
630.59	6.482
630.92	6.034
631.25	5.923
631.58	7.808
631.91	6.592
632.24	5.696
632.57	7.030
632.90	5.811
633.23	8.166
633.56	7.910
633.89	7.588
634.22	7.719
634.55	7.101
634.88	7.305
635.20	7.885
635.53	7.108
635.86	6.683
636.19	7.412
636.52	6.805
636.85	7.331
637.18	5.184
637.51	6.974
637.83	5.549
638.16	6.905
638.49	7.683
638.82	8.344
639.15	8.000
639.48	6.858
639.81	8.713
640.13	8.073
640.46	8.591
640.79	7.001
641.12	5.777
641.45	7.123
641.77	6.333
642.10	7.602
642.43	8.859
642.76	7.430
643.09	7.975
643.41	8.649
643.74	9.105
644.07	8.689
644.40	8.896
644.73	9.764
645.05	10.301
645.38	7.267
645.71	6.763
646.04	7.475
646.36	10.017
646.69	10.368
647.02	8.844
647.35	7.904
647.67	9.027
648.00	8.943
648.33	8.251
648.66	8.333
648.98	8.096
649.31	5.830
649.64	6.726
649.96	9.836
650.29	8.847
650.62	7.767
650.94	11.345
651.27	8.277
651.60	10.982
651.92	8.466
652.25	7.329
652.58	7.321
652.90	9.795
653.23	6.626
653.56	7.402
653.88	10.618
654.21	9.795
654.54	7.591
654.86	7.788
655.19	7.703
655.52	3.825
655.84	2.721
656.17	3.108
656.49	4.149
656.82	4.405
657.15	3.731
657.47	2.792
657.80	2.299
658.13	2.457
658.45	3.685
658.78	4.173
659.10	4.360
659.43	4.459
659.75	4.600
660.08	5.253
660.41	7.169
660.73	7.751
661.06	8.599
661.38	9.273
661.71	10.000
662.03	11.243
662.36	8.946
662.68	9.036
663.01	8.889
663.33	8.068
663.66	10.924
663.98	9.287
664.31	7.563
664.63	10.729
664.96	8.048
665.28	10.861
665.61	8.967
665.93	10.262
666.26	9.736
666.58	7.950
666.91	9.091
667.23	11.461
667.56	8.855
667.88	11.111
668.21	11.301
668.53	9.978
668.86	11.688
669.18	11.087
669.50	9.348
669.83	10.675
670.15	11.333
670.48	8.932
670.80	9.914
671.13	10.403
671.45	9.149
671.77	9.980
672.10	10.721
672.42	8.657
672.75	9.287
673.07	7.218
673.39	7.957
673.72	7.422
674.04	10.392
674.37	10.874
674.69	7.975
675.01	8.996
675.34	12.320
675.66	12.842
675.98	12.220
676.31	12.605
676.63	12.527
676.95	11.530
677.28	11.215
677.60	7.692
677.92	9.916
678.25	10.062
678.57	9.363
678.89	8.216
679.22	11.395
679.54	7.824
679.86	9.725
680.18	10.018
680.51	11.170
680.83	9.609
681.15	9.434
681.48	11.342
681.80	9.865
682.12	10.345
682.44	7.737
682.77	9.369
683.09	12.661
683.41	11.973
683.73	10.155
684.06	10.744
684.38	9.393
684.70	9.690
685.02	10.882
685.34	9.524
685.67	5.944
685.99	7.904
686.31	8.874
686.63	7.774
686.96	9.286
687.28	8.123
687.60	9.239
687.92	11.152
688.24	8.745
688.56	11.647
688.89	9.129
689.21	10.480
689.53	10.230
689.85	13.747
690.17	9.110
690.49	11.465
690.82	8.879
691.14	7.812
691.46	10.127
691.78	13.855
692.10	12.397
692.42	9.780
692.74	9.751
693.06	11.064
693.39	11.499
693.71	9.607
694.03	10.947
694.35	11.255
694.67	8.238
694.99	11.463
695.31	9.804
695.63	8.373
695.95	9.535
696.27	9.645
696.59	9.326
696.91	14.508
697.23	7.746
697.56	12.154
697.88	6.748
698.20	8.542
698.52	11.398
698.84	10.690
699.16	10.138
699.48	9.026
699.80	12.560
700.12	15.325
700.44	12.997
700.76	14.088
701.08	9.770
701.40	11.173
701.72	14.577
702.04	15.909
702.36	10.198
702.68	13.881
703.00	11.634
703.32	11.702
703.64	13.673
703.96	13.928
704.28	9.884
704.60	17.009
704.91	15.430
705.23	12.317
705.55	11.296
705.87	16.944
706.19	8.834
706.51	13.396
706.83	14.848
707.15	13.445
707.47	11.364
707.79	13.268
708.11	10.274
708.43	10.714
708.74	8.673
709.06	12.208
709.38	13.648
709.70	14.826
710.02	13.353
710.34	13.333
710.66	14.925
710.98	15.909
711.29	14.826
711.61	15.929
711.93	14.423
712.25	15.113
712.57	14.338
712.89	14.879
713.20	16.717
713.52	15.789
713.84	13.291
714.16	11.280
714.48	13.218
714.80	15.805
715.11	13.256
715.43	13.353
715.75	13.043
716.07	12.460
716.39	12.539
716.70	17.940
717.02	15.468
717.34	15.901
717.66	14.925
717.97	18.725
718.29	15.926
718.61	13.139
718.93	16.176
719.24	15.571
719.56	15.254
719.88	15.254
720.20	18.243
720.51	16.725
720.83	16.357
721.15	15.672
721.46	15.603
721.78	17.563
722.10	16.226
722.42	14.662
722.73	10.861
723.05	13.115
723.37	18.219
723.68	21.236
724.00	17.073
724.32	17.742
724.63	15.447
724.95	11.715
725.27	19.433
725.58	17.187
725.90	18.248
726.22	11.321
726.53	15.625
726.85	15.017
727.16	14.591
727.48	17.021
727.80	17.045
728.11	14.855
728.43	16.538
728.74	15.412
729.06	18.613
729.38	18.015
729.69	14.591
730.01	11.945
730.32	15.625
730.64	16.054
730.96	12.211
731.27	14.901
731.59	14.679
731.90	15.452
732.22	13.043
732.53	13.622
732.85	11.218
733.16	13.505
733.48	13.289
733.80	15.584
734.11	17.516
734.43	15.680
734.74	13.714
735.06	11.175
735.37	15.029
735.69	11.465
736.00	14.379
736.32	12.773
736.63	12.780
736.95	17.572
737.26	9.524
737.58	12.258
737.89	12.375
738.21	15.358
738.52	17.143
738.83	15.849
739.15	14.615
739.46	14.964
739.78	14.583
740.09	16.000
740.41	16.452
740.72	12.892
741.04	17.037
741.35	16.667
741.66	19.111
741.98	15.094
742.29	21.531
742.61	23.276
742.92	16.742
743.23	20.513
743.55	18.800
743.86	17.105
744.18	21.239
744.49	24.402
744.80	19.249
745.12	20.000
745.43	17.621
745.74	18.919
746.06	19.266
746.37	11.659
746.68	17.195
747.00	22.222
747.31	15.714
747.62	20.796
747.94	12.775
748.25	18.298
748.56	21.586
748.88	14.851
749.19	15.000
749.50	17.209
749.82	16.667
750.13	15.102
750.44	16.788
750.75	13.684
751.07	16.399
751.38	18.467
751.69	15.523
752.01	11.278
752.32	13.357
752.63	14.894
752.94	12.295
753.26	18.400
753.57	18.293
753.88	20.703
754.19	17.143
754.51	19.097
754.82	11.552
755.13	14.717
755.44	15.038
755.75	17.883
756.07	13.121
756.38	12.774
756.69	13.758
757.00	14.970
757.31	13.650
757.63	10.526
757.94	10.724
758.25	11.520
758.56	10.123
758.87	12.903
759.18	12.727
759.50	13.793
759.81	13.396
760.12	9.062
760.43	12.894
760.74	13.315
761.05	13.277
761.36	13.369
761.67	12.500
761.99	13.043
762.30	16.319
762.61	17.557
762.92	17.187
763.23	15.966
763.54	21.600
763.85	16.016
764.16	18.077
764.47	18.251
764.78	11.307
765.10	9.177
765.41	14.749
765.72	15.569
766.03	14.420
766.34	12.667
766.65	19.149
766.96	21.368
767.27	24.873
767.58	20.833
767.89	24.737
768.20	24.713
768.51	19.797
768.82	21.101
769.13	14.634
769.44	17.004
769.75	12.446
770.06	12.844
770.37	18.552
770.68	20.833
770.99	18.667
771.30	11.885
771.61	17.937
771.92	16.393
772.23	18.487
772.54	21.026
772.85	25.131
773.16	23.404
773.47	22.826
773.78	27.919
774.09	17.262
774.39	22.222
774.70	20.988
775.01	19.565
775.32	31.373
775.63	29.605
775.94	27.338
776.25	31.496
776.56	41.791
776.87	35.246
777.18	25.000
777.48	35.115
777.79	20.455
778.10	28.889
778.41	27.679
778.72	29.927
779.03	37.584
779.34	29.530
779.65	21.622
779.95	24.540
780.26	25.490
780.57	28.966
780.88	24.219
781.19	31.579
781.50	31.757
781.80	25.157
782.11	22.599
782.42	25.949
782.73	19.632
783.04	26.351
783.34	30.282
783.65	40.411
783.96	23.881
784.27	23.776
784.57	31.655
784.88	21.296
785.19	34.921
785.50	30.189
785.81	40.299
786.11	35.246
786.42	32.558
786.73	37.168
787.04	35.849
787.34	28.571
787.65	32.000
787.96	37.838
788.26	27.273
788.57	33.051
788.88	30.579
789.19	29.167
789.49	36.364
789.80	32.061
790.11	45.714
790.41	34.653
790.72	33.735
791.03	42.391
791.33	37.209
791.64	36.082
791.95	46.535
792.25	44.444
792.56	46.753
792.87	61.538
793.17	50.633
793.48	49.425
793.79	45.977
794.09	34.091
794.40	31.092
794.70	36.765
795.01	28.889
795.32	21.583
795.62	28.346
795.93	28.448
796.23	35.398
796.54	36.471
796.85	40.541
797.15	50.704
797.46	51.515
797.76	57.831
798.07	41.772
798.37	41.538
798.68	46.970
798.99	43.662
799.29	38.961
799.60	51.136
799.90	50.685
800.21	70.149
800.51	63.793
800.82	64.912
801.12	50.820
801.43	59.091
801.73	40.541
802.04	66.667
802.34	50.617
802.65	56.250
802.95	64.407
803.26	70.313
803.56	42.857
803.87	44.615
804.17	60.294
804.48	62.963
804.78	53.448
805.09	55.882
805.39	73.077
805.70	60.714
806.00	81.967
806.30	57.576
806.61	52.439
806.91	40.506
807.22	42.105
807.52	37.313
807.83	54.930
808.13	60.937
808.43	58.333
808.74	42.105
809.04	47.826
809.35	74.627
809.65	53.947
809.95	72.581
810.26	67.797
810.56	74.603
810.86	93.182
811.17	104.762
811.47	76.667
811.77	72.222
812.08	80.000
812.38	80.000
812.69	97.222
812.99	113.636
813.29	91.837
813.59	73.810
813.90	81.633
814.20	50.909
814.50	67.692
814.81	69.118
815.11	71.429
815.41	67.213
815.72	90.476
816.02	81.818
816.32	64.286
816.62	90.000
816.93	80.488
817.23	78.571
817.53	86.364
817.84	118.182
818.14	84.783
818.44	66.667
818.74	88.235
819.04	70.000
819.35	91.429
819.65	126.471
819.95	114.286
820.25	105.000
820.56	115.385
820.86	68.182
821.16	90.698
821.46	105.128
821.76	82.000
822.07	111.429
822.37	102.500
822.67	103.030
822.97	58.824
823.27	117.857
823.57	83.784
823.88	125.000
824.18	110.000
824.48	107.143
824.78	156.000
825.08	120.833
825.38	94.595
825.69	82.927
825.99	145.833
826.29	89.655
826.59	102.632
826.89	100.000
827.19	123.529
827.49	96.774
827.79	111.364
828.09	88.636
828.39	85.106
828.70	91.837
829.00	107.407
829.30	87.097
829.60	97.500
829.90	166.667
830.20	121.429
830.50	121.739
830.80	147.826
831.10	143.333
831.40	113.333
831.70	147.826
832.00	142.308
832.30	137.037
832.60	168.750
832.90	123.333
833.20	214.286
833.50	141.935
833.80	141.379
834.10	115.625
834.40	192.308
834.70	183.333
835.00	228.571
835.30	134.286
835.60	207.692
835.90	179.310
836.20	264.286
836.50	117.241
836.80	160.000
837.10	144.444
837.40	133.333
837.70	170.588
838.00	155.556
838.30	166.667
838.60	190.476
838.90	150.000
839.19	190.000
839.49	221.429
839.79	170.000
840.09	150.000
840.39	180.952
840.69	134.783
840.99	205.556
841.29	420.000
841.59	208.333
841.88	187.500
842.18	117.241
842.48	161.905
842.78	153.333
843.08	139.130
843.38	112.500
843.68	650.000
843.97	200.000
844.27	165.517
844.57	171.429
844.87	287.500
845.17	114.815
845.47	733.333
845.76	211.111
846.06	241.176
846.36	312.500
846.66	250.000
846.96	200.000
847.25	263.636
847.55	227.273
847.85	191.304
848.15	340.000
848.44	228.571
848.74	150.000
849.04	176.471
849.34	390.000
849.63	194.737
849.93	327.273
850.23	820.000
850.53	300.000
850.82	1050.000
851.12	-2700.000
851.42	2800.000
851.71	215.000
852.01	-900.000
852.31	204.167
852.61	1500.000
852.90	161.905
853.20	184.000
853.50	164.706
853.79	152.381
854.09	158.333
854.39	187.500
854.68	108.108
854.98	132.258
855.28	113.333
855.57	113.793
855.87	155.556
856.17	136.842
856.46	100.000
856.76	188.235
857.05	127.586
857.35	154.167
857.65	213.333
857.94	173.913
858.24	165.385
858.53	160.000
858.83	204.545
859.13	246.667
859.42	0.000
859.72	344.444
860.01	281.818
860.31	195.455
860.60	252.632
860.90	156.522
861.20	177.778
861.49	383.333
861.79	-2800.000
862.08	350.000
862.38	190.476
862.67	207.692
862.97	211.765
863.26	422.222
863.56	244.444
863.85	300.000
864.15	462.500
864.44	233.333
864.74	600.000
865.03	562.500
865.33	194.737
865.62	272.727
865.92	323.077
866.21	308.333
866.51	0.000
866.80	327.273
867.10	920.000
867.39	253.846
867.69	400.000
867.98	236.842
868.27	363.636
868.57	236.842
868.86	-3100.000
869.16	256.250
869.45	1700.000
869.75	-3100.000
870.04	325.000
870.33	628.571
870.63	750.000
870.92	1800.000
871.22	514.286
871.51	211.765
871.80	142.857
872.10	242.857
>>>>>End Processed Spectral Data<<<<<
