SpectraSuite Data File
++++++++++++++++++++++++++++++++++++
Date: Wed May 13 21:52:13 PDT 2015
User: schluterlab
Dark Spectrum Present: Yes
Reference Spectrum Present: Yes
Number of Sampled Component Spectra: 1
Spectrometers: USB2E3373
Integration Time (usec): 3000 (USB2E3373)
Spectra Averaged: 3 (USB2E3373)
Boxcar Smoothing: 0 (USB2E3373)
Correct for Electrical Dark: No (USB2E3373)
Strobe/Lamp Enabled: No (USB2E3373)
Correct for Detector Non-linearity: No (USB2E3373)
Correct for Stray Light: No (USB2E3373)
Number of Pixels in Processed Spectrum: 2048
>>>>>Begin Processed Spectral Data<<<<<
178.53	0.000
178.91	750.000
179.29	191.667
179.67	-1100.000
180.04	-700.000
180.42	140.000
180.80	1000.000
181.18	283.333
181.56	-550.000
181.94	-200.000
182.31	-45.455
182.69	215.385
183.07	-300.000
183.45	216.667
183.83	300.000
184.20	200.000
184.58	-133.333
184.96	266.667
185.34	328.571
185.72	0.000
186.09	-1000.000
186.47	-240.000
186.85	140.000
187.23	-300.000
187.61	600.000
187.98	2300.000
188.36	50.000
188.74	0.000
189.12	-27.273
189.49	10.000
189.87	100.000
190.25	380.000
190.63	1000.000
191.00	-300.000
191.38	380.000
191.76	450.000
192.14	158.333
192.51	-68.421
192.89	433.333
193.27	350.000
193.65	-220.000
194.02	281.818
194.40	270.000
194.78	-200.000
195.15	280.000
195.53	-340.000
195.91	0.000
196.29	-133.333
196.66	0.000
197.04	250.000
197.42	0.000
197.79	-10.000
198.17	-175.000
198.55	-400.000
198.92	200.000
199.30	-266.667
199.68	10.000
200.05	650.000
200.43	216.667
200.81	-1600.000
201.18	-180.000
201.56	-183.333
201.94	625.000
202.31	-8.696
202.69	-214.286
203.07	-433.333
203.44	-180.000
203.82	-533.333
204.19	-20.000
204.57	0.000
204.95	-116.667
205.32	0.000
205.70	-50.000
206.08	-225.000
206.45	-233.333
206.83	525.000
207.20	-400.000
207.58	-90.000
207.96	-1400.000
208.33	-300.000
208.71	-1400.000
209.08	275.000
209.46	700.000
209.84	0.000
210.21	170.000
210.59	2500.000
210.96	340.000
211.34	1200.000
211.71	-700.000
212.09	-216.667
212.46	-140.000
212.84	-166.667
213.22	-75.000
213.59	-1000.000
213.97	-1100.000
214.34	-550.000
214.72	-84.615
215.09	212.500
215.47	177.778
215.84	400.000
216.22	-225.000
216.59	-100.000
216.97	433.333
217.34	222.222
217.72	0.000
218.09	466.667
218.47	0.000
218.84	-142.857
219.22	-200.000
219.59	-266.667
219.97	-325.000
220.34	-50.000
220.72	-220.000
221.09	0.000
221.47	33.333
221.84	-1000.000
222.22	0.000
222.59	1000.000
222.97	-566.667
223.34	-41.667
223.72	-400.000
224.09	-850.000
224.46	-181.818
224.84	-137.500
225.21	-14.286
225.59	-325.000
225.96	-250.000
226.34	-150.000
226.71	-342.857
227.08	550.000
227.46	-225.000
227.83	-1100.000
228.21	-56.250
228.58	-375.000
228.95	-47.059
229.33	-6.250
229.70	-187.500
230.08	-69.231
230.45	-262.500
230.82	-91.667
231.20	257.143
231.57	-275.000
231.95	600.000
232.32	-66.667
232.69	-47.059
233.07	-1200.000
233.44	-39.130
233.81	-1300.000
234.19	-8.333
234.56	-66.667
234.93	-60.000
235.31	47.368
235.68	-123.077
236.05	-53.846
236.43	-61.111
236.80	-12.121
237.17	-66.667
237.55	-94.118
237.92	-17.241
238.29	-44.444
238.67	5.556
239.04	-16.129
239.41	-4.255
239.79	10.638
240.16	0.000
240.53	8.929
240.91	23.214
241.28	10.714
241.65	20.968
242.02	22.368
242.40	26.087
242.77	21.739
243.14	20.513
243.51	21.277
243.89	24.038
244.26	24.528
244.63	12.500
245.00	25.000
245.38	23.529
245.75	17.213
246.12	19.549
246.49	23.577
246.87	15.966
247.24	37.838
247.61	23.841
247.98	25.641
248.36	28.402
248.73	25.843
249.10	21.717
249.47	27.419
249.84	25.263
250.22	29.851
250.59	27.570
250.96	31.364
251.33	29.665
251.70	32.218
252.08	28.870
252.45	27.984
252.82	31.939
253.19	32.685
253.56	26.978
253.94	24.555
254.31	27.817
254.68	31.879
255.05	29.043
255.42	30.420
255.79	25.153
256.16	30.599
256.54	24.444
256.91	28.481
257.28	30.503
257.65	24.204
258.02	29.619
258.39	32.456
258.76	27.326
259.14	28.977
259.51	28.933
259.88	31.707
260.25	29.722
260.62	27.809
260.99	28.912
261.36	30.311
261.73	28.395
262.10	26.463
262.47	29.383
262.85	28.607
263.22	29.744
263.59	30.649
263.96	26.764
264.33	28.125
264.70	30.930
265.07	30.556
265.44	31.954
265.81	31.350
266.18	30.979
266.55	29.476
266.92	29.025
267.29	29.218
267.66	32.484
268.03	28.601
268.40	29.661
268.77	30.579
269.14	29.388
269.51	33.265
269.88	29.939
270.25	33.051
270.62	29.098
270.99	31.102
271.36	28.968
271.73	31.727
272.10	29.714
272.47	28.599
272.84	33.465
273.21	27.984
273.58	30.533
273.95	29.811
274.32	29.851
274.69	30.055
275.06	31.095
275.43	30.885
275.80	29.078
276.17	28.913
276.54	29.663
276.91	28.397
277.28	30.325
277.65	29.196
278.02	30.357
278.39	27.886
278.76	30.769
279.13	29.674
279.50	31.379
279.87	29.710
280.23	29.550
280.60	30.104
280.97	30.357
281.34	31.861
281.71	26.667
282.08	30.940
282.45	29.508
282.82	28.914
283.19	29.268
283.56	29.219
283.92	27.829
284.29	27.925
284.66	29.160
285.03	28.176
285.40	29.758
285.77	29.279
286.14	29.027
286.51	30.885
286.87	28.154
287.24	29.646
287.61	31.024
287.98	29.559
288.35	27.422
288.72	29.125
289.08	29.202
289.45	27.900
289.82	29.652
290.19	26.508
290.56	25.284
290.93	26.934
291.29	24.487
291.66	26.639
292.03	28.747
292.40	28.264
292.77	26.104
293.13	27.476
293.50	26.013
293.87	26.133
294.24	25.397
294.60	26.918
294.97	26.984
295.34	26.253
295.71	26.281
296.08	25.524
296.44	25.638
296.81	24.117
297.18	23.625
297.55	24.764
297.91	25.342
298.28	23.971
298.65	24.754
299.02	26.984
299.38	24.663
299.75	26.442
300.12	23.023
300.48	25.614
300.85	24.596
301.22	24.042
301.59	24.178
301.95	23.810
302.32	23.454
302.69	24.407
303.05	22.481
303.42	24.205
303.79	26.393
304.15	24.425
304.52	25.054
304.89	23.699
305.25	24.040
305.62	24.078
305.99	23.721
306.35	25.392
306.72	24.720
307.09	24.922
307.45	25.453
307.82	24.421
308.19	23.824
308.55	24.667
308.92	24.951
309.29	24.424
309.65	24.076
310.02	24.155
310.38	24.289
310.75	25.740
311.12	24.879
311.48	24.233
311.85	25.295
312.22	26.209
312.58	24.734
312.95	25.373
313.31	25.344
313.68	24.905
314.05	26.087
314.41	27.378
314.78	26.091
315.14	25.463
315.51	26.070
315.87	25.116
316.24	26.722
316.61	28.767
316.97	28.056
317.34	26.738
317.70	27.565
318.07	26.886
318.43	28.184
318.80	26.876
319.16	27.675
319.53	26.344
319.89	27.552
320.26	28.743
320.62	28.823
320.99	28.198
321.35	28.531
321.72	28.585
322.08	29.705
322.45	30.065
322.81	31.423
323.18	29.696
323.54	30.776
323.91	31.346
324.27	31.953
324.64	29.791
325.00	31.059
325.37	30.973
325.73	31.145
326.10	30.362
326.46	32.274
326.83	31.634
327.19	31.138
327.56	32.635
327.92	32.341
328.29	33.306
328.65	33.567
329.01	32.278
329.38	34.609
329.74	33.047
330.11	33.454
330.47	32.031
330.84	32.491
331.20	31.853
331.56	33.424
331.93	33.247
332.29	35.100
332.66	32.712
333.02	32.320
333.38	32.632
333.75	33.191
334.11	32.899
334.48	34.438
334.84	34.894
335.20	33.619
335.57	33.072
335.93	32.045
336.29	32.312
336.66	34.359
337.02	33.826
337.38	32.550
337.75	33.506
338.11	33.049
338.47	33.134
338.84	33.419
339.20	33.510
339.56	34.300
339.93	32.584
340.29	32.451
340.65	33.447
341.02	33.694
341.38	32.601
341.74	32.101
342.11	32.865
342.47	31.883
342.83	32.435
343.20	33.249
343.56	33.524
343.92	32.738
344.28	33.523
344.65	33.143
345.01	31.961
345.37	35.115
345.73	33.333
346.10	32.745
346.46	32.358
346.82	32.183
347.19	31.092
347.55	32.553
347.91	33.359
348.27	32.177
348.63	32.853
349.00	32.547
349.36	32.261
349.72	32.096
350.08	32.137
350.45	32.420
350.81	32.394
351.17	31.948
351.53	31.736
351.89	32.566
352.26	32.355
352.62	32.171
352.98	32.907
353.34	33.172
353.70	32.710
354.07	32.235
354.43	33.281
354.79	33.093
355.15	32.686
355.51	33.333
355.87	33.698
356.24	32.986
356.60	32.447
356.96	33.615
357.32	33.359
357.68	32.009
358.04	33.902
358.40	34.419
358.77	33.257
359.13	34.086
359.49	32.930
359.85	33.965
360.21	33.616
360.57	32.852
360.93	33.687
361.29	33.753
361.66	33.106
362.02	33.432
362.38	33.752
362.74	33.140
363.10	32.899
363.46	32.925
363.82	33.851
364.18	32.415
364.54	34.573
364.90	33.728
365.26	33.475
365.62	33.736
365.98	34.235
366.35	33.404
366.71	34.023
367.07	32.814
367.43	33.659
367.79	34.816
368.15	33.826
368.51	33.826
368.87	34.403
369.23	33.452
369.59	34.320
369.95	33.019
370.31	34.031
370.67	33.599
371.03	35.189
371.39	35.060
371.75	33.786
372.11	33.476
372.47	34.319
372.83	33.287
373.19	34.604
373.55	34.032
373.91	32.744
374.27	34.371
374.63	33.642
374.99	32.312
375.35	33.904
375.71	33.560
376.07	34.339
376.42	35.094
376.78	34.280
377.14	34.576
377.50	34.876
377.86	34.595
378.22	33.502
378.58	33.922
378.94	33.938
379.30	33.229
379.66	33.416
380.02	33.456
380.38	33.253
380.74	33.114
381.09	33.233
381.45	33.978
381.81	32.902
382.17	32.514
382.53	32.923
382.89	32.449
383.25	33.086
383.61	32.990
383.97	32.750
384.32	31.884
384.68	32.943
385.04	32.071
385.40	32.441
385.76	33.577
386.12	32.150
386.48	31.223
386.83	31.977
387.19	32.079
387.55	32.802
387.91	32.226
388.27	31.381
388.62	31.211
388.98	32.541
389.34	30.952
389.70	31.380
390.06	31.563
390.42	31.701
390.77	30.942
391.13	30.745
391.49	30.487
391.85	30.351
392.20	30.075
392.56	30.730
392.92	30.076
393.28	30.215
393.64	30.887
393.99	30.049
394.35	29.136
394.71	29.872
395.07	28.428
395.42	29.616
395.78	28.764
396.14	30.120
396.50	30.184
396.85	30.274
397.21	28.839
397.57	28.261
397.92	28.024
398.28	29.216
398.64	28.597
399.00	28.739
399.35	29.171
399.71	27.897
400.07	28.855
400.42	27.962
400.78	27.130
401.14	28.081
401.49	28.161
401.85	27.887
402.21	28.421
402.57	28.142
402.92	28.473
403.28	27.205
403.63	27.774
403.99	26.679
404.35	27.431
404.70	25.619
405.06	27.422
405.42	26.884
405.77	27.016
406.13	26.000
406.49	26.423
406.84	26.923
407.20	26.525
407.55	26.494
407.91	25.811
408.27	25.390
408.62	26.888
408.98	26.079
409.34	26.361
409.69	26.446
410.05	26.119
410.40	25.441
410.76	25.572
411.11	27.052
411.47	27.472
411.83	25.515
412.18	25.000
412.54	26.190
412.89	25.580
413.25	25.664
413.60	25.893
413.96	25.968
414.31	25.401
414.67	25.714
415.03	25.981
415.38	25.627
415.74	26.316
416.09	25.512
416.45	26.316
416.80	25.638
417.16	26.046
417.51	26.993
417.87	26.257
418.22	25.145
418.58	24.901
418.93	26.240
419.29	27.129
419.64	25.827
420.00	27.175
420.35	26.659
420.71	25.777
421.06	26.630
421.42	26.946
421.77	25.838
422.12	27.679
422.48	26.227
422.83	26.875
423.19	27.142
423.54	27.562
423.90	27.613
424.25	27.325
424.61	27.788
424.96	26.907
425.31	27.426
425.67	28.395
426.02	28.327
426.38	28.483
426.73	28.467
427.09	28.705
427.44	29.125
427.79	27.850
428.15	29.235
428.50	28.459
428.85	28.905
429.21	28.306
429.56	29.862
429.92	29.724
430.27	28.425
430.62	29.014
430.98	30.672
431.33	30.038
431.68	30.458
432.04	30.986
432.39	29.446
432.74	29.859
433.10	31.551
433.45	31.302
433.80	30.460
434.16	31.950
434.51	31.467
434.86	32.214
435.22	31.862
435.57	31.818
435.92	32.027
436.28	31.832
436.63	32.217
436.98	32.785
437.34	33.700
437.69	33.884
438.04	32.711
438.39	33.562
438.75	32.539
439.10	33.950
439.45	33.232
439.81	34.729
440.16	33.971
440.51	34.304
440.86	34.558
441.22	33.907
441.57	34.761
441.92	34.992
442.27	34.199
442.63	35.253
442.98	34.491
443.33	34.876
443.68	35.266
444.03	35.519
444.39	36.341
444.74	35.450
445.09	35.518
445.44	36.901
445.79	36.293
446.15	37.715
446.50	35.903
446.85	37.092
447.20	37.010
447.55	36.710
447.91	37.135
448.26	37.278
448.61	37.169
448.96	37.415
449.31	37.579
449.66	37.594
450.02	38.658
450.37	38.425
450.72	38.232
451.07	38.245
451.42	38.303
451.77	38.710
452.12	37.493
452.47	38.412
452.83	38.208
453.18	38.320
453.53	38.525
453.88	38.795
454.23	38.504
454.58	39.400
454.93	38.486
455.28	39.371
455.63	39.177
455.98	39.257
456.34	38.334
456.69	39.361
457.04	40.062
457.39	39.327
457.74	38.839
458.09	38.981
458.44	39.072
458.79	38.880
459.14	38.146
459.49	39.573
459.84	39.402
460.19	39.196
460.54	40.146
460.89	39.245
461.24	39.457
461.59	41.123
461.94	40.076
462.29	39.706
462.64	40.435
462.99	39.772
463.34	40.401
463.69	40.271
464.04	39.916
464.39	41.123
464.74	39.865
465.09	39.244
465.44	40.236
465.79	39.965
466.14	40.878
466.49	41.584
466.84	40.167
467.19	41.401
467.54	42.255
467.89	40.226
468.24	42.286
468.59	40.599
468.94	41.252
469.29	41.309
469.64	41.632
469.99	41.241
470.34	40.796
470.68	41.933
471.03	41.678
471.38	41.029
471.73	41.907
472.08	42.131
472.43	41.095
472.78	42.664
473.13	41.557
473.48	41.813
473.83	41.180
474.17	41.862
474.52	41.748
474.87	41.375
475.22	40.700
475.57	41.829
475.92	42.039
476.27	41.841
476.61	41.846
476.96	42.718
477.31	41.478
477.66	42.147
478.01	42.527
478.36	41.471
478.70	43.448
479.05	42.841
479.40	41.810
479.75	41.870
480.10	42.274
480.45	42.276
480.79	41.961
481.14	43.414
481.49	43.217
481.84	42.083
482.19	41.362
482.53	42.857
482.88	42.713
483.23	41.675
483.58	42.958
483.92	42.315
484.27	41.720
484.62	41.012
484.97	42.928
485.31	41.705
485.66	38.753
486.01	39.756
486.36	40.112
486.70	41.597
487.05	42.765
487.40	42.564
487.75	43.066
488.09	42.821
488.44	43.463
488.79	43.301
489.13	42.425
489.48	41.428
489.83	42.787
490.17	43.123
490.52	43.759
490.87	42.791
491.22	43.382
491.56	43.891
491.91	43.063
492.26	43.327
492.60	42.184
492.95	42.274
493.30	42.297
493.64	42.638
493.99	44.879
494.34	43.545
494.68	42.912
495.03	43.429
495.37	43.358
495.72	43.008
496.07	42.913
496.41	42.302
496.76	43.144
497.11	43.333
497.45	44.018
497.80	44.422
498.14	43.728
498.49	43.570
498.84	43.877
499.18	43.106
499.53	42.885
499.87	42.746
500.22	43.753
500.56	43.882
500.91	43.913
501.26	42.906
501.60	43.382
501.95	43.220
502.29	43.883
502.64	43.491
502.98	43.064
503.33	43.990
503.67	43.817
504.02	43.137
504.36	43.834
504.71	43.394
505.06	44.982
505.40	45.000
505.75	44.354
506.09	44.303
506.44	43.952
506.78	43.474
507.13	44.699
507.47	44.539
507.82	44.061
508.16	44.802
508.51	44.525
508.85	45.153
509.19	44.180
509.54	44.879
509.88	44.086
510.23	44.316
510.57	44.650
510.92	44.828
511.26	45.875
511.61	46.597
511.95	44.322
512.30	45.031
512.64	46.254
512.98	44.820
513.33	45.183
513.67	46.281
514.02	45.439
514.36	44.775
514.70	45.612
515.05	45.641
515.39	45.932
515.74	45.175
516.08	44.484
516.42	45.104
516.77	44.288
517.11	45.385
517.46	46.879
517.80	46.550
518.14	45.009
518.49	45.931
518.83	44.988
519.17	45.120
519.52	45.416
519.86	46.934
520.20	45.664
520.55	45.647
520.89	46.047
521.23	45.833
521.58	46.397
521.92	46.072
522.26	46.519
522.61	45.507
522.95	45.596
523.29	44.825
523.64	44.819
523.98	45.743
524.32	44.802
524.66	45.390
525.01	46.527
525.35	45.688
525.69	45.659
526.04	44.625
526.38	45.379
526.72	45.431
527.06	44.165
527.41	44.341
527.75	43.792
528.09	45.405
528.43	45.658
528.78	44.186
529.12	45.278
529.46	44.018
529.80	45.437
530.15	42.664
530.49	45.755
530.83	44.685
531.17	44.932
531.51	43.695
531.86	43.835
532.20	44.039
532.54	44.276
532.88	43.431
533.22	45.051
533.57	43.907
533.91	43.806
534.25	42.839
534.59	43.179
534.93	43.495
535.27	42.739
535.62	43.947
535.96	43.526
536.30	43.085
536.64	43.267
536.98	42.747
537.32	43.915
537.66	42.807
538.01	42.025
538.35	42.334
538.69	42.542
539.03	41.678
539.37	42.790
539.71	43.793
540.05	41.835
540.39	41.638
540.73	42.388
541.07	41.837
541.42	43.030
541.76	42.625
542.10	41.571
542.44	42.897
542.78	42.540
543.12	43.329
543.46	41.672
543.80	42.295
544.14	42.464
544.48	41.208
544.82	41.829
545.16	42.529
545.50	41.661
545.84	41.935
546.18	42.286
546.52	41.708
546.86	41.696
547.20	42.602
547.54	42.173
547.88	42.713
548.22	41.498
548.56	43.362
548.90	42.219
549.24	42.847
549.58	42.206
549.92	43.580
550.26	44.871
550.60	43.318
550.94	43.507
551.28	41.787
551.62	44.436
551.96	43.631
552.30	43.304
552.64	43.291
552.98	44.531
553.32	43.619
553.66	43.434
554.00	43.557
554.34	43.223
554.68	43.400
555.02	44.386
555.36	43.873
555.69	43.991
556.03	43.531
556.37	43.172
556.71	42.186
557.05	44.649
557.39	43.783
557.73	45.083
558.07	45.516
558.41	44.890
558.75	45.266
559.08	44.427
559.42	43.352
559.76	43.578
560.10	42.967
560.44	43.331
560.78	44.101
561.12	43.308
561.45	42.789
561.79	44.223
562.13	43.952
562.47	44.286
562.81	43.867
563.15	43.909
563.48	43.014
563.82	43.023
564.16	43.940
564.50	43.623
564.84	43.108
565.17	43.709
565.51	43.516
565.85	41.905
566.19	43.377
566.52	41.219
566.86	41.846
567.20	41.784
567.54	40.299
567.88	39.362
568.21	41.228
568.55	40.063
568.89	40.229
569.23	39.734
569.56	39.675
569.90	39.110
570.24	38.773
570.57	38.588
570.91	38.881
571.25	39.108
571.59	38.214
571.92	37.694
572.26	38.580
572.60	38.959
572.93	38.113
573.27	37.595
573.61	37.921
573.95	37.573
574.28	37.355
574.62	37.127
574.96	37.156
575.29	37.688
575.63	36.986
575.97	37.853
576.30	36.619
576.64	37.464
576.98	37.513
577.31	37.556
577.65	36.338
577.98	37.327
578.32	37.454
578.66	37.314
578.99	37.183
579.33	38.056
579.67	38.035
580.00	37.714
580.34	37.470
580.67	38.021
581.01	37.640
581.35	37.320
581.68	37.327
582.02	37.928
582.35	38.221
582.69	37.874
583.02	37.967
583.36	38.704
583.70	39.672
584.03	39.391
584.37	38.579
584.70	39.121
585.04	39.748
585.37	39.222
585.71	38.953
586.04	40.050
586.38	39.700
586.72	40.601
587.05	40.271
587.39	40.592
587.72	40.293
588.06	41.067
588.39	41.394
588.73	40.794
589.06	41.448
589.40	41.864
589.73	41.466
590.07	41.743
590.40	41.575
590.73	42.464
591.07	42.624
591.40	41.696
591.74	42.686
592.07	42.812
592.41	43.286
592.74	41.744
593.08	40.513
593.41	41.169
593.75	41.667
594.08	42.176
594.41	42.888
594.75	42.841
595.08	42.830
595.42	41.983
595.75	42.769
596.09	42.263
596.42	42.484
596.75	43.923
597.09	43.085
597.42	44.415
597.75	43.156
598.09	43.169
598.42	42.864
598.76	42.569
599.09	43.537
599.42	41.918
599.76	43.222
600.09	42.997
600.42	41.092
600.76	42.018
601.09	42.900
601.42	42.768
601.76	42.896
602.09	43.129
602.42	42.592
602.76	42.995
603.09	42.916
603.42	42.783
603.76	42.206
604.09	42.925
604.42	42.863
604.76	42.427
605.09	43.045
605.42	43.410
605.75	42.698
606.09	42.260
606.42	42.976
606.75	42.814
607.09	42.996
607.42	43.345
607.75	41.751
608.08	42.831
608.42	43.346
608.75	43.717
609.08	43.018
609.41	42.921
609.75	43.167
610.08	42.949
610.41	44.023
610.74	43.600
611.07	41.984
611.41	43.654
611.74	43.168
612.07	42.262
612.40	43.405
612.73	43.194
613.07	43.847
613.40	44.493
613.73	43.337
614.06	42.897
614.39	43.191
614.72	44.253
615.06	43.444
615.39	43.157
615.72	42.387
616.05	43.694
616.38	43.414
616.71	41.752
617.05	44.226
617.38	43.315
617.71	42.218
618.04	42.962
618.37	43.533
618.70	44.373
619.03	43.711
619.36	43.630
619.69	44.444
620.03	42.827
620.36	42.937
620.69	43.255
621.02	44.385
621.35	45.789
621.68	43.684
622.01	44.984
622.34	43.220
622.67	44.714
623.00	43.237
623.33	44.577
623.66	42.900
623.99	43.136
624.32	43.727
624.65	42.359
624.99	43.057
625.32	43.316
625.65	44.186
625.98	43.681
626.31	44.163
626.64	44.712
626.97	44.118
627.30	43.370
627.63	43.858
627.96	42.511
628.29	45.860
628.62	46.422
628.95	45.090
629.28	46.404
629.61	44.211
629.94	44.197
630.26	43.547
630.59	45.754
630.92	44.779
631.25	43.254
631.58	45.289
631.91	45.069
632.24	44.018
632.57	43.556
632.90	46.558
633.23	45.444
633.56	46.763
633.89	45.694
634.22	46.643
634.55	46.041
634.88	45.221
635.20	46.250
635.53	46.641
635.86	46.667
636.19	45.906
636.52	43.537
636.85	45.356
637.18	43.484
637.51	45.069
637.83	46.214
638.16	46.267
638.49	43.925
638.82	44.706
639.15	45.080
639.48	44.251
639.81	44.167
640.13	46.479
640.46	45.480
640.79	43.597
641.12	45.562
641.45	44.396
641.77	43.594
642.10	45.537
642.43	46.384
642.76	45.899
643.09	44.569
643.41	46.252
643.74	47.658
644.07	45.469
644.40	46.269
644.73	44.746
645.05	46.073
645.38	46.844
645.71	44.728
646.04	43.266
646.36	46.528
646.69	43.881
647.02	46.630
647.35	45.704
647.67	45.287
648.00	44.928
648.33	44.915
648.66	41.903
648.98	44.410
649.31	45.092
649.64	41.784
649.96	44.708
650.29	43.301
650.62	42.339
650.94	43.966
651.27	46.290
651.60	43.881
651.92	44.086
652.25	44.891
652.58	42.574
652.90	42.256
653.23	41.596
653.56	43.306
653.88	41.126
654.21	44.539
654.54	42.691
654.86	41.626
655.19	40.756
655.52	41.779
655.84	36.859
656.17	43.553
656.49	58.096
656.82	57.949
657.15	45.172
657.47	33.744
657.80	25.519
658.13	26.955
658.45	39.940
658.78	40.695
659.10	40.216
659.43	40.332
659.75	40.342
660.08	39.655
660.41	40.162
660.73	41.873
661.06	43.027
661.38	42.829
661.71	44.057
662.03	43.129
662.36	40.929
662.68	45.591
663.01	43.008
663.33	42.333
663.66	39.246
663.98	45.169
664.31	46.813
664.63	41.441
664.96	45.733
665.28	42.918
665.61	44.924
665.93	44.968
666.26	43.671
666.58	41.970
666.91	48.655
667.23	45.161
667.56	42.759
667.88	43.224
668.21	43.973
668.53	41.609
668.86	44.844
669.18	45.154
669.50	41.244
669.83	43.675
670.15	41.667
670.48	42.759
670.80	45.077
671.13	46.682
671.45	41.324
671.77	39.224
672.10	39.961
672.42	41.031
672.75	39.286
673.07	39.818
673.39	41.231
673.72	40.319
674.04	41.803
674.37	41.260
674.69	39.918
675.01	42.308
675.34	42.232
675.66	44.009
675.98	43.805
676.31	40.498
676.63	42.404
676.95	42.118
677.28	41.514
677.60	43.873
677.92	41.685
678.25	43.818
678.57	42.974
678.89	43.284
679.22	41.201
679.54	40.612
679.86	41.602
680.18	42.500
680.51	40.192
680.83	39.181
681.15	38.507
681.48	39.880
681.80	41.104
682.12	40.000
682.44	39.437
682.77	38.316
683.09	39.063
683.41	38.605
683.73	38.616
684.06	41.150
684.38	38.462
684.70	39.715
685.02	42.975
685.34	41.096
685.67	38.462
685.99	38.078
686.31	38.966
686.63	37.868
686.96	37.848
687.28	37.725
687.60	39.698
687.92	40.272
688.24	38.400
688.56	40.132
688.89	36.303
689.21	41.256
689.53	37.162
689.85	40.449
690.17	40.440
690.49	38.889
690.82	38.902
691.14	39.855
691.46	39.907
691.78	40.220
692.10	39.278
692.42	36.264
692.74	40.870
693.06	36.854
693.39	38.876
693.71	40.889
694.03	39.545
694.35	37.838
694.67	39.500
694.99	41.237
695.31	39.793
695.63	40.732
695.95	38.422
696.27	37.808
696.59	39.516
696.91	37.709
697.23	39.594
697.56	39.568
697.88	38.254
698.20	37.365
698.52	35.981
698.84	38.517
699.16	35.697
699.48	38.765
699.80	41.602
700.12	38.338
700.44	36.338
700.76	35.674
701.08	38.671
701.40	39.222
701.72	40.923
702.04	34.591
702.36	33.841
702.68	35.671
703.00	38.304
703.32	35.655
703.64	37.048
703.96	38.710
704.28	38.855
704.60	38.415
704.91	37.931
705.23	34.494
705.55	40.345
705.87	36.972
706.19	37.363
706.51	36.620
706.83	35.350
707.15	39.024
707.47	36.088
707.79	36.294
708.11	34.961
708.43	37.056
708.74	35.638
709.06	34.492
709.38	38.040
709.70	39.640
710.02	34.891
710.34	32.667
710.66	32.248
710.98	35.913
711.29	37.013
711.61	32.581
711.93	35.161
712.25	37.413
712.57	32.632
712.89	35.165
713.20	39.362
713.52	33.942
713.84	36.129
714.16	34.304
714.48	37.658
714.80	35.144
715.11	37.791
715.43	30.745
715.75	37.578
716.07	38.554
716.39	35.354
716.70	34.173
717.02	32.941
717.34	35.227
717.66	30.172
717.97	32.540
718.29	33.858
718.61	35.193
718.93	39.147
719.24	35.055
719.56	31.835
719.88	32.836
720.20	38.735
720.51	35.938
720.83	39.300
721.15	31.301
721.46	36.260
721.78	37.450
722.10	31.873
722.42	34.274
722.73	35.135
723.05	38.776
723.37	34.874
723.68	32.000
724.00	26.383
724.32	27.615
724.63	34.156
724.95	27.778
725.27	37.553
725.58	36.214
725.90	31.799
726.22	32.971
726.53	29.804
726.85	36.131
727.16	35.926
727.48	35.632
727.80	34.766
728.11	29.508
728.43	33.984
728.74	28.968
729.06	34.800
729.38	33.992
729.69	29.537
730.01	34.201
730.32	34.686
730.64	37.121
730.96	38.811
731.27	30.435
731.59	33.333
731.90	35.922
732.22	30.449
732.53	29.054
732.85	29.195
733.16	31.023
733.48	32.095
733.80	35.811
734.11	36.149
734.43	32.817
734.74	31.832
735.06	30.836
735.37	34.954
735.69	30.097
736.00	34.323
736.32	35.106
736.63	29.310
736.95	32.192
737.26	30.000
737.58	31.597
737.89	31.615
738.21	28.470
738.52	29.658
738.83	33.061
739.15	29.958
739.46	28.405
739.78	27.817
740.09	30.822
740.41	29.286
740.72	27.305
741.04	28.400
741.35	28.509
741.66	32.444
741.98	28.365
742.29	37.129
742.61	37.073
742.92	33.772
743.23	31.132
743.55	36.486
743.86	31.839
744.18	34.314
744.49	29.949
744.80	31.633
745.12	28.505
745.43	25.118
745.74	27.928
746.06	28.972
746.37	28.899
746.68	32.212
747.00	26.794
747.31	28.365
747.62	32.569
747.94	28.821
748.25	33.028
748.56	33.778
748.88	37.089
749.19	34.762
749.50	24.757
749.82	30.516
750.13	20.000
750.44	24.231
750.75	29.889
751.07	38.078
751.38	31.206
751.69	29.730
752.01	33.203
752.32	26.154
752.63	33.209
752.94	28.800
753.26	28.033
753.57	33.750
753.88	29.555
754.19	32.271
754.51	30.075
754.82	28.571
755.13	23.043
755.44	33.333
755.75	29.600
756.07	24.354
756.38	30.935
756.69	26.962
757.00	30.218
757.31	30.744
757.63	24.691
757.94	31.073
758.25	30.423
758.56	33.967
758.87	30.060
759.18	26.814
759.50	29.293
759.81	29.431
760.12	28.615
760.43	25.000
760.74	30.508
761.05	29.006
761.36	26.648
761.67	26.888
761.99	28.522
762.30	26.642
762.61	26.749
762.92	32.906
763.23	31.148
763.54	31.169
763.85	24.490
764.16	28.862
764.47	28.400
764.78	30.357
765.10	26.230
765.41	26.140
765.72	30.124
766.03	30.363
766.34	29.231
766.65	28.452
766.96	23.005
767.27	28.218
767.58	22.472
767.89	29.630
768.20	22.099
768.51	32.161
768.82	27.404
769.13	34.071
769.44	25.941
769.75	20.085
770.06	26.009
770.37	24.510
770.68	26.214
770.99	25.728
771.30	26.891
771.61	19.592
771.92	30.290
772.23	27.027
772.54	22.099
772.85	29.651
773.16	27.513
773.47	26.036
773.78	27.586
774.09	30.000
774.39	24.224
774.70	25.170
775.01	21.379
775.32	30.000
775.63	17.293
775.94	22.556
776.25	20.000
776.56	22.314
776.87	34.921
777.18	15.315
777.48	30.631
777.79	24.409
778.10	30.275
778.41	21.930
778.72	19.328
779.03	21.127
779.34	32.432
779.65	26.056
779.95	31.788
780.26	21.583
780.57	28.777
780.88	30.282
781.19	22.689
781.50	31.544
781.80	16.959
782.11	20.930
782.42	22.642
782.73	28.758
783.04	21.379
783.34	18.321
783.65	20.134
783.96	28.462
784.27	22.857
784.57	34.043
784.88	8.654
785.19	33.636
785.50	22.727
785.81	10.476
786.11	21.008
786.42	14.159
786.73	16.981
787.04	7.339
787.34	12.871
787.65	16.667
787.96	21.488
788.26	18.116
788.57	19.048
788.88	17.886
789.19	9.600
789.49	15.267
789.80	28.788
790.11	10.377
790.41	28.713
790.72	30.851
791.03	7.609
791.33	9.412
791.64	9.877
791.95	13.043
792.25	30.682
792.56	29.487
792.87	15.385
793.17	7.692
793.48	20.238
793.79	16.250
794.09	24.038
794.40	27.083
794.70	27.928
795.01	23.438
795.32	17.391
795.62	8.696
795.93	20.755
796.23	19.192
796.54	6.098
796.85	26.190
797.15	13.636
797.46	18.841
797.76	19.737
798.07	15.909
798.37	18.293
798.68	11.290
798.99	10.811
799.29	27.711
799.60	14.103
799.90	6.154
800.21	33.333
800.51	10.667
800.82	13.333
801.12	-2.083
801.43	-1.667
801.73	1.351
802.04	15.714
802.34	16.393
802.65	20.896
802.95	25.455
803.26	22.414
803.56	12.308
803.87	11.321
804.17	19.355
804.48	20.588
804.78	2.439
805.09	15.942
805.39	16.176
805.70	-17.021
806.00	12.281
806.30	24.359
806.61	14.474
806.91	24.324
807.22	6.579
807.52	12.500
807.83	-11.864
808.13	-25.758
808.43	1.667
808.74	-6.897
809.04	17.460
809.35	-22.449
809.65	1.667
809.95	-22.449
810.26	21.127
810.56	-4.167
810.86	12.245
811.17	32.692
811.47	-8.511
811.77	6.250
812.08	11.321
812.38	9.375
812.69	14.545
812.99	4.878
813.29	-10.811
813.59	-29.730
813.90	-5.455
814.20	10.909
814.50	3.333
814.81	25.455
815.11	17.544
815.41	53.488
815.72	-7.500
816.02	0.000
816.32	2.703
816.62	-14.583
816.93	8.889
817.23	-2.222
817.53	-27.778
817.84	-10.811
818.14	12.195
818.44	22.000
818.74	4.082
819.04	9.756
819.35	5.556
819.65	4.545
819.95	-61.111
820.25	-6.061
820.56	-7.143
820.86	-2.778
821.16	-9.091
821.46	-10.870
821.76	13.793
822.07	8.696
822.37	24.242
822.67	36.585
822.97	8.108
823.27	-22.857
823.57	10.345
823.88	-29.412
824.18	-11.111
824.48	0.000
824.78	-14.286
825.08	-28.571
825.38	-25.926
825.69	-6.452
825.99	7.317
826.29	-22.222
826.59	-9.375
826.89	-16.129
827.19	17.391
827.49	-13.889
827.79	-21.739
828.09	-12.903
828.39	-12.500
828.70	-3.125
829.00	-58.621
829.30	-24.324
829.60	-58.333
829.90	33.333
830.20	-12.500
830.50	-9.091
830.80	-94.118
831.10	-72.727
831.40	-11.765
831.70	11.538
832.00	12.121
832.30	11.765
832.60	16.216
832.90	1800.000
833.20	17.857
833.50	-80.000
833.80	-2.632
834.10	-29.167
834.40	-45.455
834.70	-60.000
835.00	-110.000
835.30	-37.500
835.60	-23.810
835.90	-9.524
836.20	4.000
836.50	-12.500
836.80	-100.000
837.10	16.216
837.40	30.000
837.70	0.000
838.00	0.000
838.30	-57.895
838.60	-140.000
838.90	-230.000
839.19	-83.333
839.49	-46.154
839.79	-52.632
840.09	-283.333
840.39	-110.000
840.69	-54.545
840.99	-9.524
841.29	-41.667
841.59	-115.385
841.88	-106.667
842.18	-78.571
842.48	6.667
842.78	-242.857
843.08	-78.571
843.38	-175.000
843.68	-50.000
843.97	14.286
844.27	-66.667
844.57	-109.091
844.87	-66.667
845.17	0.000
845.47	400.000
845.76	-73.333
846.06	-108.333
846.36	-1200.000
846.66	-36.842
846.96	-45.455
847.25	-66.667
847.55	-166.667
847.85	-42.857
848.15	-15.385
848.44	-300.000
848.74	-41.667
849.04	-46.154
849.34	-300.000
849.63	-145.455
849.93	-128.571
850.23	-15.000
850.53	-175.000
850.82	-27.778
851.12	-46.667
851.42	-35.294
851.71	-75.000
852.01	-35.294
852.31	-69.231
852.61	750.000
852.90	23.529
853.20	-26.667
853.50	-31.250
853.79	-135.714
854.09	-350.000
854.39	-30.000
854.68	-10.000
854.98	-38.095
855.28	-56.000
855.57	0.000
855.87	-25.000
856.17	-4.000
856.46	-9.375
856.76	15.000
857.05	-8.000
857.35	-91.667
857.65	-23.529
857.94	-150.000
858.24	-91.667
858.53	-15.000
858.83	-172.727
859.13	16.000
859.42	-35.714
859.72	-150.000
860.01	-58.333
860.31	-150.000
860.60	-75.000
860.90	-283.333
861.20	-166.667
861.49	0.000
861.79	-37.500
862.08	550.000
862.38	-125.000
862.67	242.857
862.97	325.000
863.26	-72.727
863.56	-72.727
863.85	31.579
864.15	5.882
864.44	-400.000
864.74	-90.000
865.03	-188.889
865.33	-50.000
865.62	207.143
865.92	-26.316
866.21	-11.111
866.51	-100.000
866.80	-88.889
867.10	-87.500
867.39	-37.500
867.69	-120.000
867.98	-80.000
868.27	-11.765
868.57	0.000
868.86	600.000
869.16	-300.000
869.45	-200.000
869.75	550.000
870.04	40.000
870.33	-1700.000
870.63	-36.842
870.92	-66.667
871.22	-500.000
871.51	-185.714
871.80	-155.556
872.10	-575.000
>>>>>End Processed Spectral Data<<<<<
