SpectraSuite Data File
++++++++++++++++++++++++++++++++++++
Date: Wed May 13 21:47:34 PDT 2015
User: schluterlab
Dark Spectrum Present: Yes
Reference Spectrum Present: Yes
Number of Sampled Component Spectra: 1
Spectrometers: USB2E3373
Integration Time (usec): 3000 (USB2E3373)
Spectra Averaged: 3 (USB2E3373)
Boxcar Smoothing: 0 (USB2E3373)
Correct for Electrical Dark: No (USB2E3373)
Strobe/Lamp Enabled: No (USB2E3373)
Correct for Detector Non-linearity: No (USB2E3373)
Correct for Stray Light: No (USB2E3373)
Number of Pixels in Processed Spectrum: 2048
>>>>>Begin Processed Spectral Data<<<<<
178.53	0.000
178.91	700.000
179.29	175.000
179.67	-1000.000
180.04	-266.667
180.42	340.000
180.80	1800.000
181.18	116.667
181.56	-400.000
181.94	-75.000
182.31	-45.455
182.69	138.462
183.07	-120.000
183.45	366.667
183.83	133.333
184.20	142.857
184.58	-233.333
184.96	466.667
185.34	214.286
185.72	0.000
186.09	-500.000
186.47	-220.000
186.85	140.000
187.23	150.000
187.61	650.000
187.98	500.000
188.36	-125.000
188.74	0.000
189.12	109.091
189.49	-80.000
189.87	150.000
190.25	200.000
190.63	1400.000
191.00	-220.000
191.38	300.000
191.76	225.000
192.14	141.667
192.51	-15.789
192.89	366.667
193.27	400.000
193.65	-380.000
194.02	163.636
194.40	180.000
194.78	-2000.000
195.15	360.000
195.53	-220.000
195.91	25.000
196.29	0.000
196.66	0.000
197.04	300.000
197.42	-100.000
197.79	30.000
198.17	-175.000
198.55	33.333
198.92	150.000
199.30	-166.667
199.68	30.000
200.05	400.000
200.43	100.000
200.81	-1300.000
201.18	-260.000
201.56	-266.667
201.94	350.000
202.31	-17.391
202.69	-85.714
203.07	-533.333
203.44	-260.000
203.82	-166.667
204.19	-30.000
204.57	0.000
204.95	16.667
205.32	0.000
205.70	300.000
206.08	-100.000
206.45	-183.333
206.83	325.000
207.20	-433.333
207.58	-50.000
207.96	-1400.000
208.33	-142.857
208.71	-1700.000
209.08	87.500
209.46	375.000
209.84	0.000
210.21	100.000
210.59	900.000
210.96	180.000
211.34	200.000
211.71	-800.000
212.09	-266.667
212.46	-110.000
212.84	-333.333
213.22	125.000
213.59	-200.000
213.97	-550.000
214.34	-800.000
214.72	-23.077
215.09	237.500
215.47	188.889
215.84	300.000
216.22	-62.500
216.59	-450.000
216.97	533.333
217.34	233.333
217.72	0.000
218.09	100.000
218.47	-300.000
218.84	-114.286
219.22	-87.500
219.59	-266.667
219.97	-100.000
220.34	-75.000
220.72	-220.000
221.09	0.000
221.47	-250.000
221.84	-400.000
222.22	0.000
222.59	500.000
222.97	-533.333
223.34	-66.667
223.72	-900.000
224.09	-500.000
224.46	-54.545
224.84	-50.000
225.21	-142.857
225.59	-175.000
225.96	-83.333
226.34	20.000
226.71	-42.857
227.08	150.000
227.46	-25.000
227.83	-400.000
228.21	-56.250
228.58	-200.000
228.95	-29.412
229.33	-25.000
229.70	50.000
230.08	7.692
230.45	-37.500
230.82	-83.333
231.20	285.714
231.57	-50.000
231.95	200.000
232.32	8.333
232.69	76.471
233.07	-1600.000
233.44	0.000
233.81	-850.000
234.19	54.167
234.56	-66.667
234.93	13.333
235.31	42.105
235.68	15.385
236.05	15.385
236.43	27.778
236.80	12.121
237.17	-13.333
237.55	-23.529
237.92	-3.448
238.29	-40.741
238.67	16.667
239.04	12.903
239.41	34.043
239.79	55.319
240.16	44.186
240.53	21.429
240.91	37.500
241.28	32.143
241.65	38.710
242.02	25.000
242.40	31.884
242.77	33.333
243.14	37.179
243.51	38.298
243.89	35.577
244.26	48.113
244.63	31.731
245.00	46.875
245.38	47.899
245.75	48.361
246.12	40.602
246.49	34.959
246.87	32.773
247.24	43.919
247.61	41.722
247.98	46.154
248.36	37.870
248.73	41.011
249.10	36.364
249.47	36.022
249.84	46.842
250.22	42.289
250.59	41.121
250.96	48.182
251.33	38.278
251.70	43.933
252.08	37.657
252.45	45.679
252.82	42.205
253.19	45.136
253.56	42.806
253.94	45.552
254.31	46.127
254.68	44.631
255.05	46.535
255.42	44.755
255.79	45.399
256.16	47.950
256.54	42.222
256.91	40.506
257.28	43.396
257.65	42.357
258.02	43.109
258.39	46.199
258.76	46.512
259.14	45.455
259.51	43.258
259.88	45.257
260.25	40.556
260.62	40.449
260.99	46.154
261.36	41.451
261.73	40.988
262.10	43.511
262.47	43.951
262.85	43.035
263.22	41.282
263.59	44.675
263.96	43.309
264.33	44.471
264.70	46.279
265.07	43.056
265.44	46.437
265.81	43.021
266.18	43.964
266.55	43.450
266.92	41.737
267.29	42.387
267.66	44.798
268.03	44.239
268.40	40.890
268.77	43.595
269.14	43.469
269.51	46.407
269.88	41.548
270.25	48.093
270.62	41.598
270.99	42.913
271.36	41.071
271.73	44.378
272.10	43.619
272.47	45.489
272.84	42.913
273.21	42.857
273.58	47.336
273.95	41.887
274.32	43.843
274.69	41.166
275.06	42.403
275.43	43.691
275.80	40.603
276.17	43.646
276.54	41.208
276.91	42.160
277.28	43.141
277.65	43.706
278.02	45.714
278.39	41.741
278.76	44.147
279.13	41.852
279.50	41.724
279.87	40.580
280.23	43.243
280.60	43.599
280.97	41.721
281.34	42.587
281.71	40.163
282.08	42.906
282.45	43.770
282.82	39.617
283.19	41.159
283.56	43.125
283.92	41.590
284.29	41.186
284.66	42.504
285.03	38.762
285.40	37.764
285.77	42.793
286.14	40.274
286.51	44.078
286.87	40.000
287.24	40.708
287.61	41.416
287.98	41.029
288.35	39.940
288.72	40.029
289.08	41.738
289.45	38.913
289.82	41.301
290.19	39.551
290.56	39.773
290.93	39.503
291.29	38.851
291.66	37.022
292.03	38.828
292.40	38.493
292.77	38.153
293.13	38.773
293.50	38.693
293.87	38.667
294.24	36.905
294.60	40.052
294.97	37.963
295.34	36.544
295.71	38.239
296.08	38.613
296.44	36.735
296.81	37.028
297.18	37.500
297.55	37.264
297.91	39.130
298.28	38.257
298.65	38.300
299.02	37.973
299.38	37.669
299.75	36.418
300.12	36.512
300.48	37.544
300.85	37.529
301.22	37.050
301.59	38.380
301.95	37.050
302.32	39.440
302.69	37.288
303.05	37.874
303.42	37.045
303.79	39.012
304.15	39.211
304.52	38.065
304.89	39.203
305.25	39.846
305.62	37.636
305.99	40.588
306.35	38.662
306.72	38.861
307.09	39.416
307.45	38.765
307.82	39.684
308.19	38.558
308.55	38.792
308.92	41.356
309.29	40.541
309.65	40.759
310.02	42.644
310.38	42.785
310.75	42.110
311.12	42.663
311.48	42.730
311.85	42.717
312.22	43.520
312.58	41.739
312.95	43.980
313.31	43.067
313.68	43.989
314.05	46.408
314.41	45.437
314.78	46.015
315.14	45.833
315.51	46.337
315.87	46.339
316.24	47.199
316.61	46.758
316.97	46.481
317.34	46.168
317.70	48.796
318.07	48.625
318.43	48.058
318.80	48.953
319.16	49.160
319.53	49.642
319.89	50.136
320.26	50.092
320.62	51.251
320.99	53.682
321.35	52.011
321.72	51.684
322.08	51.937
322.45	54.579
322.81	55.083
323.18	52.683
323.54	55.596
323.91	57.543
324.27	59.136
324.64	55.749
325.00	56.430
325.37	59.983
325.73	56.313
326.10	57.359
326.46	59.365
326.83	61.246
327.19	60.163
327.56	60.677
327.92	59.292
328.29	61.436
328.65	63.365
329.01	64.028
329.38	63.217
329.74	61.459
330.11	62.399
330.47	61.024
330.84	63.177
331.20	60.803
331.56	64.855
331.93	62.532
332.29	63.771
332.66	63.559
333.02	62.728
333.38	66.228
333.75	62.884
334.11	63.108
334.48	67.044
334.84	62.986
335.20	65.266
335.57	64.404
335.93	64.175
336.29	64.536
336.66	62.906
337.02	64.174
337.38	62.576
337.75	65.375
338.11	63.023
338.47	64.640
338.84	62.801
339.20	66.138
339.56	63.225
339.93	65.255
340.29	63.792
340.65	65.098
341.02	62.812
341.38	65.287
341.74	64.454
342.11	64.244
342.47	65.272
342.83	65.523
343.20	65.821
343.56	65.822
343.92	63.444
344.28	64.529
344.65	64.163
345.01	64.003
345.37	66.283
345.73	65.686
346.10	65.891
346.46	63.171
346.82	67.014
347.19	63.608
347.55	66.882
347.91	64.224
348.27	65.852
348.63	65.144
349.00	64.623
349.36	64.600
349.72	65.584
350.08	64.431
350.45	65.701
350.81	66.354
351.17	65.127
351.53	65.750
351.89	64.893
352.26	64.247
352.62	65.891
352.98	66.853
353.34	66.425
353.70	66.433
354.07	65.569
354.43	65.708
354.79	67.067
355.15	66.537
355.51	64.161
355.87	66.458
356.24	67.014
356.60	64.504
356.96	65.848
357.32	66.409
357.68	66.310
358.04	66.796
358.40	65.659
358.77	66.437
359.13	66.848
359.49	66.995
359.85	67.779
360.21	65.073
360.57	66.464
360.93	67.223
361.29	68.172
361.66	66.819
362.02	66.642
362.38	66.839
362.74	66.352
363.10	66.667
363.46	65.994
363.82	67.701
364.18	66.497
364.54	66.375
364.90	66.063
365.26	65.605
365.62	66.832
365.98	67.616
366.35	67.092
366.71	66.405
367.07	67.399
367.43	67.317
367.79	66.157
368.15	67.792
368.51	66.245
368.87	67.132
369.23	68.399
369.59	67.442
369.95	66.836
370.31	66.388
370.67	66.836
371.03	67.483
371.39	67.282
371.75	66.857
372.11	66.738
372.47	67.195
372.83	65.950
373.19	67.050
373.55	68.208
373.91	67.115
374.27	67.704
374.63	67.568
374.99	66.226
375.35	67.740
375.71	67.799
376.07	67.101
376.42	66.043
376.78	67.239
377.14	67.661
377.50	67.014
377.86	67.530
378.22	65.866
378.58	66.456
378.94	67.875
379.30	67.083
379.66	67.509
380.02	66.912
380.38	66.867
380.74	67.424
381.09	65.802
381.45	67.231
381.81	66.790
382.17	67.171
382.53	65.415
382.89	65.862
383.25	66.049
383.61	67.252
383.97	67.250
384.32	67.549
384.68	66.502
385.04	65.547
385.40	66.065
385.76	66.971
386.12	66.624
386.48	66.583
386.83	66.959
387.19	67.921
387.55	66.033
387.91	68.696
388.27	67.694
388.62	66.417
388.98	67.146
389.34	67.293
389.70	66.117
390.06	65.750
390.42	67.010
390.77	65.919
391.13	66.919
391.49	64.643
391.85	66.070
392.20	64.975
392.56	65.714
392.92	65.769
393.28	64.962
393.64	66.116
393.99	63.709
394.35	64.815
394.71	65.513
395.07	65.660
395.42	64.899
395.78	64.736
396.14	66.011
396.50	65.250
396.85	66.029
397.21	64.732
397.57	63.913
397.92	63.533
398.28	64.185
398.64	64.299
399.00	64.453
399.35	63.961
399.71	64.473
400.07	65.120
400.42	63.574
400.78	64.109
401.14	63.213
401.49	62.732
401.85	62.715
402.21	63.901
402.57	62.722
402.92	64.205
403.28	62.351
403.63	62.864
403.99	64.555
404.35	64.526
404.70	62.356
405.06	62.889
405.42	62.563
405.77	61.751
406.13	61.257
406.49	62.013
406.84	62.210
407.20	61.279
407.55	62.597
407.91	61.813
408.27	59.701
408.62	61.510
408.98	61.837
409.34	61.448
409.69	61.923
410.05	61.132
410.40	59.708
410.76	62.696
411.11	62.065
411.47	61.314
411.83	61.510
412.18	59.761
412.54	61.028
412.89	60.815
413.25	58.879
413.60	60.627
413.96	58.926
414.31	61.097
414.67	59.302
415.03	61.299
415.38	58.851
415.74	58.999
416.09	61.269
416.45	60.219
416.80	59.933
417.16	60.324
417.51	59.411
417.87	58.862
418.22	59.599
418.58	58.016
418.93	59.322
419.29	60.924
419.64	59.288
420.00	59.111
420.35	59.295
420.71	58.562
421.06	57.811
421.42	59.002
421.77	58.671
422.12	60.344
422.48	58.561
422.83	59.657
423.19	59.402
423.54	58.893
423.90	58.195
424.25	58.637
424.61	59.335
424.96	57.717
425.31	56.646
425.67	58.436
426.02	58.716
426.38	57.587
426.73	59.499
427.09	57.849
427.44	58.661
427.79	57.898
428.15	57.492
428.50	57.160
428.85	57.872
429.21	56.500
429.56	57.173
429.92	57.158
430.27	57.515
430.62	57.293
430.98	56.214
431.33	56.421
431.68	57.455
432.04	57.352
432.39	56.524
432.74	55.303
433.10	57.931
433.45	57.219
433.80	56.149
434.16	56.636
434.51	57.826
434.86	56.832
435.22	57.216
435.57	56.695
435.92	57.358
436.28	56.517
436.63	56.178
436.98	57.286
437.34	56.899
437.69	56.257
438.04	56.027
438.39	57.285
438.75	57.092
439.10	56.622
439.45	56.295
439.81	57.512
440.16	55.594
440.51	55.589
440.86	56.906
441.22	57.200
441.57	55.694
441.92	57.491
442.27	56.006
442.63	56.459
442.98	56.308
443.33	56.377
443.68	55.192
444.03	57.278
444.39	56.619
444.74	56.267
445.09	55.341
445.44	57.183
445.79	56.221
446.15	56.517
446.50	56.553
446.85	57.028
447.20	56.560
447.55	55.344
447.91	54.831
448.26	55.803
448.61	55.351
448.96	55.581
449.31	56.139
449.66	55.697
450.02	55.657
450.37	55.229
450.72	55.626
451.07	54.922
451.42	54.959
451.77	55.813
452.12	54.130
452.47	56.294
452.83	55.660
453.18	55.633
453.53	55.927
453.88	55.482
454.23	55.748
454.58	54.412
454.93	54.458
455.28	54.913
455.63	54.648
455.98	55.204
456.34	55.372
456.69	55.208
457.04	55.356
457.39	53.578
457.74	54.099
458.09	54.384
458.44	55.053
458.79	54.091
459.14	52.247
459.49	54.024
459.84	52.368
460.19	52.941
460.54	54.501
460.89	53.097
461.24	53.822
461.59	54.952
461.94	54.741
462.29	53.676
462.64	53.100
462.99	53.789
463.34	53.729
463.69	53.351
464.04	52.281
464.39	53.508
464.74	52.703
465.09	52.263
465.44	52.413
465.79	54.169
466.14	52.509
466.49	53.490
466.84	53.796
467.19	51.911
467.54	51.782
467.89	52.797
468.24	52.981
468.59	52.836
468.94	51.596
469.29	52.677
469.64	52.022
469.99	52.621
470.34	51.382
470.68	53.383
471.03	52.257
471.38	52.017
471.73	51.509
472.08	51.409
472.43	52.309
472.78	51.318
473.13	50.198
473.48	50.620
473.83	51.664
474.17	50.911
474.52	52.168
474.87	50.302
475.22	51.087
475.57	50.474
475.92	51.527
476.27	51.632
476.61	50.623
476.96	50.143
477.31	50.701
477.66	51.073
478.01	49.341
478.36	49.918
478.70	50.483
479.05	50.610
479.40	50.390
479.75	50.372
480.10	49.822
480.45	49.681
480.79	48.930
481.14	50.709
481.49	51.011
481.84	49.199
482.19	49.838
482.53	49.905
482.88	50.096
483.23	49.038
483.58	49.716
483.92	49.514
484.27	48.170
484.62	49.312
484.97	48.735
485.31	48.983
485.66	47.625
486.01	49.211
486.36	48.486
486.70	49.511
487.05	49.311
487.40	48.108
487.75	48.751
488.09	48.139
488.44	47.564
488.79	47.464
489.13	47.356
489.48	48.140
489.83	47.298
490.17	48.343
490.52	49.088
490.87	46.963
491.22	47.810
491.56	48.634
491.91	47.960
492.26	48.646
492.60	47.860
492.95	47.765
493.30	46.076
493.64	47.050
493.99	47.005
494.34	46.917
494.68	47.064
495.03	47.431
495.37	47.056
495.72	47.068
496.07	46.517
496.41	46.327
496.76	47.258
497.11	46.761
497.45	47.617
497.80	46.845
498.14	48.111
498.49	46.193
498.84	47.925
499.18	47.287
499.53	46.677
499.87	45.560
500.22	47.437
500.56	46.088
500.91	47.284
501.26	45.665
501.60	46.029
501.95	45.951
502.29	45.777
502.64	46.046
502.98	45.568
503.33	45.499
503.67	45.959
504.02	46.127
504.36	44.428
504.71	45.579
505.06	46.052
505.40	45.619
505.75	45.422
506.09	45.529
506.44	45.262
506.78	45.150
507.13	44.802
507.47	44.645
507.82	44.270
508.16	44.591
508.51	44.525
508.85	43.650
509.19	44.815
509.54	45.308
509.88	44.194
510.23	43.474
510.57	44.544
510.92	44.504
511.26	44.554
511.61	44.621
511.95	43.660
512.30	43.809
512.64	45.006
512.98	43.213
513.33	43.775
513.67	43.668
514.02	44.641
514.36	43.483
514.70	42.956
515.05	44.705
515.39	43.573
515.74	43.931
516.08	42.183
516.42	42.281
516.77	43.175
517.11	42.504
517.46	44.118
517.80	43.523
518.14	42.437
518.49	42.676
518.83	42.900
519.17	42.108
519.52	45.175
519.86	42.319
520.20	41.965
520.55	42.973
520.89	42.821
521.23	42.949
521.58	41.530
521.92	41.860
522.26	41.900
522.61	42.857
522.95	41.969
523.29	42.222
523.64	41.767
523.98	40.978
524.32	41.651
524.66	41.039
525.01	42.726
525.35	41.738
525.69	41.882
526.04	41.107
526.38	42.065
526.72	41.354
527.06	40.619
527.41	40.702
527.75	41.389
528.09	41.797
528.43	42.062
528.78	41.602
529.12	41.979
529.46	41.331
529.80	41.553
530.15	39.640
530.49	40.027
530.83	41.435
531.17	41.507
531.51	39.582
531.86	40.447
532.20	40.317
532.54	41.172
532.88	40.095
533.22	41.077
533.57	40.993
533.91	40.129
534.25	40.820
534.59	40.154
534.93	40.944
535.27	40.573
535.62	40.395
535.96	39.493
536.30	40.293
536.64	40.191
536.98	39.734
537.32	39.715
537.66	40.339
538.01	38.696
538.35	39.503
538.69	38.863
539.03	39.664
539.37	38.229
539.71	40.314
540.05	39.204
540.39	38.610
540.73	39.246
541.07	39.456
541.42	40.067
541.76	40.325
542.10	39.066
542.44	38.115
542.78	38.376
543.12	37.332
543.46	38.424
543.80	37.542
544.14	39.504
544.48	36.762
544.82	38.467
545.16	38.675
545.50	38.285
545.84	38.710
546.18	37.447
546.52	37.615
546.86	37.173
547.20	37.741
547.54	37.455
547.88	38.259
548.22	37.720
548.56	38.092
548.90	37.754
549.24	37.569
549.58	38.434
549.92	39.105
550.26	39.852
550.60	37.913
550.94	37.313
551.28	37.396
551.62	36.767
551.96	37.262
552.30	37.045
552.64	36.864
552.98	37.287
553.32	37.635
553.66	37.417
554.00	37.221
554.34	36.044
554.68	37.584
555.02	37.126
555.36	36.914
555.69	37.072
556.03	36.669
556.37	37.411
556.71	37.351
557.05	37.343
557.39	37.151
557.73	36.838
558.07	36.549
558.41	36.336
558.75	37.105
559.08	36.407
559.42	37.136
559.76	36.315
560.10	36.126
560.44	36.772
560.78	35.899
561.12	36.300
561.45	36.531
561.79	36.107
562.13	37.060
562.47	36.500
562.81	36.724
563.15	35.836
563.48	35.994
563.82	36.252
564.16	35.748
564.50	36.499
564.84	35.811
565.17	36.821
565.51	36.029
565.85	35.909
566.19	35.298
566.52	36.435
566.86	36.094
567.20	35.919
567.54	34.830
567.88	34.770
568.21	35.253
568.55	35.576
568.89	36.291
569.23	35.747
569.56	36.337
569.90	35.966
570.24	35.596
570.57	35.415
570.91	35.885
571.25	35.637
571.59	34.726
571.92	35.993
572.26	35.878
572.60	35.787
572.93	35.395
573.27	35.591
573.61	36.424
573.95	36.013
574.28	35.782
574.62	35.917
574.96	35.581
575.29	34.905
575.63	34.984
575.97	35.625
576.30	35.325
576.64	35.997
576.98	35.293
577.31	35.787
577.65	35.388
577.98	35.485
578.32	34.982
578.66	35.029
578.99	35.540
579.33	35.532
579.67	35.336
580.00	34.683
580.34	34.828
580.67	35.056
581.01	35.145
581.35	35.274
581.68	35.472
582.02	35.135
582.35	35.447
582.69	35.517
583.02	34.740
583.36	34.841
583.70	35.001
584.03	34.915
584.37	34.481
584.70	34.514
585.04	35.066
585.37	35.164
585.71	34.708
586.04	34.762
586.38	34.544
586.72	34.560
587.05	35.082
587.39	34.971
587.72	35.372
588.06	34.938
588.39	34.677
588.73	35.138
589.06	34.303
589.40	34.537
589.73	34.064
590.07	34.816
590.40	34.154
590.73	34.522
591.07	33.974
591.40	33.913
591.74	35.260
592.07	34.277
592.41	34.106
592.74	34.221
593.08	33.470
593.41	34.008
593.75	33.236
594.08	33.851
594.41	34.260
594.75	33.733
595.08	33.794
595.42	33.500
595.75	33.731
596.09	33.564
596.42	33.211
596.75	33.655
597.09	34.167
597.42	34.051
597.75	32.933
598.09	32.969
598.42	33.870
598.76	33.963
599.09	34.094
599.42	33.459
599.76	34.022
600.09	32.605
600.42	32.806
600.76	33.296
601.09	33.861
601.42	33.399
601.76	33.205
602.09	33.279
602.42	33.017
602.76	33.054
603.09	34.292
603.42	33.547
603.76	33.359
604.09	33.004
604.42	32.943
604.76	32.911
605.09	33.666
605.42	33.738
605.75	33.405
606.09	31.995
606.42	32.918
606.75	33.074
607.09	33.466
607.42	32.793
607.75	31.072
608.08	32.913
608.42	32.615
608.75	32.824
609.08	31.994
609.41	32.986
609.75	32.526
610.08	33.136
610.41	33.382
610.74	32.916
611.07	32.465
611.41	32.702
611.74	33.126
612.07	31.787
612.40	32.703
612.73	33.095
613.07	32.040
613.40	32.379
613.73	32.232
614.06	33.057
614.39	31.462
614.72	33.592
615.06	31.611
615.39	31.898
615.72	32.019
616.05	31.926
616.38	31.443
616.71	31.074
617.05	32.371
617.38	31.054
617.71	31.495
618.04	31.505
618.37	31.798
618.70	32.859
619.03	31.959
619.36	31.886
619.69	31.579
620.03	31.731
620.36	30.689
620.69	30.478
621.02	30.769
621.35	30.335
621.68	30.236
622.01	30.421
622.34	30.690
622.67	31.167
623.00	31.155
623.33	31.937
623.66	31.004
623.99	30.908
624.32	31.181
624.65	30.415
624.99	30.419
625.32	30.919
625.65	31.473
625.98	31.043
626.31	30.204
626.64	31.212
626.97	29.412
627.30	29.855
627.63	30.882
627.96	29.004
628.29	31.256
628.62	30.464
628.95	29.559
629.28	30.739
629.61	30.718
629.94	29.594
630.26	30.837
630.59	30.370
630.92	30.020
631.25	29.969
631.58	29.872
631.91	27.041
632.24	30.406
632.57	29.222
632.90	29.755
633.23	28.657
633.56	31.055
633.89	30.383
634.22	31.567
634.55	30.329
634.88	28.186
635.20	31.250
635.53	28.424
635.86	28.590
636.19	29.653
636.52	30.244
636.85	29.795
637.18	28.624
637.51	30.087
637.83	30.026
638.16	29.200
638.49	26.702
638.82	28.497
639.15	28.457
639.48	28.877
639.81	29.583
640.13	28.451
640.46	28.390
640.79	28.058
641.12	26.183
641.45	26.638
641.77	26.804
642.10	27.988
642.43	30.975
642.76	26.025
643.09	27.796
643.41	28.230
643.74	28.918
644.07	27.346
644.40	29.685
644.73	28.644
645.05	28.098
645.38	25.748
645.71	29.252
646.04	25.926
646.36	26.910
646.69	27.622
647.02	27.687
647.35	27.057
647.67	25.693
648.00	26.812
648.33	27.288
648.66	27.880
648.98	29.348
649.31	27.761
649.64	25.665
649.96	27.804
650.29	26.634
650.62	26.030
650.94	25.862
651.27	28.445
651.60	27.098
651.92	27.599
652.25	27.638
652.58	27.888
652.90	28.283
653.23	23.599
653.56	27.438
653.88	25.768
654.21	27.133
654.54	28.738
654.86	27.317
655.19	26.471
655.52	30.883
655.84	31.303
656.17	37.824
656.49	50.004
656.82	49.472
657.15	36.725
657.47	27.471
657.80	20.228
658.13	21.425
658.45	31.175
658.78	30.947
659.10	30.885
659.43	30.295
659.75	29.927
660.08	30.000
660.41	27.181
660.73	27.135
661.06	27.381
661.38	27.519
661.71	27.049
662.03	26.850
662.36	26.549
662.68	28.602
663.01	24.153
663.33	26.350
663.66	24.169
663.98	25.169
664.31	25.055
664.63	21.171
664.96	28.009
665.28	26.180
665.61	26.350
665.93	24.197
666.26	29.536
666.58	25.482
666.91	29.148
667.23	24.885
667.56	26.667
667.88	23.598
668.21	24.107
668.53	24.138
668.86	27.578
669.18	28.132
669.50	26.959
669.83	27.685
670.15	22.143
670.48	22.989
670.80	28.665
671.13	25.858
671.45	26.256
671.77	27.155
672.10	26.121
672.42	30.534
672.75	24.821
673.07	25.818
673.39	28.918
673.72	27.345
674.04	23.566
674.37	26.829
674.69	25.720
675.01	26.282
675.34	26.039
675.66	24.619
675.98	24.779
676.31	26.471
676.63	25.397
676.95	24.235
677.28	23.624
677.60	26.225
677.92	26.829
678.25	25.380
678.57	25.458
678.89	26.439
679.22	23.602
679.54	26.735
679.86	25.000
680.18	26.346
680.51	24.808
680.83	24.172
681.15	26.130
681.48	24.449
681.80	25.153
682.12	25.208
682.44	26.761
682.77	24.000
683.09	26.116
683.41	23.721
683.73	22.768
684.06	24.336
684.38	25.000
684.70	23.422
685.02	26.653
685.34	26.419
685.67	27.955
685.99	26.868
686.31	26.724
686.63	26.654
686.96	30.241
687.28	24.551
687.60	29.112
687.92	27.432
688.24	26.200
688.56	26.974
688.89	24.499
689.21	23.094
689.53	22.973
689.85	24.045
690.17	27.033
690.49	25.604
690.82	26.253
691.14	22.947
691.46	26.450
691.78	29.231
692.10	26.752
692.42	23.736
692.74	27.174
693.06	24.494
693.39	25.995
693.71	25.333
694.03	26.364
694.35	23.198
694.67	28.000
694.99	27.320
695.31	25.581
695.63	25.854
695.95	21.374
696.27	26.301
696.59	21.237
696.91	21.788
697.23	24.112
697.56	26.379
697.88	25.364
698.20	26.998
698.52	24.766
698.84	24.641
699.16	23.641
699.48	25.432
699.80	25.840
700.12	26.542
700.44	22.817
700.76	19.101
701.08	27.190
701.40	24.251
701.72	21.846
702.04	22.956
702.36	22.866
702.68	21.646
703.00	23.684
703.32	19.499
703.64	25.904
703.96	25.220
704.28	22.289
704.60	22.561
704.91	22.884
705.23	21.519
705.55	24.483
705.87	20.423
706.19	24.176
706.51	19.718
706.83	23.248
707.15	22.866
707.47	25.895
707.79	27.157
708.11	23.650
708.43	26.142
708.74	26.862
709.06	24.866
709.38	23.919
709.70	25.526
710.02	23.364
710.34	24.667
710.66	24.430
710.98	24.149
711.29	27.597
711.61	20.645
711.93	21.290
712.25	19.580
712.57	17.895
712.89	21.245
713.20	24.468
713.52	22.993
713.84	23.871
714.16	25.890
714.48	25.316
714.80	26.837
715.11	27.035
715.43	21.118
715.75	24.224
716.07	26.506
716.39	22.222
716.70	26.259
717.02	21.569
717.34	21.591
717.66	19.828
717.97	18.651
718.29	18.110
718.61	23.176
718.93	19.380
719.24	21.033
719.56	17.228
719.88	21.642
720.20	20.949
720.51	23.828
720.83	27.626
721.15	18.293
721.46	24.427
721.78	23.108
722.10	26.693
722.42	19.758
722.73	20.463
723.05	28.163
723.37	27.311
723.68	20.400
724.00	18.723
724.32	23.013
724.63	23.045
724.95	20.940
725.27	26.582
725.58	26.749
725.90	22.594
726.22	23.188
726.53	21.569
726.85	27.372
727.16	23.704
727.48	27.203
727.80	21.875
728.11	22.131
728.43	21.484
728.74	23.016
729.06	19.200
729.38	24.901
729.69	28.114
730.01	21.190
730.32	25.092
730.64	21.591
730.96	25.874
731.27	24.749
731.59	25.079
731.90	20.065
732.22	24.038
732.53	21.959
732.85	21.141
733.16	26.403
733.48	24.662
733.80	21.622
734.11	26.014
734.43	21.053
734.74	28.228
735.06	24.207
735.37	23.708
735.69	24.272
736.00	23.432
736.32	27.305
736.63	25.172
736.95	20.890
737.26	25.517
737.58	26.736
737.89	25.430
738.21	22.776
738.52	21.673
738.83	22.857
739.15	21.941
739.46	22.179
739.78	21.127
740.09	23.973
740.41	24.643
740.72	20.213
741.04	19.600
741.35	19.298
741.66	32.000
741.98	21.635
742.29	23.267
742.61	21.951
742.92	26.316
743.23	21.698
743.55	18.468
743.86	22.422
744.18	23.529
744.49	22.843
744.80	23.469
745.12	21.495
745.43	23.697
745.74	25.225
746.06	26.168
746.37	18.349
746.68	18.750
747.00	21.053
747.31	26.442
747.62	25.688
747.94	27.074
748.25	24.312
748.56	25.333
748.88	27.700
749.19	28.571
749.50	16.505
749.82	22.535
750.13	20.833
750.44	23.077
750.75	21.771
751.07	23.488
751.38	26.241
751.69	27.413
752.01	23.438
752.32	20.385
752.63	23.881
752.94	20.800
753.26	23.013
753.57	25.417
753.88	21.862
754.19	25.498
754.51	20.677
754.82	23.077
755.13	18.261
755.44	28.049
755.75	17.600
756.07	20.664
756.38	21.942
756.69	21.843
757.00	25.857
757.31	24.595
757.63	21.605
757.94	24.294
758.25	23.545
758.56	26.902
758.87	22.321
759.18	20.820
759.50	23.906
759.81	24.415
760.12	26.769
760.43	21.429
760.74	23.446
761.05	25.691
761.36	22.350
761.67	20.544
761.99	21.993
762.30	22.993
762.61	22.634
762.92	26.496
763.23	22.951
763.54	25.541
763.85	20.000
764.16	23.171
764.47	21.200
764.78	23.929
765.10	24.262
765.41	26.444
765.72	22.981
766.03	22.442
766.34	25.385
766.65	21.339
766.96	22.535
767.27	24.257
767.58	12.360
767.89	20.370
768.20	17.680
768.51	23.116
768.82	25.000
769.13	22.566
769.44	21.757
769.75	13.675
770.06	22.422
770.37	24.510
770.68	18.447
770.99	18.447
771.30	18.067
771.61	20.000
771.92	23.237
772.23	17.117
772.54	16.022
772.85	15.698
773.16	23.810
773.47	14.201
773.78	24.138
774.09	21.250
774.39	27.329
774.70	23.129
775.01	14.483
775.32	22.143
775.63	19.549
775.94	6.767
776.25	26.400
776.56	26.446
776.87	16.667
777.18	12.613
777.48	22.523
777.79	20.472
778.10	19.266
778.41	24.561
778.72	15.126
779.03	13.380
779.34	25.000
779.65	19.718
779.95	29.139
780.26	20.863
780.57	17.986
780.88	19.718
781.19	15.126
781.50	24.832
781.80	10.526
782.11	15.698
782.42	25.786
782.73	16.993
783.04	15.172
783.34	10.687
783.65	16.107
783.96	20.769
784.27	22.857
784.57	28.369
784.88	2.885
785.19	35.455
785.50	24.545
785.81	16.190
786.11	16.807
786.42	17.699
786.73	17.925
787.04	0.917
787.34	17.822
787.65	19.167
787.96	14.050
788.26	15.942
788.57	16.667
788.88	21.138
789.19	24.000
789.49	15.267
789.80	30.303
790.11	10.377
790.41	16.832
790.72	26.596
791.03	11.957
791.33	9.412
791.64	16.049
791.95	8.696
792.25	22.727
792.56	32.051
792.87	1.282
793.17	5.128
793.48	22.619
793.79	8.750
794.09	19.231
794.40	22.917
794.70	19.820
795.01	11.719
795.32	24.348
795.62	5.435
795.93	21.698
796.23	17.172
796.54	15.854
796.85	14.286
797.15	18.182
797.46	2.899
797.76	14.474
798.07	13.636
798.37	10.976
798.68	-9.677
798.99	6.757
799.29	27.711
799.60	6.410
799.90	3.077
800.21	22.727
800.51	12.000
800.82	6.667
801.12	-6.250
801.43	0.000
801.73	12.162
802.04	21.429
802.34	6.557
802.65	11.940
802.95	18.182
803.26	12.069
803.56	12.308
803.87	-3.774
804.17	19.355
804.48	11.765
804.78	-2.439
805.09	20.290
805.39	17.647
805.70	-4.255
806.00	15.789
806.30	25.641
806.61	22.368
806.91	18.919
807.22	13.158
807.52	19.318
807.83	-1.695
808.13	-12.121
808.43	10.000
808.74	-12.069
809.04	1.587
809.35	-2.041
809.65	5.000
809.95	-4.082
810.26	18.310
810.56	20.833
810.86	6.122
811.17	17.308
811.47	2.128
811.77	-8.333
812.08	0.000
812.38	-9.375
812.69	7.273
812.99	0.000
813.29	-10.811
813.59	-16.216
813.90	1.818
814.20	-1.818
814.50	8.333
814.81	20.000
815.11	1.754
815.41	16.279
815.72	7.500
816.02	2.857
816.32	-10.811
816.62	-2.083
816.93	13.333
817.23	-20.000
817.53	-22.222
817.84	-35.135
818.14	21.951
818.44	4.000
818.74	8.163
819.04	12.195
819.35	16.667
819.65	20.455
819.95	5.556
820.25	3.030
820.56	-19.048
820.86	0.000
821.16	0.000
821.46	2.174
821.76	-3.448
822.07	-8.696
822.37	6.061
822.67	39.024
822.97	13.514
823.27	-20.000
823.57	20.690
823.88	-35.294
824.18	5.556
824.48	-5.714
824.78	-42.857
825.08	-32.143
825.38	3.704
825.69	-19.355
825.99	-19.512
826.29	-3.704
826.59	-18.750
826.89	-29.032
827.19	-21.739
827.49	-2.778
827.79	-52.174
828.09	-22.581
828.39	14.583
828.70	-31.250
829.00	-13.793
829.30	8.108
829.60	-33.333
829.90	3.704
830.20	12.500
830.50	-4.545
830.80	-76.471
831.10	-36.364
831.40	-14.706
831.70	0.000
832.00	9.091
832.30	29.412
832.60	2.703
832.90	1600.000
833.20	10.714
833.50	-75.000
833.80	18.421
834.10	-62.500
834.40	-95.455
834.70	-53.333
835.00	-110.000
835.30	-25.000
835.60	-23.810
835.90	28.571
836.20	8.000
836.50	-29.167
836.80	-63.158
837.10	24.324
837.40	3.333
837.70	-30.435
838.00	-4.167
838.30	10.526
838.60	-100.000
838.90	-250.000
839.19	-66.667
839.49	-23.077
839.79	-36.842
840.09	-216.667
840.39	-110.000
840.69	-54.545
840.99	-42.857
841.29	4.167
841.59	-53.846
841.88	-113.333
842.18	-35.714
842.48	-10.000
842.78	-314.286
843.08	-21.429
843.38	-87.500
843.68	-93.750
843.97	14.286
844.27	-111.111
844.57	-109.091
844.87	-40.000
845.17	9.091
845.47	800.000
845.76	20.000
846.06	-16.667
846.36	-600.000
846.66	21.053
846.96	-36.364
847.25	-116.667
847.55	-177.778
847.85	-14.286
848.15	15.385
848.44	-283.333
848.74	-25.000
849.04	-53.846
849.34	-325.000
849.63	-100.000
849.93	-92.857
850.23	20.000
850.53	-225.000
850.82	33.333
851.12	-73.333
851.42	17.647
851.71	12.500
852.01	-23.529
852.31	-53.846
852.61	850.000
852.90	-35.294
853.20	-33.333
853.50	-81.250
853.79	-92.857
854.09	-275.000
854.39	-45.000
854.68	-7.500
854.98	-14.286
855.28	8.000
855.57	4.167
855.87	-4.167
856.17	-32.000
856.46	9.375
856.76	0.000
857.05	-8.000
857.35	-100.000
857.65	-47.059
857.94	-83.333
858.24	-133.333
858.53	0.000
858.83	-54.545
859.13	20.000
859.42	-35.714
859.72	-150.000
860.01	-8.333
860.31	-287.500
860.60	-62.500
860.90	-233.333
861.20	-33.333
861.49	53.333
861.79	-87.500
862.08	400.000
862.38	-41.667
862.67	185.714
862.97	-25.000
863.26	-72.727
863.56	-100.000
863.85	10.526
864.15	29.412
864.44	-300.000
864.74	-40.000
865.03	-166.667
865.33	-57.143
865.62	192.857
865.92	-5.263
866.21	-55.556
866.51	-109.091
866.80	-77.778
867.10	-212.500
867.39	-37.500
867.69	-80.000
867.98	-130.000
868.27	11.765
868.57	0.000
868.86	550.000
869.16	-100.000
869.45	-200.000
869.75	50.000
870.04	-20.000
870.33	-1400.000
870.63	-21.053
870.92	-41.667
871.22	-800.000
871.51	-200.000
871.80	-166.667
872.10	-325.000
>>>>>End Processed Spectral Data<<<<<
