SpectraSuite Data File
++++++++++++++++++++++++++++++++++++
Date: Wed May 13 21:42:47 PDT 2015
User: schluterlab
Dark Spectrum Present: Yes
Reference Spectrum Present: Yes
Number of Sampled Component Spectra: 1
Spectrometers: USB2E3373
Integration Time (usec): 3000 (USB2E3373)
Spectra Averaged: 3 (USB2E3373)
Boxcar Smoothing: 0 (USB2E3373)
Correct for Electrical Dark: No (USB2E3373)
Strobe/Lamp Enabled: No (USB2E3373)
Correct for Detector Non-linearity: No (USB2E3373)
Correct for Stray Light: No (USB2E3373)
Number of Pixels in Processed Spectrum: 2048
>>>>>Begin Processed Spectral Data<<<<<
178.53	0.000
178.91	400.000
179.29	191.667
179.67	-850.000
180.04	-466.667
180.42	60.000
180.80	1400.000
181.18	350.000
181.56	-200.000
181.94	200.000
182.31	0.000
182.69	169.231
183.07	-300.000
183.45	266.667
183.83	233.333
184.20	228.571
184.58	-166.667
184.96	566.667
185.34	157.143
185.72	0.000
186.09	-500.000
186.47	-40.000
186.85	80.000
187.23	-50.000
187.61	200.000
187.98	1400.000
188.36	-12.500
188.74	0.000
189.12	36.364
189.49	-40.000
189.87	75.000
190.25	140.000
190.63	900.000
191.00	100.000
191.38	340.000
191.76	275.000
192.14	133.333
192.51	0.000
192.89	466.667
193.27	225.000
193.65	-300.000
194.02	127.273
194.40	250.000
194.78	-600.000
195.15	200.000
195.53	-140.000
195.91	-25.000
196.29	33.333
196.66	0.000
197.04	200.000
197.42	-200.000
197.79	-20.000
198.17	-25.000
198.55	-200.000
198.92	225.000
199.30	-533.333
199.68	-50.000
200.05	200.000
200.43	183.333
200.81	-800.000
201.18	-20.000
201.56	-116.667
201.94	550.000
202.31	17.391
202.69	-57.143
203.07	-433.333
203.44	-40.000
203.82	-433.333
204.19	-90.000
204.57	0.000
204.95	-33.333
205.32	0.000
205.70	-500.000
206.08	-175.000
206.45	-33.333
206.83	475.000
207.20	-266.667
207.58	-40.000
207.96	-1400.000
208.33	-157.143
208.71	-1100.000
209.08	125.000
209.46	425.000
209.84	0.000
210.21	190.000
210.59	1900.000
210.96	280.000
211.34	1000.000
211.71	-800.000
212.09	-150.000
212.46	-120.000
212.84	-200.000
213.22	-25.000
213.59	-600.000
213.97	-250.000
214.34	-850.000
214.72	-30.769
215.09	250.000
215.47	44.444
215.84	600.000
216.22	-75.000
216.59	-400.000
216.97	466.667
217.34	177.778
217.72	0.000
218.09	133.333
218.47	-500.000
218.84	42.857
219.22	-200.000
219.59	-566.667
219.97	-175.000
220.34	-87.500
220.72	-60.000
221.09	0.000
221.47	0.000
221.84	-1100.000
222.22	0.000
222.59	700.000
222.97	-200.000
223.34	-25.000
223.72	-600.000
224.09	-400.000
224.46	-63.636
224.84	-112.500
225.21	-100.000
225.59	-250.000
225.96	-100.000
226.34	-70.000
226.71	-142.857
227.08	800.000
227.46	-137.500
227.83	-100.000
228.21	0.000
228.58	-275.000
228.95	-47.059
229.33	-6.250
229.70	37.500
230.08	-7.692
230.45	-212.500
230.82	-108.333
231.20	257.143
231.57	-250.000
231.95	1500.000
232.32	25.000
232.69	-23.529
233.07	-1100.000
233.44	-30.435
233.81	-400.000
234.19	33.333
234.56	-66.667
234.93	-66.667
235.31	-10.526
235.68	-84.615
236.05	0.000
236.43	-33.333
236.80	-18.182
237.17	-46.667
237.55	0.000
237.92	-20.690
238.29	7.407
238.67	8.333
239.04	-22.581
239.41	17.021
239.79	27.660
240.16	9.302
240.53	8.929
240.91	10.714
241.28	30.357
241.65	25.806
242.02	10.526
242.40	36.232
242.77	7.246
243.14	19.231
243.51	26.596
243.89	16.346
244.26	23.585
244.63	9.615
245.00	25.000
245.38	21.849
245.75	18.033
246.12	27.068
246.49	17.886
246.87	19.328
247.24	31.081
247.61	21.854
247.98	30.128
248.36	14.201
248.73	23.034
249.10	23.232
249.47	24.194
249.84	30.526
250.22	27.861
250.59	23.832
250.96	27.727
251.33	18.660
251.70	28.452
252.08	24.268
252.45	29.630
252.82	25.856
253.19	25.681
253.56	26.619
253.94	31.317
254.31	23.944
254.68	30.872
255.05	27.063
255.42	26.923
255.79	26.074
256.16	25.552
256.54	27.619
256.91	28.165
257.28	27.673
257.65	22.611
258.02	26.393
258.39	27.485
258.76	25.291
259.14	25.568
259.51	25.000
259.88	30.894
260.25	29.444
260.62	26.404
260.99	28.912
261.36	26.425
261.73	26.667
262.10	26.209
262.47	24.198
262.85	27.363
263.22	26.154
263.59	25.974
263.96	26.521
264.33	25.962
264.70	26.279
265.07	28.009
265.44	28.046
265.81	27.689
266.18	27.790
266.55	26.638
266.92	27.119
267.29	26.337
267.66	28.450
268.03	28.601
268.40	23.729
268.77	26.240
269.14	27.551
269.51	29.363
269.88	28.310
270.25	27.966
270.62	27.254
270.99	29.724
271.36	26.984
271.73	29.518
272.10	27.810
272.47	25.912
272.84	27.559
273.21	28.180
273.58	26.025
273.95	24.717
274.32	28.545
274.69	29.326
275.06	28.975
275.43	27.495
275.80	26.773
276.17	28.177
276.54	25.933
276.91	27.178
277.28	23.646
277.65	26.224
278.02	27.500
278.39	26.643
278.76	25.418
279.13	26.415
279.50	25.517
279.87	23.732
280.23	27.748
280.60	24.913
280.97	26.948
281.34	28.864
281.71	24.553
282.08	26.325
282.45	25.082
282.82	24.920
283.19	26.982
283.56	25.156
283.92	26.606
284.29	23.401
284.66	24.712
285.03	24.430
285.40	24.471
285.77	25.526
286.14	27.204
286.51	27.136
286.87	25.846
287.24	26.254
287.61	26.657
287.98	26.471
288.35	24.739
288.72	24.964
289.08	23.789
289.45	24.523
289.82	25.265
290.19	24.264
290.56	22.869
290.93	24.586
291.29	24.350
291.66	25.137
292.03	24.114
292.40	23.419
292.77	24.230
293.13	24.686
293.50	24.052
293.87	25.200
294.24	24.339
294.60	24.707
294.97	24.339
295.34	22.296
295.71	24.179
296.08	23.037
296.44	23.214
296.81	22.046
297.18	24.125
297.55	22.877
297.91	22.733
298.28	24.576
298.65	22.291
299.02	24.176
299.38	22.209
299.75	22.837
300.12	22.326
300.48	24.094
300.85	24.596
301.22	23.577
301.59	22.770
301.95	22.300
302.32	23.104
302.69	21.695
303.05	24.031
303.42	23.977
303.79	22.713
304.15	24.206
304.52	24.516
304.89	24.031
305.25	22.503
305.62	23.210
305.99	23.830
306.35	25.183
306.72	23.398
307.09	23.566
307.45	23.962
307.82	23.579
308.19	22.884
308.55	24.463
308.92	25.049
309.29	24.424
309.65	22.777
310.02	23.559
310.38	25.000
310.75	25.345
311.12	26.725
311.48	24.728
311.85	25.787
312.22	26.692
312.58	25.024
312.95	26.766
313.31	26.171
313.68	26.908
314.05	27.032
314.41	27.666
314.78	27.989
315.14	27.037
315.51	27.688
315.87	27.989
316.24	28.650
316.61	28.219
316.97	27.870
317.34	29.679
317.70	28.903
318.07	30.169
318.43	29.630
318.80	29.668
319.16	30.150
319.53	30.466
319.89	30.804
320.26	29.760
320.62	31.696
320.99	31.202
321.35	31.431
321.72	30.414
322.08	31.365
322.45	31.822
322.81	32.255
323.18	32.916
323.54	34.206
323.91	34.598
324.27	33.483
324.64	32.753
325.00	33.683
325.37	34.556
325.73	34.343
326.10	34.483
326.46	34.281
326.83	34.466
327.19	35.691
327.56	36.906
327.92	35.559
328.29	37.145
328.65	38.913
329.01	38.259
329.38	39.304
329.74	38.197
330.11	38.503
330.47	38.542
330.84	38.267
331.20	37.148
331.56	39.855
331.93	39.190
332.29	40.921
332.66	39.746
333.02	40.660
333.38	39.825
333.75	39.932
334.11	42.622
334.48	40.715
334.84	39.841
335.20	40.480
335.57	40.209
335.93	38.488
336.29	41.068
336.66	39.829
337.02	40.435
337.38	40.122
337.75	40.310
338.11	40.478
338.47	40.839
338.84	40.378
339.20	41.358
339.56	41.041
339.93	41.141
340.29	40.564
340.65	40.719
341.02	39.101
341.38	40.625
341.74	40.168
342.11	40.545
342.47	40.167
342.83	40.605
343.20	40.186
343.56	40.392
343.92	39.399
344.28	39.935
344.65	40.082
345.01	40.032
345.37	39.720
345.73	40.441
346.10	38.844
346.46	37.724
346.82	39.326
347.19	37.104
347.55	39.822
347.91	38.270
348.27	39.274
348.63	39.824
349.00	39.072
349.36	38.462
349.72	39.520
350.08	38.924
350.45	39.233
350.81	39.515
351.17	39.184
351.53	38.413
351.89	38.284
352.26	37.915
352.62	39.302
352.98	39.617
353.34	38.969
353.70	38.240
354.07	37.725
354.43	37.014
354.79	39.583
355.15	38.975
355.51	38.345
355.87	38.624
356.24	37.079
356.60	38.702
356.96	37.759
357.32	38.313
357.68	39.037
358.04	38.092
358.40	38.140
358.77	39.297
359.13	39.300
359.49	38.607
359.85	37.908
360.21	37.857
360.57	38.327
360.93	38.695
361.29	36.640
361.66	37.585
362.02	37.658
362.38	38.479
362.74	36.838
363.10	38.178
363.46	37.896
363.82	37.768
364.18	37.056
364.54	37.783
364.90	37.909
365.26	37.650
365.62	36.932
365.98	37.367
366.35	38.156
366.71	37.233
367.07	37.704
367.43	37.073
367.79	37.040
368.15	37.834
368.51	36.287
368.87	37.334
369.23	37.367
369.59	37.350
369.95	36.357
370.31	36.262
370.67	36.785
371.03	37.788
371.39	37.048
371.75	36.571
372.11	37.108
372.47	37.058
372.83	36.685
373.19	36.403
373.55	36.777
373.91	36.139
374.27	35.339
374.63	37.411
374.99	35.585
375.35	36.233
375.71	36.277
376.07	36.189
376.42	35.361
376.78	36.790
377.14	37.831
377.50	36.245
377.86	36.122
378.22	35.651
378.58	35.939
378.94	36.625
379.30	36.415
379.66	35.697
380.02	36.213
380.38	35.241
380.74	36.820
381.09	35.826
381.45	36.518
381.81	36.044
382.17	34.468
382.53	36.369
382.89	34.801
383.25	34.938
383.61	36.441
383.97	35.687
384.32	35.350
384.68	34.793
385.04	34.637
385.40	35.056
385.76	34.489
386.12	35.636
386.48	35.110
386.83	34.606
387.19	34.608
387.55	35.071
387.91	35.732
388.27	35.512
388.62	36.205
388.98	35.920
389.34	35.714
389.70	34.310
390.06	35.938
390.42	35.438
390.77	34.145
391.13	35.732
391.49	34.725
391.85	34.633
392.20	34.461
392.56	34.540
392.92	34.465
393.28	34.108
393.64	35.352
393.99	33.293
394.35	34.753
394.71	34.167
395.07	33.082
395.42	33.516
395.78	33.462
396.14	33.798
396.50	33.354
396.85	34.672
397.21	34.519
397.57	34.534
397.92	33.653
398.28	34.405
398.64	33.333
399.00	33.650
399.35	33.882
399.71	34.362
400.07	33.434
400.42	33.354
400.78	33.474
401.14	33.415
401.49	32.774
401.85	33.231
402.21	33.932
402.57	33.476
402.92	33.605
403.28	33.583
403.63	33.602
403.99	33.141
404.35	33.853
404.70	32.870
405.06	33.059
405.42	32.726
405.77	32.373
406.13	32.857
406.49	33.253
406.84	33.089
407.20	32.623
407.55	33.247
407.91	32.495
408.27	32.065
408.62	32.781
408.98	32.429
409.34	33.354
409.69	33.333
410.05	33.644
410.40	32.380
410.76	32.792
411.11	32.960
411.47	33.776
411.83	32.190
412.18	33.123
412.54	33.271
412.89	32.602
413.25	30.501
413.60	32.915
413.96	32.647
414.31	32.491
414.67	32.063
415.03	33.153
415.38	32.299
415.74	32.814
416.09	32.452
416.45	32.878
416.80	32.215
417.16	33.198
417.51	32.753
417.87	32.341
418.22	31.997
418.58	32.523
418.93	31.576
419.29	33.663
419.64	32.697
420.00	33.460
420.35	31.859
420.71	31.566
421.06	32.780
421.42	32.482
421.77	33.353
422.12	32.951
422.48	32.552
422.83	32.310
423.19	32.662
423.54	33.157
423.90	32.304
424.25	32.293
424.61	32.656
424.96	32.348
425.31	32.473
425.67	33.039
426.02	33.098
426.38	32.587
426.73	32.621
427.09	32.770
427.44	32.590
427.79	32.838
428.15	33.333
428.50	32.749
428.85	33.026
429.21	32.245
429.56	33.900
429.92	33.889
430.27	33.333
430.62	33.736
430.98	32.946
431.33	32.886
431.68	33.813
432.04	32.789
432.39	32.737
432.74	32.802
433.10	33.934
433.45	33.550
433.80	34.080
434.16	33.697
434.51	33.207
434.86	32.921
435.22	33.220
435.57	33.784
435.92	33.293
436.28	33.574
436.63	33.314
436.98	33.255
437.34	33.394
437.69	33.412
438.04	33.560
438.39	33.811
438.75	34.207
439.10	34.702
439.45	34.383
439.81	35.037
440.16	34.841
440.51	34.899
440.86	34.558
441.22	34.137
441.57	34.761
441.92	33.904
442.27	33.171
442.63	33.854
442.98	34.259
443.33	34.368
443.68	33.685
444.03	35.072
444.39	35.300
444.74	34.511
445.09	33.315
445.44	34.648
445.79	34.796
446.15	35.552
446.50	34.857
446.85	35.542
447.20	35.337
447.55	35.702
447.91	35.449
448.26	35.277
448.61	36.018
448.96	36.105
449.31	35.865
449.66	35.685
450.02	36.043
450.37	35.546
450.72	35.706
451.07	36.113
451.42	35.309
451.77	36.336
452.12	36.185
452.47	37.573
452.83	35.024
453.18	36.219
453.53	36.129
453.88	37.229
454.23	36.959
454.58	36.213
454.93	36.434
455.28	37.444
455.63	35.870
455.98	36.762
456.34	36.554
456.69	37.636
457.04	36.533
457.39	36.801
457.74	36.804
458.09	37.026
458.44	36.545
458.79	36.189
459.14	36.292
459.49	36.707
459.84	36.359
460.19	35.714
460.54	37.591
460.89	36.543
461.24	36.683
461.59	38.647
461.94	37.800
462.29	37.255
462.64	37.005
462.99	37.357
463.34	37.707
463.69	37.178
464.04	36.915
464.39	37.462
464.74	37.224
465.09	37.818
465.44	36.756
465.79	37.550
466.14	38.312
466.49	38.182
466.84	38.553
467.19	37.834
467.54	38.561
467.89	38.592
468.24	38.414
468.59	38.177
468.94	38.697
469.29	39.326
469.64	38.912
469.99	39.517
470.34	38.705
470.68	37.621
471.03	37.729
471.38	38.039
471.73	39.438
472.08	40.069
472.43	39.710
472.78	39.689
473.13	37.269
473.48	38.226
473.83	38.104
474.17	37.630
474.52	39.159
474.87	38.239
475.22	39.130
475.57	37.758
475.92	39.531
476.27	39.219
476.61	39.354
476.96	39.463
477.31	38.997
477.66	39.887
478.01	38.736
478.36	39.128
478.70	38.507
479.05	39.734
479.40	39.210
479.75	39.426
480.10	39.164
480.45	39.186
480.79	40.418
481.14	39.362
481.49	39.714
481.84	38.501
482.19	39.602
482.53	39.667
482.88	39.262
483.23	38.499
483.58	40.170
483.92	39.591
484.27	39.936
484.62	39.192
484.97	39.112
485.31	39.315
485.66	37.949
486.01	38.665
486.36	38.829
486.70	39.199
487.05	39.366
487.40	39.017
487.75	39.966
488.09	39.975
488.44	39.748
488.79	40.386
489.13	40.239
489.48	40.573
489.83	41.581
490.17	40.717
490.52	41.421
490.87	40.427
491.22	40.933
491.56	40.872
491.91	40.278
492.26	41.103
492.60	40.741
492.95	41.788
493.30	40.504
493.64	41.151
493.99	42.077
494.34	42.341
494.68	41.623
495.03	40.860
495.37	40.535
495.72	41.805
496.07	41.354
496.41	40.664
496.76	41.362
497.11	41.221
497.45	41.732
497.80	42.504
498.14	41.159
498.49	40.948
498.84	42.004
499.18	42.061
499.53	40.965
499.87	41.388
500.22	41.663
500.56	42.026
500.91	43.410
501.26	42.118
501.60	41.765
501.95	42.166
502.29	42.621
502.64	42.044
502.98	42.052
503.33	42.774
503.67	41.821
504.02	41.765
504.36	42.496
504.71	43.140
505.06	43.250
505.40	42.680
505.75	42.421
506.09	42.718
506.44	41.935
506.78	42.458
507.13	41.580
507.47	43.001
507.82	42.334
508.16	43.113
508.51	42.562
508.85	42.405
509.19	42.698
509.54	43.539
509.88	42.581
510.23	43.158
510.57	43.167
510.92	43.373
511.26	43.729
511.61	44.566
511.95	43.881
512.30	43.420
512.64	44.835
512.98	43.380
513.33	43.211
513.67	44.634
514.02	44.812
514.36	44.157
514.70	44.111
515.05	44.236
515.39	44.634
515.74	44.050
516.08	43.068
516.42	44.412
516.77	43.937
517.11	45.679
517.46	44.358
517.80	46.126
518.14	44.336
518.49	44.304
518.83	44.272
519.17	43.795
519.52	43.667
519.86	45.173
520.20	45.058
520.55	44.403
520.89	44.592
521.23	46.282
521.58	45.006
521.92	45.003
522.26	43.917
522.61	44.926
522.95	45.596
523.29	45.587
523.64	46.027
523.98	44.727
524.32	44.928
524.66	45.390
525.01	45.937
525.35	45.820
525.69	45.063
526.04	44.756
526.38	45.889
526.72	45.036
527.06	45.326
527.41	44.805
527.75	44.660
528.09	46.494
528.43	47.422
528.78	44.961
529.12	47.801
529.46	45.489
529.80	45.955
530.15	45.045
530.49	46.833
530.83	46.175
531.17	45.616
531.51	45.381
531.86	45.935
532.20	45.210
532.54	46.138
532.88	46.426
533.22	47.273
533.57	46.887
533.91	45.871
534.25	46.680
534.59	45.946
534.93	45.791
535.27	46.815
535.62	46.316
535.96	46.454
536.30	45.612
536.64	47.027
536.98	46.251
537.32	46.406
537.66	47.320
538.01	46.533
538.35	47.307
538.69	47.759
539.03	45.839
539.37	45.674
539.71	47.203
540.05	46.626
540.39	47.281
540.73	47.696
541.07	45.918
541.42	45.926
541.76	47.361
542.10	46.445
542.44	46.847
542.78	47.814
543.12	46.294
543.46	47.132
543.80	46.300
544.14	47.832
544.48	45.786
544.82	47.747
545.16	46.924
545.50	48.683
545.84	46.985
546.18	47.896
546.52	47.283
546.86	47.279
547.20	46.819
547.54	47.320
547.88	48.448
548.22	47.948
548.56	48.032
548.90	47.361
549.24	48.750
549.58	47.046
549.92	48.863
550.26	48.413
550.60	48.874
550.94	48.433
551.28	47.615
551.62	49.023
551.96	48.097
552.30	47.962
552.64	47.740
552.98	48.580
553.32	48.738
553.66	49.743
554.00	48.740
554.34	48.278
554.68	50.037
555.02	48.578
555.36	49.017
555.69	47.779
556.03	49.464
556.37	48.720
556.71	47.652
557.05	48.413
557.39	49.435
557.73	50.681
558.07	48.681
558.41	48.372
558.75	48.730
559.08	48.837
559.42	49.646
559.76	48.089
560.10	49.424
560.44	49.226
560.78	49.784
561.12	49.264
561.45	49.456
561.79	48.762
562.13	50.070
562.47	48.643
562.81	48.485
563.15	48.513
563.48	49.209
563.82	48.837
564.16	48.747
564.50	49.254
564.84	48.514
565.17	49.272
565.51	49.198
565.85	48.568
566.19	49.338
566.52	49.476
566.86	48.420
567.20	50.031
567.54	47.726
567.88	48.488
568.21	47.637
568.55	48.618
568.89	47.707
569.23	47.800
569.56	47.351
569.90	46.856
570.24	47.148
570.57	46.435
570.91	46.538
571.25	47.866
571.59	46.272
571.92	47.727
572.26	48.025
572.60	48.106
572.93	48.110
573.27	47.434
573.61	47.855
573.95	48.043
574.28	47.796
574.62	47.494
574.96	47.933
575.29	48.470
575.63	49.236
575.97	48.750
576.30	48.238
576.64	49.306
576.98	48.259
577.31	47.134
577.65	47.471
577.98	47.900
578.32	48.059
578.66	48.868
578.99	49.085
579.33	48.251
579.67	49.007
580.00	48.795
580.34	49.540
580.67	49.363
581.01	48.717
581.35	48.445
581.68	48.533
582.02	49.045
582.35	48.989
582.69	49.237
583.02	48.703
583.36	49.282
583.70	48.730
584.03	49.124
584.37	48.497
584.70	49.401
585.04	49.781
585.37	49.939
585.71	49.735
586.04	49.724
586.38	48.882
586.72	49.621
587.05	50.649
587.39	49.633
587.72	49.867
588.06	49.904
588.39	49.594
588.73	50.692
589.06	50.760
589.40	49.776
589.73	49.731
590.07	50.164
590.40	50.133
590.73	52.350
591.07	51.525
591.40	50.783
591.74	51.045
592.07	51.438
592.41	51.351
592.74	51.196
593.08	51.487
593.41	50.482
593.75	50.775
594.08	50.743
594.41	51.700
594.75	50.787
595.08	51.792
595.42	50.251
595.75	51.338
596.09	52.540
596.42	51.511
596.75	52.918
597.09	52.002
597.42	52.535
597.75	51.956
598.09	52.277
598.42	52.528
598.76	52.015
599.09	53.421
599.42	51.964
599.76	53.136
600.09	53.652
600.42	52.618
600.76	52.365
601.09	53.597
601.42	52.176
601.76	52.394
602.09	52.939
602.42	52.456
602.76	51.720
603.09	53.142
603.42	52.179
603.76	52.221
604.09	52.727
604.42	52.825
604.76	52.684
605.09	53.693
605.42	53.621
605.75	52.891
606.09	53.974
606.42	52.743
606.75	52.900
607.09	53.413
607.42	54.072
607.75	53.085
608.08	54.689
608.42	54.358
608.75	54.037
609.08	54.679
609.41	53.552
609.75	53.959
610.08	54.241
610.41	55.442
610.74	53.850
611.07	54.309
611.41	54.452
611.74	55.124
612.07	53.361
612.40	55.405
612.73	55.049
613.07	54.712
613.40	54.846
613.73	55.038
614.06	53.731
614.39	54.919
614.72	54.914
615.06	54.722
615.39	55.298
615.72	54.374
616.05	56.644
616.38	55.097
616.71	55.069
617.05	56.572
617.38	54.590
617.71	55.025
618.04	54.845
618.37	56.656
618.70	55.433
619.03	55.258
619.36	56.014
619.69	56.652
620.03	55.053
620.36	56.159
620.69	55.817
621.02	55.385
621.35	56.500
621.68	55.746
622.01	55.744
622.34	55.749
622.67	58.183
623.00	57.143
623.33	55.348
623.66	55.836
623.99	56.939
624.32	56.053
624.65	56.751
624.99	57.237
625.32	57.954
625.65	56.202
625.98	57.583
626.31	57.959
626.64	56.836
626.97	57.785
627.30	56.373
627.63	57.612
627.96	56.277
628.29	57.395
628.62	57.447
628.95	57.916
629.28	58.621
629.61	57.416
629.94	57.253
630.26	58.719
630.59	58.541
630.92	56.928
631.25	57.981
631.58	57.281
631.91	56.310
632.24	57.300
632.57	58.222
632.90	61.027
633.23	57.314
633.56	58.153
633.89	57.536
634.22	59.128
634.55	59.440
634.88	58.456
635.20	57.750
635.53	58.915
635.86	59.103
636.19	59.429
636.52	57.927
636.85	58.625
637.18	58.343
637.51	57.428
637.83	59.399
638.16	59.200
638.49	59.680
638.82	58.693
639.15	59.309
639.48	60.561
639.81	58.333
640.13	59.859
640.46	58.616
640.79	59.281
641.12	60.059
641.45	56.914
641.77	59.941
642.10	57.943
642.43	59.748
642.76	59.148
643.09	59.425
643.41	57.576
643.74	59.289
644.07	58.252
644.40	58.541
644.73	63.051
645.05	61.431
645.38	57.641
645.71	60.374
646.04	57.576
646.36	61.458
646.69	58.392
647.02	60.656
647.35	60.878
647.67	62.662
648.00	59.239
648.33	57.119
648.66	57.596
648.98	58.851
649.31	59.356
649.64	59.155
649.96	62.243
650.29	58.660
650.62	57.825
650.94	57.931
651.27	60.071
651.60	59.790
651.92	63.082
652.25	59.799
652.58	61.056
652.90	61.111
653.23	58.744
653.56	58.843
653.88	59.727
654.21	61.092
654.54	58.804
654.86	59.837
655.19	58.683
655.52	59.897
655.84	57.105
656.17	68.228
656.49	89.952
656.82	88.791
657.15	67.529
657.47	49.681
657.80	37.504
658.13	40.202
658.45	58.845
658.78	57.929
659.10	57.828
659.43	57.823
659.75	57.066
660.08	59.379
660.41	58.114
660.73	58.678
661.06	60.034
661.38	62.403
661.71	61.270
662.03	62.368
662.36	62.168
662.68	62.366
663.01	63.136
663.33	61.987
663.66	60.754
663.98	58.876
664.31	61.758
664.63	59.685
664.96	63.020
665.28	61.159
665.61	62.419
665.93	57.816
666.26	61.392
666.58	59.957
666.91	63.004
667.23	62.903
667.56	60.690
667.88	61.916
668.21	57.812
668.53	59.770
668.86	64.269
669.18	60.993
669.50	62.673
669.83	63.723
670.15	60.476
670.48	62.759
670.80	61.926
671.13	62.014
671.45	63.927
671.77	60.776
672.10	59.064
672.42	63.168
672.75	60.357
673.07	60.182
673.39	62.873
673.72	61.477
674.04	63.525
674.37	59.553
674.69	59.259
675.01	59.402
675.34	61.926
675.66	60.131
675.98	59.292
676.31	60.860
676.63	65.760
676.95	63.294
677.28	59.174
677.60	60.539
677.92	60.976
678.25	64.642
678.57	59.063
678.89	62.047
679.22	61.905
679.54	63.061
679.86	58.008
680.18	60.962
680.51	59.038
680.83	58.480
681.15	59.332
681.48	59.719
681.80	60.327
682.12	58.333
682.44	61.972
682.77	55.579
683.09	60.268
683.41	60.000
683.73	61.384
684.06	61.062
684.38	56.838
684.70	60.692
685.02	64.669
685.34	60.665
685.67	62.289
685.99	62.278
686.31	60.345
686.63	59.007
686.96	60.853
687.28	60.080
687.60	63.705
687.92	60.700
688.24	60.400
688.56	64.912
688.89	59.243
689.21	59.641
689.53	57.432
689.85	58.427
690.17	61.099
690.49	61.594
690.82	59.427
691.14	62.560
691.46	61.485
691.78	61.099
692.10	61.571
692.42	57.363
692.74	60.000
693.06	61.348
693.39	59.016
693.71	56.444
694.03	61.364
694.35	57.207
694.67	63.750
694.99	60.052
695.31	57.106
695.63	62.683
695.95	60.051
696.27	61.096
696.59	59.946
696.91	59.218
697.23	61.675
697.56	62.350
697.88	59.459
698.20	61.555
698.52	60.981
698.84	55.502
699.16	60.757
699.48	60.247
699.80	63.566
700.12	66.220
700.44	62.817
700.76	60.393
701.08	62.236
701.40	58.683
701.72	58.462
702.04	57.233
702.36	60.671
702.68	58.537
703.00	61.988
703.32	61.560
703.64	62.349
703.96	60.704
704.28	60.241
704.60	60.671
704.91	55.172
705.23	57.595
705.55	61.724
705.87	64.437
706.19	58.242
706.51	60.915
706.83	56.369
707.15	61.890
707.47	59.229
707.79	64.213
708.11	59.897
708.43	62.183
708.74	64.894
709.06	56.684
709.38	58.501
709.70	58.559
710.02	56.386
710.34	60.667
710.66	59.935
710.98	60.062
711.29	61.364
711.61	60.000
711.93	57.419
712.25	58.741
712.57	57.193
712.89	58.242
713.20	63.121
713.52	60.219
713.84	57.419
714.16	58.576
714.48	62.025
714.80	56.230
715.11	59.302
715.43	56.211
715.75	60.559
716.07	55.120
716.39	62.626
716.70	64.029
717.02	56.863
717.34	60.227
717.66	54.310
717.97	59.127
718.29	64.173
718.61	61.373
718.93	59.302
719.24	63.100
719.56	56.180
719.88	61.194
720.20	64.822
720.51	59.375
720.83	57.588
721.15	54.065
721.46	59.924
721.78	59.363
722.10	56.972
722.42	58.871
722.73	57.143
723.05	63.673
723.37	59.244
723.68	51.600
724.00	56.596
724.32	53.975
724.63	61.728
724.95	55.128
725.27	62.869
725.58	57.613
725.90	63.180
726.22	59.420
726.53	55.686
726.85	55.474
727.16	57.778
727.48	58.621
727.80	59.375
728.11	55.328
728.43	60.547
728.74	58.333
729.06	58.800
729.38	60.079
729.69	57.651
730.01	53.532
730.32	57.934
730.64	62.121
730.96	61.189
731.27	58.528
731.59	57.778
731.90	57.282
732.22	56.410
732.53	58.108
732.85	57.383
733.16	58.746
733.48	56.081
733.80	56.081
734.11	61.149
734.43	59.443
734.74	59.459
735.06	54.467
735.37	58.359
735.69	56.311
736.00	56.766
736.32	63.121
736.63	58.276
736.95	58.562
737.26	57.241
737.58	62.500
737.89	60.137
738.21	53.381
738.52	54.373
738.83	56.327
739.15	59.916
739.46	58.755
739.78	57.746
740.09	55.822
740.41	54.643
740.72	56.028
741.04	55.600
741.35	60.088
741.66	54.222
741.98	54.808
742.29	62.376
742.61	64.878
742.92	56.579
743.23	62.736
743.55	58.559
743.86	60.090
744.18	50.980
744.49	54.822
744.80	62.755
745.12	54.673
745.43	60.190
745.74	56.757
746.06	56.075
746.37	50.917
746.68	57.212
747.00	58.852
747.31	58.654
747.62	57.798
747.94	57.205
748.25	55.963
748.56	59.111
748.88	60.563
749.19	61.905
749.50	59.709
749.82	56.808
750.13	48.333
750.44	58.462
750.75	56.458
751.07	58.363
751.38	56.383
751.69	60.618
752.01	54.297
752.32	54.615
752.63	54.851
752.94	57.200
753.26	51.464
753.57	56.250
753.88	51.417
754.19	52.590
754.51	57.895
754.82	54.945
755.13	53.913
755.44	60.569
755.75	53.600
756.07	50.554
756.38	56.115
756.69	58.362
757.00	54.517
757.31	59.871
757.63	55.247
757.94	61.017
758.25	54.497
758.56	57.880
758.87	61.012
759.18	54.259
759.50	55.892
759.81	57.860
760.12	58.462
760.43	55.357
760.74	53.955
761.05	55.801
761.36	54.155
761.67	55.589
761.99	57.732
762.30	56.204
762.61	51.852
762.92	58.974
763.23	56.557
763.54	64.502
763.85	57.143
764.16	55.285
764.47	54.800
764.78	53.571
765.10	53.770
765.41	59.271
765.72	53.416
766.03	52.475
766.34	58.462
766.65	50.628
766.96	49.296
767.27	53.465
767.58	46.629
767.89	59.259
768.20	50.276
768.51	52.261
768.82	57.212
769.13	55.752
769.44	54.812
769.75	48.291
770.06	50.673
770.37	54.902
770.68	53.883
770.99	53.883
771.30	53.782
771.61	52.653
771.92	54.772
772.23	47.748
772.54	53.039
772.85	54.070
773.16	54.497
773.47	50.888
773.78	54.598
774.09	56.875
774.39	50.311
774.70	53.741
775.01	53.103
775.32	58.571
775.63	45.113
775.94	45.113
776.25	45.600
776.56	49.587
776.87	52.381
777.18	45.946
777.48	53.153
777.79	44.882
778.10	65.138
778.41	51.754
778.72	54.622
779.03	47.887
779.34	57.432
779.65	54.930
779.95	54.305
780.26	51.799
780.57	58.273
780.88	50.000
781.19	58.824
781.50	58.389
781.80	47.953
782.11	47.674
782.42	51.572
782.73	56.209
783.04	51.034
783.34	48.855
783.65	42.282
783.96	51.538
784.27	60.000
784.57	40.426
784.88	45.192
785.19	54.545
785.50	53.636
785.81	52.381
786.11	47.059
786.42	52.212
786.73	54.717
787.04	49.541
787.34	39.604
787.65	47.500
787.96	55.372
788.26	47.101
788.57	49.206
788.88	47.967
789.19	50.400
789.49	34.351
789.80	48.485
790.11	49.057
790.41	59.406
790.72	44.681
791.03	43.478
791.33	48.235
791.64	64.198
791.95	44.565
792.25	36.364
792.56	48.718
792.87	30.769
793.17	35.897
793.48	40.476
793.79	52.500
794.09	54.808
794.40	61.458
794.70	55.856
795.01	53.906
795.32	46.957
795.62	51.087
795.93	48.113
796.23	51.515
796.54	51.220
796.85	44.048
797.15	36.364
797.46	40.580
797.76	50.000
798.07	47.727
798.37	31.707
798.68	46.774
798.99	20.270
799.29	46.988
799.60	56.410
799.90	66.154
800.21	46.970
800.51	26.667
800.82	44.000
801.12	27.083
801.43	35.000
801.73	35.135
802.04	51.429
802.34	24.590
802.65	52.239
802.95	25.455
803.26	39.655
803.56	38.462
803.87	39.623
804.17	46.774
804.48	41.176
804.78	58.537
805.09	34.783
805.39	41.176
805.70	34.043
806.00	42.105
806.30	38.462
806.61	48.684
806.91	59.459
807.22	27.632
807.52	44.318
807.83	30.508
808.13	33.333
808.43	41.667
808.74	32.759
809.04	39.683
809.35	44.898
809.65	26.667
809.95	24.490
810.26	49.296
810.56	25.000
810.86	30.612
811.17	44.231
811.47	36.170
811.77	37.500
812.08	28.302
812.38	37.500
812.69	30.909
812.99	36.585
813.29	32.432
813.59	27.027
813.90	23.636
814.20	38.182
814.50	25.000
814.81	30.909
815.11	31.579
815.41	34.884
815.72	42.500
816.02	40.000
816.32	16.216
816.62	43.750
816.93	37.778
817.23	8.889
817.53	8.333
817.84	13.514
818.14	9.756
818.44	40.000
818.74	34.694
819.04	43.902
819.35	0.000
819.65	40.909
819.95	5.556
820.25	36.364
820.56	4.762
820.86	11.111
821.16	18.182
821.46	19.565
821.76	22.414
822.07	45.652
822.37	51.515
822.67	63.415
822.97	43.243
823.27	8.571
823.57	37.931
823.88	38.235
824.18	33.333
824.48	25.714
824.78	76.190
825.08	50.000
825.38	18.519
825.69	51.613
825.99	29.268
826.29	18.519
826.59	15.625
826.89	25.806
827.19	0.000
827.49	0.000
827.79	30.435
828.09	35.484
828.39	33.333
828.70	18.750
829.00	13.793
829.30	27.027
829.60	16.667
829.90	59.259
830.20	21.875
830.50	13.636
830.80	-64.706
831.10	22.727
831.40	2.941
831.70	19.231
832.00	33.333
832.30	41.176
832.60	27.027
832.90	200.000
833.20	28.571
833.50	-45.000
833.80	36.842
834.10	0.000
834.40	-27.273
834.70	-53.333
835.00	80.000
835.30	-4.167
835.60	28.571
835.90	28.571
836.20	36.000
836.50	-12.500
836.80	21.053
837.10	-5.405
837.40	33.333
837.70	0.000
838.00	16.667
838.30	47.368
838.60	-70.000
838.90	-100.000
839.19	-125.000
839.49	69.231
839.79	42.105
840.09	-233.333
840.39	50.000
840.69	-13.636
840.99	9.524
841.29	0.000
841.59	-7.692
841.88	-53.333
842.18	-14.286
842.48	36.667
842.78	-157.143
843.08	-71.429
843.38	37.500
843.68	-25.000
843.97	-42.857
844.27	-122.222
844.57	-63.636
844.87	-60.000
845.17	27.273
845.47	166.667
845.76	-33.333
846.06	-41.667
846.36	-950.000
846.66	-10.526
846.96	-4.545
847.25	-55.556
847.55	11.111
847.85	-33.333
848.15	-61.538
848.44	-166.667
848.74	-25.000
849.04	-53.846
849.34	50.000
849.63	-72.727
849.93	-171.429
850.23	-20.000
850.53	-75.000
850.82	-11.111
851.12	-26.667
851.42	-52.941
851.71	37.500
852.01	0.000
852.31	-7.692
852.61	400.000
852.90	-17.647
853.20	46.667
853.50	31.250
853.79	-78.571
854.09	-125.000
854.39	25.000
854.68	27.500
854.98	-23.810
855.28	32.000
855.57	-12.500
855.87	0.000
856.17	-44.000
856.46	28.125
856.76	45.000
857.05	68.000
857.35	8.333
857.65	-11.765
857.94	-25.000
858.24	0.000
858.53	15.000
858.83	-54.545
859.13	-12.000
859.42	-28.571
859.72	-100.000
860.01	-29.167
860.31	-62.500
860.60	-43.750
860.90	-100.000
861.20	-50.000
861.49	-20.000
861.79	-12.500
862.08	100.000
862.38	-41.667
862.67	285.714
862.97	350.000
863.26	-54.545
863.56	-45.455
863.85	73.684
864.15	5.882
864.44	-280.000
864.74	-70.000
865.03	-66.667
865.33	50.000
865.62	142.857
865.92	15.789
866.21	-33.333
866.51	-54.545
866.80	-44.444
867.10	-200.000
867.39	0.000
867.69	0.000
867.98	20.000
868.27	5.882
868.57	0.000
868.86	800.000
869.16	-150.000
869.45	-128.571
869.75	350.000
870.04	-70.000
870.33	-400.000
870.63	5.263
870.92	-33.333
871.22	-700.000
871.51	-200.000
871.80	-66.667
872.10	-250.000
>>>>>End Processed Spectral Data<<<<<
