SpectraSuite Data File
++++++++++++++++++++++++++++++++++++
Date: Wed May 13 21:42:50 PDT 2015
User: schluterlab
Dark Spectrum Present: Yes
Reference Spectrum Present: Yes
Number of Sampled Component Spectra: 1
Spectrometers: USB2E3373
Integration Time (usec): 3000 (USB2E3373)
Spectra Averaged: 3 (USB2E3373)
Boxcar Smoothing: 0 (USB2E3373)
Correct for Electrical Dark: No (USB2E3373)
Strobe/Lamp Enabled: No (USB2E3373)
Correct for Detector Non-linearity: No (USB2E3373)
Correct for Stray Light: No (USB2E3373)
Number of Pixels in Processed Spectrum: 2048
>>>>>Begin Processed Spectral Data<<<<<
178.53	0.000
178.91	350.000
179.29	216.667
179.67	-300.000
180.04	-600.000
180.42	240.000
180.80	1200.000
181.18	300.000
181.56	-475.000
181.94	-325.000
182.31	-9.091
182.69	153.846
183.07	-280.000
183.45	233.333
183.83	155.556
184.20	142.857
184.58	-66.667
184.96	366.667
185.34	385.714
185.72	0.000
186.09	-700.000
186.47	-380.000
186.85	340.000
187.23	0.000
187.61	1050.000
187.98	1500.000
188.36	-25.000
188.74	0.000
189.12	-45.455
189.49	50.000
189.87	158.333
190.25	260.000
190.63	1800.000
191.00	-20.000
191.38	240.000
191.76	250.000
192.14	108.333
192.51	-21.053
192.89	366.667
193.27	250.000
193.65	-160.000
194.02	136.364
194.40	210.000
194.78	-900.000
195.15	380.000
195.53	-280.000
195.91	-137.500
196.29	-200.000
196.66	0.000
197.04	200.000
197.42	0.000
197.79	-20.000
198.17	-37.500
198.55	-200.000
198.92	100.000
199.30	-400.000
199.68	40.000
200.05	600.000
200.43	66.667
200.81	-1100.000
201.18	-60.000
201.56	-150.000
201.94	625.000
202.31	-21.739
202.69	42.857
203.07	-466.667
203.44	-20.000
203.82	-433.333
204.19	-40.000
204.57	0.000
204.95	-300.000
205.32	0.000
205.70	-300.000
206.08	-225.000
206.45	-116.667
206.83	350.000
207.20	-666.667
207.58	-60.000
207.96	-1300.000
208.33	-157.143
208.71	-600.000
209.08	237.500
209.46	275.000
209.84	0.000
210.21	150.000
210.59	1600.000
210.96	340.000
211.34	1000.000
211.71	-700.000
212.09	-83.333
212.46	-90.000
212.84	-300.000
213.22	25.000
213.59	-400.000
213.97	-550.000
214.34	-800.000
214.72	-23.077
215.09	212.500
215.47	111.111
215.84	700.000
216.22	-112.500
216.59	-550.000
216.97	433.333
217.34	144.444
217.72	0.000
218.09	333.333
218.47	-100.000
218.84	-71.429
219.22	-125.000
219.59	-233.333
219.97	-75.000
220.34	-87.500
220.72	-120.000
221.09	0.000
221.47	-150.000
221.84	-600.000
222.22	0.000
222.59	600.000
222.97	-133.333
223.34	25.000
223.72	-1600.000
224.09	0.000
224.46	-9.091
224.84	-100.000
225.21	-14.286
225.59	-300.000
225.96	-50.000
226.34	0.000
226.71	-185.714
227.08	450.000
227.46	-150.000
227.83	-1000.000
228.21	12.500
228.58	-250.000
228.95	-35.294
229.33	18.750
229.70	-62.500
230.08	-15.385
230.45	-175.000
230.82	-83.333
231.20	128.571
231.57	-300.000
231.95	1000.000
232.32	8.333
232.69	-23.529
233.07	-700.000
233.44	-4.348
233.81	-1100.000
234.19	29.167
234.56	-13.333
234.93	60.000
235.31	-15.789
235.68	-15.385
236.05	0.000
236.43	-38.889
236.80	-12.121
237.17	-66.667
237.55	-5.882
237.92	-6.897
238.29	7.407
238.67	19.444
239.04	9.677
239.41	19.149
239.79	14.894
240.16	6.977
240.53	0.000
240.91	41.071
241.28	14.286
241.65	30.645
242.02	13.158
242.40	26.087
242.77	4.348
243.14	23.077
243.51	26.596
243.89	21.154
244.26	33.019
244.63	16.346
245.00	35.417
245.38	23.529
245.75	22.131
246.12	25.564
246.49	13.821
246.87	18.487
247.24	27.703
247.61	25.166
247.98	26.282
248.36	28.994
248.73	18.539
249.10	27.273
249.47	29.570
249.84	31.053
250.22	29.851
250.59	23.832
250.96	34.091
251.33	19.139
251.70	27.615
252.08	24.268
252.45	27.984
252.82	29.278
253.19	27.626
253.56	28.058
253.94	30.605
254.31	27.465
254.68	30.537
255.05	25.413
255.42	27.972
255.79	33.436
256.16	29.968
256.54	26.349
256.91	28.797
257.28	30.189
257.65	28.662
258.02	25.513
258.39	28.070
258.76	29.651
259.14	30.398
259.51	30.337
259.88	25.474
260.25	29.722
260.62	25.000
260.99	29.443
261.36	31.606
261.73	28.889
262.10	30.534
262.47	26.667
262.85	28.607
263.22	28.718
263.59	28.052
263.96	27.494
264.33	29.567
264.70	30.698
265.07	28.241
265.44	32.184
265.81	29.519
266.18	28.474
266.55	26.856
266.92	28.178
267.29	28.395
267.66	31.210
268.03	30.453
268.40	27.331
268.77	30.372
269.14	29.184
269.51	32.033
269.88	30.550
270.25	30.932
270.62	28.279
270.99	27.559
271.36	28.373
271.73	28.313
272.10	29.714
272.47	31.862
272.84	27.362
273.21	28.180
273.58	27.459
273.95	29.245
274.32	27.239
274.69	28.233
275.06	30.035
275.43	27.495
275.80	28.723
276.17	28.545
276.54	28.419
276.91	26.307
277.28	28.339
277.65	28.322
278.02	28.929
278.39	27.176
278.76	28.428
279.13	27.616
279.50	27.069
279.87	27.717
280.23	28.288
280.60	29.412
280.97	27.273
281.34	28.076
281.71	25.203
282.08	28.034
282.45	26.393
282.82	28.594
283.19	29.421
283.56	27.344
283.92	27.370
284.29	27.301
284.66	27.677
285.03	26.873
285.40	27.492
285.77	30.180
286.14	27.964
286.51	30.135
286.87	26.154
287.24	28.171
287.61	27.560
287.98	27.647
288.35	26.975
288.72	26.542
289.08	27.350
289.45	28.047
289.82	27.080
290.19	27.630
290.56	26.989
290.93	25.967
291.29	26.539
291.66	25.683
292.03	25.886
292.40	26.649
292.77	25.971
293.13	25.802
293.50	26.536
293.87	25.733
294.24	25.529
294.60	27.048
294.97	25.132
295.34	25.198
295.71	25.361
296.08	24.607
296.44	24.872
296.81	24.726
297.18	26.750
297.55	25.236
297.91	25.963
298.28	26.634
298.65	24.754
299.02	26.618
299.38	24.908
299.75	25.962
300.12	24.302
300.48	23.860
300.85	25.635
301.22	24.623
301.59	24.413
301.95	24.855
302.32	24.037
302.69	24.746
303.05	24.695
303.42	24.773
303.79	25.868
304.15	26.068
304.52	28.065
304.89	27.685
305.25	25.027
305.62	26.464
305.99	26.551
306.35	26.019
306.72	26.348
307.09	25.026
307.45	27.689
307.82	25.684
308.19	26.750
308.55	26.407
308.92	27.701
309.29	27.127
309.65	26.573
310.02	27.932
310.38	27.337
310.75	27.022
311.12	28.863
311.48	28.684
311.85	28.248
312.22	29.691
312.58	28.889
312.95	29.353
313.31	29.477
313.68	29.485
314.05	30.624
314.41	31.316
314.78	31.214
315.14	32.130
315.51	31.589
315.87	31.418
316.24	31.956
316.61	31.781
316.97	33.704
317.34	32.086
317.70	33.898
318.07	34.073
318.43	33.424
318.80	33.072
319.16	33.510
319.53	34.229
319.89	33.062
320.26	33.919
320.62	35.032
320.99	34.399
321.35	34.612
321.72	36.477
322.08	36.531
322.45	38.020
322.81	37.708
323.18	37.120
323.54	37.996
323.91	37.218
324.27	39.064
324.64	38.066
325.00	37.358
325.37	39.590
325.73	38.721
326.10	39.445
326.46	39.214
326.83	39.320
327.19	40.488
327.56	41.741
327.92	39.340
328.29	41.987
328.65	42.331
329.01	41.689
329.38	42.870
329.74	41.803
330.11	42.110
330.47	42.101
330.84	45.307
331.20	42.357
331.56	43.750
331.93	44.789
332.29	43.962
332.66	43.136
333.02	43.180
333.38	44.912
333.75	43.601
334.11	45.139
334.48	44.725
334.84	45.141
335.20	45.026
335.57	44.125
335.93	44.244
336.29	43.520
336.66	44.359
337.02	44.870
337.38	44.560
337.75	45.564
338.11	44.406
338.47	43.664
338.84	43.900
339.20	45.062
339.56	44.710
339.93	43.993
340.29	43.894
340.65	44.654
341.02	45.175
341.38	44.595
341.74	44.286
342.11	45.169
342.47	42.845
342.83	44.363
343.20	45.178
343.56	44.726
343.92	43.786
344.28	43.588
344.65	44.408
345.01	43.503
345.37	44.655
345.73	44.771
346.10	44.061
346.46	43.984
346.82	43.900
347.19	43.829
347.55	44.023
347.91	42.868
348.27	43.927
348.63	43.029
349.00	43.318
349.36	42.229
349.72	43.001
350.08	43.058
350.45	43.853
350.81	42.410
351.17	42.109
351.53	42.734
351.89	42.017
352.26	41.931
352.62	41.860
352.98	42.652
353.34	43.317
353.70	43.224
354.07	42.431
354.43	42.535
354.79	42.949
355.15	42.702
355.51	41.534
355.87	43.237
356.24	42.536
356.60	41.986
356.96	41.520
357.32	42.492
357.68	42.322
358.04	42.514
358.40	40.465
358.77	41.743
359.13	42.335
359.49	41.332
359.85	41.774
360.21	41.403
360.57	41.977
360.93	42.109
361.29	40.563
361.66	42.445
362.02	41.438
362.38	42.024
362.74	39.884
363.10	41.215
363.46	41.427
363.82	41.981
364.18	40.319
364.54	41.867
364.90	41.254
365.26	41.543
365.62	41.548
365.98	42.135
366.35	40.922
366.71	41.227
367.07	40.609
367.43	41.742
367.79	41.070
368.15	41.491
368.51	38.959
368.87	42.010
369.23	40.142
369.59	40.310
369.95	39.478
370.31	40.586
370.67	41.347
371.03	41.203
371.39	41.093
371.75	40.071
372.11	40.100
372.47	39.726
372.83	40.083
373.19	39.424
373.55	40.390
373.91	40.453
374.27	39.903
374.63	39.474
374.99	40.320
375.35	40.068
375.71	38.995
376.07	40.164
376.42	39.305
376.78	41.413
377.14	40.610
377.50	40.091
377.86	40.305
378.22	38.938
378.58	40.038
378.94	40.625
379.30	38.851
379.66	39.273
380.02	40.564
380.38	39.157
380.74	39.988
381.09	38.299
381.45	39.903
381.81	39.618
382.17	39.130
382.53	39.077
382.89	39.324
383.25	40.309
383.61	39.770
383.97	39.062
384.32	38.248
384.68	38.556
385.04	38.546
385.40	39.103
385.76	38.443
386.12	38.799
386.48	38.433
386.83	38.423
387.19	38.248
387.55	39.056
387.91	38.868
388.27	38.718
388.62	38.889
388.98	38.486
389.34	37.845
389.70	37.729
390.06	37.438
390.42	38.853
390.77	38.821
391.13	38.258
391.49	37.318
391.85	37.252
392.20	38.158
392.56	38.603
392.92	37.624
393.28	36.723
393.64	38.593
393.99	36.597
394.35	37.531
394.71	37.885
395.07	36.541
395.42	38.208
395.78	37.452
396.14	37.603
396.50	37.286
396.85	37.604
397.21	37.141
397.57	37.267
397.92	37.006
398.28	37.563
398.64	37.705
399.00	36.998
399.35	37.684
399.71	36.634
400.07	36.928
400.42	37.931
400.78	35.831
401.14	36.113
401.49	36.609
401.85	36.548
402.21	36.718
402.57	36.726
402.92	36.358
403.28	36.085
403.63	36.764
403.99	36.468
404.35	36.471
404.70	35.529
405.06	35.643
405.42	36.244
405.77	35.599
406.13	35.771
406.49	35.590
406.84	36.569
407.20	34.932
407.55	34.740
407.91	35.341
408.27	34.186
408.62	34.316
408.98	35.512
409.34	35.210
409.69	34.828
410.05	35.012
410.40	33.536
410.76	34.416
411.11	34.826
411.47	37.558
411.83	34.124
412.18	34.068
412.54	34.962
412.89	35.987
413.25	33.746
413.60	35.298
413.96	34.207
414.31	35.142
414.67	34.603
415.03	35.386
415.38	34.875
415.74	34.763
416.09	35.096
416.45	36.432
416.80	34.832
417.16	35.155
417.51	34.092
417.87	33.333
418.22	33.549
418.58	33.968
418.93	34.589
419.29	35.314
419.64	33.969
420.00	36.635
420.35	33.592
420.71	33.943
421.06	34.625
421.42	35.706
421.77	35.318
422.12	35.244
422.48	33.915
422.83	34.613
423.19	35.480
423.54	34.982
423.90	34.561
424.25	35.298
424.61	35.983
424.96	34.536
425.31	34.380
425.67	35.038
426.02	35.395
426.38	35.075
426.73	34.881
427.09	34.647
427.44	34.527
427.79	36.045
428.15	35.229
428.50	35.710
428.85	35.117
429.21	34.271
429.56	35.547
429.92	35.242
430.27	35.429
430.62	35.677
430.98	35.484
431.33	35.250
431.68	35.144
432.04	35.718
432.39	35.335
432.74	35.806
433.10	35.328
433.45	34.911
433.80	35.287
434.16	35.336
434.51	36.304
434.86	36.572
435.22	36.503
435.57	34.889
435.92	36.791
436.28	35.015
436.63	35.277
436.98	36.075
437.34	36.569
437.69	35.714
438.04	36.333
438.39	37.671
438.75	35.995
439.10	37.999
439.45	37.651
439.81	36.700
440.16	37.217
440.51	35.910
440.86	37.107
441.22	36.833
441.57	36.226
441.92	36.081
442.27	36.526
442.63	36.437
442.98	36.806
443.33	36.851
443.68	36.479
444.03	37.109
444.39	38.275
444.74	37.880
445.09	37.004
445.44	38.535
445.79	38.203
446.15	38.436
446.50	38.381
446.85	39.337
447.20	38.526
447.55	38.780
447.91	37.978
448.26	39.222
448.61	38.895
448.96	39.522
449.31	39.349
449.66	38.924
450.02	39.170
450.37	39.248
450.72	38.978
451.07	39.624
451.42	38.802
451.77	40.292
452.12	38.978
452.47	39.638
452.83	38.915
453.18	39.529
453.53	40.858
453.88	40.301
454.23	41.409
454.58	39.645
454.93	40.154
455.28	41.297
455.63	39.613
455.98	40.840
456.34	38.970
456.69	41.342
457.04	41.300
457.39	41.491
457.74	41.113
458.09	41.055
458.44	40.364
458.79	40.143
459.14	40.955
459.49	41.220
459.84	41.319
460.19	41.537
460.54	41.606
460.89	42.061
461.24	40.999
461.59	41.667
461.94	41.846
462.29	41.789
462.64	41.359
462.99	41.717
463.34	41.851
463.69	42.010
464.04	40.516
464.39	42.099
464.74	41.523
465.09	40.546
465.44	41.975
465.79	41.748
466.14	42.246
466.49	43.460
466.84	42.678
467.19	42.675
467.54	42.644
467.89	42.992
468.24	43.147
468.59	42.447
468.94	42.337
469.29	44.217
469.64	43.236
469.99	43.655
470.34	42.347
470.68	43.048
471.03	43.159
471.38	42.281
471.73	43.278
472.08	43.162
472.43	43.206
472.78	43.205
473.13	42.216
473.48	43.249
473.83	42.812
474.17	44.010
474.52	43.754
474.87	43.245
475.22	43.357
475.57	43.056
475.92	42.748
476.27	42.716
476.61	44.224
476.96	43.632
477.31	43.204
477.66	44.181
478.01	43.132
478.36	42.834
478.70	43.448
479.05	44.229
479.40	43.318
479.75	44.261
480.10	43.702
480.45	43.355
480.79	44.699
481.14	44.985
481.49	44.598
481.84	44.062
482.19	44.094
482.53	44.000
482.88	44.823
483.23	44.273
483.58	44.896
483.92	43.969
484.27	43.916
484.62	44.296
484.97	44.961
485.31	44.274
485.66	42.599
486.01	43.195
486.36	43.715
486.70	44.143
487.05	44.396
487.40	45.297
487.75	45.277
488.09	44.855
488.44	45.110
488.79	46.442
489.13	45.527
489.48	45.361
489.83	45.467
490.17	45.256
490.52	46.424
490.87	44.321
491.22	46.161
491.56	45.520
491.91	45.895
492.26	46.277
492.60	45.455
492.95	46.842
493.30	46.609
493.64	45.947
493.99	46.184
494.34	45.954
494.68	47.112
495.03	46.344
495.37	46.959
495.72	46.015
496.07	47.394
496.41	45.718
496.76	46.938
497.11	46.573
497.45	46.887
497.80	47.148
498.14	47.305
498.49	46.999
498.84	47.824
499.18	46.043
499.53	46.184
499.87	44.930
500.22	48.183
500.56	47.141
500.91	47.887
501.26	46.798
501.60	47.255
501.95	47.053
502.29	45.777
502.64	48.264
502.98	47.592
503.33	47.543
503.67	48.685
504.02	48.480
504.36	47.499
504.71	47.663
505.06	48.701
505.40	48.814
505.75	47.253
506.09	47.471
506.44	48.034
506.78	48.146
507.13	47.973
507.47	47.826
507.82	47.881
508.16	48.760
508.51	48.295
508.85	47.745
509.19	48.466
509.54	48.901
509.88	47.688
510.23	47.947
510.57	48.570
510.92	48.761
511.26	49.780
511.61	47.859
511.95	49.283
512.30	49.028
512.64	48.468
512.98	49.252
513.33	49.127
513.67	49.233
514.02	50.171
514.36	49.270
514.70	50.000
515.05	49.561
515.39	49.351
515.74	50.266
516.08	48.909
516.42	48.445
516.77	49.092
517.11	49.853
517.46	50.600
517.80	49.697
518.14	49.908
518.49	49.247
518.83	50.060
519.17	48.795
519.52	50.302
519.86	49.787
520.20	48.636
520.55	49.254
520.89	50.917
521.23	51.667
521.58	51.138
521.92	49.214
522.26	50.878
522.61	49.709
522.95	50.518
523.29	49.270
523.64	50.095
523.98	51.144
524.32	50.158
524.66	51.429
525.01	51.180
525.35	51.613
525.69	50.364
526.04	50.163
526.38	49.586
526.72	51.085
527.06	49.516
527.41	51.621
527.75	51.068
528.09	51.872
528.43	52.035
528.78	50.904
529.12	53.169
529.46	52.271
529.80	51.521
530.15	50.644
530.49	51.146
530.83	52.268
531.17	52.123
531.51	51.787
531.86	51.152
532.20	50.448
532.54	51.655
532.88	50.783
533.22	51.987
533.57	51.060
533.91	53.161
534.25	52.214
534.59	51.030
534.93	51.467
535.27	52.994
535.62	51.711
535.96	51.724
536.30	51.928
536.64	51.948
536.98	51.016
537.32	52.527
537.66	53.315
538.01	50.832
538.35	52.901
538.69	50.502
539.03	50.470
539.37	51.777
539.71	52.933
540.05	50.742
540.39	51.273
540.73	52.444
541.07	52.449
541.42	53.199
541.76	52.165
542.10	52.336
542.44	52.737
542.78	53.296
543.12	51.887
543.46	51.002
543.80	51.867
544.14	52.925
544.48	51.958
544.82	53.060
545.16	53.279
545.50	52.059
545.84	53.156
546.18	52.875
546.52	51.941
546.86	51.307
547.20	52.966
547.54	53.967
547.88	53.576
548.22	52.313
548.56	53.235
548.90	52.842
549.24	53.681
549.58	53.238
549.92	52.825
550.26	54.170
550.60	53.604
550.94	53.358
551.28	53.671
551.62	53.233
551.96	52.855
552.30	53.275
552.64	53.107
552.98	54.332
553.32	54.434
553.66	55.319
554.00	54.572
554.34	53.333
554.68	53.840
555.02	53.743
555.36	55.900
555.69	55.062
556.03	53.395
556.37	53.627
556.71	53.399
557.05	54.982
557.39	54.936
557.73	54.841
558.07	54.484
558.41	55.185
558.75	54.888
559.08	55.172
559.42	55.862
559.76	54.205
560.10	56.649
560.44	55.048
560.78	55.827
561.12	55.081
561.45	53.946
561.79	54.677
562.13	55.415
562.47	55.429
562.81	56.205
563.15	54.320
563.48	53.889
563.82	56.635
564.16	55.450
564.50	55.427
564.84	54.730
565.17	55.166
565.51	56.016
565.85	53.231
566.19	56.490
566.52	53.080
566.86	53.540
567.20	55.284
567.54	54.059
567.88	52.912
568.21	53.123
568.55	54.408
568.89	54.287
569.23	54.629
569.56	54.276
569.90	52.991
570.24	52.852
570.57	53.019
570.91	53.928
571.25	53.949
571.59	53.397
571.92	54.327
572.26	54.618
572.60	54.573
572.93	54.420
573.27	54.449
573.61	55.456
573.95	54.469
574.28	54.112
574.62	54.308
574.96	55.315
575.29	55.667
575.63	56.138
575.97	56.848
576.30	56.360
576.64	55.829
576.98	55.474
577.31	55.320
577.65	55.003
577.98	55.721
578.32	55.578
578.66	55.659
578.99	56.033
579.33	56.772
579.67	57.026
580.00	55.752
580.34	56.592
580.67	56.198
581.01	56.367
581.35	56.606
581.68	55.745
582.02	56.234
582.35	56.891
582.69	56.734
583.02	56.549
583.36	57.362
583.70	58.045
584.03	56.889
584.37	56.776
584.70	57.204
585.04	58.194
585.37	57.740
585.71	57.935
586.04	58.045
586.38	57.958
586.72	57.685
587.05	58.263
587.39	57.643
587.72	58.085
588.06	58.933
588.39	57.962
588.73	58.394
589.06	59.004
589.40	58.548
589.73	58.318
590.07	58.403
590.40	59.106
590.73	60.332
591.07	58.964
591.40	60.174
591.74	59.849
592.07	60.612
592.41	60.661
592.74	59.877
593.08	58.940
593.41	59.794
593.75	59.819
594.08	59.896
594.41	60.585
594.75	60.195
595.08	60.941
595.42	58.948
595.75	60.123
596.09	60.739
596.42	60.825
596.75	61.518
597.09	62.056
597.42	61.507
597.75	61.422
598.09	60.565
598.42	63.400
598.76	61.755
599.09	62.705
599.42	60.952
599.76	63.275
600.09	62.312
600.42	61.657
600.76	61.567
601.09	61.996
601.42	62.485
601.76	61.081
602.09	62.829
602.42	62.939
602.76	62.332
603.09	63.244
603.42	62.375
603.76	61.808
604.09	61.028
604.42	61.658
604.76	62.593
605.09	62.574
605.42	64.642
605.75	62.570
606.09	62.500
606.42	62.677
606.75	63.203
607.09	63.741
607.42	63.354
607.75	62.013
608.08	64.788
608.42	64.011
608.75	64.310
609.08	63.939
609.41	64.133
609.75	64.498
610.08	63.856
610.41	62.974
610.74	63.715
611.07	65.481
611.41	65.507
611.74	64.234
612.07	63.575
612.40	65.459
612.73	63.557
613.07	64.690
613.40	65.308
613.73	66.197
614.06	63.792
614.39	64.591
614.72	65.242
615.06	65.389
615.39	66.777
615.72	66.199
616.05	65.709
616.38	64.777
616.71	65.147
617.05	66.830
617.38	65.742
617.71	64.890
618.04	65.874
618.37	67.192
618.70	65.653
619.03	65.086
619.36	66.121
619.69	67.032
620.03	67.420
620.36	66.110
620.69	65.525
621.02	65.769
621.35	65.904
621.68	65.770
622.01	69.984
622.34	66.931
622.67	66.719
623.00	67.629
623.33	66.567
623.66	68.401
623.99	67.892
624.32	66.178
624.65	67.878
624.99	67.818
625.32	67.737
625.65	68.450
625.98	67.773
626.31	68.653
626.64	68.014
626.97	68.426
627.30	69.632
627.63	68.512
627.96	68.052
628.29	70.419
628.62	68.665
628.95	69.339
629.28	70.148
629.61	69.091
629.94	69.149
630.26	71.921
630.59	69.431
630.92	68.976
631.25	69.207
631.58	71.734
631.91	67.550
632.24	69.704
632.57	68.222
632.90	70.012
633.23	70.384
633.56	70.264
633.89	68.660
634.22	70.082
634.55	70.767
634.88	67.402
635.20	70.500
635.53	70.155
635.86	71.026
636.19	71.216
636.52	67.683
636.85	69.843
637.18	67.600
637.51	67.915
637.83	69.843
638.16	70.400
638.49	70.360
638.82	69.935
639.15	69.016
639.48	71.123
639.81	69.722
640.13	72.817
640.46	69.068
640.79	71.367
641.12	70.562
641.45	70.015
641.77	70.839
642.10	72.315
642.43	73.899
642.76	68.612
643.09	68.690
643.41	71.292
643.74	70.759
644.07	70.065
644.40	70.315
644.73	73.051
645.05	72.251
645.38	68.272
645.71	69.558
646.04	69.697
646.36	72.396
646.69	69.231
647.02	72.678
647.35	73.492
647.67	69.686
648.00	69.928
648.33	71.695
648.66	71.953
648.98	70.497
649.31	70.092
649.64	72.457
649.96	72.828
650.29	70.588
650.62	68.863
650.94	69.483
651.27	70.141
651.60	73.427
651.92	74.373
652.25	71.524
652.58	72.607
652.90	74.747
653.23	70.458
653.56	70.413
653.88	68.942
654.21	71.502
654.54	69.767
654.86	70.407
655.19	69.748
655.52	72.083
655.84	67.535
656.17	80.918
656.49	100.000
656.82	100.000
657.15	89.043
657.47	60.042
657.80	45.849
658.13	49.041
658.45	72.689
658.78	73.111
659.10	72.802
659.43	73.801
659.75	74.523
660.08	74.069
660.41	71.602
660.73	73.416
661.06	74.490
661.38	72.481
661.71	73.975
662.03	76.744
662.36	74.779
662.68	72.258
663.01	74.364
663.33	71.490
663.66	71.397
663.98	73.933
664.31	75.824
664.63	70.495
664.96	71.991
665.28	75.322
665.61	75.378
665.93	73.876
666.26	77.637
666.58	74.090
666.91	74.664
667.23	73.041
667.56	74.253
667.88	72.897
668.21	70.759
668.53	73.563
668.86	73.381
669.18	75.177
669.50	72.350
669.83	73.508
670.15	75.000
670.48	72.874
670.80	74.398
671.13	74.600
671.45	74.658
671.77	72.845
672.10	70.565
672.42	76.527
672.75	71.250
673.07	71.455
673.39	75.000
673.72	76.447
674.04	75.615
674.37	71.138
674.69	71.193
675.01	72.436
675.34	70.678
675.66	72.331
675.98	72.124
676.31	76.697
676.63	75.057
676.95	72.235
677.28	71.789
677.60	79.167
677.92	75.610
678.25	73.970
678.57	70.265
678.89	71.855
679.22	73.499
679.54	73.878
679.86	73.633
680.18	72.500
680.51	72.308
680.83	69.591
681.15	74.460
681.48	72.745
681.80	70.143
682.12	74.167
682.44	72.837
682.77	71.368
683.09	72.545
683.41	72.558
683.73	72.545
684.06	72.566
684.38	74.573
684.70	72.505
685.02	78.099
685.34	75.930
685.67	79.925
685.99	72.954
686.31	74.828
686.63	75.184
686.96	76.623
687.28	75.250
687.60	74.480
687.92	74.514
688.24	73.400
688.56	78.509
688.89	71.492
689.21	71.300
689.53	72.297
689.85	72.360
690.17	72.747
690.49	75.362
690.82	71.360
691.14	76.570
691.46	71.926
691.78	76.044
692.10	74.522
692.42	75.165
692.74	75.435
693.06	74.157
693.39	76.112
693.71	74.667
694.03	77.273
694.35	74.550
694.67	72.750
694.99	73.454
695.31	74.160
695.63	75.854
695.95	72.010
696.27	72.603
696.59	71.237
696.91	75.978
697.23	72.843
697.56	75.779
697.88	69.647
698.20	74.298
698.52	74.299
698.84	74.163
699.16	71.631
699.48	73.580
699.80	75.711
700.12	74.799
700.44	72.113
700.76	69.663
701.08	73.112
701.40	75.749
701.72	74.769
702.04	72.327
702.36	71.341
702.68	74.085
703.00	75.731
703.32	68.245
703.64	77.410
703.96	73.607
704.28	72.289
704.60	76.220
704.91	71.473
705.23	70.570
705.55	75.517
705.87	76.761
706.19	75.092
706.51	74.296
706.83	70.382
707.15	76.220
707.47	76.033
707.79	67.766
708.11	72.237
708.43	77.665
708.74	72.340
709.06	73.529
709.38	74.640
709.70	77.177
710.02	74.143
710.34	74.333
710.66	71.661
710.98	72.446
711.29	74.026
711.61	71.935
711.93	69.032
712.25	70.629
712.57	65.614
712.89	75.458
713.20	72.340
713.52	75.182
713.84	70.000
714.16	74.110
714.48	70.570
714.80	76.038
715.11	69.186
715.43	72.981
715.75	73.913
716.07	71.084
716.39	75.084
716.70	71.942
717.02	73.333
717.34	71.212
717.66	78.017
717.97	70.238
718.29	70.866
718.61	73.820
718.93	71.318
719.24	70.480
719.56	70.037
719.88	70.896
720.20	70.751
720.51	73.438
720.83	74.708
721.15	67.073
721.46	70.992
721.78	74.900
722.10	69.323
722.42	71.371
722.73	71.042
723.05	74.694
723.37	73.109
723.68	67.200
724.00	66.809
724.32	70.711
724.63	68.313
724.95	67.949
725.27	72.574
725.58	79.424
725.90	70.711
726.22	68.478
726.53	67.059
726.85	71.168
727.16	70.000
727.48	73.563
727.80	71.875
728.11	68.852
728.43	70.312
728.74	73.016
729.06	72.000
729.38	71.146
729.69	71.886
730.01	70.632
730.32	73.801
730.64	68.182
730.96	72.727
731.27	74.247
731.59	70.159
731.90	72.816
732.22	69.872
732.53	72.297
732.85	62.416
733.16	68.647
733.48	68.919
733.80	69.595
734.11	70.270
734.43	70.898
734.74	72.072
735.06	70.605
735.37	68.085
735.69	68.608
736.00	68.647
736.32	74.823
736.63	67.241
736.95	69.178
737.26	69.655
737.58	69.444
737.89	66.667
738.21	66.904
738.52	66.540
738.83	67.347
739.15	70.042
739.46	69.261
739.78	63.380
740.09	66.438
740.41	72.857
740.72	67.376
741.04	65.200
741.35	67.544
741.66	68.444
741.98	63.942
742.29	69.802
742.61	68.293
742.92	73.246
743.23	72.170
743.55	71.171
743.86	66.368
744.18	65.686
744.49	66.497
744.80	72.959
745.12	67.290
745.43	67.299
745.74	64.414
746.06	63.084
746.37	62.385
746.68	63.942
747.00	66.986
747.31	65.865
747.62	65.138
747.94	71.179
748.25	73.394
748.56	64.000
748.88	65.728
749.19	69.048
749.50	67.476
749.82	65.258
750.13	67.500
750.44	67.692
750.75	66.052
751.07	72.242
751.38	68.794
751.69	69.498
752.01	70.703
752.32	64.615
752.63	64.552
752.94	64.800
753.26	71.548
753.57	65.000
753.88	70.040
754.19	70.518
754.51	68.045
754.82	65.934
755.13	68.696
755.44	67.886
755.75	64.800
756.07	63.100
756.38	66.906
756.69	68.259
757.00	65.732
757.31	67.314
757.63	66.975
757.94	70.339
758.25	71.164
758.56	70.109
758.87	71.726
759.18	70.662
759.50	62.290
759.81	65.552
760.12	65.846
760.43	63.095
760.74	69.774
761.05	60.773
761.36	66.189
761.67	67.976
761.99	67.010
762.30	65.328
762.61	67.078
762.92	63.675
763.23	71.721
763.54	70.563
763.85	65.306
764.16	68.293
764.47	67.200
764.78	63.571
765.10	68.852
765.41	71.429
765.72	70.807
766.03	65.677
766.34	68.846
766.65	66.946
766.96	64.789
767.27	66.832
767.58	50.000
767.89	63.580
768.20	61.326
768.51	69.347
768.82	69.712
769.13	73.451
769.44	69.874
769.75	60.256
770.06	60.090
770.37	59.804
770.68	65.049
770.99	66.019
771.30	59.664
771.61	65.714
771.92	67.635
772.23	59.459
772.54	59.116
772.85	69.767
773.16	64.550
773.47	57.988
773.78	63.218
774.09	65.000
774.39	65.839
774.70	70.068
775.01	57.931
775.32	65.000
775.63	65.414
775.94	54.887
776.25	55.200
776.56	69.421
776.87	58.730
777.18	63.063
777.48	57.658
777.79	60.630
778.10	75.229
778.41	65.789
778.72	65.546
779.03	50.000
779.34	64.189
779.65	64.789
779.95	58.940
780.26	63.309
780.57	63.309
780.88	54.930
781.19	59.664
781.50	71.141
781.80	61.404
782.11	50.581
782.42	62.893
782.73	58.824
783.04	63.448
783.34	61.069
783.65	60.403
783.96	70.769
784.27	60.000
784.57	60.993
784.88	55.769
785.19	68.182
785.50	69.091
785.81	57.143
786.11	62.185
786.42	66.372
786.73	51.887
787.04	60.550
787.34	59.406
787.65	64.167
787.96	61.157
788.26	61.594
788.57	48.413
788.88	64.228
789.19	58.400
789.49	58.015
789.80	64.394
790.11	46.226
790.41	58.416
790.72	59.574
791.03	57.609
791.33	48.235
791.64	58.025
791.95	63.043
792.25	57.955
792.56	60.256
792.87	46.154
793.17	56.410
793.48	55.952
793.79	50.000
794.09	59.615
794.40	66.667
794.70	66.667
795.01	55.469
795.32	60.870
795.62	65.217
795.93	51.887
796.23	62.626
796.54	46.341
796.85	57.143
797.15	54.545
797.46	50.725
797.76	47.368
798.07	55.682
798.37	47.561
798.68	48.387
798.99	55.405
799.29	48.193
799.60	41.026
799.90	75.385
800.21	74.242
800.51	50.667
800.82	58.667
801.12	56.250
801.43	31.667
801.73	41.892
802.04	64.286
802.34	37.705
802.65	62.687
802.95	49.091
803.26	50.000
803.56	44.615
803.87	56.604
804.17	37.097
804.48	48.529
804.78	51.220
805.09	53.623
805.39	44.118
805.70	53.191
806.00	57.895
806.30	55.128
806.61	57.895
806.91	51.351
807.22	56.579
807.52	52.273
807.83	54.237
808.13	53.030
808.43	55.000
808.74	43.103
809.04	44.444
809.35	48.980
809.65	58.333
809.95	42.857
810.26	53.521
810.56	58.333
810.86	38.776
811.17	50.000
811.47	21.277
811.77	43.750
812.08	49.057
812.38	28.125
812.69	27.273
812.99	19.512
813.29	51.351
813.59	43.243
813.90	30.909
814.20	67.273
814.50	43.333
814.81	34.545
815.11	40.351
815.41	74.419
815.72	32.500
816.02	57.143
816.32	48.649
816.62	43.750
816.93	44.444
817.23	13.333
817.53	13.889
817.84	10.811
818.14	43.902
818.44	60.000
818.74	55.102
819.04	56.098
819.35	41.667
819.65	27.273
819.95	38.889
820.25	57.576
820.56	11.905
820.86	44.444
821.16	31.818
821.46	52.174
821.76	32.759
822.07	73.913
822.37	57.576
822.67	43.902
822.97	67.568
823.27	37.143
823.57	72.414
823.88	35.294
824.18	66.667
824.48	25.714
824.78	71.429
825.08	42.857
825.38	14.815
825.69	67.742
825.99	39.024
826.29	62.963
826.59	25.000
826.89	12.903
827.19	-34.783
827.49	44.444
827.79	21.739
828.09	38.710
828.39	52.083
828.70	15.625
829.00	31.034
829.30	24.324
829.60	29.167
829.90	33.333
830.20	43.750
830.50	45.455
830.80	-23.529
831.10	31.818
831.40	0.000
831.70	-3.846
832.00	36.364
832.30	20.588
832.60	37.838
832.90	-100.000
833.20	35.714
833.50	10.000
833.80	13.158
834.10	33.333
834.40	0.000
834.70	-6.667
835.00	40.000
835.30	45.833
835.60	-23.810
835.90	47.619
836.20	20.000
836.50	0.000
836.80	-21.053
837.10	51.351
837.40	56.667
837.70	13.043
838.00	58.333
838.30	36.842
838.60	-70.000
838.90	-190.000
839.19	75.000
839.49	15.385
839.79	0.000
840.09	-50.000
840.39	-40.000
840.69	4.545
840.99	0.000
841.29	-25.000
841.59	-7.692
841.88	-13.333
842.18	-42.857
842.48	13.333
842.78	-214.286
843.08	-14.286
843.38	-37.500
843.68	-37.500
843.97	85.714
844.27	-111.111
844.57	-45.455
844.87	-53.333
845.17	27.273
845.47	466.667
845.76	0.000
846.06	-33.333
846.36	-550.000
846.66	-73.684
846.96	0.000
847.25	-44.444
847.55	-100.000
847.85	-14.286
848.15	-46.154
848.44	-116.667
848.74	-33.333
849.04	-15.385
849.34	-150.000
849.63	-54.545
849.93	-42.857
850.23	-20.000
850.53	-150.000
850.82	22.222
851.12	26.667
851.42	-23.529
851.71	-37.500
852.01	11.765
852.31	-7.692
852.61	950.000
852.90	0.000
853.20	13.333
853.50	18.750
853.79	-107.143
854.09	-100.000
854.39	20.000
854.68	2.500
854.98	9.524
855.28	24.000
855.57	8.333
855.87	-12.500
856.17	0.000
856.46	3.125
856.76	25.000
857.05	48.000
857.35	-58.333
857.65	-29.412
857.94	-158.333
858.24	-100.000
858.53	5.000
858.83	-72.727
859.13	0.000
859.42	35.714
859.72	-25.000
860.01	33.333
860.31	-150.000
860.60	-18.750
860.90	-50.000
861.20	-116.667
861.49	-6.667
861.79	-37.500
862.08	200.000
862.38	-116.667
862.67	271.429
862.97	400.000
863.26	-36.364
863.56	-18.182
863.85	52.632
864.15	-41.176
864.44	-120.000
864.74	0.000
865.03	-100.000
865.33	-35.714
865.62	157.143
865.92	21.053
866.21	-33.333
866.51	-9.091
866.80	0.000
867.10	-37.500
867.39	50.000
867.69	-80.000
867.98	-70.000
868.27	41.176
868.57	0.000
868.86	700.000
869.16	-275.000
869.45	-242.857
869.75	300.000
870.04	20.000
870.33	-1000.000
870.63	0.000
870.92	-75.000
871.22	-900.000
871.51	-171.429
871.80	-188.889
872.10	-275.000
>>>>>End Processed Spectral Data<<<<<
