SpectraSuite Data File
++++++++++++++++++++++++++++++++++++
Date: Wed May 13 21:50:00 PDT 2015
User: schluterlab
Dark Spectrum Present: Yes
Reference Spectrum Present: Yes
Number of Sampled Component Spectra: 1
Spectrometers: USB2E3373
Integration Time (usec): 3000 (USB2E3373)
Spectra Averaged: 3 (USB2E3373)
Boxcar Smoothing: 0 (USB2E3373)
Correct for Electrical Dark: No (USB2E3373)
Strobe/Lamp Enabled: No (USB2E3373)
Correct for Detector Non-linearity: No (USB2E3373)
Correct for Stray Light: No (USB2E3373)
Number of Pixels in Processed Spectrum: 2048
>>>>>Begin Processed Spectral Data<<<<<
178.53	0.000
178.91	1150.000
179.29	200.000
179.67	-450.000
180.04	-500.000
180.42	140.000
180.80	1300.000
181.18	283.333
181.56	-150.000
181.94	-175.000
182.31	27.273
182.69	100.000
183.07	-240.000
183.45	150.000
183.83	244.444
184.20	200.000
184.58	-400.000
184.96	233.333
185.34	171.429
185.72	0.000
186.09	-200.000
186.47	-240.000
186.85	340.000
187.23	0.000
187.61	450.000
187.98	400.000
188.36	-100.000
188.74	0.000
189.12	-54.545
189.49	-30.000
189.87	125.000
190.25	180.000
190.63	800.000
191.00	-60.000
191.38	200.000
191.76	200.000
192.14	75.000
192.51	-42.105
192.89	266.667
193.27	200.000
193.65	-300.000
194.02	245.455
194.40	200.000
194.78	-100.000
195.15	300.000
195.53	-280.000
195.91	37.500
196.29	-433.333
196.66	0.000
197.04	150.000
197.42	0.000
197.79	-50.000
198.17	-237.500
198.55	-366.667
198.92	300.000
199.30	-500.000
199.68	-20.000
200.05	600.000
200.43	183.333
200.81	-2100.000
201.18	-300.000
201.56	-83.333
201.94	625.000
202.31	-30.435
202.69	-285.714
203.07	-666.667
203.44	-180.000
203.82	-366.667
204.19	30.000
204.57	0.000
204.95	-50.000
205.32	0.000
205.70	-150.000
206.08	-125.000
206.45	-150.000
206.83	500.000
207.20	-366.667
207.58	-110.000
207.96	-1400.000
208.33	-185.714
208.71	-2300.000
209.08	250.000
209.46	50.000
209.84	0.000
210.21	200.000
210.59	1500.000
210.96	140.000
211.34	900.000
211.71	-850.000
212.09	-200.000
212.46	-130.000
212.84	0.000
213.22	25.000
213.59	0.000
213.97	-450.000
214.34	-650.000
214.72	-7.692
215.09	225.000
215.47	77.778
215.84	450.000
216.22	-100.000
216.59	-50.000
216.97	400.000
217.34	177.778
217.72	0.000
218.09	300.000
218.47	-100.000
218.84	-100.000
219.22	-162.500
219.59	-433.333
219.97	-175.000
220.34	-87.500
220.72	80.000
221.09	0.000
221.47	-316.667
221.84	-100.000
222.22	0.000
222.59	500.000
222.97	-366.667
223.34	-125.000
223.72	-1400.000
224.09	-700.000
224.46	-36.364
224.84	-75.000
225.21	-42.857
225.59	-175.000
225.96	-133.333
226.34	-70.000
226.71	-171.429
227.08	1050.000
227.46	-75.000
227.83	-1300.000
228.21	-43.750
228.58	-150.000
228.95	-35.294
229.33	-50.000
229.70	-87.500
230.08	-15.385
230.45	-187.500
230.82	-41.667
231.20	100.000
231.57	-150.000
231.95	1300.000
232.32	41.667
232.69	29.412
233.07	-400.000
233.44	0.000
233.81	-550.000
234.19	16.667
234.56	-33.333
234.93	26.667
235.31	-21.053
235.68	-23.077
236.05	38.462
236.43	27.778
236.80	-9.091
237.17	-93.333
237.55	-47.059
237.92	-6.897
238.29	-18.519
238.67	27.778
239.04	-16.129
239.41	29.787
239.79	-4.255
240.16	11.628
240.53	26.786
240.91	19.643
241.28	12.500
241.65	37.097
242.02	28.947
242.40	24.638
242.77	28.986
243.14	16.667
243.51	18.085
243.89	19.231
244.26	33.962
244.63	27.885
245.00	35.417
245.38	26.050
245.75	25.410
246.12	33.083
246.49	25.203
246.87	21.008
247.24	34.459
247.61	26.490
247.98	28.846
248.36	29.586
248.73	25.281
249.10	31.313
249.47	30.645
249.84	29.474
250.22	27.861
250.59	31.308
250.96	33.182
251.33	27.751
251.70	36.820
252.08	30.544
252.45	33.333
252.82	32.319
253.19	33.852
253.56	30.216
253.94	34.164
254.31	34.155
254.68	35.570
255.05	34.653
255.42	33.217
255.79	30.982
256.16	34.069
256.54	30.159
256.91	31.329
257.28	33.962
257.65	30.892
258.02	31.672
258.39	33.041
258.76	31.395
259.14	32.670
259.51	29.494
259.88	31.436
260.25	34.167
260.62	33.427
260.99	34.218
261.36	33.938
261.73	32.099
262.10	31.807
262.47	32.840
262.85	33.333
263.22	31.795
263.59	31.429
263.96	33.333
264.33	35.577
264.70	30.930
265.07	34.259
265.44	36.092
265.81	31.808
266.18	33.941
266.55	34.934
266.92	32.839
267.29	31.070
267.66	35.244
268.03	34.979
268.40	29.873
268.77	34.298
269.14	32.857
269.51	33.676
269.88	32.179
270.25	33.898
270.62	32.377
270.99	33.465
271.36	33.929
271.73	33.133
272.10	33.333
272.47	35.125
272.84	33.071
273.21	31.898
273.58	36.270
273.95	32.830
274.32	33.396
274.69	31.330
275.06	32.686
275.43	32.768
275.80	31.560
276.17	33.333
276.54	31.972
276.91	33.275
277.28	34.296
277.65	33.916
278.02	34.464
278.39	31.794
278.76	32.943
279.13	33.276
279.50	32.069
279.87	32.971
280.23	30.090
280.60	32.180
280.97	32.630
281.34	33.281
281.71	30.244
282.08	31.282
282.45	31.311
282.82	32.588
283.19	33.841
283.56	31.563
283.92	31.957
284.29	29.485
284.66	32.949
285.03	29.316
285.40	30.363
285.77	32.432
286.14	30.699
286.51	31.634
286.87	31.538
287.24	30.973
287.61	31.627
287.98	31.029
288.35	31.148
288.72	30.990
289.08	30.769
289.45	29.809
289.82	30.408
290.19	29.734
290.56	27.415
290.93	27.348
291.29	29.822
291.66	27.869
292.03	28.202
292.40	26.783
292.77	28.380
293.13	27.615
293.50	27.320
293.87	27.733
294.24	27.381
294.60	27.438
294.97	27.513
295.34	25.726
295.71	25.230
296.08	26.178
296.44	26.148
296.81	26.918
297.18	25.375
297.55	24.882
297.91	26.460
298.28	24.818
298.65	25.493
299.02	27.717
299.38	23.436
299.75	23.678
300.12	25.116
300.48	24.094
300.85	24.711
301.22	24.855
301.59	25.822
301.95	23.113
302.32	24.154
302.69	23.503
303.05	24.474
303.42	23.068
303.79	25.026
304.15	24.644
304.52	24.086
304.89	24.252
305.25	22.722
305.62	23.861
305.99	24.266
306.35	24.033
306.72	23.093
307.09	22.523
307.45	23.855
307.82	23.368
308.19	23.302
308.55	22.006
308.92	24.165
309.29	24.625
309.65	23.377
310.02	23.956
310.38	23.577
310.75	23.471
311.12	23.032
311.48	22.750
311.85	22.933
312.22	24.565
312.58	22.609
312.95	24.179
313.31	22.681
313.68	23.760
314.05	23.724
314.41	25.456
314.78	24.004
315.14	24.259
315.51	23.216
315.87	23.911
316.24	23.416
316.61	24.110
316.97	23.519
317.34	23.619
317.70	25.513
318.07	25.022
318.43	23.668
318.80	23.037
319.16	22.723
319.53	23.925
319.89	23.939
320.26	24.769
320.62	23.448
320.99	23.450
321.35	22.732
321.72	24.062
322.08	24.446
322.45	23.959
322.81	22.828
323.18	23.971
323.54	23.736
323.91	23.758
324.27	24.212
324.64	23.171
325.00	24.497
325.37	24.744
325.73	22.980
326.10	23.129
326.46	25.920
326.83	25.162
327.19	23.415
327.56	24.013
327.92	23.974
328.29	25.209
328.65	25.241
329.01	23.131
329.38	24.957
329.74	23.348
330.11	23.264
330.47	22.743
330.84	24.278
331.20	22.886
331.56	24.094
331.93	23.170
332.29	25.630
332.66	23.475
333.02	25.109
333.38	24.211
333.75	23.379
334.11	24.045
334.48	23.801
334.84	22.968
335.20	24.271
335.57	23.151
335.93	23.883
336.29	23.030
336.66	22.735
337.02	23.130
337.38	24.369
337.75	22.567
338.11	23.057
338.47	22.346
338.84	22.509
339.20	24.162
339.56	22.611
339.93	23.682
340.29	22.374
340.65	23.695
341.02	22.296
341.38	24.240
341.74	22.521
342.11	22.213
342.47	21.841
342.83	22.631
343.20	22.335
343.56	22.976
343.92	23.396
344.28	23.052
344.65	22.122
345.01	22.276
345.37	21.957
345.73	23.448
346.10	22.392
346.46	22.195
346.82	21.990
347.19	22.943
347.55	22.456
347.91	21.746
348.27	22.950
348.63	21.635
349.00	22.013
349.36	22.998
349.72	22.119
350.08	21.529
350.45	22.240
350.81	21.753
351.17	22.864
351.53	21.917
351.89	21.922
352.26	21.390
352.62	21.705
352.98	21.885
353.34	22.947
353.70	22.897
354.07	22.275
354.43	22.006
354.79	21.715
355.15	21.584
355.51	21.792
355.87	21.267
356.24	21.188
356.60	21.892
356.96	22.640
357.32	21.594
357.68	21.772
358.04	22.808
358.40	22.481
358.77	22.248
359.13	20.934
359.49	22.029
359.85	22.441
360.21	21.280
360.57	22.053
360.93	21.548
361.29	21.762
361.66	20.653
362.02	20.904
362.38	22.304
362.74	21.030
363.10	21.041
363.46	20.389
363.82	20.030
364.18	21.102
364.54	20.934
364.90	21.254
365.26	21.302
365.62	21.165
365.98	20.854
366.35	22.057
366.71	20.756
367.07	21.262
367.43	21.254
367.79	21.056
368.15	21.097
368.51	20.745
368.87	22.749
369.23	20.925
369.59	21.001
369.95	20.682
370.31	20.293
370.67	20.420
371.03	21.604
371.39	20.724
371.75	22.000
372.11	21.510
372.47	20.692
372.83	19.903
373.19	19.496
373.55	20.231
373.91	20.934
374.27	21.093
374.63	20.768
374.99	20.613
375.35	20.959
375.71	20.380
376.07	20.973
376.42	21.190
376.78	20.938
377.14	20.814
377.50	20.795
377.86	21.248
378.22	20.038
378.58	20.870
378.94	21.312
379.30	19.925
379.66	21.023
380.02	21.078
380.38	20.482
380.74	20.801
381.09	21.291
381.45	20.798
381.81	21.195
382.17	20.227
382.53	20.492
382.89	20.024
383.25	20.741
383.61	21.186
383.97	21.437
384.32	20.227
384.68	20.049
385.04	18.937
385.40	20.050
385.76	21.350
386.12	20.788
386.48	19.812
386.83	20.526
387.19	19.803
387.55	20.478
387.91	19.803
388.27	20.654
388.62	20.287
388.98	20.964
389.34	20.426
389.70	20.330
390.06	20.812
390.42	20.296
390.77	20.564
391.13	19.886
391.49	20.936
391.85	20.511
392.20	20.614
392.56	20.508
392.92	20.480
393.28	20.395
393.64	20.061
393.99	19.278
394.35	20.309
394.71	20.385
395.07	19.308
395.42	21.450
395.78	19.949
396.14	20.228
396.50	19.721
396.85	21.160
397.21	19.788
397.57	19.876
397.92	19.461
398.28	20.248
398.64	19.611
399.00	20.033
399.35	20.602
399.71	19.685
400.07	20.723
400.42	19.498
400.78	19.819
401.14	19.988
401.49	20.491
401.85	20.270
402.21	20.557
402.57	20.723
402.92	20.713
403.28	19.700
403.63	20.397
403.99	19.834
404.35	19.888
404.70	19.517
405.06	20.435
405.42	18.593
405.77	19.758
406.13	20.057
406.49	19.772
406.84	20.269
407.20	20.249
407.55	19.870
407.91	19.854
408.27	18.902
408.62	20.381
408.98	20.037
409.34	20.050
409.69	20.533
410.05	19.838
410.40	19.842
410.76	19.856
411.11	20.460
411.47	20.504
411.83	20.150
412.18	20.403
412.54	20.050
412.89	19.122
413.25	19.764
413.60	19.624
413.96	19.913
414.31	19.174
414.67	18.921
415.03	19.621
415.38	19.947
415.74	19.558
416.09	19.828
416.45	19.754
416.80	19.732
417.16	20.445
417.51	20.228
417.87	20.370
418.22	19.845
418.58	19.580
418.93	19.648
419.29	19.604
419.64	20.293
420.00	20.127
420.35	19.964
420.71	19.074
421.06	19.680
421.42	21.046
421.77	20.058
422.12	20.057
422.48	19.684
422.83	20.673
423.19	19.436
423.54	19.494
423.90	19.002
424.25	20.104
424.61	19.470
424.96	19.870
425.31	19.910
425.67	19.753
426.02	20.200
426.38	19.590
426.73	19.914
427.09	19.074
427.44	19.436
427.79	19.299
428.15	19.878
428.50	19.819
428.85	19.742
429.21	19.584
429.56	19.979
429.92	21.135
430.27	19.836
430.62	19.675
430.98	19.831
431.33	18.700
431.68	20.075
432.04	18.930
432.39	19.111
432.74	19.497
433.10	19.059
433.45	20.178
433.80	19.828
434.16	19.716
434.51	19.565
434.86	19.847
435.22	19.751
435.57	19.963
435.92	19.481
436.28	19.820
436.63	19.111
436.98	19.683
437.34	20.208
437.69	19.185
438.04	19.468
438.39	20.361
438.75	19.070
439.10	19.028
439.45	19.976
439.81	19.951
440.16	20.174
440.51	18.728
440.86	19.976
441.22	19.564
441.57	19.089
441.92	19.596
442.27	19.751
442.63	20.075
442.98	19.271
443.33	19.865
443.68	18.925
444.03	19.523
444.39	20.327
444.74	18.829
445.09	19.383
445.44	20.282
445.79	19.463
446.15	19.800
446.50	19.824
446.85	20.470
447.20	19.603
447.55	19.866
447.91	20.169
448.26	19.211
448.61	19.793
448.96	19.134
449.31	19.989
449.66	19.838
450.02	19.955
450.37	19.330
450.72	19.346
451.07	19.749
451.42	19.089
451.77	19.903
452.12	19.846
452.47	20.271
452.83	19.399
453.18	19.160
453.53	19.042
453.88	19.277
454.23	20.148
454.58	19.608
454.93	19.436
455.28	19.396
455.63	18.528
455.98	18.990
456.34	19.835
456.69	19.489
457.04	20.000
457.39	19.182
457.74	19.449
458.09	19.135
458.44	19.154
458.79	19.989
459.14	18.820
459.49	19.085
459.84	19.673
460.19	18.187
460.54	19.465
460.89	19.144
461.24	18.742
461.59	19.143
461.94	19.216
462.29	19.301
462.64	19.657
462.99	19.852
463.34	20.166
463.69	19.910
464.04	19.628
464.39	19.829
464.74	18.796
465.09	19.715
465.44	19.585
465.79	20.299
466.14	18.700
466.49	19.648
466.84	19.665
467.19	18.981
467.54	19.443
467.89	18.479
468.24	19.422
468.59	19.120
468.94	19.349
469.29	18.837
469.64	18.410
469.99	20.069
470.34	19.622
470.68	18.662
471.03	19.182
471.38	19.124
471.73	19.067
472.08	18.419
472.43	19.921
472.78	19.405
473.13	18.997
473.48	17.808
473.83	19.209
474.17	19.010
474.52	19.159
474.87	19.783
475.22	18.418
475.57	19.130
475.92	19.084
476.27	19.347
476.61	19.196
476.96	18.732
477.31	18.824
477.66	18.983
478.01	18.571
478.36	19.237
478.70	19.495
479.05	20.089
479.40	18.825
479.75	18.969
480.10	19.888
480.45	19.814
480.79	19.164
481.14	20.162
481.49	19.240
481.84	18.756
482.19	19.407
482.53	19.333
482.88	19.175
483.23	18.239
483.58	19.187
483.92	18.142
484.27	18.435
484.62	19.086
484.97	19.204
485.31	19.265
485.66	19.678
486.01	20.150
486.36	20.385
486.70	20.107
487.05	20.028
487.40	19.101
487.75	19.007
488.09	18.736
488.44	18.542
488.79	18.622
489.13	18.728
489.48	18.769
489.83	18.624
490.17	18.202
490.52	19.495
490.87	18.498
491.22	18.512
491.56	19.358
491.91	18.339
492.26	18.569
492.60	18.951
492.95	18.562
493.30	18.411
493.64	18.225
493.99	19.420
494.34	18.738
494.68	18.854
495.03	18.923
495.37	18.491
495.72	18.246
496.07	18.753
496.41	17.735
496.76	18.647
497.11	19.202
497.45	18.726
497.80	18.829
498.14	18.992
498.49	19.264
498.84	18.775
499.18	18.716
499.53	18.267
499.87	18.147
500.22	18.815
500.56	19.157
500.91	18.913
501.26	18.966
501.60	18.775
501.95	19.118
502.29	18.447
502.64	19.142
502.98	18.834
503.33	19.075
503.67	18.452
504.02	18.725
504.36	18.227
504.71	18.089
505.06	19.052
505.40	18.763
505.75	19.329
506.09	18.651
506.44	18.548
506.78	19.096
507.13	18.451
507.47	18.664
507.82	17.949
508.16	17.995
508.51	18.337
508.85	17.833
509.19	19.312
509.54	18.713
509.88	18.495
510.23	18.789
510.57	18.379
510.92	18.319
511.26	18.922
511.61	18.441
511.95	17.916
512.30	18.434
512.64	18.615
512.98	18.670
513.33	18.197
513.67	18.966
514.02	18.586
514.36	18.202
514.70	18.533
515.05	17.788
515.39	18.455
515.74	18.650
516.08	17.699
516.42	18.318
516.77	17.633
517.11	17.989
517.46	17.947
517.80	19.189
518.14	17.514
518.49	18.083
518.83	18.079
519.17	18.373
519.52	18.878
519.86	18.701
520.20	17.829
520.55	17.848
520.89	17.457
521.23	18.333
521.58	18.710
521.92	17.033
522.26	16.981
522.61	17.712
522.95	18.329
523.29	17.968
523.64	18.309
523.98	17.980
524.32	17.643
524.66	18.506
525.01	18.349
525.35	18.631
525.69	17.959
526.04	17.524
526.38	18.483
526.72	17.949
527.06	18.246
527.41	17.604
527.75	17.824
528.09	18.652
528.43	17.978
528.78	18.475
529.12	19.211
529.46	18.682
529.80	18.188
530.15	17.825
530.49	19.205
530.83	17.806
531.17	18.151
531.51	18.274
531.86	17.751
532.20	17.988
532.54	17.310
532.88	18.039
533.22	18.721
533.57	18.874
533.91	18.387
534.25	18.815
534.59	18.340
534.93	18.304
535.27	18.726
535.62	17.961
535.96	19.128
536.30	18.085
536.64	17.498
536.98	16.608
537.32	17.651
537.66	17.278
538.01	17.892
538.35	18.163
538.69	18.060
539.03	19.262
539.37	18.243
539.71	18.008
540.05	17.476
540.39	17.412
540.73	19.064
541.07	17.415
541.42	18.855
541.76	18.133
542.10	17.468
542.44	17.810
542.78	17.765
543.12	17.790
543.46	18.245
543.80	17.651
544.14	18.995
544.48	17.717
544.82	19.166
545.16	17.039
545.50	17.961
545.84	17.602
546.18	16.620
546.52	18.207
546.86	16.749
547.20	17.727
547.54	17.298
547.88	18.489
548.22	18.697
548.56	17.678
548.90	18.065
549.24	19.097
549.58	16.584
549.92	18.489
550.26	17.638
550.60	18.994
550.94	17.388
551.28	17.562
551.62	18.120
551.96	18.009
552.30	17.103
552.64	18.008
552.98	19.176
553.32	17.736
553.66	18.489
554.00	18.071
554.34	16.703
554.68	18.568
555.02	17.216
555.36	17.247
555.69	17.334
556.03	17.298
556.37	17.070
556.71	17.730
557.05	17.565
557.39	17.332
557.73	17.549
558.07	17.408
558.41	17.638
558.75	17.860
559.08	16.359
559.42	17.703
559.76	17.737
560.10	18.217
560.44	17.907
560.78	17.050
561.12	17.730
561.45	16.531
561.79	18.294
562.13	18.284
562.47	18.071
562.81	17.316
563.15	17.422
563.48	17.825
563.82	17.510
564.16	18.483
564.50	17.571
564.84	18.041
565.17	18.874
565.51	17.447
565.85	17.189
566.19	17.483
566.52	17.890
566.86	17.636
567.20	17.715
567.54	17.674
567.88	17.749
568.21	18.034
568.55	18.884
568.89	18.594
569.23	18.378
569.56	18.857
569.90	18.980
570.24	18.484
570.57	18.731
570.91	18.808
571.25	19.204
571.59	18.942
571.92	19.507
572.26	19.335
572.60	18.725
572.93	18.900
573.27	18.615
573.61	19.061
573.95	18.667
574.28	19.386
574.62	19.279
574.96	19.267
575.29	18.907
575.63	18.809
575.97	18.967
576.30	18.998
576.64	18.915
576.98	18.971
577.31	19.509
577.65	19.373
577.98	19.739
578.32	19.023
578.66	19.422
578.99	19.014
579.33	18.691
579.67	18.457
580.00	18.509
580.34	18.444
580.67	19.255
581.01	19.030
581.35	19.432
581.68	19.648
582.02	19.748
582.35	19.423
582.69	19.401
583.02	18.751
583.36	18.893
583.70	18.732
584.03	18.603
584.37	18.251
584.70	18.748
585.04	19.038
585.37	19.344
585.71	19.151
586.04	19.148
586.38	18.732
586.72	19.191
587.05	19.233
587.39	19.033
587.72	18.564
588.06	18.687
588.39	18.556
588.73	18.712
589.06	18.267
589.40	18.645
589.73	17.535
590.07	18.520
590.40	18.099
590.73	19.449
591.07	18.345
591.40	18.000
591.74	18.453
592.07	18.211
592.41	19.005
592.74	19.252
593.08	18.598
593.41	18.979
593.75	18.669
594.08	18.895
594.41	19.122
594.75	18.291
595.08	18.633
595.42	18.432
595.75	18.619
596.09	18.514
596.42	18.096
596.75	18.078
597.09	18.426
597.42	18.259
597.75	19.022
598.09	18.215
598.42	19.642
598.76	18.724
599.09	19.208
599.42	18.882
599.76	19.076
600.09	18.863
600.42	18.795
600.76	18.958
601.09	18.230
601.42	18.542
601.76	18.726
602.09	18.565
602.42	18.613
602.76	17.366
603.09	18.768
603.42	18.593
603.76	18.589
604.09	18.221
604.42	18.418
604.76	18.507
605.09	18.623
605.42	18.848
605.75	18.587
606.09	18.336
606.42	18.994
606.75	18.139
607.09	18.395
607.42	18.651
607.75	17.637
608.08	18.170
608.42	17.994
608.75	18.777
609.08	17.785
609.41	18.331
609.75	17.398
610.08	18.343
610.41	18.513
610.74	17.661
611.07	17.635
611.41	18.321
611.74	18.168
612.07	17.665
612.40	18.000
612.73	18.057
613.07	17.239
613.40	18.062
613.73	17.714
614.06	17.855
614.39	18.399
614.72	18.434
615.06	18.333
615.39	17.881
615.72	17.495
616.05	17.905
616.38	17.984
616.71	17.876
617.05	18.428
617.38	17.807
617.71	17.279
618.04	17.611
618.37	17.918
618.70	18.241
619.03	16.357
619.36	17.580
619.69	16.959
620.03	17.173
620.36	17.815
620.69	16.702
621.02	17.462
621.35	16.680
621.68	15.811
622.01	17.233
622.34	16.733
622.67	17.384
623.00	17.781
623.33	17.128
623.66	16.134
623.99	17.779
624.32	17.388
624.65	17.507
624.99	17.855
625.32	17.849
625.65	16.822
625.98	17.694
626.31	16.735
626.64	16.165
626.97	15.571
627.30	17.536
627.63	16.263
627.96	14.892
628.29	17.023
628.62	16.441
628.95	15.832
629.28	16.453
629.61	18.086
629.94	16.344
630.26	16.453
630.59	16.284
630.92	15.261
631.25	16.066
631.58	16.060
631.91	16.331
632.24	16.246
632.57	15.222
632.90	15.869
633.23	14.628
633.56	17.026
633.89	18.182
634.22	16.254
634.55	16.931
634.88	15.074
635.20	17.750
635.53	14.470
635.86	16.410
636.19	17.246
636.52	16.341
636.85	14.717
637.18	15.469
637.51	15.481
637.83	15.666
638.16	16.000
638.49	16.155
638.82	15.294
639.15	15.559
639.48	14.572
639.81	15.833
640.13	16.338
640.46	16.949
640.79	15.540
641.12	15.089
641.45	15.721
641.77	14.286
642.10	15.129
642.43	15.881
642.76	13.565
643.09	15.655
643.41	14.035
643.74	15.024
644.07	14.887
644.40	15.920
644.73	13.898
645.05	14.311
645.38	12.957
645.71	14.626
646.04	14.478
646.36	12.500
646.69	15.559
647.02	14.026
647.35	14.991
647.67	14.603
648.00	12.862
648.33	15.932
648.66	15.192
648.98	15.683
649.31	15.491
649.64	15.493
649.96	15.482
650.29	12.255
650.62	14.003
650.94	12.414
651.27	13.958
651.60	15.385
651.92	15.771
652.25	15.410
652.58	15.512
652.90	15.488
653.23	12.054
653.56	13.884
653.88	12.457
654.21	11.945
654.54	13.123
654.86	15.285
655.19	14.006
655.52	21.599
655.84	22.155
656.17	26.732
656.49	34.570
656.82	32.094
657.15	22.799
657.47	16.354
657.80	11.756
658.13	11.767
658.45	16.753
658.78	16.068
659.10	15.797
659.43	15.609
659.75	15.355
660.08	15.310
660.41	12.576
660.73	12.948
661.06	14.456
661.38	10.271
661.71	12.295
662.03	14.588
662.36	9.292
662.68	13.763
663.01	15.890
663.33	12.095
663.66	13.082
663.98	15.056
664.31	13.626
664.63	9.910
664.96	15.098
665.28	17.167
665.61	14.039
665.93	16.274
666.26	14.979
666.58	14.989
666.91	15.919
667.23	10.829
667.56	14.713
667.88	12.850
668.21	13.393
668.53	12.414
668.86	13.189
669.18	11.584
669.50	14.286
669.83	11.456
670.15	12.381
670.48	11.954
670.80	15.098
671.13	13.043
671.45	13.242
671.77	14.440
672.10	13.060
672.42	15.267
672.75	12.857
673.07	15.455
673.39	15.485
673.72	15.569
674.04	14.959
674.37	14.024
674.69	10.905
675.01	13.675
675.34	15.317
675.66	14.161
675.98	12.389
676.31	15.158
676.63	15.873
676.95	10.588
677.28	13.073
677.60	12.745
677.92	15.743
678.25	13.883
678.57	15.275
678.89	14.286
679.22	16.149
679.54	16.327
679.86	12.109
680.18	15.000
680.51	11.923
680.83	14.035
681.15	15.324
681.48	15.431
681.80	13.088
682.12	10.208
682.44	13.682
682.77	13.263
683.09	13.393
683.41	12.093
683.73	11.830
684.06	13.274
684.38	14.316
684.70	10.794
685.02	17.562
685.34	15.656
685.67	16.698
685.99	13.523
686.31	14.483
686.63	14.706
686.96	16.141
687.28	14.770
687.60	16.068
687.92	14.008
688.24	15.600
688.56	14.254
688.89	12.918
689.21	12.332
689.53	8.333
689.85	13.483
690.17	15.604
690.49	12.560
690.82	12.888
691.14	12.560
691.46	12.529
691.78	14.945
692.10	15.287
692.42	12.308
692.74	14.348
693.06	12.809
693.39	14.052
693.71	15.556
694.03	16.364
694.35	14.865
694.67	15.500
694.99	15.722
695.31	12.145
695.63	14.390
695.95	14.504
696.27	12.055
696.59	8.333
696.91	13.128
697.23	12.183
697.56	15.827
697.88	15.593
698.20	16.847
698.52	11.682
698.84	13.158
699.16	14.421
699.48	16.543
699.80	14.470
700.12	12.869
700.44	11.831
700.76	12.640
701.08	12.387
701.40	14.072
701.72	11.077
702.04	12.579
702.36	11.890
702.68	14.024
703.00	15.789
703.32	10.864
703.64	10.843
703.96	13.196
704.28	14.458
704.60	10.671
704.91	11.912
705.23	13.291
705.55	11.379
705.87	10.915
706.19	8.791
706.51	8.803
706.83	11.783
707.15	13.415
707.47	14.601
707.79	13.959
708.11	12.853
708.43	14.721
708.74	14.096
709.06	13.636
709.38	11.527
709.70	11.111
710.02	13.707
710.34	13.000
710.66	10.423
710.98	9.907
711.29	14.935
711.61	11.935
711.93	11.935
712.25	10.490
712.57	12.281
712.89	10.256
713.20	12.766
713.52	11.679
713.84	12.903
714.16	14.239
714.48	12.342
714.80	9.904
715.11	12.500
715.43	14.286
715.75	16.149
716.07	11.747
716.39	13.468
716.70	11.511
717.02	9.412
717.34	15.152
717.66	9.483
717.97	8.333
718.29	14.173
718.61	11.159
718.93	8.140
719.24	9.594
719.56	13.109
719.88	9.701
720.20	10.672
720.51	14.453
720.83	13.619
721.15	3.659
721.46	12.977
721.78	11.952
722.10	12.749
722.42	10.887
722.73	14.286
723.05	13.469
723.37	13.025
723.68	10.000
724.00	7.660
724.32	10.879
724.63	15.638
724.95	11.111
725.27	17.300
725.58	12.757
725.90	12.134
726.22	14.855
726.53	8.235
726.85	13.869
727.16	12.593
727.48	13.410
727.80	12.500
728.11	15.164
728.43	13.672
728.74	12.698
729.06	10.400
729.38	13.834
729.69	15.302
730.01	10.781
730.32	16.236
730.64	11.742
730.96	13.636
731.27	12.709
731.59	15.238
731.90	11.650
732.22	11.218
732.53	10.811
732.85	9.732
733.16	13.531
733.48	14.189
733.80	9.122
734.11	17.230
734.43	13.622
734.74	18.619
735.06	15.562
735.37	14.590
735.69	12.945
736.00	13.861
736.32	16.667
736.63	14.828
736.95	14.041
737.26	11.034
737.58	14.236
737.89	13.746
738.21	10.676
738.52	12.928
738.83	15.918
739.15	14.346
739.46	10.895
739.78	11.972
740.09	12.329
740.41	7.500
740.72	13.475
741.04	9.600
741.35	7.895
741.66	15.556
741.98	12.500
742.29	12.871
742.61	9.268
742.92	14.474
743.23	12.736
743.55	11.712
743.86	14.350
744.18	12.255
744.49	8.629
744.80	12.245
745.12	10.280
745.43	18.009
745.74	7.207
746.06	13.551
746.37	12.385
746.68	12.500
747.00	9.569
747.31	14.423
747.62	13.303
747.94	16.157
748.25	16.055
748.56	17.778
748.88	16.432
749.19	13.810
749.50	8.738
749.82	11.268
750.13	7.083
750.44	10.000
750.75	9.594
751.07	18.149
751.38	17.730
751.69	10.039
752.01	8.203
752.32	9.615
752.63	10.821
752.94	13.200
753.26	11.297
753.57	15.417
753.88	14.170
754.19	15.936
754.51	13.910
754.82	14.652
755.13	4.783
755.44	12.195
755.75	8.400
756.07	11.070
756.38	10.791
756.69	15.358
757.00	15.265
757.31	16.828
757.63	13.889
757.94	18.927
758.25	15.079
758.56	15.489
758.87	16.964
759.18	12.934
759.50	12.795
759.81	17.726
760.12	16.308
760.43	13.393
760.74	15.537
761.05	15.746
761.36	12.894
761.67	15.408
761.99	13.402
762.30	15.693
762.61	8.230
762.92	16.667
763.23	13.934
763.54	11.688
763.85	12.653
764.16	7.724
764.47	13.600
764.78	12.143
765.10	13.770
765.41	18.237
765.72	15.217
766.03	12.871
766.34	13.846
766.65	10.879
766.96	9.859
767.27	12.376
767.58	6.742
767.89	12.346
768.20	13.260
768.51	17.588
768.82	19.712
769.13	11.947
769.44	17.155
769.75	11.966
770.06	9.417
770.37	9.804
770.68	12.621
770.99	11.650
771.30	14.286
771.61	17.959
771.92	20.332
772.23	9.459
772.54	12.155
772.85	9.884
773.16	14.286
773.47	8.284
773.78	16.092
774.09	8.125
774.39	11.180
774.70	10.204
775.01	8.276
775.32	13.571
775.63	12.782
775.94	13.534
776.25	3.200
776.56	14.050
776.87	12.698
777.18	-3.604
777.48	10.811
777.79	1.575
778.10	7.339
778.41	-7.018
778.72	14.286
779.03	3.521
779.34	11.486
779.65	8.451
779.95	11.258
780.26	8.633
780.57	5.755
780.88	9.859
781.19	0.000
781.50	14.094
781.80	10.526
782.11	5.814
782.42	15.094
782.73	16.340
783.04	9.655
783.34	2.290
783.65	8.054
783.96	13.846
784.27	15.714
784.57	9.220
784.88	-1.923
785.19	30.000
785.50	17.273
785.81	0.952
786.11	5.042
786.42	10.619
786.73	8.491
787.04	0.000
787.34	-2.970
787.65	11.667
787.96	7.438
788.26	12.319
788.57	11.111
788.88	17.073
789.19	8.800
789.49	6.870
789.80	18.182
790.11	2.830
790.41	8.911
790.72	6.383
791.03	6.522
791.33	14.118
791.64	-3.704
791.95	14.130
792.25	0.000
792.56	7.692
792.87	-8.974
793.17	-3.846
793.48	4.762
793.79	2.500
794.09	15.385
794.40	22.917
794.70	5.405
795.01	4.688
795.32	6.087
795.62	-10.870
795.93	4.717
796.23	5.051
796.54	-4.878
796.85	4.762
797.15	-3.030
797.46	-4.348
797.76	0.000
798.07	10.227
798.37	-2.439
798.68	0.000
798.99	-5.405
799.29	19.277
799.60	-11.538
799.90	12.308
800.21	0.000
800.51	5.333
800.82	-1.333
801.12	-33.333
801.43	-16.667
801.73	5.405
802.04	5.714
802.34	-3.279
802.65	-1.493
802.95	-5.455
803.26	10.345
803.56	7.692
803.87	0.000
804.17	8.065
804.48	-4.412
804.78	-36.585
805.09	2.899
805.39	5.882
805.70	-19.149
806.00	3.509
806.30	-3.846
806.61	19.737
806.91	9.459
807.22	10.526
807.52	10.227
807.83	-18.644
808.13	-10.606
808.43	-6.667
808.74	-8.621
809.04	-7.937
809.35	-10.204
809.65	3.333
809.95	-16.327
810.26	11.268
810.56	0.000
810.86	-12.245
811.17	15.385
811.47	0.000
811.77	-20.833
812.08	7.547
812.38	-18.750
812.69	3.636
812.99	-7.317
813.29	-13.514
813.59	-40.541
813.90	-9.091
814.20	-5.455
814.50	-11.667
814.81	10.909
815.11	19.298
815.41	-6.977
815.72	-10.000
816.02	-8.571
816.32	-29.730
816.62	-6.250
816.93	-13.333
817.23	-35.556
817.53	-27.778
817.84	-13.514
818.14	-7.317
818.44	-2.000
818.74	0.000
819.04	-24.390
819.35	-22.222
819.65	-18.182
819.95	-72.222
820.25	-42.424
820.56	-30.952
820.86	-11.111
821.16	-11.364
821.46	-15.217
821.76	-3.448
822.07	4.348
822.37	12.121
822.67	21.951
822.97	2.703
823.27	-34.286
823.57	17.241
823.88	-44.118
824.18	-25.000
824.48	11.429
824.78	4.762
825.08	-46.429
825.38	-44.444
825.69	-9.677
825.99	-17.073
826.29	-33.333
826.59	-12.500
826.89	-35.484
827.19	-52.174
827.49	-27.778
827.79	-47.826
828.09	6.452
828.39	-18.750
828.70	-31.250
829.00	-62.069
829.30	16.216
829.60	-54.167
829.90	0.000
830.20	-31.250
830.50	-9.091
830.80	-105.882
831.10	-68.182
831.40	-41.176
831.70	-15.385
832.00	-3.030
832.30	-17.647
832.60	-16.216
832.90	1300.000
833.20	-25.000
833.50	-85.000
833.80	-7.895
834.10	-54.167
834.40	-86.364
834.70	-113.333
835.00	-120.000
835.30	-58.333
835.60	-52.381
835.90	47.619
836.20	-56.000
836.50	8.333
836.80	-89.474
837.10	16.216
837.40	6.667
837.70	13.043
838.00	45.833
838.30	0.000
838.60	-200.000
838.90	-200.000
839.19	-66.667
839.49	7.692
839.79	-42.105
840.09	-166.667
840.39	-150.000
840.69	0.000
840.99	-28.571
841.29	-66.667
841.59	-130.769
841.88	-80.000
842.18	-135.714
842.48	-16.667
842.78	-314.286
843.08	-107.143
843.38	-125.000
843.68	-100.000
843.97	7.143
844.27	-222.222
844.57	-145.455
844.87	-140.000
845.17	-4.545
845.47	1033.333
845.76	-86.667
846.06	-191.667
846.36	-1100.000
846.66	-42.105
846.96	-59.091
847.25	-66.667
847.55	-155.556
847.85	-28.571
848.15	-15.385
848.44	-216.667
848.74	-100.000
849.04	-153.846
849.34	-350.000
849.63	-36.364
849.93	-150.000
850.23	-15.000
850.53	-175.000
850.82	-55.556
851.12	-6.667
851.42	-105.882
851.71	-200.000
852.01	-35.294
852.31	30.769
852.61	700.000
852.90	-5.882
853.20	-80.000
853.50	-68.750
853.79	-178.571
854.09	-500.000
854.39	-25.000
854.68	17.500
854.98	-42.857
855.28	-24.000
855.57	33.333
855.87	-37.500
856.17	-44.000
856.46	-18.750
856.76	0.000
857.05	-20.000
857.35	-175.000
857.65	-105.882
857.94	-116.667
858.24	-133.333
858.53	-20.000
858.83	-109.091
859.13	-16.000
859.42	-121.429
859.72	-87.500
860.01	0.000
860.31	-162.500
860.60	-100.000
860.90	-233.333
861.20	-183.333
861.49	-40.000
861.79	-93.750
862.08	425.000
862.38	-108.333
862.67	314.286
862.97	425.000
863.26	-109.091
863.56	-72.727
863.85	-10.526
864.15	-70.588
864.44	-300.000
864.74	-30.000
865.03	-55.556
865.33	-14.286
865.62	164.286
865.92	-10.526
866.21	-50.000
866.51	-100.000
866.80	-111.111
867.10	-262.500
867.39	-31.250
867.69	-80.000
867.98	-120.000
868.27	-23.529
868.57	0.000
868.86	900.000
869.16	-425.000
869.45	-300.000
869.75	650.000
870.04	-20.000
870.33	-900.000
870.63	-47.368
870.92	-91.667
871.22	-1700.000
871.51	-114.286
871.80	-133.333
872.10	-350.000
>>>>>End Processed Spectral Data<<<<<
