SpectraSuite Data File
++++++++++++++++++++++++++++++++++++
Date: Wed May 13 21:44:16 PDT 2015
User: schluterlab
Dark Spectrum Present: Yes
Reference Spectrum Present: Yes
Number of Sampled Component Spectra: 1
Spectrometers: USB2E3373
Integration Time (usec): 3000 (USB2E3373)
Spectra Averaged: 3 (USB2E3373)
Boxcar Smoothing: 0 (USB2E3373)
Correct for Electrical Dark: No (USB2E3373)
Strobe/Lamp Enabled: No (USB2E3373)
Correct for Detector Non-linearity: No (USB2E3373)
Correct for Stray Light: No (USB2E3373)
Number of Pixels in Processed Spectrum: 2048
>>>>>Begin Processed Spectral Data<<<<<
178.53	0.000
178.91	-150.000
179.29	158.333
179.67	-650.000
180.04	-433.333
180.42	160.000
180.80	1600.000
181.18	183.333
181.56	-400.000
181.94	-275.000
182.31	54.545
182.69	123.077
183.07	-180.000
183.45	316.667
183.83	266.667
184.20	71.429
184.58	-66.667
184.96	600.000
185.34	242.857
185.72	0.000
186.09	-200.000
186.47	-120.000
186.85	220.000
187.23	-100.000
187.61	450.000
187.98	900.000
188.36	37.500
188.74	0.000
189.12	-118.182
189.49	70.000
189.87	125.000
190.25	260.000
190.63	1500.000
191.00	-160.000
191.38	60.000
191.76	250.000
192.14	175.000
192.51	-26.316
192.89	400.000
193.27	625.000
193.65	-140.000
194.02	172.727
194.40	240.000
194.78	-1200.000
195.15	280.000
195.53	20.000
195.91	-100.000
196.29	-133.333
196.66	0.000
197.04	350.000
197.42	-160.000
197.79	-100.000
198.17	-100.000
198.55	-266.667
198.92	125.000
199.30	-466.667
199.68	0.000
200.05	850.000
200.43	66.667
200.81	-400.000
201.18	-260.000
201.56	-183.333
201.94	650.000
202.31	13.043
202.69	-142.857
203.07	-300.000
203.44	-20.000
203.82	-366.667
204.19	-80.000
204.57	0.000
204.95	-66.667
205.32	0.000
205.70	100.000
206.08	-300.000
206.45	-216.667
206.83	425.000
207.20	-400.000
207.58	-60.000
207.96	-900.000
208.33	-142.857
208.71	-900.000
209.08	312.500
209.46	425.000
209.84	0.000
210.21	200.000
210.59	2200.000
210.96	260.000
211.34	900.000
211.71	-600.000
212.09	-233.333
212.46	-130.000
212.84	-133.333
213.22	125.000
213.59	-200.000
213.97	-450.000
214.34	-400.000
214.72	-7.692
215.09	250.000
215.47	211.111
215.84	500.000
216.22	50.000
216.59	-250.000
216.97	400.000
217.34	133.333
217.72	0.000
218.09	133.333
218.47	-700.000
218.84	-242.857
219.22	-75.000
219.59	-366.667
219.97	-275.000
220.34	-87.500
220.72	-40.000
221.09	0.000
221.47	-200.000
221.84	-300.000
222.22	0.000
222.59	400.000
222.97	-266.667
223.34	-50.000
223.72	-700.000
224.09	-500.000
224.46	-36.364
224.84	0.000
225.21	-57.143
225.59	-25.000
225.96	-66.667
226.34	-70.000
226.71	-142.857
227.08	500.000
227.46	-87.500
227.83	-200.000
228.21	-56.250
228.58	-350.000
228.95	-100.000
229.33	18.750
229.70	-137.500
230.08	-7.692
230.45	-112.500
230.82	-16.667
231.20	57.143
231.57	-375.000
231.95	1300.000
232.32	16.667
232.69	47.059
233.07	-1900.000
233.44	-13.043
233.81	-650.000
234.19	37.500
234.56	-53.333
234.93	-73.333
235.31	0.000
235.68	-69.231
236.05	-23.077
236.43	-44.444
236.80	-9.091
237.17	-106.667
237.55	-5.882
237.92	-24.138
238.29	-29.630
238.67	0.000
239.04	-51.613
239.41	2.128
239.79	4.255
240.16	-16.279
240.53	-3.571
240.91	10.714
241.28	17.857
241.65	-6.452
242.02	5.263
242.40	8.696
242.77	0.000
243.14	2.564
243.51	2.128
243.89	0.962
244.26	18.868
244.63	-7.692
245.00	6.250
245.38	6.723
245.75	2.459
246.12	5.263
246.49	8.130
246.87	1.681
247.24	5.405
247.61	0.662
247.98	3.205
248.36	2.367
248.73	2.247
249.10	7.071
249.47	5.914
249.84	11.053
250.22	4.975
250.59	13.084
250.96	8.636
251.33	4.785
251.70	10.460
252.08	7.950
252.45	9.465
252.82	8.365
253.19	7.782
253.56	6.835
253.94	14.591
254.31	8.099
254.68	9.732
255.05	7.591
255.42	9.790
255.79	8.896
256.16	11.987
256.54	7.937
256.91	7.278
257.28	5.031
257.65	3.503
258.02	9.091
258.39	8.187
258.76	7.267
259.14	6.818
259.51	7.303
259.88	7.317
260.25	8.056
260.62	6.461
260.99	9.549
261.36	7.254
261.73	8.889
262.10	5.598
262.47	5.679
262.85	7.214
263.22	8.718
263.59	8.052
263.96	7.299
264.33	7.692
264.70	6.744
265.07	7.870
265.44	8.966
265.81	5.950
266.18	8.428
266.55	8.297
266.92	8.263
267.29	10.700
267.66	8.917
268.03	10.288
268.40	6.992
268.77	8.884
269.14	9.592
269.51	12.115
269.88	7.128
270.25	8.051
270.62	8.197
270.99	10.236
271.36	8.929
271.73	7.430
272.10	5.905
272.47	8.253
272.84	7.480
273.21	7.436
273.58	9.221
273.95	7.925
274.32	8.955
274.69	8.743
275.06	8.304
275.43	9.228
275.80	9.574
276.17	6.998
276.54	6.572
276.91	9.756
277.28	7.040
277.65	10.315
278.02	7.857
278.39	7.638
278.76	8.027
279.13	7.033
279.50	9.138
279.87	7.609
280.23	7.207
280.60	8.478
280.97	7.955
281.34	8.517
281.71	6.992
282.08	8.034
282.45	10.328
282.82	8.307
283.19	9.909
283.56	8.281
283.92	9.174
284.29	7.176
284.66	7.084
285.03	7.818
285.40	8.308
285.77	8.859
286.14	8.207
286.51	9.145
286.87	8.308
287.24	9.882
287.61	8.735
287.98	10.294
288.35	7.004
288.72	8.034
289.08	9.687
289.45	7.930
289.82	7.716
290.19	8.135
290.56	8.239
290.93	7.873
291.29	8.482
291.66	7.240
292.03	7.629
292.40	8.614
292.77	8.969
293.13	7.950
293.50	8.497
293.87	9.067
294.24	8.995
294.60	8.453
294.97	8.730
295.34	6.332
295.71	7.884
296.08	6.937
296.44	8.036
296.81	6.943
297.18	9.375
297.55	8.373
297.91	7.329
298.28	8.475
298.65	6.527
299.02	7.814
299.38	7.239
299.75	8.774
300.12	6.860
300.48	7.719
300.85	7.506
301.22	7.201
301.59	6.925
301.95	7.549
302.32	7.118
302.69	7.119
303.05	8.084
303.42	8.182
303.79	8.938
304.15	9.858
304.52	10.000
304.89	8.195
305.25	7.464
305.62	8.677
305.99	9.576
306.35	10.031
306.72	9.359
307.09	8.968
307.45	9.478
307.82	9.053
308.19	7.837
308.55	7.574
308.92	11.100
309.29	9.610
309.65	9.690
310.02	11.034
310.38	10.772
310.75	9.763
311.12	10.982
311.48	11.968
311.85	11.220
312.22	12.379
312.58	12.464
312.95	12.637
313.31	12.580
313.68	12.691
314.05	14.367
314.41	14.409
314.78	14.137
315.14	14.167
315.51	15.414
315.87	15.663
316.24	16.713
316.61	17.352
316.97	16.944
317.34	17.023
317.70	18.822
318.07	20.142
318.43	18.157
318.80	19.110
319.16	19.894
319.53	22.760
319.89	21.590
320.26	22.736
320.62	23.633
320.99	23.062
321.35	23.293
321.72	25.987
322.08	26.015
322.45	25.717
322.81	27.819
323.18	26.386
323.54	28.430
323.91	28.817
324.27	28.713
324.64	28.571
325.00	29.921
325.37	30.631
325.73	30.724
326.10	31.455
326.46	31.689
326.83	31.958
327.19	31.463
327.56	33.280
327.92	33.146
328.29	33.723
328.65	35.583
329.01	33.157
329.38	35.913
329.74	34.506
330.11	35.528
330.47	36.111
330.84	36.372
331.20	34.671
331.56	36.232
331.93	36.693
332.29	37.793
332.66	36.441
333.02	37.272
333.38	36.930
333.75	36.860
334.11	38.455
334.48	38.099
334.84	38.074
335.20	36.878
335.57	37.163
335.93	36.512
336.29	37.478
336.66	36.667
337.02	37.304
337.38	37.685
337.75	38.071
338.11	37.062
338.47	37.757
338.84	38.058
339.20	37.831
339.56	37.116
339.93	37.252
340.29	36.892
340.65	38.323
341.02	36.689
341.38	37.247
341.74	37.059
342.11	36.416
342.47	36.485
342.83	36.683
343.20	38.579
343.56	39.002
343.92	36.393
344.28	37.825
344.65	37.224
345.01	37.288
345.37	37.747
345.73	37.663
346.10	37.319
346.46	36.667
346.82	37.400
347.19	36.788
347.55	37.237
347.91	38.893
348.27	37.934
348.63	35.817
349.00	36.164
349.36	36.264
349.72	36.968
350.08	37.285
350.45	37.980
350.81	37.402
351.17	37.875
351.53	37.313
351.89	37.331
352.26	36.525
352.62	38.140
352.98	37.300
353.34	37.118
353.70	37.305
354.07	37.569
354.43	36.858
354.79	37.260
355.15	37.578
355.51	37.358
355.87	36.357
356.24	37.801
356.60	36.591
356.96	38.757
357.32	37.307
357.68	37.739
358.04	37.859
358.40	37.287
358.77	37.080
359.13	37.043
359.49	36.109
359.85	37.301
360.21	37.086
360.57	36.882
360.93	36.495
361.29	37.232
361.66	37.889
362.02	37.213
362.38	37.001
362.74	35.968
363.10	38.106
363.46	37.824
363.82	38.137
364.18	37.273
364.54	38.804
364.90	37.073
365.26	36.801
365.62	37.997
365.98	37.509
366.35	37.518
366.71	37.233
367.07	38.200
367.43	36.864
367.79	37.248
368.15	38.326
368.51	36.779
368.87	37.264
369.23	37.438
369.59	36.364
369.95	37.446
370.31	36.402
370.67	37.292
371.03	36.823
371.39	37.119
371.75	36.929
372.11	37.322
372.47	36.770
372.83	37.379
373.19	38.345
373.55	36.127
373.91	37.482
374.27	36.376
374.63	37.055
374.99	35.655
375.35	36.781
375.71	37.500
376.07	37.491
376.42	36.832
376.78	37.186
377.14	38.508
377.50	38.462
377.86	36.454
378.22	37.927
378.58	36.570
378.94	37.312
379.30	38.726
379.66	37.670
380.02	37.929
380.38	37.048
380.74	37.358
381.09	36.852
381.45	37.727
381.81	36.907
382.17	36.799
382.53	36.985
382.89	36.972
383.25	37.531
383.61	37.349
383.97	36.688
384.32	36.547
384.68	37.569
385.04	35.675
385.40	37.733
385.76	37.348
386.12	36.669
386.48	36.803
386.83	36.733
387.19	37.014
387.55	36.419
387.91	37.392
388.27	36.190
388.62	37.578
388.98	37.046
389.34	36.216
389.70	36.081
390.06	36.063
390.42	36.920
390.77	36.131
391.13	36.111
391.49	36.180
391.85	36.486
392.20	36.466
392.56	36.063
392.92	36.337
393.28	36.432
393.64	36.514
393.99	35.067
394.35	36.173
394.71	35.192
395.07	34.277
395.42	36.685
395.78	36.036
396.14	35.574
396.50	35.130
396.85	35.946
397.21	35.955
397.57	34.410
397.92	34.192
398.28	35.420
398.64	35.519
399.00	35.603
399.35	34.279
399.71	35.294
400.07	35.422
400.42	34.671
400.78	33.897
401.14	34.764
401.49	34.931
401.85	34.582
402.21	34.923
402.57	33.354
402.92	34.355
403.28	33.521
403.63	32.920
403.99	33.333
404.35	34.102
404.70	33.233
405.06	33.647
405.42	32.538
405.77	33.007
406.13	33.257
406.49	33.733
406.84	33.028
407.20	33.807
407.55	33.766
407.91	33.819
408.27	32.377
408.62	33.272
408.98	33.292
409.34	32.426
409.69	34.243
410.05	32.587
410.40	32.319
410.76	32.912
411.11	33.458
411.47	33.643
411.83	32.002
412.18	32.557
412.54	32.769
412.89	31.536
413.25	31.681
413.60	32.226
413.96	31.648
414.31	32.121
414.67	32.000
415.03	33.221
415.38	31.440
415.74	30.994
416.09	31.791
416.45	31.784
416.80	31.007
417.16	33.536
417.51	31.480
417.87	31.746
418.22	31.480
418.58	31.406
418.93	31.073
419.29	31.749
419.64	31.170
420.00	32.444
420.35	30.006
420.71	30.286
421.06	32.226
421.42	31.448
421.77	31.445
422.12	31.117
422.48	30.752
422.83	31.483
423.19	31.225
423.54	31.920
423.90	30.879
424.25	31.427
424.61	31.608
424.96	30.160
425.31	31.576
425.67	31.687
426.02	32.155
426.38	31.405
426.73	31.399
427.09	31.270
427.44	30.476
427.79	30.938
428.15	30.887
428.50	30.030
428.85	30.873
429.21	29.994
429.56	31.775
429.92	32.015
430.27	30.624
430.62	30.273
430.98	31.253
431.33	30.629
431.68	30.884
432.04	31.268
432.39	30.139
432.74	29.920
433.10	31.784
433.45	30.414
433.80	30.920
434.16	30.366
434.51	30.924
434.86	30.919
435.22	30.787
435.57	29.791
435.92	31.906
436.28	29.910
436.63	30.312
436.98	30.964
437.34	30.769
437.69	30.638
438.04	30.051
438.39	30.822
438.75	30.095
439.10	31.290
439.45	31.235
439.81	30.788
440.16	30.667
440.51	30.856
440.86	31.239
441.22	30.465
441.57	30.423
441.92	30.534
442.27	31.061
442.63	30.032
442.98	29.456
443.33	30.418
443.68	29.415
444.03	30.104
444.39	30.739
444.74	30.315
445.09	30.452
445.44	31.099
445.79	30.253
446.15	30.948
446.50	30.837
446.85	30.679
447.20	30.005
447.55	30.106
447.91	30.056
448.26	29.731
448.61	29.632
448.96	31.036
449.31	29.983
449.66	30.191
450.02	30.984
450.37	30.494
450.72	30.425
451.07	30.345
451.42	29.133
451.77	30.250
452.12	30.600
452.47	30.019
452.83	29.599
453.18	29.726
453.53	30.076
453.88	29.458
454.23	29.975
454.58	29.963
454.93	30.019
455.28	29.737
455.63	29.320
455.98	29.519
456.34	29.371
456.69	29.968
457.04	28.978
457.39	30.186
457.74	29.683
458.09	28.732
458.44	29.201
458.79	28.556
459.14	28.258
459.49	28.963
459.84	27.678
460.19	27.611
460.54	28.406
460.89	28.716
461.24	28.545
461.59	28.080
461.94	29.204
462.29	27.696
462.64	27.639
462.99	28.370
463.34	28.246
463.69	29.253
464.04	27.371
464.39	27.700
464.74	27.088
465.09	27.092
465.44	27.666
465.79	28.350
466.14	27.480
466.49	27.038
466.84	26.300
467.19	26.497
467.54	27.479
467.89	28.347
468.24	27.535
468.59	27.406
468.94	26.756
469.29	26.570
469.64	27.545
469.99	27.310
470.34	26.433
470.68	26.394
471.03	26.869
471.38	26.773
471.73	26.955
472.08	25.979
472.43	26.913
472.78	27.113
473.13	24.802
473.48	25.766
473.83	26.114
474.17	26.042
474.52	25.437
474.87	25.694
475.22	25.362
475.57	25.823
475.92	26.172
476.27	25.583
476.61	25.198
476.96	25.128
477.31	26.052
477.66	25.819
478.01	24.560
478.36	25.450
478.70	25.725
479.05	26.082
479.40	25.013
479.75	24.655
480.10	25.344
480.45	24.326
480.79	25.436
481.14	24.823
481.49	24.519
481.84	23.468
482.19	24.919
482.53	23.905
482.88	24.593
483.23	24.110
483.58	24.102
483.92	24.173
484.27	23.833
484.62	23.657
484.97	24.015
485.31	22.940
485.66	23.272
486.01	23.177
486.36	22.738
486.70	23.280
487.05	23.381
487.40	23.332
487.75	24.175
488.09	23.397
488.44	23.624
488.79	23.505
489.13	23.539
489.48	23.429
489.83	23.984
490.17	23.423
490.52	23.142
490.87	22.346
491.22	22.515
491.56	22.616
491.91	22.996
492.26	23.743
492.60	22.607
492.95	23.324
493.30	22.384
493.64	22.254
493.99	22.947
494.34	22.640
494.68	22.387
495.03	22.431
495.37	22.725
495.72	21.754
496.07	22.309
496.41	22.181
496.76	22.075
497.11	22.300
497.45	22.471
497.80	22.161
498.14	21.814
498.49	21.583
498.84	21.913
499.18	22.001
499.53	21.320
499.87	21.203
500.22	21.453
500.56	21.916
500.91	22.032
501.26	21.823
501.60	21.422
501.95	21.131
502.29	21.262
502.64	21.215
502.98	22.110
503.33	20.827
503.67	21.324
504.02	20.441
504.36	20.654
504.71	20.528
505.06	20.886
505.40	20.670
505.75	21.923
506.09	20.644
506.44	20.665
506.78	20.315
507.13	20.530
507.47	20.520
507.82	20.565
508.16	19.683
508.51	19.731
508.85	20.218
509.19	19.312
509.54	20.804
509.88	19.946
510.23	20.158
510.57	20.498
510.92	20.097
511.26	20.132
511.61	19.649
511.95	19.350
512.30	19.656
512.64	20.318
512.98	19.446
513.33	18.930
513.67	19.648
514.02	20.125
514.36	19.494
514.70	20.150
515.05	20.012
515.39	19.281
515.74	19.361
516.08	19.056
516.42	18.664
516.77	19.039
517.11	18.812
517.46	19.628
517.80	20.036
518.14	18.739
518.49	19.048
518.83	18.914
519.17	18.735
519.52	18.577
519.86	19.004
520.20	18.557
520.55	18.781
520.89	18.469
521.23	18.526
521.58	18.900
521.92	19.547
522.26	18.608
522.61	17.970
522.95	18.782
523.29	18.476
523.64	17.928
523.98	18.488
524.32	18.210
524.66	18.247
525.01	17.824
525.35	18.499
525.69	17.826
526.04	18.176
526.38	18.547
526.72	17.751
527.06	18.311
527.41	17.737
527.75	17.690
528.09	18.720
528.43	18.860
528.78	17.765
529.12	17.853
529.46	17.978
529.80	18.123
530.15	17.246
530.49	17.520
530.83	17.806
531.17	18.014
531.51	17.262
531.86	16.938
532.20	17.712
532.54	16.621
532.88	17.223
533.22	17.576
533.57	17.086
533.91	17.161
534.25	18.099
534.59	16.602
534.93	16.454
535.27	16.879
535.62	16.908
535.96	17.306
536.30	16.755
536.64	16.541
536.98	15.907
537.32	17.011
537.66	16.925
538.01	16.019
538.35	17.196
538.69	16.120
539.03	16.309
539.37	15.627
539.71	17.053
540.05	16.194
540.39	16.311
540.73	16.899
541.07	16.463
541.42	15.623
541.76	16.779
542.10	16.655
542.44	15.800
542.78	15.892
543.12	16.981
543.46	15.895
543.80	15.954
544.14	17.275
544.48	15.196
544.82	16.073
545.16	17.039
545.50	16.205
545.84	16.129
546.18	15.778
546.52	16.090
546.86	15.124
547.20	16.226
547.54	15.511
547.88	16.194
548.22	15.309
548.56	15.944
548.90	15.562
549.24	15.486
549.58	15.231
549.92	16.654
550.26	16.162
550.60	15.616
550.94	15.597
551.28	15.443
551.62	15.564
551.96	15.007
552.30	14.774
552.64	15.254
552.98	16.122
553.32	14.996
553.66	15.040
554.00	15.335
554.34	14.872
554.68	16.107
555.02	14.671
555.36	14.675
555.69	14.494
556.03	14.725
556.37	14.651
556.71	14.646
557.05	15.277
557.39	14.921
557.73	15.809
558.07	14.921
558.41	16.048
558.75	14.858
559.08	13.873
559.42	14.319
559.76	14.067
560.10	14.681
560.44	14.812
560.78	13.813
561.12	14.085
561.45	15.238
561.79	14.649
562.13	14.627
562.47	14.571
562.81	13.564
563.15	14.589
563.48	13.833
563.82	14.637
564.16	14.557
564.50	14.179
564.84	14.122
565.17	15.232
565.51	13.904
565.85	13.458
566.19	13.907
566.52	13.893
566.86	13.654
567.20	14.294
567.54	13.759
567.88	13.438
568.21	13.199
568.55	13.459
568.89	13.161
569.23	13.520
569.56	13.433
569.90	13.957
570.24	13.141
570.57	13.579
570.91	13.515
571.25	13.344
571.59	13.229
571.92	13.200
572.26	13.365
572.60	13.428
572.93	13.277
573.27	13.028
573.61	13.591
573.95	13.247
574.28	13.225
574.62	12.812
574.96	13.115
575.29	13.340
575.63	13.277
575.97	13.478
576.30	12.775
576.64	13.152
576.98	12.790
577.31	13.093
577.65	12.834
577.98	12.973
578.32	13.077
578.66	12.955
578.99	13.005
579.33	12.894
579.67	13.595
580.00	13.118
580.34	13.136
580.67	12.812
581.01	12.757
581.35	12.899
581.68	13.401
582.02	13.081
582.35	13.267
582.69	12.986
583.02	12.677
583.36	12.980
583.70	13.138
584.03	12.834
584.37	13.197
584.70	13.236
585.04	12.889
585.37	12.612
585.71	13.000
586.04	12.607
586.38	12.286
586.72	12.813
587.05	12.944
587.39	12.843
587.72	12.394
588.06	12.668
588.39	12.846
588.73	12.846
589.06	12.286
589.40	12.934
589.73	12.145
590.07	13.197
590.40	12.571
590.73	13.250
591.07	12.244
591.40	12.435
591.74	12.450
592.07	12.916
592.41	13.342
592.74	12.847
593.08	12.274
593.41	12.556
593.75	12.209
594.08	12.366
594.41	12.468
594.75	12.669
595.08	12.845
595.42	12.312
595.75	12.364
596.09	12.394
596.42	12.051
596.75	12.857
597.09	13.194
597.42	12.517
597.75	12.578
598.09	12.523
598.42	12.707
598.76	12.678
599.09	13.085
599.42	12.651
599.76	12.242
600.09	12.312
600.42	12.806
600.76	12.269
601.09	12.505
601.42	12.583
601.76	12.162
602.09	12.850
602.42	12.918
602.76	11.787
603.09	12.772
603.42	12.835
603.76	12.822
604.09	12.925
604.42	11.972
604.76	12.789
605.09	12.415
605.42	12.551
605.75	11.991
606.09	12.334
606.42	12.053
606.75	12.338
607.09	12.456
607.42	12.215
607.75	11.510
608.08	12.534
608.42	11.996
608.75	12.566
609.08	12.053
609.41	12.370
609.75	12.355
610.08	12.673
610.41	12.731
610.74	12.416
611.07	11.874
611.41	12.436
611.74	12.526
612.07	12.767
612.40	12.162
612.73	12.020
613.07	12.306
613.40	12.059
613.73	12.568
614.06	12.106
614.39	12.285
614.72	12.215
615.06	12.056
615.39	12.748
615.72	11.717
616.05	11.486
616.38	12.199
616.71	11.938
617.05	12.285
617.38	12.138
617.71	12.255
618.04	12.371
618.37	12.618
618.70	12.937
619.03	12.577
619.36	12.456
619.69	12.646
620.03	11.237
620.36	11.900
620.69	11.349
621.02	11.923
621.35	11.202
621.68	11.980
622.01	12.621
622.34	12.688
622.67	11.590
623.00	12.462
623.33	11.444
623.66	11.673
623.99	12.303
624.32	12.693
624.65	12.611
624.99	11.903
625.32	12.621
625.65	11.938
625.98	12.322
626.31	11.837
626.64	11.436
626.97	12.024
627.30	12.404
627.63	12.111
627.96	11.082
628.29	12.465
628.62	12.959
628.95	12.525
629.28	12.217
629.61	12.440
629.94	11.605
630.26	13.596
630.59	12.787
630.92	12.249
631.25	11.020
631.58	11.884
631.91	11.029
632.24	10.977
632.57	12.222
632.90	12.135
633.23	10.432
633.56	12.590
633.89	12.440
634.22	14.370
634.55	11.571
634.88	11.397
635.20	11.875
635.53	12.274
635.86	10.897
636.19	11.042
636.52	11.220
636.85	11.701
637.18	10.840
637.51	11.111
637.83	12.272
638.16	10.133
638.49	11.883
638.82	12.026
639.15	11.569
639.48	11.364
639.81	12.222
640.13	10.986
640.46	10.876
640.79	11.511
641.12	9.467
641.45	11.499
641.77	11.635
642.10	14.221
642.43	12.893
642.76	10.095
643.09	11.022
643.41	12.919
643.74	13.086
644.07	11.489
644.40	12.769
644.73	11.017
645.05	8.028
645.38	10.797
645.71	12.415
646.04	10.438
646.36	12.153
646.69	11.189
647.02	12.933
647.35	12.797
647.67	9.242
648.00	9.964
648.33	12.881
648.66	9.683
648.98	13.199
649.31	11.810
649.64	10.172
649.96	14.692
650.29	9.804
650.62	12.191
650.94	10.345
651.27	10.954
651.60	12.063
651.92	9.857
652.25	12.060
652.58	10.726
652.90	11.111
653.23	10.017
653.56	10.083
653.88	9.386
654.21	10.068
654.54	11.130
654.86	10.244
655.19	11.064
655.52	12.186
655.84	10.924
656.17	13.260
656.49	17.638
656.82	16.809
657.15	12.846
657.47	9.707
657.80	6.975
658.13	7.437
658.45	10.936
658.78	11.101
659.10	10.919
659.43	10.812
659.75	11.198
660.08	11.034
660.41	10.446
660.73	10.468
661.06	10.204
661.38	8.333
661.71	10.451
662.03	11.628
662.36	10.841
662.68	12.043
663.01	10.169
663.33	11.447
663.66	7.539
663.98	10.112
664.31	10.330
664.63	6.306
664.96	10.503
665.28	12.876
665.61	6.911
665.93	10.064
666.26	11.814
666.58	8.994
666.91	11.659
667.23	10.138
667.56	10.575
667.88	9.579
668.21	10.491
668.53	9.425
668.86	9.592
669.18	11.111
669.50	11.521
669.83	8.592
670.15	9.762
670.48	11.264
670.80	13.786
671.13	11.670
671.45	11.187
671.77	9.267
672.10	10.331
672.42	10.496
672.75	8.929
673.07	9.091
673.39	12.687
673.72	11.377
674.04	10.656
674.37	11.789
674.69	10.082
675.01	11.111
675.34	12.473
675.66	11.765
675.98	9.292
676.31	10.407
676.63	12.018
676.95	8.706
677.28	9.862
677.60	11.275
677.92	11.973
678.25	11.714
678.57	12.424
678.89	10.235
679.22	10.145
679.54	11.429
679.86	12.695
680.18	8.846
680.51	7.692
680.83	10.136
681.15	8.644
681.48	9.820
681.80	10.020
682.12	8.542
682.44	8.652
682.77	6.105
683.09	8.259
683.41	7.674
683.73	6.696
684.06	9.513
684.38	9.188
684.70	8.350
685.02	7.438
685.34	9.393
685.67	10.507
685.99	11.032
686.31	11.724
686.63	10.294
686.96	9.276
687.28	9.381
687.60	10.586
687.92	8.560
688.24	9.200
688.56	10.088
688.89	9.354
689.21	8.296
689.53	7.883
689.85	11.236
690.17	9.451
690.49	9.179
690.82	7.637
691.14	8.937
691.46	9.049
691.78	9.231
692.10	10.403
692.42	7.253
692.74	11.087
693.06	7.416
693.39	8.197
693.71	10.444
694.03	10.455
694.35	10.360
694.67	13.000
694.99	11.598
695.31	6.977
695.63	11.707
695.95	9.669
696.27	8.493
696.59	9.409
696.91	5.307
697.23	7.107
697.56	10.072
697.88	11.435
698.20	11.663
698.52	7.477
698.84	12.919
699.16	9.929
699.48	9.877
699.80	12.145
700.12	10.724
700.44	8.451
700.76	3.933
701.08	6.949
701.40	8.383
701.72	8.615
702.04	6.918
702.36	9.146
702.68	9.451
703.00	7.310
703.32	6.964
703.64	8.133
703.96	10.850
704.28	9.036
704.60	9.756
704.91	8.464
705.23	9.810
705.55	7.931
705.87	10.563
706.19	8.059
706.51	6.338
706.83	5.414
707.15	12.195
707.47	7.438
707.79	7.868
708.11	8.226
708.43	6.853
708.74	10.638
709.06	10.428
709.38	8.069
709.70	10.511
710.02	7.788
710.34	7.000
710.66	8.469
710.98	12.693
711.29	9.091
711.61	6.452
711.93	8.065
712.25	5.245
712.57	5.263
712.89	5.495
713.20	6.383
713.52	6.204
713.84	8.065
714.16	10.032
714.48	6.013
714.80	7.348
715.11	11.337
715.43	7.143
715.75	9.006
716.07	8.434
716.39	7.744
716.70	14.748
717.02	4.706
717.34	7.197
717.66	4.310
717.97	3.968
718.29	9.055
718.61	7.725
718.93	4.264
719.24	7.380
719.56	9.738
719.88	4.104
720.20	4.743
720.51	7.422
720.83	10.117
721.15	4.065
721.46	8.779
721.78	4.781
722.10	5.179
722.42	1.613
722.73	7.722
723.05	5.714
723.37	12.185
723.68	5.600
724.00	2.979
724.32	9.205
724.63	12.346
724.95	2.564
725.27	11.814
725.58	9.053
725.90	9.623
726.22	6.522
726.53	4.314
726.85	11.314
727.16	6.296
727.48	9.195
727.80	11.328
728.11	6.557
728.43	6.250
728.74	5.952
729.06	8.800
729.38	11.067
729.69	9.609
730.01	7.063
730.32	7.011
730.64	0.379
730.96	11.538
731.27	6.020
731.59	7.619
731.90	9.709
732.22	8.013
732.53	3.041
732.85	7.047
733.16	10.231
733.48	7.432
733.80	6.419
734.11	10.135
734.43	8.669
734.74	11.111
735.06	10.663
735.37	8.511
735.69	6.472
736.00	7.261
736.32	6.738
736.63	5.862
736.95	6.849
737.26	7.241
737.58	7.292
737.89	12.371
738.21	4.982
738.52	6.464
738.83	8.980
739.15	5.485
739.46	9.728
739.78	4.577
740.09	4.795
740.41	3.929
740.72	4.965
741.04	4.800
741.35	6.140
741.66	8.444
741.98	10.096
742.29	16.337
742.61	6.341
742.92	6.579
743.23	1.887
743.55	5.405
743.86	8.520
744.18	7.843
744.49	7.107
744.80	6.122
745.12	12.150
745.43	6.635
745.74	6.306
746.06	3.738
746.37	1.376
746.68	7.212
747.00	4.306
747.31	4.327
747.62	6.422
747.94	9.170
748.25	8.257
748.56	13.333
748.88	16.432
749.19	11.905
749.50	0.485
749.82	5.164
750.13	0.417
750.44	6.538
750.75	3.321
751.07	11.032
751.38	7.447
751.69	3.861
752.01	9.375
752.32	3.462
752.63	11.567
752.94	8.800
753.26	7.950
753.57	9.583
753.88	9.717
754.19	7.171
754.51	5.639
754.82	6.593
755.13	0.000
755.44	5.691
755.75	3.200
756.07	4.797
756.38	8.993
756.69	10.922
757.00	9.657
757.31	6.796
757.63	4.630
757.94	8.475
758.25	6.614
758.56	6.250
758.87	8.333
759.18	9.148
759.50	6.734
759.81	9.699
760.12	5.538
760.43	6.250
760.74	5.367
761.05	6.906
761.36	4.871
761.67	5.740
761.99	4.811
762.30	8.029
762.61	4.527
762.92	8.547
763.23	10.656
763.54	9.091
763.85	2.857
764.16	5.691
764.47	2.800
764.78	8.214
765.10	6.885
765.41	5.471
765.72	5.901
766.03	8.911
766.34	10.769
766.65	1.674
766.96	3.286
767.27	7.426
767.58	-1.685
767.89	8.642
768.20	5.525
768.51	13.568
768.82	2.404
769.13	5.752
769.44	5.858
769.75	0.427
770.06	9.865
770.37	2.451
770.68	6.311
770.99	1.942
771.30	8.824
771.61	9.388
771.92	9.544
772.23	4.505
772.54	2.762
772.85	4.070
773.16	4.762
773.47	-2.367
773.78	9.770
774.09	1.250
774.39	3.727
774.70	9.524
775.01	-0.690
775.32	6.429
775.63	-0.752
775.94	1.504
776.25	-10.400
776.56	5.785
776.87	1.587
777.18	-3.604
777.48	-4.505
777.79	-6.299
778.10	0.917
778.41	-2.632
778.72	0.840
779.03	-2.817
779.34	9.459
779.65	-2.113
779.95	4.636
780.26	0.719
780.57	5.036
780.88	3.521
781.19	0.000
781.50	0.671
781.80	4.678
782.11	4.651
782.42	6.918
782.73	1.307
783.04	1.379
783.34	0.000
783.65	-1.342
783.96	3.077
784.27	2.857
784.57	4.965
784.88	-16.346
785.19	14.545
785.50	4.545
785.81	-1.905
786.11	-8.403
786.42	2.655
786.73	0.000
787.04	-11.927
787.34	0.000
787.65	5.000
787.96	8.264
788.26	6.522
788.57	0.000
788.88	10.569
789.19	1.600
789.49	-2.290
789.80	8.333
790.11	1.887
790.41	3.960
790.72	4.255
791.03	-3.261
791.33	-2.353
791.64	4.938
791.95	3.261
792.25	-1.136
792.56	3.846
792.87	7.692
793.17	-11.538
793.48	2.381
793.79	-2.500
794.09	1.923
794.40	0.000
794.70	0.000
795.01	-7.813
795.32	0.870
795.62	-9.783
795.93	-1.887
796.23	-6.061
796.54	3.659
796.85	5.952
797.15	-9.091
797.46	4.348
797.76	1.316
798.07	9.091
798.37	-10.976
798.68	-11.290
798.99	-9.459
799.29	6.024
799.60	0.000
799.90	-6.154
800.21	7.576
800.51	1.333
800.82	6.667
801.12	-29.167
801.43	-23.333
801.73	1.351
802.04	5.714
802.34	-14.754
802.65	-2.985
802.95	-9.091
803.26	-8.621
803.56	-6.154
803.87	-7.547
804.17	-17.742
804.48	-8.824
804.78	-21.951
805.09	11.594
805.39	-5.882
805.70	-25.532
806.00	-22.807
806.30	3.846
806.61	-2.632
806.91	-12.162
807.22	-14.474
807.52	5.682
807.83	-33.898
808.13	-19.697
808.43	-13.333
808.74	-41.379
809.04	-11.111
809.35	-26.531
809.65	6.667
809.95	-10.204
810.26	9.859
810.56	6.250
810.86	10.204
811.17	9.615
811.47	-25.532
811.77	-22.917
812.08	-24.528
812.38	-37.500
812.69	-12.727
812.99	0.000
813.29	-21.622
813.59	-48.649
813.90	-9.091
814.20	3.636
814.50	-5.000
814.81	1.818
815.11	3.509
815.41	-11.628
815.72	2.500
816.02	-25.714
816.32	-21.622
816.62	-4.167
816.93	-8.889
817.23	-28.889
817.53	-38.889
817.84	-27.027
818.14	-24.390
818.44	10.000
818.74	0.000
819.04	-14.634
819.35	-19.444
819.65	0.000
819.95	-105.556
820.25	-15.152
820.56	-19.048
820.86	-30.556
821.16	-22.727
821.46	-17.391
821.76	-1.724
822.07	-8.696
822.37	-6.061
822.67	-17.073
822.97	18.919
823.27	-54.286
823.57	27.586
823.88	-29.412
824.18	2.778
824.48	-8.571
824.78	-38.095
825.08	-3.571
825.38	-3.704
825.69	-9.677
825.99	4.878
826.29	-44.444
826.59	-50.000
826.89	-41.935
827.19	-56.522
827.49	-50.000
827.79	-69.565
828.09	-12.903
828.39	4.167
828.70	-53.125
829.00	0.000
829.30	-5.405
829.60	-79.167
829.90	-37.037
830.20	-25.000
830.50	-45.455
830.80	-94.118
831.10	-50.000
831.40	-29.412
831.70	0.000
832.00	-33.333
832.30	-17.647
832.60	-10.811
832.90	1100.000
833.20	0.000
833.50	-30.000
833.80	-2.632
834.10	-45.833
834.40	-40.909
834.70	-80.000
835.00	-210.000
835.30	-41.667
835.60	-66.667
835.90	0.000
836.20	-76.000
836.50	-25.000
836.80	-36.842
837.10	8.108
837.40	43.333
837.70	-13.043
838.00	20.833
838.30	-5.263
838.60	-200.000
838.90	-170.000
839.19	8.333
839.49	-61.538
839.79	-10.526
840.09	-233.333
840.39	-110.000
840.69	-36.364
840.99	0.000
841.29	-33.333
841.59	-100.000
841.88	-120.000
842.18	-135.714
842.48	-23.333
842.78	-300.000
843.08	-42.857
843.38	-187.500
843.68	-93.750
843.97	-50.000
844.27	-222.222
844.57	-63.636
844.87	-100.000
845.17	13.636
845.47	566.667
845.76	-53.333
846.06	-108.333
846.36	-1250.000
846.66	-84.211
846.96	-68.182
847.25	-72.222
847.55	-211.111
847.85	-38.095
848.15	-7.692
848.44	-266.667
848.74	-150.000
849.04	-100.000
849.34	-325.000
849.63	-109.091
849.93	-135.714
850.23	-35.000
850.53	-237.500
850.82	-44.444
851.12	20.000
851.42	-47.059
851.71	-225.000
852.01	-58.824
852.31	0.000
852.61	1000.000
852.90	-76.471
853.20	-6.667
853.50	-25.000
853.79	-135.714
854.09	-275.000
854.39	-40.000
854.68	5.000
854.98	-42.857
855.28	-4.000
855.57	-50.000
855.87	-41.667
856.17	-36.000
856.46	-15.625
856.76	-60.000
857.05	-20.000
857.35	-100.000
857.65	-76.471
857.94	-91.667
858.24	-58.333
858.53	-40.000
858.83	-136.364
859.13	-16.000
859.42	-42.857
859.72	-62.500
860.01	-20.833
860.31	-112.500
860.60	-43.750
860.90	-133.333
861.20	-233.333
861.49	13.333
861.79	-43.750
862.08	500.000
862.38	-150.000
862.67	442.857
862.97	550.000
863.26	-18.182
863.56	9.091
863.85	21.053
864.15	-64.706
864.44	-240.000
864.74	-40.000
865.03	-144.444
865.33	-92.857
865.62	92.857
865.92	-57.895
866.21	-22.222
866.51	45.455
866.80	-66.667
867.10	-87.500
867.39	-50.000
867.69	-120.000
867.98	-130.000
868.27	0.000
868.57	0.000
868.86	750.000
869.16	-250.000
869.45	-271.429
869.75	450.000
870.04	30.000
870.33	-1100.000
870.63	-21.053
870.92	-108.333
871.22	-1300.000
871.51	-114.286
871.80	-200.000
872.10	-400.000
>>>>>End Processed Spectral Data<<<<<
