SpectraSuite Data File
++++++++++++++++++++++++++++++++++++
Date: Wed May 13 21:52:34 PDT 2015
User: schluterlab
Dark Spectrum Present: Yes
Reference Spectrum Present: Yes
Number of Sampled Component Spectra: 1
Spectrometers: USB2E3373
Integration Time (usec): 3000 (USB2E3373)
Spectra Averaged: 3 (USB2E3373)
Boxcar Smoothing: 0 (USB2E3373)
Correct for Electrical Dark: No (USB2E3373)
Strobe/Lamp Enabled: No (USB2E3373)
Correct for Detector Non-linearity: No (USB2E3373)
Correct for Stray Light: No (USB2E3373)
Number of Pixels in Processed Spectrum: 2048
>>>>>Begin Processed Spectral Data<<<<<
178.53	0.000
178.91	800.000
179.29	241.667
179.67	-1100.000
180.04	-700.000
180.42	480.000
180.80	2300.000
181.18	283.333
181.56	-450.000
181.94	-200.000
182.31	-27.273
182.69	92.308
183.07	-240.000
183.45	316.667
183.83	188.889
184.20	200.000
184.58	-233.333
184.96	300.000
185.34	185.714
185.72	0.000
186.09	-1300.000
186.47	-360.000
186.85	120.000
187.23	-150.000
187.61	500.000
187.98	1600.000
188.36	-87.500
188.74	0.000
189.12	-100.000
189.49	-50.000
189.87	100.000
190.25	380.000
190.63	1100.000
191.00	-280.000
191.38	260.000
191.76	450.000
192.14	166.667
192.51	0.000
192.89	366.667
193.27	400.000
193.65	-440.000
194.02	181.818
194.40	190.000
194.78	-1200.000
195.15	280.000
195.53	-220.000
195.91	-75.000
196.29	-233.333
196.66	0.000
197.04	450.000
197.42	-160.000
197.79	-70.000
198.17	-87.500
198.55	-433.333
198.92	100.000
199.30	-466.667
199.68	-80.000
200.05	250.000
200.43	316.667
200.81	-1700.000
201.18	-160.000
201.56	-166.667
201.94	850.000
202.31	-43.478
202.69	-71.429
203.07	-800.000
203.44	-220.000
203.82	-166.667
204.19	-80.000
204.57	0.000
204.95	-166.667
205.32	0.000
205.70	-350.000
206.08	-450.000
206.45	-116.667
206.83	375.000
207.20	-500.000
207.58	-50.000
207.96	-1900.000
208.33	-214.286
208.71	-2000.000
209.08	275.000
209.46	525.000
209.84	0.000
210.21	110.000
210.59	2600.000
210.96	480.000
211.34	1300.000
211.71	-800.000
212.09	-233.333
212.46	-170.000
212.84	-466.667
213.22	-225.000
213.59	-2000.000
213.97	-1000.000
214.34	-600.000
214.72	-46.154
215.09	262.500
215.47	188.889
215.84	900.000
216.22	-112.500
216.59	-500.000
216.97	600.000
217.34	200.000
217.72	0.000
218.09	533.333
218.47	-300.000
218.84	-100.000
219.22	-87.500
219.59	-500.000
219.97	-300.000
220.34	-137.500
220.72	-100.000
221.09	0.000
221.47	-233.333
221.84	-1800.000
222.22	0.000
222.59	1900.000
222.97	-666.667
223.34	-25.000
223.72	-1500.000
224.09	-1250.000
224.46	-118.182
224.84	-87.500
225.21	-114.286
225.59	-325.000
225.96	-283.333
226.34	-130.000
226.71	-271.429
227.08	900.000
227.46	-212.500
227.83	-1000.000
228.21	-31.250
228.58	-500.000
228.95	-11.765
229.33	-56.250
229.70	-100.000
230.08	-61.538
230.45	-175.000
230.82	-116.667
231.20	214.286
231.57	-275.000
231.95	1300.000
232.32	33.333
232.69	-94.118
233.07	-1900.000
233.44	-39.130
233.81	-700.000
234.19	4.167
234.56	-86.667
234.93	6.667
235.31	-63.158
235.68	-23.077
236.05	-7.692
236.43	0.000
236.80	33.333
237.17	-120.000
237.55	-88.235
237.92	-37.931
238.29	-51.852
238.67	-5.556
239.04	-32.258
239.41	-23.404
239.79	2.128
240.16	-2.326
240.53	-3.571
240.91	7.143
241.28	-1.786
241.65	-3.226
242.02	15.789
242.40	-1.449
242.77	-2.899
243.14	8.974
243.51	5.319
243.89	15.385
244.26	16.038
244.63	0.000
245.00	8.333
245.38	11.765
245.75	15.574
246.12	15.038
246.49	-2.439
246.87	7.563
247.24	10.135
247.61	18.543
247.98	6.410
248.36	8.876
248.73	7.865
249.10	7.576
249.47	10.753
249.84	18.947
250.22	11.443
250.59	14.953
250.96	18.636
251.33	13.397
251.70	18.410
252.08	14.226
252.45	17.284
252.82	14.829
253.19	15.953
253.56	15.108
253.94	16.726
254.31	16.549
254.68	19.799
255.05	14.521
255.42	14.336
255.79	12.270
256.16	13.249
256.54	15.556
256.91	16.772
257.28	16.352
257.65	13.057
258.02	17.302
258.39	16.959
258.76	17.151
259.14	15.909
259.51	14.326
259.88	17.344
260.25	15.556
260.62	13.483
260.99	17.772
261.36	16.839
261.73	17.284
262.10	17.048
262.47	17.531
262.85	17.164
263.22	17.692
263.59	16.364
263.96	18.491
264.33	18.510
264.70	17.907
265.07	16.435
265.44	20.230
265.81	16.705
266.18	17.084
266.55	15.502
266.92	18.220
267.29	15.638
267.66	19.958
268.03	19.753
268.40	16.737
268.77	16.529
269.14	17.755
269.51	20.945
269.88	19.552
270.25	17.797
270.62	15.164
270.99	18.307
271.36	17.857
271.73	18.474
272.10	17.333
272.47	18.426
272.84	18.110
273.21	18.395
273.58	14.959
273.95	16.792
274.32	17.351
274.69	17.486
275.06	16.608
275.43	19.021
275.80	18.794
276.17	18.785
276.54	17.762
276.91	17.944
277.28	15.523
277.65	15.559
278.02	18.036
278.39	17.229
278.76	16.555
279.13	16.295
279.50	18.621
279.87	15.761
280.23	17.838
280.60	16.782
280.97	16.721
281.34	18.139
281.71	17.236
282.08	18.120
282.45	20.000
282.82	17.891
283.19	20.274
283.56	18.750
283.92	18.043
284.29	18.409
284.66	16.804
285.03	15.798
285.40	18.429
285.77	17.868
286.14	17.629
286.51	17.691
286.87	15.846
287.24	14.897
287.61	16.717
287.98	17.206
288.35	16.542
288.72	16.499
289.08	18.091
289.45	15.859
289.82	16.641
290.19	18.093
290.56	17.330
290.93	16.851
291.29	17.237
291.66	17.213
292.03	16.621
292.40	16.420
292.77	16.332
293.13	16.876
293.50	15.425
293.87	16.667
294.24	17.857
294.60	16.385
294.97	17.989
295.34	13.852
295.71	15.769
296.08	16.361
296.44	15.816
296.81	15.834
297.18	17.875
297.55	15.212
297.91	16.398
298.28	16.223
298.65	16.010
299.02	17.338
299.38	16.933
299.75	15.986
300.12	14.767
300.48	15.439
300.85	16.975
301.22	15.331
301.59	16.080
301.95	14.750
302.32	15.403
302.69	15.706
303.05	15.504
303.42	16.250
303.79	17.560
304.15	16.429
304.52	17.204
304.89	15.725
305.25	16.356
305.62	16.703
305.99	16.975
306.35	18.600
306.72	18.108
307.09	17.935
307.45	17.359
307.82	17.895
308.19	15.569
308.55	18.321
308.92	18.762
309.29	19.219
309.65	19.381
310.02	19.483
310.38	18.902
310.75	20.118
311.12	19.922
311.48	19.288
311.85	19.783
312.22	21.470
312.58	20.097
312.95	21.393
313.31	21.212
313.68	21.565
314.05	21.834
314.41	23.151
314.78	23.435
315.14	23.981
315.51	23.882
315.87	25.023
316.24	24.885
316.61	25.479
316.97	26.111
317.34	25.401
317.70	27.921
318.07	27.773
318.43	27.552
318.80	27.312
319.16	28.647
319.53	29.032
319.89	28.817
320.26	32.070
320.62	30.120
320.99	30.426
321.35	31.899
321.72	31.665
322.08	31.642
322.45	34.043
322.81	33.826
323.18	33.900
323.54	35.560
323.91	35.501
324.27	36.454
324.64	36.063
325.00	35.346
325.37	36.860
325.73	37.963
326.10	38.183
326.46	38.545
326.83	39.482
327.19	39.919
327.56	41.096
327.92	39.662
328.29	42.571
328.65	43.295
329.01	41.161
329.38	43.478
329.74	42.403
330.11	42.922
330.47	42.274
330.84	44.043
331.20	42.784
331.56	45.109
331.93	42.980
332.29	46.221
332.66	43.898
333.02	42.919
333.38	44.298
333.75	43.942
334.11	44.444
334.48	44.725
334.84	44.523
335.20	44.683
335.57	44.473
335.93	45.189
336.29	45.884
336.66	45.983
337.02	44.609
337.38	44.299
337.75	45.650
338.11	44.833
338.47	44.777
338.84	44.931
339.20	44.974
339.56	44.710
339.93	45.203
340.29	44.150
340.65	46.621
341.02	44.676
341.38	46.368
341.74	45.882
342.11	45.334
342.47	46.192
342.83	45.997
343.20	46.870
343.56	45.544
343.92	44.760
344.28	47.890
344.65	44.898
345.01	44.794
345.37	47.204
345.73	47.958
346.10	46.469
346.46	46.260
346.82	46.388
347.19	45.886
347.55	47.011
347.91	46.454
348.27	46.767
348.63	45.994
349.00	46.698
349.36	46.546
349.72	46.481
350.08	46.256
350.45	47.690
350.81	47.340
351.17	46.651
351.53	46.347
351.89	46.783
352.26	45.483
352.62	47.364
352.98	48.562
353.34	48.229
353.70	46.651
354.07	47.059
354.43	47.745
354.79	47.756
355.15	47.516
355.51	48.064
355.87	48.944
356.24	49.117
356.60	47.146
356.96	48.273
357.32	50.387
357.68	48.816
358.04	48.565
358.40	49.380
358.77	49.618
359.13	49.494
359.49	48.751
359.85	50.417
360.21	49.653
360.57	49.658
360.93	51.593
361.29	49.667
361.66	50.418
362.02	49.889
362.38	50.665
362.74	50.326
363.10	49.675
363.46	49.856
363.82	50.480
364.18	50.834
364.54	52.516
364.90	50.105
365.26	49.894
365.62	51.278
365.98	52.669
366.35	52.128
366.71	51.569
367.07	51.878
367.43	51.638
367.79	52.536
368.15	51.758
368.51	51.195
368.87	51.710
369.23	51.601
369.59	51.163
369.95	52.758
370.31	50.767
370.67	51.702
371.03	54.491
371.39	52.803
371.75	52.214
372.11	53.490
372.47	53.353
372.83	51.803
373.19	52.302
373.55	53.902
373.91	52.546
374.27	52.835
374.63	53.841
374.99	53.552
375.35	53.904
375.71	52.649
376.07	52.570
376.42	54.078
376.78	55.086
377.14	56.136
377.50	53.585
377.86	54.449
378.22	54.046
378.58	55.549
378.94	55.125
379.30	55.153
379.66	55.425
380.02	54.963
380.38	54.398
380.74	54.752
381.09	55.489
381.45	54.293
381.81	54.775
382.17	54.820
382.53	54.892
382.89	54.162
383.25	54.321
383.61	56.053
383.97	54.437
384.32	54.568
384.68	56.262
385.04	54.734
385.40	56.040
385.76	55.900
386.12	56.036
386.48	55.423
386.83	55.444
387.19	54.658
387.55	54.752
387.91	55.966
388.27	56.535
388.62	56.305
388.98	54.881
389.34	55.764
389.70	54.457
390.06	54.875
390.42	56.057
390.77	54.837
391.13	56.944
391.49	54.902
391.85	55.144
392.20	55.075
392.56	55.111
392.92	54.535
393.28	55.956
393.64	55.657
393.99	53.856
394.35	54.321
394.71	54.679
395.07	53.648
395.42	55.698
395.78	55.019
396.14	55.549
396.50	55.295
396.85	56.469
397.21	53.870
397.57	54.720
397.92	54.491
398.28	55.217
398.64	55.252
399.00	55.078
399.35	54.938
399.71	54.397
400.07	53.855
400.42	55.361
400.78	53.595
401.14	55.242
401.49	53.984
401.85	54.668
402.21	55.604
402.57	54.077
402.92	54.568
403.28	54.909
403.63	54.185
403.99	55.406
404.35	54.738
404.70	52.568
405.06	53.787
405.42	52.701
405.77	53.975
406.13	53.600
406.49	54.584
406.84	54.457
407.20	52.220
407.55	53.117
407.91	53.475
408.27	52.527
408.62	53.837
408.98	52.836
409.34	53.403
409.69	54.841
410.05	53.234
410.40	53.074
410.76	53.911
411.11	53.358
411.47	54.214
411.83	52.651
412.18	52.834
412.54	53.571
412.89	53.668
413.25	50.855
413.60	53.292
413.96	53.433
414.31	52.528
414.67	51.810
415.03	52.639
415.38	52.246
415.74	52.762
416.09	53.338
416.45	53.794
416.80	53.020
417.16	51.215
417.51	53.851
417.87	53.638
418.22	52.359
418.58	53.942
418.93	53.547
419.29	54.191
419.64	52.926
420.00	52.825
420.35	53.138
420.71	53.565
421.06	53.137
421.42	53.285
421.77	54.277
422.12	52.894
422.48	52.617
422.83	53.987
423.19	53.709
423.54	54.064
423.90	52.494
424.25	54.535
424.61	53.913
424.96	54.406
425.31	52.720
425.67	54.380
426.02	54.594
426.38	54.104
426.73	53.635
427.09	54.722
427.44	54.140
427.79	54.632
428.15	54.312
428.50	54.018
428.85	54.551
429.21	54.024
429.56	54.516
429.92	55.023
430.27	53.988
430.62	53.673
430.98	53.570
431.33	54.970
431.68	54.260
432.04	56.225
432.39	55.427
432.74	55.242
433.10	54.910
433.45	54.260
433.80	55.517
434.16	54.997
434.51	55.000
434.86	55.124
435.22	55.291
435.57	54.300
435.92	55.549
436.28	55.556
436.63	56.409
436.98	54.524
437.34	55.983
437.69	54.486
438.04	54.273
438.39	55.106
438.75	56.675
439.10	56.622
439.45	57.082
439.81	56.527
440.16	56.406
440.51	55.470
440.86	56.194
441.22	56.282
441.57	55.423
441.92	55.521
442.27	54.816
442.63	54.629
442.98	55.671
443.33	57.223
443.68	54.454
444.03	55.738
444.39	55.776
444.74	56.157
445.09	56.167
445.44	56.282
445.79	56.634
446.15	56.351
446.50	55.617
446.85	57.402
447.20	57.240
447.55	55.848
447.91	54.944
448.26	56.375
448.61	56.272
448.96	56.663
449.31	56.539
449.66	56.217
450.02	56.907
450.37	55.875
450.72	56.544
451.07	56.991
451.42	57.080
451.77	56.604
452.12	56.090
452.47	57.069
452.83	57.429
453.18	56.970
453.53	57.314
453.88	57.651
454.23	58.529
454.58	56.740
454.93	56.575
455.28	56.455
455.63	56.769
455.98	56.969
456.34	55.563
456.69	57.891
457.04	56.223
457.39	56.224
457.74	57.211
458.09	56.280
458.44	57.873
458.79	55.848
459.14	55.169
459.49	57.073
459.84	56.201
460.19	55.582
460.54	55.657
460.89	56.137
461.24	56.473
461.59	57.005
461.94	55.563
462.29	57.782
462.64	57.718
462.99	55.869
463.34	55.594
463.69	57.216
464.04	55.942
464.39	55.583
464.74	55.958
465.09	57.657
465.44	55.780
465.79	56.527
466.14	55.701
466.49	57.537
466.84	55.768
467.19	56.433
467.54	57.161
467.89	56.317
468.24	56.484
468.59	56.405
468.94	55.811
469.29	55.981
469.64	57.392
469.99	56.897
470.34	56.575
470.68	55.836
471.03	56.417
471.38	55.146
471.73	55.761
472.08	56.770
472.43	57.850
472.78	57.201
473.13	54.881
473.48	56.817
473.83	56.685
474.17	55.990
474.52	57.476
474.87	55.187
475.22	55.978
475.57	55.326
475.92	56.052
476.27	55.886
476.61	55.436
476.96	56.368
477.31	55.987
477.66	56.893
478.01	54.560
478.36	55.368
478.70	55.854
479.05	56.659
479.40	54.602
479.75	54.835
480.10	55.533
480.45	53.850
480.79	55.202
481.14	56.586
481.49	55.501
481.84	54.477
482.19	54.655
482.53	55.667
482.88	55.417
483.23	53.994
483.58	54.773
483.92	53.794
484.27	53.660
484.62	53.262
484.97	53.546
485.31	53.015
485.66	49.887
486.01	50.996
486.36	50.806
486.70	52.832
487.05	53.307
487.40	53.363
487.75	54.120
488.09	52.706
488.44	53.523
488.79	54.277
489.13	53.638
489.48	54.553
489.83	53.953
490.17	53.200
490.52	54.932
490.87	54.149
491.22	53.650
491.56	54.576
491.91	54.585
492.26	54.981
492.60	53.583
492.95	53.547
493.30	53.343
493.64	54.341
493.99	53.430
494.34	53.709
494.68	54.033
495.03	53.706
495.37	54.793
495.72	53.684
496.07	55.382
496.41	52.737
496.76	53.199
497.11	53.099
497.45	53.551
497.80	54.013
498.14	53.955
498.49	53.757
498.84	53.897
499.18	54.057
499.53	52.191
499.87	52.062
500.22	53.957
500.56	53.761
500.91	53.974
501.26	52.512
501.60	51.765
501.95	52.420
502.29	52.573
502.64	53.086
502.98	51.686
503.33	52.165
503.67	53.554
504.02	52.598
504.36	53.442
504.71	52.642
505.06	54.508
505.40	52.371
505.75	52.950
506.09	52.683
506.44	51.663
506.78	52.971
507.13	53.015
507.47	52.280
507.82	52.590
508.16	52.612
508.51	51.808
508.85	51.840
509.19	52.275
509.54	53.566
509.88	52.043
510.23	52.316
510.57	52.754
510.92	53.017
511.26	53.795
511.61	52.689
511.95	53.087
512.30	53.692
512.64	53.519
512.98	51.856
513.33	53.127
513.67	53.492
514.02	52.338
514.36	53.427
514.70	53.522
515.05	52.311
515.39	53.538
515.74	52.575
516.08	51.917
516.42	51.728
516.77	52.373
517.11	53.086
517.46	53.181
517.80	53.450
518.14	52.909
518.49	53.647
518.83	51.909
519.17	51.867
519.52	52.654
519.86	52.945
520.20	52.395
520.55	52.425
520.89	52.435
521.23	51.795
521.58	51.960
521.92	51.854
522.26	52.310
522.61	52.489
522.95	52.979
523.29	52.190
523.64	51.367
523.98	52.097
524.32	52.174
524.66	52.922
525.01	53.342
525.35	51.745
525.69	53.148
526.04	50.684
526.38	51.944
526.72	52.728
527.06	51.128
527.41	50.893
527.75	51.001
528.09	53.029
528.43	52.374
528.78	50.711
529.12	50.582
529.46	50.672
529.80	51.262
530.15	50.193
530.49	52.763
530.83	52.336
531.17	51.849
531.51	50.438
531.86	49.864
532.20	50.655
532.54	49.655
532.88	50.851
533.22	51.717
533.57	49.205
533.91	49.548
534.25	51.107
534.59	49.035
534.93	49.235
535.27	50.510
535.62	50.197
535.96	50.488
536.30	49.668
536.64	48.872
536.98	50.035
537.32	51.317
537.66	49.365
538.01	48.613
538.35	49.102
538.69	49.365
539.03	46.040
539.37	47.686
539.71	49.318
540.05	47.773
540.39	48.039
540.73	47.905
541.07	48.571
541.42	48.956
541.76	48.714
542.10	48.003
542.44	48.025
542.78	48.230
543.12	47.978
543.46	48.169
543.80	47.590
544.14	47.970
544.48	46.184
544.82	48.689
545.16	46.586
545.50	47.063
545.84	47.475
546.18	46.844
546.52	46.013
546.86	46.078
547.20	46.319
547.54	47.677
547.88	46.559
548.22	45.798
548.56	46.765
548.90	46.888
549.24	47.014
549.58	47.117
549.92	48.863
550.26	47.970
550.60	47.072
550.94	47.761
551.28	46.026
551.62	48.195
551.96	47.291
552.30	46.361
552.64	45.480
552.98	47.230
553.32	45.854
553.66	47.102
554.00	45.860
554.34	46.007
554.68	46.010
555.02	46.931
555.36	47.201
555.69	46.905
556.03	45.747
556.37	46.302
556.71	46.321
557.05	45.092
557.39	46.797
557.73	46.445
558.07	46.270
558.41	46.177
558.75	46.112
559.08	45.870
559.42	46.499
559.76	45.642
560.10	46.810
560.44	46.426
560.78	45.036
561.12	45.550
561.45	43.946
561.79	45.254
562.13	46.062
562.47	45.857
562.81	45.455
563.15	44.334
563.48	43.703
563.82	45.349
564.16	45.498
564.50	45.658
564.84	45.068
565.17	44.371
565.51	43.717
565.85	44.504
566.19	44.437
566.52	43.512
566.86	43.742
567.20	43.800
567.54	43.466
567.88	42.889
568.21	41.173
568.55	42.097
568.89	41.825
569.23	41.705
569.56	40.843
569.90	40.031
570.24	40.181
570.57	39.713
570.91	39.081
571.25	39.140
571.59	38.966
571.92	39.337
572.26	38.402
572.60	39.483
572.93	39.175
573.27	38.324
573.61	39.015
573.95	38.498
574.28	38.360
574.62	37.843
574.96	38.115
575.29	38.365
575.63	38.356
575.97	38.125
576.30	38.216
576.64	37.988
576.98	37.916
577.31	37.674
577.65	37.133
577.98	37.472
578.32	36.412
578.66	38.155
578.99	38.122
579.33	37.906
579.67	38.442
580.00	37.863
580.34	37.276
580.67	37.874
581.01	37.313
581.35	36.965
581.68	36.438
582.02	37.009
582.35	37.137
582.69	37.488
583.02	36.933
583.36	37.150
583.70	37.644
584.03	37.854
584.37	37.404
584.70	37.790
585.04	38.076
585.37	36.574
585.71	36.879
586.04	36.867
586.38	36.911
586.72	36.752
587.05	37.225
587.39	37.307
587.72	37.181
588.06	36.908
588.39	37.056
588.73	37.635
589.06	37.730
589.40	37.530
589.73	37.334
590.07	37.915
590.40	37.183
590.73	38.412
591.07	38.195
591.40	38.217
591.74	38.417
592.07	38.521
592.41	38.481
592.74	37.307
593.08	36.581
593.41	37.347
593.75	36.596
594.08	36.304
594.41	37.075
594.75	37.069
595.08	37.341
595.42	36.936
595.75	37.383
596.09	37.490
596.42	37.092
596.75	39.096
597.09	38.308
597.42	37.909
597.75	37.733
598.09	37.705
598.42	38.613
598.76	37.196
599.09	37.775
599.42	37.311
599.76	37.777
600.09	37.011
600.42	36.347
600.76	36.253
601.09	36.648
601.42	36.691
601.76	36.409
602.09	37.576
602.42	38.258
602.76	36.493
603.09	37.331
603.42	36.745
603.76	36.399
604.09	36.640
604.42	36.710
604.76	36.360
605.09	37.245
605.42	37.652
605.75	36.017
606.09	36.424
606.42	36.825
606.75	36.537
607.09	36.392
607.42	36.515
607.75	35.405
608.08	37.060
608.42	37.301
608.75	36.837
609.08	36.257
609.41	35.519
609.75	37.317
610.08	37.426
610.41	36.735
610.74	37.007
611.07	36.323
611.41	36.950
611.74	36.491
612.07	36.738
612.40	37.351
612.73	36.443
613.07	36.918
613.40	37.500
613.73	37.270
614.06	36.374
614.39	36.854
614.72	38.257
615.06	35.778
615.39	35.651
615.72	35.583
616.05	36.036
616.38	37.113
616.71	36.413
617.05	37.039
617.38	36.229
617.71	36.458
618.04	36.746
618.37	36.782
618.70	37.063
619.03	36.838
619.36	37.936
619.69	36.769
620.03	37.173
620.36	37.300
620.69	37.116
621.02	38.000
621.35	37.531
621.68	37.001
622.01	37.864
622.34	37.431
622.67	37.823
623.00	38.146
623.33	37.173
623.66	37.026
623.99	37.359
624.32	35.437
624.65	37.908
624.99	37.032
625.32	36.520
625.65	36.977
625.98	37.362
626.31	38.531
626.64	38.005
626.97	36.678
627.30	38.152
627.63	37.543
627.96	36.970
628.29	38.791
628.62	37.524
628.95	39.379
629.28	39.409
629.61	37.799
629.94	38.781
630.26	39.015
630.59	38.262
630.92	39.357
631.25	36.457
631.58	40.257
631.91	37.540
632.24	38.858
632.57	37.889
632.90	40.840
633.23	38.609
633.56	39.928
633.89	40.191
634.22	42.285
634.55	40.926
634.88	37.745
635.20	40.750
635.53	39.406
635.86	40.128
636.19	41.067
636.52	37.805
636.85	37.515
637.18	38.855
637.51	39.950
637.83	39.817
638.16	38.133
638.49	38.051
638.82	38.693
639.15	40.559
639.48	37.968
639.81	40.278
640.13	39.718
640.46	38.559
640.79	37.842
641.12	36.834
641.45	39.447
641.77	39.470
642.10	39.637
642.43	41.509
642.76	37.066
643.09	40.735
643.41	41.308
643.74	40.226
644.07	41.262
644.40	41.128
644.73	40.678
645.05	38.743
645.38	38.704
645.71	39.116
646.04	37.374
646.36	38.542
646.69	38.462
647.02	41.348
647.35	39.671
647.67	38.447
648.00	37.319
648.33	39.153
648.66	38.230
648.98	36.025
649.31	37.423
649.64	38.811
649.96	36.967
650.29	37.745
650.62	37.891
650.94	37.586
651.27	37.633
651.60	37.063
651.92	36.738
652.25	38.358
652.58	37.294
652.90	38.889
653.23	36.842
653.56	35.041
653.88	36.348
654.21	38.055
654.54	36.877
654.86	37.561
655.19	34.034
655.52	33.204
655.84	28.686
656.17	33.991
656.49	45.171
656.82	44.757
657.15	34.513
657.47	25.669
657.80	19.633
658.13	20.864
658.45	30.737
658.78	31.063
659.10	30.488
659.43	31.033
659.75	30.709
660.08	31.586
660.41	32.759
660.73	34.848
661.06	35.544
661.38	36.240
661.71	38.115
662.03	38.266
662.36	38.496
662.68	39.140
663.01	39.619
663.33	38.445
663.66	35.920
663.98	37.303
664.31	36.484
664.63	35.586
664.96	43.545
665.28	40.129
665.61	33.909
665.93	35.118
666.26	39.030
666.58	36.831
666.91	37.892
667.23	37.788
667.56	39.540
667.88	39.019
668.21	38.170
668.53	38.621
668.86	41.487
669.18	39.243
669.50	38.940
669.83	37.947
670.15	35.714
670.48	38.391
670.80	39.606
671.13	37.529
671.45	38.128
671.77	36.207
672.10	35.283
672.42	36.450
672.75	33.571
673.07	36.000
673.39	32.836
673.72	37.325
674.04	36.885
674.37	35.772
674.69	36.831
675.01	35.470
675.34	36.543
675.66	33.551
675.98	34.956
676.31	36.425
676.63	39.002
676.95	36.235
677.28	33.945
677.60	37.745
677.92	35.698
678.25	37.527
678.57	36.660
678.89	34.968
679.22	35.197
679.54	33.061
679.86	35.156
680.18	34.808
680.51	31.154
680.83	34.893
681.15	35.363
681.48	35.471
681.80	35.174
682.12	34.583
682.44	34.406
682.77	32.842
683.09	33.705
683.41	36.977
683.73	32.589
684.06	37.832
684.38	36.966
684.70	31.772
685.02	35.331
685.34	34.834
685.67	34.146
685.99	30.071
686.31	31.897
686.63	35.294
686.96	35.065
687.28	35.130
687.60	36.106
687.92	31.907
688.24	31.600
688.56	33.553
688.89	32.071
689.21	35.426
689.53	31.532
689.85	34.382
690.17	38.022
690.49	34.058
690.82	33.890
691.14	32.609
691.46	35.499
691.78	32.747
692.10	34.607
692.42	32.747
692.74	34.130
693.06	30.562
693.39	30.913
693.71	33.778
694.03	34.318
694.35	33.559
694.67	35.750
694.99	35.825
695.31	32.558
695.63	35.610
695.95	32.824
696.27	30.137
696.59	32.527
696.91	35.754
697.23	32.234
697.56	35.731
697.88	32.432
698.20	31.749
698.52	31.075
698.84	33.732
699.16	31.442
699.48	32.593
699.80	33.333
700.12	35.389
700.44	28.732
700.76	33.427
701.08	31.722
701.40	32.934
701.72	32.000
702.04	31.761
702.36	32.012
702.68	29.878
703.00	33.041
703.32	31.476
703.64	28.313
703.96	31.672
704.28	29.819
704.60	32.317
704.91	26.646
705.23	37.658
705.55	33.448
705.87	36.268
706.19	28.938
706.51	34.859
706.83	30.573
707.15	32.317
707.47	34.435
707.79	29.188
708.11	32.134
708.43	31.472
708.74	33.245
709.06	32.888
709.38	32.565
709.70	31.231
710.02	35.514
710.34	32.000
710.66	26.384
710.98	28.483
711.29	29.870
711.61	28.065
711.93	30.000
712.25	31.119
712.57	30.526
712.89	29.670
713.20	32.624
713.52	33.577
713.84	29.677
714.16	27.508
714.48	32.595
714.80	26.198
715.11	31.686
715.43	29.814
715.75	31.677
716.07	31.024
716.39	30.303
716.70	29.496
717.02	25.098
717.34	31.061
717.66	27.155
717.97	29.762
718.29	25.197
718.61	35.622
718.93	26.744
719.24	32.472
719.56	32.584
719.88	32.090
720.20	24.506
720.51	31.641
720.83	26.459
721.15	26.423
721.46	27.863
721.78	29.084
722.10	29.482
722.42	23.790
722.73	32.432
723.05	26.939
723.37	32.353
723.68	28.000
724.00	27.660
724.32	31.381
724.63	34.979
724.95	29.487
725.27	31.224
725.58	30.041
725.90	30.962
726.22	27.536
726.53	25.098
726.85	28.832
727.16	24.074
727.48	31.034
727.80	32.031
728.11	31.148
728.43	28.125
728.74	27.381
729.06	23.600
729.38	32.016
729.69	28.826
730.01	27.509
730.32	26.937
730.64	31.818
730.96	32.517
731.27	27.090
731.59	28.889
731.90	24.595
732.22	29.167
732.53	25.338
732.85	28.188
733.16	27.393
733.48	23.986
733.80	26.689
734.11	32.770
734.43	26.006
734.74	25.225
735.06	24.784
735.37	26.140
735.69	27.508
736.00	24.752
736.32	26.950
736.63	29.655
736.95	25.000
737.26	25.862
737.58	24.653
737.89	26.804
738.21	22.776
738.52	25.475
738.83	31.429
739.15	26.160
739.46	25.681
739.78	19.366
740.09	23.288
740.41	23.571
740.72	26.596
741.04	26.400
741.35	21.930
741.66	27.556
741.98	30.769
742.29	34.158
742.61	30.244
742.92	29.825
743.23	27.830
743.55	25.676
743.86	25.561
744.18	26.961
744.49	30.964
744.80	29.592
745.12	24.299
745.43	28.910
745.74	31.982
746.06	26.168
746.37	26.606
746.68	27.404
747.00	32.536
747.31	25.481
747.62	22.936
747.94	27.948
748.25	30.275
748.56	28.000
748.88	29.577
749.19	24.286
749.50	25.243
749.82	24.883
750.13	20.417
750.44	22.308
750.75	25.830
751.07	24.555
751.38	28.014
751.69	24.710
752.01	31.641
752.32	27.308
752.63	26.493
752.94	27.200
753.26	29.289
753.57	31.250
753.88	25.506
754.19	21.514
754.51	22.556
754.82	21.978
755.13	23.478
755.44	22.764
755.75	20.800
756.07	21.771
756.38	23.741
756.69	26.621
757.00	25.545
757.31	27.184
757.63	18.519
757.94	27.119
758.25	23.810
758.56	24.728
758.87	26.786
759.18	22.082
759.50	24.242
759.81	27.425
760.12	28.000
760.43	20.833
760.74	24.859
761.05	22.376
761.36	19.198
761.67	22.054
761.99	20.275
762.30	25.912
762.61	18.930
762.92	28.205
763.23	25.410
763.54	26.840
763.85	24.082
764.16	24.797
764.47	24.400
764.78	22.143
765.10	22.951
765.41	22.492
765.72	24.845
766.03	25.743
766.34	30.000
766.65	23.431
766.96	24.883
767.27	32.178
767.58	18.539
767.89	23.457
768.20	20.442
768.51	29.648
768.82	26.442
769.13	30.531
769.44	28.870
769.75	17.521
770.06	27.354
770.37	24.020
770.68	24.757
770.99	26.214
771.30	23.109
771.61	22.041
771.92	24.481
772.23	21.622
772.54	20.442
772.85	26.744
773.16	21.693
773.47	16.568
773.78	27.586
774.09	22.500
774.39	19.876
774.70	18.367
775.01	26.897
775.32	25.000
775.63	16.541
775.94	20.301
776.25	19.200
776.56	28.926
776.87	25.397
777.18	20.721
777.48	26.126
777.79	21.260
778.10	25.688
778.41	20.175
778.72	21.849
779.03	19.718
779.34	22.973
779.65	14.085
779.95	15.894
780.26	14.388
780.57	21.583
780.88	21.127
781.19	14.286
781.50	28.188
781.80	19.883
782.11	22.093
782.42	20.755
782.73	22.222
783.04	14.483
783.34	19.847
783.65	16.779
783.96	10.769
784.27	22.857
784.57	10.638
784.88	8.654
785.19	32.727
785.50	22.727
785.81	9.524
786.11	13.445
786.42	26.549
786.73	21.698
787.04	22.018
787.34	12.871
787.65	20.833
787.96	21.488
788.26	16.667
788.57	15.873
788.88	19.512
789.19	8.800
789.49	9.924
789.80	18.939
790.11	10.377
790.41	18.812
790.72	25.532
791.03	13.043
791.33	14.118
791.64	16.049
791.95	15.217
792.25	15.909
792.56	25.641
792.87	17.949
793.17	1.282
793.48	8.333
793.79	22.500
794.09	23.077
794.40	18.750
794.70	23.423
795.01	14.844
795.32	16.522
795.62	11.957
795.93	17.925
796.23	24.242
796.54	7.317
796.85	10.714
797.15	19.697
797.46	23.188
797.76	13.158
798.07	7.955
798.37	15.854
798.68	4.839
798.99	0.000
799.29	25.301
799.60	10.256
799.90	20.000
800.21	6.061
800.51	9.333
800.82	14.667
801.12	0.000
801.43	-8.333
801.73	4.054
802.04	30.000
802.34	-1.639
802.65	17.910
802.95	12.727
803.26	20.690
803.56	13.846
803.87	18.868
804.17	-3.226
804.48	7.353
804.78	-26.829
805.09	24.638
805.39	1.471
805.70	-12.766
806.00	5.263
806.30	17.949
806.61	36.842
806.91	14.865
807.22	1.316
807.52	22.727
807.83	-5.085
808.13	-10.606
808.43	3.333
808.74	-20.690
809.04	6.349
809.35	-14.286
809.65	11.667
809.95	2.041
810.26	-1.408
810.56	-6.250
810.86	-4.082
811.17	15.385
811.47	14.894
811.77	4.167
812.08	3.774
812.38	-18.750
812.69	16.364
812.99	0.000
813.29	8.108
813.59	-43.243
813.90	3.636
814.20	0.000
814.50	26.667
814.81	9.091
815.11	7.018
815.41	13.953
815.72	25.000
816.02	-5.714
816.32	13.514
816.62	20.833
816.93	15.556
817.23	8.889
817.53	-25.000
817.84	-24.324
818.14	-4.878
818.44	22.000
818.74	6.122
819.04	-19.512
819.35	13.889
819.65	-9.091
819.95	-77.778
820.25	-39.394
820.56	-28.571
820.86	-8.333
821.16	-36.364
821.46	0.000
821.76	-3.448
822.07	10.870
822.37	0.000
822.67	36.585
822.97	21.622
823.27	-28.571
823.57	24.138
823.88	-14.706
824.18	-5.556
824.48	14.286
824.78	-23.810
825.08	-7.143
825.38	-14.815
825.69	29.032
825.99	0.000
826.29	-29.630
826.59	-28.125
826.89	-29.032
827.19	-43.478
827.49	2.778
827.79	8.696
828.09	-9.677
828.39	-6.250
828.70	-34.375
829.00	-24.138
829.30	-27.027
829.60	-75.000
829.90	-7.407
830.20	-15.625
830.50	-40.909
830.80	-100.000
831.10	-59.091
831.40	-2.941
831.70	19.231
832.00	-18.182
832.30	0.000
832.60	-5.405
832.90	1600.000
833.20	-3.571
833.50	-95.000
833.80	-10.526
834.10	-66.667
834.40	-50.000
834.70	-106.667
835.00	-30.000
835.30	-29.167
835.60	-33.333
835.90	-19.048
836.20	-48.000
836.50	-20.833
836.80	-63.158
837.10	-10.811
837.40	16.667
837.70	-8.696
838.00	25.000
838.30	-42.105
838.60	-100.000
838.90	-130.000
839.19	-33.333
839.49	7.692
839.79	0.000
840.09	-66.667
840.39	-40.000
840.69	-68.182
840.99	23.810
841.29	-75.000
841.59	-61.538
841.88	-60.000
842.18	-50.000
842.48	-10.000
842.78	-171.429
843.08	-121.429
843.38	-137.500
843.68	-75.000
843.97	-42.857
844.27	-122.222
844.57	-109.091
844.87	-80.000
845.17	-9.091
845.47	666.667
845.76	-46.667
846.06	-108.333
846.36	-1150.000
846.66	-63.158
846.96	-45.455
847.25	-50.000
847.55	-211.111
847.85	-33.333
848.15	15.385
848.44	-450.000
848.74	-133.333
849.04	-76.923
849.34	-425.000
849.63	-181.818
849.93	-135.714
850.23	35.000
850.53	-200.000
850.82	-55.556
851.12	-6.667
851.42	-29.412
851.71	-112.500
852.01	29.412
852.31	-23.077
852.61	650.000
852.90	-52.941
853.20	6.667
853.50	-12.500
853.79	-135.714
854.09	-275.000
854.39	-55.000
854.68	-2.500
854.98	-28.571
855.28	-40.000
855.57	-25.000
855.87	-58.333
856.17	-56.000
856.46	-9.375
856.76	-25.000
857.05	-24.000
857.35	-75.000
857.65	-88.235
857.94	-183.333
858.24	-108.333
858.53	-25.000
858.83	-127.273
859.13	16.000
859.42	-50.000
859.72	-212.500
860.01	-8.333
860.31	-237.500
860.60	-12.500
860.90	-133.333
861.20	-183.333
861.49	20.000
861.79	-62.500
862.08	475.000
862.38	-141.667
862.67	371.429
862.97	275.000
863.26	-109.091
863.56	-109.091
863.85	-31.579
864.15	-17.647
864.44	-320.000
864.74	-150.000
865.03	-188.889
865.33	7.143
865.62	164.286
865.92	-5.263
866.21	-50.000
866.51	-18.182
866.80	-55.556
867.10	-225.000
867.39	-75.000
867.69	-60.000
867.98	-60.000
868.27	-23.529
868.57	0.000
868.86	1000.000
869.16	-125.000
869.45	-85.714
869.75	150.000
870.04	-40.000
870.33	-500.000
870.63	-10.526
870.92	-108.333
871.22	-1300.000
871.51	-185.714
871.80	-111.111
872.10	-375.000
>>>>>End Processed Spectral Data<<<<<
