SpectraSuite Data File
++++++++++++++++++++++++++++++++++++
Date: Wed May 13 21:47:17 PDT 2015
User: schluterlab
Dark Spectrum Present: Yes
Reference Spectrum Present: Yes
Number of Sampled Component Spectra: 1
Spectrometers: USB2E3373
Integration Time (usec): 3000 (USB2E3373)
Spectra Averaged: 3 (USB2E3373)
Boxcar Smoothing: 0 (USB2E3373)
Correct for Electrical Dark: No (USB2E3373)
Strobe/Lamp Enabled: No (USB2E3373)
Correct for Detector Non-linearity: No (USB2E3373)
Correct for Stray Light: No (USB2E3373)
Number of Pixels in Processed Spectrum: 2048
>>>>>Begin Processed Spectral Data<<<<<
178.53	0.000
178.91	400.000
179.29	175.000
179.67	-1000.000
180.04	-233.333
180.42	120.000
180.80	2300.000
181.18	250.000
181.56	-475.000
181.94	-225.000
182.31	-18.182
182.69	146.154
183.07	-120.000
183.45	233.333
183.83	122.222
184.20	85.714
184.58	-200.000
184.96	333.333
185.34	185.714
185.72	0.000
186.09	-1200.000
186.47	-300.000
186.85	20.000
187.23	-200.000
187.61	350.000
187.98	1400.000
188.36	-137.500
188.74	0.000
189.12	45.455
189.49	10.000
189.87	183.333
190.25	380.000
190.63	1200.000
191.00	-120.000
191.38	260.000
191.76	225.000
192.14	108.333
192.51	-36.842
192.89	466.667
193.27	100.000
193.65	-240.000
194.02	209.091
194.40	180.000
194.78	-100.000
195.15	140.000
195.53	-300.000
195.91	12.500
196.29	-433.333
196.66	0.000
197.04	150.000
197.42	-120.000
197.79	0.000
198.17	-37.500
198.55	-333.333
198.92	250.000
199.30	-300.000
199.68	-60.000
200.05	450.000
200.43	266.667
200.81	-1500.000
201.18	-280.000
201.56	-83.333
201.94	650.000
202.31	-4.348
202.69	-114.286
203.07	-500.000
203.44	-200.000
203.82	-300.000
204.19	30.000
204.57	0.000
204.95	-66.667
205.32	0.000
205.70	-200.000
206.08	100.000
206.45	66.667
206.83	175.000
207.20	-400.000
207.58	-120.000
207.96	-1500.000
208.33	-128.571
208.71	-1300.000
209.08	150.000
209.46	325.000
209.84	0.000
210.21	120.000
210.59	1400.000
210.96	280.000
211.34	1000.000
211.71	-800.000
212.09	-166.667
212.46	-200.000
212.84	-266.667
213.22	-125.000
213.59	-700.000
213.97	-600.000
214.34	-800.000
214.72	-7.692
215.09	187.500
215.47	233.333
215.84	500.000
216.22	12.500
216.59	-250.000
216.97	500.000
217.34	177.778
217.72	0.000
218.09	233.333
218.47	700.000
218.84	-57.143
219.22	-75.000
219.59	-233.333
219.97	-275.000
220.34	75.000
220.72	-20.000
221.09	0.000
221.47	-150.000
221.84	100.000
222.22	0.000
222.59	900.000
222.97	-500.000
223.34	-41.667
223.72	-1400.000
224.09	-450.000
224.46	18.182
224.84	62.500
225.21	28.571
225.59	-200.000
225.96	33.333
226.34	40.000
226.71	-114.286
227.08	1000.000
227.46	37.500
227.83	-300.000
228.21	-56.250
228.58	-325.000
228.95	0.000
229.33	25.000
229.70	-150.000
230.08	-46.154
230.45	-100.000
230.82	-83.333
231.20	271.429
231.57	-400.000
231.95	600.000
232.32	-50.000
232.69	-11.765
233.07	-800.000
233.44	-4.348
233.81	-1100.000
234.19	-4.167
234.56	-26.667
234.93	-73.333
235.31	52.632
235.68	-92.308
236.05	-30.769
236.43	0.000
236.80	0.000
237.17	-40.000
237.55	-23.529
237.92	-13.793
238.29	-22.222
238.67	5.556
239.04	-19.355
239.41	-14.894
239.79	8.511
240.16	4.651
240.53	8.929
240.91	16.071
241.28	-7.143
241.65	6.452
242.02	7.895
242.40	27.536
242.77	2.899
243.14	1.282
243.51	10.638
243.89	14.423
244.26	23.585
244.63	3.846
245.00	16.667
245.38	0.000
245.75	11.475
246.12	10.526
246.49	-1.626
246.87	-0.840
247.24	12.162
247.61	9.272
247.98	11.538
248.36	14.793
248.73	5.618
249.10	15.152
249.47	11.290
249.84	14.211
250.22	12.935
250.59	7.009
250.96	17.727
251.33	6.220
251.70	13.389
252.08	11.297
252.45	13.169
252.82	15.589
253.19	12.451
253.56	5.396
253.94	14.235
254.31	13.732
254.68	15.436
255.05	11.221
255.42	12.238
255.79	12.577
256.16	11.356
256.54	9.841
256.91	9.810
257.28	14.465
257.65	10.191
258.02	15.543
258.39	11.404
258.76	9.593
259.14	15.057
259.51	9.270
259.88	14.092
260.25	14.167
260.62	10.393
260.99	14.324
261.36	13.731
261.73	10.617
262.10	11.705
262.47	11.358
262.85	12.687
263.22	13.333
263.59	11.429
263.96	12.895
264.33	15.865
264.70	12.558
265.07	14.815
265.44	14.483
265.81	13.272
266.18	11.845
266.55	13.100
266.92	12.500
267.29	12.757
267.66	13.800
268.03	13.992
268.40	11.017
268.77	13.636
269.14	13.673
269.51	16.632
269.88	12.627
270.25	13.136
270.62	12.295
270.99	13.386
271.36	13.492
271.73	13.253
272.10	14.476
272.47	12.860
272.84	13.386
273.21	11.350
273.58	11.475
273.95	14.151
274.32	13.619
274.69	13.115
275.06	16.431
275.43	12.994
275.80	12.411
276.17	13.260
276.54	9.947
276.91	13.066
277.28	11.552
277.65	12.762
278.02	15.536
278.39	14.210
278.76	15.552
279.13	16.295
279.50	13.448
279.87	12.319
280.23	14.414
280.60	11.073
280.97	14.773
281.34	13.722
281.71	12.683
282.08	14.188
282.45	13.934
282.82	12.780
283.19	13.720
283.56	15.000
283.92	14.526
284.29	13.105
284.66	14.003
285.03	14.007
285.40	12.840
285.77	13.514
286.14	13.374
286.51	13.193
286.87	13.538
287.24	11.947
287.61	12.349
287.98	13.529
288.35	14.307
288.72	12.769
289.08	14.672
289.45	12.922
289.82	13.767
290.19	13.604
290.56	12.926
290.93	11.878
291.29	14.637
291.66	12.568
292.03	15.395
292.40	14.132
292.77	12.718
293.13	12.831
293.50	13.464
293.87	14.267
294.24	14.418
294.60	12.354
294.97	14.947
295.34	13.061
295.71	11.958
296.08	12.304
296.44	13.520
296.81	12.667
297.18	13.625
297.55	14.623
297.91	14.907
298.28	14.165
298.65	14.655
299.02	15.018
299.38	13.129
299.75	14.423
300.12	14.535
300.48	13.918
300.85	13.972
301.22	15.331
301.59	14.437
301.95	13.705
302.32	14.819
302.69	14.576
303.05	14.286
303.42	15.795
303.79	16.824
304.15	15.444
304.52	16.989
304.89	16.722
305.25	14.050
305.62	16.486
305.99	15.887
306.35	17.555
306.72	18.006
307.09	16.058
307.45	16.613
307.82	18.105
308.19	16.510
308.55	18.424
308.92	19.941
309.29	18.118
309.65	17.682
310.02	19.682
310.38	19.919
310.75	19.428
311.12	19.631
311.48	19.090
311.85	19.783
312.22	21.663
312.58	20.580
312.95	20.597
313.31	21.488
313.68	21.565
314.05	22.117
314.41	22.478
314.78	23.529
315.14	23.519
315.51	24.263
315.87	24.096
316.24	23.875
316.61	25.936
316.97	24.352
317.34	24.599
317.70	25.691
318.07	26.442
318.43	25.745
318.80	25.742
319.16	26.702
319.53	27.240
319.89	27.733
320.26	29.020
320.62	27.896
320.99	28.101
321.35	29.373
321.72	30.895
322.08	30.074
322.45	31.082
322.81	31.146
323.18	31.038
323.54	33.123
323.91	34.327
324.27	33.933
324.64	34.059
325.00	35.608
325.37	35.495
325.73	34.175
326.10	37.006
326.46	37.207
326.83	37.945
327.19	39.024
327.56	38.678
327.92	38.777
328.29	39.399
328.65	40.841
329.01	40.018
329.38	41.826
329.74	40.858
330.11	41.930
330.47	40.191
330.84	42.690
331.20	41.674
331.56	41.667
331.93	43.325
332.29	43.093
332.66	41.864
333.02	42.572
333.38	44.649
333.75	43.003
334.11	42.535
334.48	43.243
334.84	44.081
335.20	42.967
335.57	42.298
335.93	44.588
336.29	42.644
336.66	42.564
337.02	43.739
337.38	42.994
337.75	43.239
338.11	43.553
338.47	42.894
338.84	44.244
339.20	44.621
339.56	43.430
339.93	43.647
340.29	43.040
340.65	43.713
341.02	42.013
341.38	44.426
341.74	43.782
342.11	42.857
342.47	42.845
342.83	43.301
343.20	45.178
343.56	44.481
343.92	44.760
344.28	43.994
344.65	43.347
345.01	42.534
345.37	44.572
345.73	44.526
346.10	43.499
346.46	43.089
346.82	43.499
347.19	43.275
347.55	44.103
347.91	43.882
348.27	43.533
348.63	43.670
349.00	43.868
349.36	45.447
349.72	44.702
350.08	44.384
350.45	44.401
350.81	44.210
351.17	43.495
351.53	44.540
351.89	43.844
352.26	42.317
352.62	44.419
352.98	44.249
353.34	44.847
353.70	44.003
354.07	44.706
354.43	45.257
354.79	45.994
355.15	44.565
355.51	43.660
355.87	44.566
356.24	45.024
356.60	43.862
356.96	44.820
357.32	44.272
357.68	44.691
358.04	44.453
358.40	44.961
358.77	45.642
359.13	45.136
359.49	44.058
359.85	45.641
360.21	46.106
360.57	44.943
360.93	46.586
361.29	45.744
361.66	45.254
362.02	46.331
362.38	45.126
362.74	43.945
363.10	46.927
363.46	45.389
363.82	47.302
364.18	45.323
364.54	46.244
364.90	44.808
365.26	44.515
365.62	45.597
365.98	45.907
366.35	45.603
366.71	45.934
367.07	45.571
367.43	46.829
367.79	46.908
368.15	46.132
368.51	45.148
368.87	45.220
369.23	44.484
369.59	46.512
369.95	46.444
370.31	45.188
370.67	46.705
371.03	46.771
371.39	46.274
371.75	46.857
372.11	46.510
372.47	47.224
372.83	47.295
373.19	48.345
373.55	47.254
373.91	45.403
374.27	47.165
374.63	47.084
374.99	46.657
375.35	45.342
375.71	46.332
376.07	45.648
376.42	46.591
376.78	48.349
377.14	47.051
377.50	48.892
377.86	46.614
378.22	45.702
378.58	47.793
378.94	47.625
379.30	47.658
379.66	47.719
380.02	47.549
380.38	48.313
380.74	47.639
381.09	47.889
381.45	47.703
381.81	47.197
382.17	48.015
382.53	46.277
382.89	46.562
383.25	47.778
383.61	47.942
383.97	47.687
384.32	46.692
384.68	48.242
385.04	48.320
385.40	48.132
385.76	47.263
386.12	47.837
386.48	49.467
386.83	47.685
387.19	48.242
387.55	47.701
387.91	48.585
388.27	48.274
388.62	48.002
388.98	48.123
389.34	48.559
389.70	47.375
390.06	46.813
390.42	48.325
390.77	49.263
391.13	47.348
391.49	47.122
391.85	47.348
392.20	47.807
392.56	48.508
392.92	48.215
393.28	48.344
393.64	47.951
393.99	46.450
394.35	47.716
394.71	48.205
395.07	46.730
395.42	48.446
395.78	47.619
396.14	48.066
396.50	48.256
396.85	48.120
397.21	47.503
397.57	48.137
397.92	47.006
398.28	46.870
398.64	47.541
399.00	46.763
399.35	47.673
399.71	47.175
400.07	47.169
400.42	47.524
400.78	47.009
401.14	47.026
401.49	48.412
401.85	48.157
402.21	47.430
402.57	47.088
402.92	47.622
403.28	47.405
403.63	47.675
403.99	46.961
404.35	47.506
404.70	46.344
405.06	48.268
405.42	46.043
405.77	46.601
406.13	46.400
406.49	47.693
406.84	47.680
407.20	46.714
407.55	47.273
407.91	47.452
408.27	46.912
408.62	47.944
408.98	48.397
409.34	47.401
409.69	48.083
410.05	47.077
410.40	46.683
410.76	46.751
411.11	47.699
411.47	47.910
411.83	47.910
412.18	46.096
412.54	48.622
412.89	47.085
413.25	45.664
413.60	47.524
413.96	46.442
414.31	46.609
414.67	46.413
415.03	48.309
415.38	47.358
415.74	47.368
416.09	48.116
416.45	47.915
416.80	47.450
417.16	47.099
417.51	47.555
417.87	47.090
418.22	47.511
418.58	47.372
418.93	47.897
419.29	48.449
419.64	46.819
420.00	48.825
420.35	47.818
420.71	47.715
421.06	48.462
421.42	48.601
421.77	49.538
422.12	48.252
422.48	47.546
422.83	49.439
423.19	48.591
423.54	47.939
423.90	48.753
424.25	49.105
424.61	49.415
424.96	47.960
425.31	47.616
425.67	48.736
426.02	49.117
426.38	49.565
426.73	49.114
427.09	49.281
427.44	49.325
427.79	48.694
428.15	48.930
428.50	48.338
428.85	49.815
429.21	48.734
429.56	48.884
429.92	50.286
430.27	48.978
430.62	50.577
430.98	49.762
431.33	50.564
431.68	49.361
432.04	51.437
432.39	50.058
432.74	49.356
433.10	50.784
433.45	50.118
433.80	50.690
434.16	48.880
434.51	50.000
434.86	49.706
435.22	51.500
435.57	50.553
435.92	50.663
436.28	50.751
436.63	50.751
436.98	50.999
437.34	50.855
437.69	49.882
438.04	49.972
438.39	51.681
438.75	51.967
439.10	52.227
439.45	52.663
439.81	51.724
440.16	51.826
440.51	52.735
440.86	51.393
441.22	50.947
441.57	51.302
441.92	51.322
442.27	52.652
442.63	50.700
442.98	52.141
443.33	50.677
443.68	50.923
444.03	52.062
444.39	52.504
444.74	50.690
445.09	50.551
445.44	52.676
445.79	52.504
446.15	52.246
446.50	52.313
446.85	52.806
447.20	51.856
447.55	51.819
447.91	52.809
448.26	52.830
448.61	52.819
448.96	53.360
449.31	53.626
449.66	53.730
450.02	52.700
450.37	52.468
450.72	51.894
451.07	52.790
451.42	52.589
451.77	53.378
452.12	52.704
452.47	53.131
452.83	53.007
453.18	53.215
453.53	53.783
453.88	54.036
454.23	55.315
454.58	53.125
454.93	53.368
455.28	53.821
455.63	53.525
455.98	52.830
456.34	53.910
456.69	52.907
457.04	53.375
457.39	53.337
457.74	52.065
458.09	53.555
458.44	53.760
458.79	53.048
459.14	52.191
459.49	54.207
459.84	53.946
460.19	52.941
460.54	53.467
460.89	53.378
461.24	53.946
461.59	54.227
461.94	54.046
462.29	53.615
462.64	53.760
462.99	54.058
463.34	53.660
463.69	54.832
464.04	52.941
464.39	53.935
464.74	54.115
465.09	54.061
465.44	54.321
465.79	53.709
466.14	54.333
466.49	54.487
466.84	54.094
467.19	55.159
467.54	55.023
467.89	53.111
468.24	53.964
468.59	53.665
468.94	54.598
469.29	55.585
469.64	55.788
469.99	56.138
470.34	54.484
470.68	54.647
471.03	54.725
471.38	54.520
471.73	54.184
472.08	55.258
472.43	55.805
472.78	54.902
473.13	53.166
473.48	54.534
473.83	55.179
474.17	55.729
474.52	57.087
474.87	53.317
475.22	53.744
475.57	53.820
475.92	54.308
476.27	55.361
476.61	54.587
476.96	54.483
477.31	55.232
477.66	54.294
478.01	54.725
478.36	54.714
478.70	54.887
479.05	56.160
479.40	54.030
479.75	54.888
480.10	55.533
480.45	53.163
480.79	54.206
481.14	54.357
481.49	56.438
481.84	53.723
482.19	54.423
482.53	54.381
482.88	54.698
483.23	53.705
483.58	54.395
483.92	54.475
484.27	54.575
484.62	53.040
484.97	54.376
485.31	52.694
485.66	50.465
486.01	50.282
486.36	49.638
486.70	50.710
487.05	52.366
487.40	52.417
487.75	53.402
488.09	52.362
488.44	53.558
488.79	54.504
489.13	54.195
489.48	54.382
489.83	54.533
490.17	54.517
490.52	56.662
490.87	54.288
491.22	55.393
491.56	55.726
491.91	53.913
492.26	56.673
492.60	55.363
492.95	55.637
493.30	54.457
493.64	54.532
493.99	55.072
494.34	55.443
494.68	55.990
495.03	57.164
495.37	54.842
495.72	54.637
496.07	56.162
496.41	54.703
496.76	54.982
497.11	55.728
497.45	56.031
497.80	56.184
498.14	55.365
498.49	55.825
498.84	55.820
499.18	54.953
499.53	55.244
499.87	54.828
500.22	55.948
500.56	56.570
500.91	56.489
501.26	55.616
501.60	54.853
501.95	54.384
502.29	55.291
502.64	55.545
502.98	55.443
503.33	57.567
503.67	55.307
504.02	55.441
504.36	54.482
504.71	55.183
505.06	54.916
505.40	55.825
505.75	57.121
506.09	54.267
506.44	55.393
506.78	55.561
507.13	55.613
507.47	55.992
507.82	55.311
508.16	55.884
508.51	55.579
508.85	55.262
509.19	56.085
509.54	56.676
509.88	55.860
510.23	55.789
510.57	55.667
510.92	56.950
511.26	57.646
511.61	56.202
511.95	56.505
512.30	56.580
512.64	57.889
512.98	57.396
513.33	56.507
513.67	55.593
514.02	57.355
514.36	56.180
514.70	56.813
515.05	59.274
515.39	58.432
515.74	57.549
516.08	56.637
516.42	56.797
516.77	56.942
517.11	58.260
517.46	59.484
517.80	59.504
518.14	57.991
518.49	56.600
518.83	56.802
519.17	57.349
519.52	58.685
519.86	58.531
520.20	57.489
520.55	57.898
520.89	59.519
521.23	60.705
521.58	57.901
521.92	58.391
522.26	59.336
522.61	59.535
522.95	60.168
523.29	57.587
523.64	57.915
523.98	58.895
524.32	57.656
524.66	60.130
525.01	59.240
525.35	58.920
525.69	58.648
526.04	57.915
526.38	57.744
526.72	57.396
527.06	57.963
527.41	58.570
527.75	56.943
528.09	59.769
528.43	59.905
528.78	57.687
529.12	59.508
529.46	57.710
529.80	58.123
530.15	56.757
530.49	59.164
530.83	60.325
531.17	60.411
531.51	57.114
531.86	58.537
532.20	57.133
532.54	57.241
532.88	57.726
533.22	57.643
533.57	58.742
533.91	58.129
534.25	58.073
534.59	57.465
534.93	55.931
535.27	55.605
535.62	57.303
535.96	58.360
536.30	58.112
536.64	56.391
536.98	57.323
537.32	58.434
537.66	58.110
538.01	57.212
538.35	57.390
538.69	55.853
539.03	56.107
539.37	55.734
539.71	57.231
540.05	55.466
540.39	56.160
540.73	58.170
541.07	56.259
541.42	56.902
541.76	56.698
542.10	55.518
542.44	56.965
542.78	56.211
543.12	54.650
543.46	55.701
543.80	54.718
544.14	57.880
544.48	54.147
544.82	54.943
545.16	55.646
545.50	55.165
545.84	55.610
546.18	55.680
546.52	56.104
546.86	55.901
547.20	55.254
547.54	55.754
547.88	55.061
548.22	54.528
548.56	54.970
548.90	55.074
549.24	55.833
549.58	55.516
549.92	56.493
550.26	57.638
550.60	56.156
550.94	57.687
551.28	55.640
551.62	57.368
551.96	56.369
552.30	55.822
552.64	54.096
552.98	57.102
553.32	55.660
553.66	56.273
554.00	55.868
554.34	55.678
554.68	57.196
555.02	55.090
555.36	55.976
555.69	54.916
556.03	54.825
556.37	54.410
556.71	53.749
557.05	55.351
557.39	56.745
557.73	56.127
558.07	54.258
558.41	57.532
558.75	55.812
559.08	56.135
559.42	56.727
559.76	53.746
560.10	56.188
560.44	56.522
560.78	54.748
561.12	54.380
561.45	54.218
561.79	53.164
562.13	53.938
562.47	55.357
562.81	54.040
563.15	54.462
563.48	53.476
563.82	54.309
564.16	53.893
564.50	54.206
564.84	53.176
565.17	53.907
565.51	53.944
565.85	52.365
566.19	53.576
566.52	52.556
566.86	52.402
567.20	53.268
567.54	51.583
567.88	51.848
568.21	50.081
568.55	50.078
568.89	49.900
569.23	49.633
569.56	48.728
569.90	48.236
570.24	46.643
570.57	46.128
570.91	47.137
571.25	46.688
571.59	45.670
571.92	46.289
572.26	46.124
572.60	46.043
572.93	45.829
573.27	45.217
573.61	45.839
573.95	45.267
574.28	44.676
574.62	43.915
574.96	44.193
575.29	44.408
575.63	45.364
575.97	45.734
576.30	44.989
576.64	44.459
576.98	44.980
577.31	44.633
577.65	43.760
577.98	43.741
578.32	43.421
578.66	43.652
578.99	44.272
579.33	44.653
579.67	44.323
580.00	43.453
580.34	43.529
580.67	44.047
581.01	44.100
581.35	43.039
581.68	42.495
582.02	43.423
582.35	43.330
582.69	43.517
583.02	43.071
583.36	43.934
583.70	43.444
584.03	44.648
584.37	44.454
584.70	43.648
585.04	44.173
585.37	43.208
585.71	43.488
586.04	43.784
586.38	43.567
586.72	43.748
587.05	44.050
587.39	43.742
587.72	44.096
588.06	44.077
588.39	44.388
588.73	44.645
589.06	44.649
589.40	45.029
589.73	44.772
590.07	44.696
590.40	45.210
590.73	46.353
591.07	46.135
591.40	45.478
591.74	45.220
592.07	46.828
592.41	46.332
592.74	44.792
593.08	43.282
593.41	44.188
593.75	43.508
594.08	44.525
594.41	44.132
594.75	45.015
595.08	45.855
595.42	44.238
595.75	44.722
596.09	44.573
596.42	45.792
596.75	45.590
597.09	46.542
597.42	46.074
597.75	46.267
598.09	45.902
598.42	45.414
598.76	45.382
599.09	45.178
599.42	44.147
599.76	44.762
600.09	44.729
600.42	43.653
600.76	44.198
601.09	43.729
601.42	44.924
601.76	44.054
602.09	45.318
602.42	45.274
602.76	44.883
603.09	45.421
603.42	44.982
603.76	43.920
604.09	43.241
604.42	44.244
604.76	44.435
605.09	45.582
605.42	45.074
605.75	44.069
606.09	43.460
606.42	44.098
606.75	44.848
607.09	43.972
607.42	43.870
607.75	43.764
608.08	44.229
608.42	45.314
608.75	45.007
609.08	44.929
609.41	45.405
609.75	45.033
610.08	45.266
610.41	45.530
610.74	44.610
611.07	45.341
611.41	45.292
611.74	44.824
612.07	44.867
612.40	45.459
612.73	45.499
613.07	45.843
613.40	46.035
613.73	45.829
614.06	45.274
614.39	45.136
614.72	45.641
615.06	45.389
615.39	45.640
615.72	45.140
616.05	46.227
616.38	44.845
616.71	45.111
617.05	46.990
617.38	46.580
617.71	45.527
618.04	44.729
618.37	46.435
618.70	46.507
619.03	46.873
619.36	47.189
619.69	46.418
620.03	46.078
620.36	46.416
620.69	45.967
621.02	46.692
621.35	47.670
621.68	47.514
622.01	48.220
622.34	47.502
622.67	48.630
623.00	47.948
623.33	47.120
623.66	46.989
623.99	47.187
624.32	46.148
624.65	47.774
624.99	46.657
625.32	46.975
625.65	45.891
625.98	48.025
626.31	48.653
626.64	47.549
626.97	48.183
627.30	48.246
627.63	48.010
627.96	47.359
628.29	51.628
628.62	50.097
628.95	50.802
629.28	50.443
629.61	49.952
629.94	49.226
630.26	50.837
630.59	50.350
630.92	49.197
631.25	49.537
631.58	52.463
631.91	50.901
632.24	49.396
632.57	50.667
632.90	52.975
633.23	50.240
633.56	52.878
633.89	52.871
634.22	52.768
634.55	53.350
634.88	52.328
635.20	51.625
635.53	53.359
635.86	51.923
636.19	51.613
636.52	50.122
636.85	51.025
637.18	49.330
637.51	50.687
637.83	52.611
638.16	51.733
638.49	51.936
638.82	50.588
639.15	51.463
639.48	51.337
639.81	50.417
640.13	54.085
640.46	54.096
640.79	54.245
641.12	53.550
641.45	53.275
641.77	53.756
642.10	53.404
642.43	53.774
642.76	52.839
643.09	53.994
643.41	52.313
643.74	54.604
644.07	51.618
644.40	54.229
644.73	54.407
645.05	55.323
645.38	55.814
645.71	54.592
646.04	51.010
646.36	52.083
646.69	52.972
647.02	55.009
647.35	58.318
647.67	52.311
648.00	57.246
648.33	52.712
648.66	50.918
648.98	49.534
649.31	49.847
649.64	50.391
649.96	51.817
650.29	51.797
650.62	52.883
650.94	53.276
651.27	54.417
651.60	53.846
651.92	53.763
652.25	51.926
652.58	50.660
652.90	51.684
653.23	50.594
653.56	49.421
653.88	49.829
654.21	50.853
654.54	49.003
654.86	48.618
655.19	48.319
655.52	42.360
655.84	35.443
656.17	41.912
656.49	55.297
656.82	54.179
657.15	41.038
657.47	30.718
657.80	23.044
658.13	24.532
658.45	36.534
658.78	35.774
659.10	36.500
659.43	37.380
659.75	37.653
660.08	39.379
660.41	41.278
660.73	44.490
661.06	48.639
661.38	51.357
661.71	53.074
662.03	55.603
662.36	55.088
662.68	53.118
663.01	55.508
663.33	52.700
663.66	49.224
663.98	54.607
664.31	52.967
664.63	49.324
664.96	52.954
665.28	51.502
665.61	50.972
665.93	54.176
666.26	53.165
666.58	48.608
666.91	54.484
667.23	51.152
667.56	54.713
667.88	55.607
668.21	52.902
668.53	52.644
668.86	53.477
669.18	53.664
669.50	52.074
669.83	54.177
670.15	54.048
670.48	49.425
670.80	53.173
671.13	52.174
671.45	51.598
671.77	50.216
672.10	46.979
672.42	50.954
672.75	47.321
673.07	46.000
673.39	47.761
673.72	47.505
674.04	49.590
674.37	50.203
674.69	48.354
675.01	47.222
675.34	51.860
675.66	50.545
675.98	47.788
676.31	50.452
676.63	51.927
676.95	51.059
677.28	48.624
677.60	53.676
677.92	50.111
678.25	52.061
678.57	50.713
678.89	48.188
679.22	50.518
679.54	47.959
679.86	50.781
680.18	46.346
680.51	45.385
680.83	42.885
681.15	47.151
681.48	46.293
681.80	47.239
682.12	49.375
682.44	45.473
682.77	47.789
683.09	46.875
683.41	47.674
683.73	47.768
684.06	47.566
684.38	48.077
684.70	45.621
685.02	47.107
685.34	47.945
685.67	46.529
685.99	44.128
686.31	44.483
686.63	45.037
686.96	45.083
687.28	45.110
687.60	48.393
687.92	43.969
688.24	44.800
688.56	49.342
688.89	45.657
689.21	44.170
689.53	44.820
689.85	44.270
690.17	46.374
690.49	45.411
690.82	43.198
691.14	46.135
691.46	45.708
691.78	45.495
692.10	49.045
692.42	43.516
692.74	48.478
693.06	44.944
693.39	44.965
693.71	45.111
694.03	46.364
694.35	43.018
694.67	48.250
694.99	48.454
695.31	48.062
695.63	47.561
695.95	46.056
696.27	49.589
696.59	47.581
696.91	51.117
697.23	46.193
697.56	45.803
697.88	44.283
698.20	42.549
698.52	41.355
698.84	42.823
699.16	44.208
699.48	47.160
699.80	50.388
700.12	46.917
700.44	44.225
700.76	44.663
701.08	48.338
701.40	45.808
701.72	50.462
702.04	46.541
702.36	44.512
702.68	47.256
703.00	47.368
703.32	45.125
703.64	43.373
703.96	48.094
704.28	46.386
704.60	45.427
704.91	45.141
705.23	44.304
705.55	52.069
705.87	47.535
706.19	46.886
706.51	48.239
706.83	49.682
707.15	47.256
707.47	47.383
707.79	43.655
708.11	43.188
708.43	41.878
708.74	40.691
709.06	43.583
709.38	44.957
709.70	45.045
710.02	44.860
710.34	46.667
710.66	42.671
710.98	44.272
711.29	47.078
711.61	41.613
711.93	44.194
712.25	44.755
712.57	39.298
712.89	45.421
713.20	49.291
713.52	48.175
713.84	45.161
714.16	43.689
714.48	46.203
714.80	41.534
715.11	47.674
715.43	39.130
715.75	45.031
716.07	41.867
716.39	46.801
716.70	48.201
717.02	49.412
717.34	45.076
717.66	46.983
717.97	44.841
718.29	45.669
718.61	43.348
718.93	44.186
719.24	43.911
719.56	41.948
719.88	42.164
720.20	43.478
720.51	44.531
720.83	44.358
721.15	37.805
721.46	46.183
721.78	40.239
722.10	41.434
722.42	45.968
722.73	42.857
723.05	41.224
723.37	44.958
723.68	43.200
724.00	37.021
724.32	43.933
724.63	46.914
724.95	38.034
725.27	45.992
725.58	45.679
725.90	45.607
726.22	40.942
726.53	37.647
726.85	37.591
727.16	40.370
727.48	41.379
727.80	40.625
728.11	41.803
728.43	43.359
728.74	40.873
729.06	40.800
729.38	44.269
729.69	37.367
730.01	38.290
730.32	42.804
730.64	40.909
730.96	39.860
731.27	38.127
731.59	39.048
731.90	38.835
732.22	38.141
732.53	37.162
732.85	34.899
733.16	38.944
733.48	39.527
733.80	38.851
734.11	45.270
734.43	33.127
734.74	39.039
735.06	39.481
735.37	36.778
735.69	36.246
736.00	32.343
736.32	41.135
736.63	37.931
736.95	38.356
737.26	38.276
737.58	38.889
737.89	37.457
738.21	34.520
738.52	36.502
738.83	41.224
739.15	41.350
739.46	33.852
739.78	33.803
740.09	34.589
740.41	39.643
740.72	32.624
741.04	36.000
741.35	37.719
741.66	45.778
741.98	44.231
742.29	48.515
742.61	38.049
742.92	42.982
743.23	35.377
743.55	43.694
743.86	34.978
744.18	40.196
744.49	35.025
744.80	44.898
745.12	41.121
745.43	43.128
745.74	40.541
746.06	35.981
746.37	35.321
746.68	41.827
747.00	38.278
747.31	42.308
747.62	38.532
747.94	40.611
748.25	41.284
748.56	39.556
748.88	44.601
749.19	42.381
749.50	36.408
749.82	36.620
750.13	33.750
750.44	34.615
750.75	32.103
751.07	38.434
751.38	37.943
751.69	35.521
752.01	37.109
752.32	35.769
752.63	35.448
752.94	40.800
753.26	37.238
753.57	43.333
753.88	34.818
754.19	35.458
754.51	37.218
754.82	35.897
755.13	37.826
755.44	35.366
755.75	31.200
756.07	34.317
756.38	35.252
756.69	35.495
757.00	34.891
757.31	35.599
757.63	30.247
757.94	32.768
758.25	35.185
758.56	32.065
758.87	34.524
759.18	29.338
759.50	35.017
759.81	37.458
760.12	34.462
760.43	31.548
760.74	35.593
761.05	32.873
761.36	31.519
761.67	36.556
761.99	31.959
762.30	33.942
762.61	34.979
762.92	35.897
763.23	39.754
763.54	46.753
763.85	34.286
764.16	32.520
764.47	35.200
764.78	33.571
765.10	34.098
765.41	32.523
765.72	34.472
766.03	30.363
766.34	35.000
766.65	35.146
766.96	29.577
767.27	41.089
767.58	30.337
767.89	45.679
768.20	34.254
768.51	35.678
768.82	43.269
769.13	37.611
769.44	30.962
769.75	26.923
770.06	34.529
770.37	30.392
770.68	33.981
770.99	30.583
771.30	33.193
771.61	33.878
771.92	34.855
772.23	35.586
772.54	34.254
772.85	39.535
773.16	28.042
773.47	31.953
773.78	42.529
774.09	38.125
774.39	36.025
774.70	30.612
775.01	40.000
775.32	34.286
775.63	39.850
775.94	30.075
776.25	24.800
776.56	40.496
776.87	36.508
777.18	27.027
777.48	32.432
777.79	33.858
778.10	45.872
778.41	33.333
778.72	36.975
779.03	28.169
779.34	35.811
779.65	33.099
779.95	34.437
780.26	27.338
780.57	33.094
780.88	24.648
781.19	27.731
781.50	34.228
781.80	28.655
782.11	28.488
782.42	30.818
782.73	47.712
783.04	26.207
783.34	31.298
783.65	28.859
783.96	26.154
784.27	26.429
784.57	29.078
784.88	16.346
785.19	40.000
785.50	30.000
785.81	23.810
786.11	27.731
786.42	38.938
786.73	23.585
787.04	27.523
787.34	25.743
787.65	35.833
787.96	36.364
788.26	31.884
788.57	26.190
788.88	30.081
789.19	26.400
789.49	22.901
789.80	36.364
790.11	25.472
790.41	29.703
790.72	30.851
791.03	27.174
791.33	28.235
791.64	27.160
791.95	18.478
792.25	30.682
792.56	37.179
792.87	24.359
793.17	30.769
793.48	38.095
793.79	31.250
794.09	33.654
794.40	27.083
794.70	37.838
795.01	32.031
795.32	32.174
795.62	15.217
795.93	33.962
796.23	33.333
796.54	26.829
796.85	38.095
797.15	33.333
797.46	31.884
797.76	14.474
798.07	40.909
798.37	28.049
798.68	24.194
798.99	22.973
799.29	38.554
799.60	34.615
799.90	16.923
800.21	25.758
800.51	25.333
800.82	33.333
801.12	12.500
801.43	8.333
801.73	16.216
802.04	40.000
802.34	14.754
802.65	31.343
802.95	23.636
803.26	31.034
803.56	36.923
803.87	32.075
804.17	25.806
804.48	10.294
804.78	36.585
805.09	39.130
805.39	35.294
805.70	17.021
806.00	19.298
806.30	33.333
806.61	18.421
806.91	28.378
807.22	17.105
807.52	39.773
807.83	11.864
808.13	7.576
808.43	13.333
808.74	1.724
809.04	31.746
809.35	32.653
809.65	5.000
809.95	12.245
810.26	25.352
810.56	37.500
810.86	12.245
811.17	36.538
811.47	23.404
811.77	20.833
812.08	35.849
812.38	31.250
812.69	20.000
812.99	12.195
813.29	2.703
813.59	-2.703
813.90	21.818
814.20	30.909
814.50	21.667
814.81	32.727
815.11	24.561
815.41	25.581
815.72	10.000
816.02	20.000
816.32	2.703
816.62	16.667
816.93	20.000
817.23	13.333
817.53	0.000
817.84	18.919
818.14	36.585
818.44	34.000
818.74	8.163
819.04	26.829
819.35	13.889
819.65	40.909
819.95	-83.333
820.25	12.121
820.56	-9.524
820.86	8.333
821.16	0.000
821.46	6.522
821.76	12.069
822.07	43.478
822.37	12.121
822.67	46.341
822.97	16.216
823.27	-2.857
823.57	48.276
823.88	2.941
824.18	13.889
824.48	28.571
824.78	-4.762
825.08	28.571
825.38	29.630
825.69	25.806
825.99	14.634
826.29	29.630
826.59	31.250
826.89	22.581
827.19	-4.348
827.49	2.778
827.79	8.696
828.09	0.000
828.39	20.833
828.70	-12.500
829.00	24.138
829.30	5.405
829.60	-20.833
829.90	37.037
830.20	0.000
830.50	9.091
830.80	-64.706
831.10	-13.636
831.40	-20.588
831.70	3.846
832.00	18.182
832.30	17.647
832.60	13.514
832.90	100.000
833.20	60.714
833.50	-30.000
833.80	36.842
834.10	-16.667
834.40	-18.182
834.70	-73.333
835.00	-50.000
835.30	-29.167
835.60	-47.619
835.90	4.762
836.20	-16.000
836.50	-25.000
836.80	-5.263
837.10	21.622
837.40	36.667
837.70	30.435
838.00	58.333
838.30	42.105
838.60	-20.000
838.90	-70.000
839.19	-83.333
839.49	-61.538
839.79	15.789
840.09	-83.333
840.39	-60.000
840.69	-27.273
840.99	61.905
841.29	-62.500
841.59	-53.846
841.88	-40.000
842.18	-85.714
842.48	3.333
842.78	-157.143
843.08	-57.143
843.38	-37.500
843.68	-68.750
843.97	14.286
844.27	-111.111
844.57	-90.909
844.87	-26.667
845.17	18.182
845.47	766.667
845.76	13.333
846.06	-41.667
846.36	-550.000
846.66	-21.053
846.96	-27.273
847.25	-44.444
847.55	-100.000
847.85	-28.571
848.15	38.462
848.44	-200.000
848.74	8.333
849.04	-69.231
849.34	-275.000
849.63	-81.818
849.93	-164.286
850.23	0.000
850.53	-87.500
850.82	-50.000
851.12	-20.000
851.42	5.882
851.71	0.000
852.01	-5.882
852.31	-38.462
852.61	600.000
852.90	-52.941
853.20	46.667
853.50	-43.750
853.79	-164.286
854.09	-50.000
854.39	-40.000
854.68	2.500
854.98	-28.571
855.28	-24.000
855.57	0.000
855.87	-16.667
856.17	8.000
856.46	-21.875
856.76	-5.000
857.05	8.000
857.35	-125.000
857.65	-29.412
857.94	-100.000
858.24	-33.333
858.53	-20.000
858.83	-63.636
859.13	12.000
859.42	-35.714
859.72	-137.500
860.01	0.000
860.31	-137.500
860.60	-6.250
860.90	-133.333
861.20	-83.333
861.49	26.667
861.79	-62.500
862.08	25.000
862.38	-125.000
862.67	257.143
862.97	125.000
863.26	-27.273
863.56	-100.000
863.85	0.000
864.15	23.529
864.44	-120.000
864.74	-30.000
865.03	-66.667
865.33	-107.143
865.62	121.429
865.92	10.526
866.21	-33.333
866.51	63.636
866.80	-100.000
867.10	-150.000
867.39	-12.500
867.69	-6.667
867.98	-150.000
868.27	5.882
868.57	0.000
868.86	700.000
869.16	-200.000
869.45	-114.286
869.75	300.000
870.04	-90.000
870.33	-900.000
870.63	10.526
870.92	-75.000
871.22	-700.000
871.51	-157.143
871.80	-133.333
872.10	-200.000
>>>>>End Processed Spectral Data<<<<<
