SpectraSuite Data File
++++++++++++++++++++++++++++++++++++
Date: Wed May 13 21:42:11 PDT 2015
User: schluterlab
Dark Spectrum Present: Yes
Reference Spectrum Present: Yes
Number of Sampled Component Spectra: 1
Spectrometers: USB2E3373
Integration Time (usec): 3000 (USB2E3373)
Spectra Averaged: 3 (USB2E3373)
Boxcar Smoothing: 0 (USB2E3373)
Correct for Electrical Dark: No (USB2E3373)
Strobe/Lamp Enabled: No (USB2E3373)
Correct for Detector Non-linearity: No (USB2E3373)
Correct for Stray Light: No (USB2E3373)
Number of Pixels in Processed Spectrum: 2048
>>>>>Begin Processed Spectral Data<<<<<
178.53	0.000
178.91	350.000
179.29	166.667
179.67	-850.000
180.04	-466.667
180.42	60.000
180.80	500.000
181.18	300.000
181.56	-275.000
181.94	125.000
182.31	-9.091
182.69	100.000
183.07	-140.000
183.45	283.333
183.83	166.667
184.20	100.000
184.58	-66.667
184.96	233.333
185.34	328.571
185.72	0.000
186.09	0.000
186.47	-400.000
186.85	100.000
187.23	100.000
187.61	150.000
187.98	1400.000
188.36	-37.500
188.74	0.000
189.12	-54.545
189.49	-10.000
189.87	100.000
190.25	260.000
190.63	200.000
191.00	-160.000
191.38	240.000
191.76	25.000
192.14	200.000
192.51	-42.105
192.89	633.333
193.27	200.000
193.65	-80.000
194.02	172.727
194.40	240.000
194.78	-300.000
195.15	200.000
195.53	-200.000
195.91	-25.000
196.29	-366.667
196.66	0.000
197.04	650.000
197.42	-20.000
197.79	-60.000
198.17	-100.000
198.55	-266.667
198.92	350.000
199.30	-500.000
199.68	20.000
200.05	100.000
200.43	183.333
200.81	-1500.000
201.18	-200.000
201.56	-66.667
201.94	750.000
202.31	-17.391
202.69	-71.429
203.07	-200.000
203.44	-200.000
203.82	-600.000
204.19	-50.000
204.57	0.000
204.95	-100.000
205.32	0.000
205.70	-350.000
206.08	-250.000
206.45	-100.000
206.83	275.000
207.20	-466.667
207.58	-30.000
207.96	-2000.000
208.33	-142.857
208.71	-2000.000
209.08	125.000
209.46	425.000
209.84	0.000
210.21	150.000
210.59	2000.000
210.96	280.000
211.34	1200.000
211.71	-900.000
212.09	-233.333
212.46	-170.000
212.84	-200.000
213.22	-125.000
213.59	-900.000
213.97	-950.000
214.34	-650.000
214.72	-23.077
215.09	137.500
215.47	188.889
215.84	600.000
216.22	-12.500
216.59	-600.000
216.97	700.000
217.34	122.222
217.72	0.000
218.09	466.667
218.47	-300.000
218.84	-171.429
219.22	-112.500
219.59	-200.000
219.97	-475.000
220.34	-162.500
220.72	-220.000
221.09	0.000
221.47	-200.000
221.84	-400.000
222.22	0.000
222.59	1200.000
222.97	-366.667
223.34	-66.667
223.72	-600.000
224.09	-300.000
224.46	-9.091
224.84	-62.500
225.21	-142.857
225.59	-500.000
225.96	50.000
226.34	-50.000
226.71	-142.857
227.08	700.000
227.46	-137.500
227.83	-700.000
228.21	-12.500
228.58	-150.000
228.95	5.882
229.33	12.500
229.70	-25.000
230.08	-30.769
230.45	-112.500
230.82	-91.667
231.20	285.714
231.57	-250.000
231.95	1100.000
232.32	-83.333
232.69	-41.176
233.07	-1300.000
233.44	4.348
233.81	-750.000
234.19	20.833
234.56	-60.000
234.93	-73.333
235.31	0.000
235.68	-53.846
236.05	-115.385
236.43	-66.667
236.80	-6.061
237.17	-40.000
237.55	11.765
237.92	-13.793
238.29	-29.630
238.67	-8.333
239.04	0.000
239.41	-14.894
239.79	6.383
240.16	2.326
240.53	26.786
240.91	17.857
241.28	3.571
241.65	12.903
242.02	13.158
242.40	11.594
242.77	13.043
243.14	14.103
243.51	6.383
243.89	20.192
244.26	23.585
244.63	9.615
245.00	25.000
245.38	10.924
245.75	13.115
246.12	18.797
246.49	9.756
246.87	7.563
247.24	23.649
247.61	18.543
247.98	17.308
248.36	17.160
248.73	11.798
249.10	21.212
249.47	17.204
249.84	25.263
250.22	15.423
250.59	12.617
250.96	24.545
251.33	13.876
251.70	20.502
252.08	18.828
252.45	20.576
252.82	20.532
253.19	18.288
253.56	21.583
253.94	19.573
254.31	17.958
254.68	22.148
255.05	21.452
255.42	19.930
255.79	17.178
256.16	18.297
256.54	20.000
256.91	19.304
257.28	21.069
257.65	18.471
258.02	19.062
258.39	21.637
258.76	17.442
259.14	20.739
259.51	19.101
259.88	22.764
260.25	20.278
260.62	17.978
260.99	24.403
261.36	24.611
261.73	19.753
262.10	16.539
262.47	20.494
262.85	19.403
263.22	19.231
263.59	21.299
263.96	19.951
264.33	18.510
264.70	20.930
265.07	21.991
265.44	22.989
265.81	19.908
266.18	18.679
266.55	21.179
266.92	19.068
267.29	20.165
267.66	23.355
268.03	20.576
268.40	21.822
268.77	21.901
269.14	21.633
269.51	24.435
269.88	19.756
270.25	21.186
270.62	17.418
270.99	20.079
271.36	20.040
271.73	21.285
272.10	21.524
272.47	21.881
272.84	21.457
273.21	19.961
273.58	21.311
273.95	19.623
274.32	20.896
274.69	19.308
275.06	21.555
275.43	19.397
275.80	18.440
276.17	19.337
276.54	17.762
276.91	21.429
277.28	18.773
277.65	22.203
278.02	20.357
278.39	19.716
278.76	22.241
279.13	18.525
279.50	17.069
279.87	17.391
280.23	21.261
280.60	19.723
280.97	18.994
281.34	20.820
281.71	16.911
282.08	20.171
282.45	22.295
282.82	20.607
283.19	19.970
283.56	19.844
283.92	18.807
284.29	20.749
284.66	18.287
285.03	18.893
285.40	21.148
285.77	22.523
286.14	18.845
286.51	22.489
286.87	18.923
287.24	20.501
287.61	21.386
287.98	19.412
288.35	19.374
288.72	18.938
289.08	19.801
289.45	19.383
289.82	19.062
290.19	17.812
290.56	18.750
290.93	18.232
291.29	17.100
291.66	15.984
292.03	18.801
292.40	18.035
292.77	18.742
293.13	19.107
293.50	17.516
293.87	18.000
294.24	17.857
294.60	17.555
294.97	18.122
295.34	14.776
295.71	16.163
296.08	14.660
296.44	16.582
296.81	16.687
297.18	17.125
297.55	16.627
297.91	17.143
298.28	16.586
298.65	16.133
299.02	16.361
299.38	16.933
299.75	17.788
300.12	15.116
300.48	15.673
300.85	15.704
301.22	16.260
301.59	15.728
301.95	15.099
302.32	14.469
302.69	16.271
303.05	14.618
303.42	15.909
303.79	16.719
304.15	15.115
304.52	16.452
304.89	15.061
305.25	15.587
305.62	15.835
305.99	14.581
306.35	17.450
306.72	16.582
307.09	15.641
307.45	15.655
307.82	15.684
308.19	15.256
308.55	15.046
308.92	17.092
309.29	13.814
309.65	14.585
310.02	16.600
310.38	15.244
310.75	14.398
311.12	15.549
311.48	14.738
311.85	15.650
312.22	16.054
312.58	15.072
312.95	16.517
313.31	15.519
313.68	14.885
314.05	16.257
314.41	16.138
314.78	15.844
315.14	16.944
315.51	15.794
315.87	15.107
316.24	15.335
316.61	15.982
316.97	16.852
317.34	15.775
317.70	16.592
318.07	16.060
318.43	16.712
318.80	15.794
319.16	15.561
319.53	15.950
319.89	16.260
320.26	16.728
320.62	16.404
320.99	16.085
321.35	15.061
321.72	16.266
322.08	17.435
322.45	16.929
322.81	16.174
323.18	16.905
323.54	16.065
323.91	15.808
324.27	16.022
324.64	16.551
325.00	15.573
325.37	17.321
325.73	15.909
326.10	17.157
326.46	16.304
326.83	15.453
327.19	16.341
327.56	17.244
327.92	16.895
328.29	18.114
328.65	16.740
329.01	16.623
329.38	18.087
329.74	16.567
330.11	16.501
330.47	15.538
330.84	16.245
331.20	16.396
331.56	15.942
331.93	16.365
332.29	15.899
332.66	16.949
333.02	16.594
333.38	15.965
333.75	16.553
334.11	17.622
334.48	16.914
334.84	15.459
335.20	16.981
335.57	15.927
335.93	15.722
336.29	15.061
336.66	15.556
337.02	16.261
337.38	16.188
337.75	14.901
338.11	16.311
338.47	15.240
338.84	15.808
339.20	14.991
339.56	16.382
339.93	15.212
340.29	15.713
340.65	16.168
341.02	15.807
341.38	15.287
341.74	14.370
342.11	16.763
342.47	14.979
342.83	15.441
343.20	15.736
343.56	15.536
343.92	15.272
344.28	15.341
344.65	14.857
345.01	15.819
345.37	15.461
345.73	16.667
346.10	16.453
346.46	14.959
346.82	15.169
347.19	15.111
347.55	15.590
347.91	15.121
348.27	15.221
348.63	14.663
349.00	14.623
349.36	15.149
349.72	15.159
350.08	15.757
350.45	14.722
350.81	14.867
351.17	15.858
351.53	15.868
351.89	13.662
352.26	14.286
352.62	15.581
352.98	14.856
353.34	15.217
353.70	15.109
354.07	15.059
354.43	15.552
354.79	15.465
355.15	15.062
355.51	15.262
355.87	15.950
356.24	14.767
356.60	14.386
356.96	14.582
357.32	14.164
357.68	15.126
358.04	14.895
358.40	15.736
358.77	15.826
359.13	14.630
359.49	15.140
359.85	15.163
360.21	14.032
360.57	14.601
360.93	15.781
361.29	15.248
361.66	15.034
362.02	14.974
362.38	14.919
362.74	14.648
363.10	15.112
363.46	14.553
363.82	15.595
364.18	14.793
364.54	14.004
364.90	14.216
365.26	14.084
365.62	14.773
365.98	14.662
366.35	15.674
366.71	13.980
367.07	14.316
367.43	14.355
367.79	15.288
368.15	14.627
368.51	13.432
368.87	15.841
369.23	14.591
369.59	14.729
369.95	14.731
370.31	14.296
370.67	14.410
371.03	15.293
371.39	14.975
371.75	15.643
372.11	15.171
372.47	13.554
372.83	15.326
373.19	15.036
373.55	14.740
373.91	15.417
374.27	14.177
374.63	14.865
374.99	14.345
375.35	14.932
375.71	14.334
376.07	15.284
376.42	14.840
376.78	14.597
377.14	15.119
377.50	14.733
377.86	15.272
378.22	14.602
378.58	14.691
378.94	15.250
379.30	15.178
379.66	14.858
380.02	14.522
380.38	14.940
380.74	15.242
381.09	14.475
381.45	14.813
381.81	14.664
382.17	14.178
382.53	15.323
382.89	15.259
383.25	16.111
383.61	15.557
383.97	15.062
384.32	14.745
384.68	14.806
385.04	14.783
385.40	15.006
385.76	15.085
386.12	15.107
386.48	15.110
386.83	14.768
387.19	14.744
387.55	15.267
387.91	15.129
388.27	15.228
388.62	15.231
388.98	14.956
389.34	14.662
389.70	13.980
390.06	15.000
390.42	15.013
390.77	14.798
391.13	15.278
391.49	14.864
391.85	15.144
392.20	15.226
392.56	15.111
392.92	15.272
393.28	14.643
393.64	15.107
393.99	14.198
394.35	14.444
394.71	14.487
395.07	14.340
395.42	15.478
395.78	15.187
396.14	14.268
396.50	14.458
396.85	15.679
397.21	15.106
397.57	14.783
397.92	13.892
398.28	13.875
398.64	15.361
399.00	15.346
399.35	15.437
399.71	15.026
400.07	14.759
400.42	14.671
400.78	15.106
401.14	14.408
401.49	14.020
401.85	15.049
402.21	14.985
402.57	15.635
402.92	15.645
403.28	15.260
403.63	15.375
403.99	15.675
404.35	14.838
404.70	15.287
405.06	14.797
405.42	14.510
405.77	15.265
406.13	14.971
406.49	14.739
406.84	15.263
407.20	14.861
407.55	15.130
407.91	14.758
408.27	14.099
408.62	14.979
408.98	15.105
409.34	15.099
409.69	16.439
410.05	14.988
410.40	14.607
410.76	15.644
411.11	15.174
411.47	14.532
411.83	14.722
412.18	15.113
412.54	15.414
412.89	14.734
413.25	14.277
413.60	14.796
413.96	15.044
414.31	15.043
414.67	14.857
415.03	15.088
415.38	14.201
415.74	15.530
416.09	15.135
416.45	15.379
416.80	14.899
417.16	15.385
417.51	14.735
417.87	15.146
418.22	15.191
418.58	14.323
418.93	15.191
419.29	15.842
419.64	15.076
420.00	16.063
420.35	15.242
420.71	16.088
421.06	15.006
421.42	15.511
421.77	15.549
422.12	15.931
422.48	15.376
422.83	15.416
423.19	15.296
423.54	15.018
423.90	15.914
424.25	15.136
424.61	15.835
424.96	15.316
425.31	14.919
425.67	15.168
426.02	17.314
426.38	15.050
426.73	15.883
427.09	14.884
427.44	15.502
427.79	15.321
428.15	15.719
428.50	15.650
428.85	16.236
429.21	15.419
429.56	15.675
429.92	15.773
430.27	15.849
430.62	15.215
430.98	15.918
431.33	15.798
431.68	16.028
432.04	15.718
432.39	15.704
432.74	15.880
433.10	16.153
433.45	15.680
433.80	15.632
434.16	15.511
434.51	16.304
434.86	15.371
435.22	15.507
435.57	15.848
435.92	16.043
436.28	15.796
436.63	16.051
436.98	16.510
437.34	16.117
437.69	16.116
438.04	16.072
438.39	16.252
438.75	15.971
439.10	16.715
439.45	15.496
439.81	15.948
440.16	16.870
440.51	15.933
440.86	16.064
441.22	16.236
441.57	16.269
441.92	16.433
442.27	15.639
442.63	15.393
442.98	15.799
443.33	16.591
443.68	15.498
444.03	16.692
444.39	16.956
444.74	16.068
445.09	15.969
445.44	16.620
445.79	15.953
446.15	16.583
446.50	16.465
446.85	17.157
447.20	16.414
447.55	16.452
447.91	16.517
448.26	17.038
448.61	15.708
448.96	16.515
449.31	16.448
449.66	17.004
450.02	16.146
450.37	16.216
450.72	16.246
451.07	17.179
451.42	16.843
451.77	16.433
452.12	16.815
452.47	16.462
452.83	16.450
453.18	16.423
453.53	16.646
453.88	17.048
454.23	16.811
454.58	16.850
454.93	15.908
455.28	16.635
455.63	16.220
455.98	16.251
456.34	16.592
456.69	16.422
457.04	16.533
457.39	16.236
457.74	16.577
458.09	17.299
458.44	17.274
458.79	16.145
459.14	16.461
459.49	16.585
459.84	17.080
460.19	16.747
460.54	16.545
460.89	16.836
461.24	17.324
461.59	17.089
461.94	17.446
462.29	15.625
462.64	16.161
462.99	16.901
463.34	16.989
463.69	17.075
464.04	16.807
464.39	16.656
464.74	16.523
465.09	16.925
465.44	16.891
465.79	18.114
466.14	17.389
466.49	16.598
466.84	17.573
467.19	16.433
467.54	17.239
467.89	17.159
468.24	17.333
468.59	16.953
468.94	17.305
469.29	16.986
469.64	17.992
469.99	17.931
470.34	16.993
470.68	17.621
471.03	18.477
471.38	17.177
471.73	18.313
472.08	16.907
472.43	17.480
472.78	17.782
473.13	16.689
473.48	16.699
473.83	17.828
474.17	17.383
474.52	17.346
474.87	17.189
475.22	16.848
475.57	17.457
475.92	17.121
476.27	17.424
476.61	18.233
476.96	17.647
477.31	17.368
477.66	17.232
478.01	17.088
478.36	16.730
478.70	17.401
479.05	17.925
479.40	17.889
479.75	17.269
480.10	18.103
480.45	16.920
480.79	17.521
481.14	17.984
481.49	18.007
481.84	17.484
482.19	17.045
482.53	17.429
482.88	17.737
483.23	16.747
483.58	17.580
483.92	17.850
484.27	17.338
484.62	16.955
484.97	17.296
485.31	17.125
485.66	16.889
486.01	17.162
486.36	16.913
486.70	16.731
487.05	17.065
487.40	17.394
487.75	17.715
488.09	16.641
488.44	17.035
488.79	18.319
489.13	17.416
489.48	17.315
489.83	17.776
490.17	17.522
490.52	18.326
490.87	17.710
491.22	17.946
491.56	17.681
491.91	18.195
492.26	17.940
492.60	17.797
492.95	18.367
493.30	18.169
493.64	17.458
493.99	18.116
494.34	18.353
494.68	18.807
495.03	17.836
495.37	17.470
495.72	17.995
496.07	17.974
496.41	16.846
496.76	18.236
497.11	17.512
497.45	18.337
497.80	19.182
498.14	19.194
498.49	18.104
498.84	17.814
499.18	18.118
499.53	18.415
499.87	17.273
500.22	18.417
500.56	18.154
500.91	18.813
501.26	18.128
501.60	17.696
501.95	17.825
502.29	18.350
502.64	18.949
502.98	18.064
503.33	17.567
503.67	17.916
504.02	18.137
504.36	17.930
504.71	18.089
505.06	18.136
505.40	18.918
505.75	19.532
506.09	17.578
506.44	18.246
506.78	17.979
507.13	18.295
507.47	18.717
507.82	17.844
508.16	18.364
508.51	18.647
508.85	18.403
509.19	18.201
509.54	18.874
509.88	18.925
510.23	18.947
510.57	19.174
510.92	18.966
511.26	18.592
511.61	18.332
511.95	18.467
512.30	17.879
512.64	20.148
512.98	19.557
513.33	18.704
513.67	18.853
514.02	18.985
514.36	18.483
514.70	19.284
515.05	19.193
515.39	19.399
515.74	19.065
516.08	18.997
516.42	18.606
516.77	18.161
517.11	18.754
517.46	19.388
517.80	19.734
518.14	18.800
518.49	18.927
518.83	19.212
519.17	19.277
519.52	19.723
519.86	18.640
520.20	19.284
520.55	18.843
520.89	18.596
521.23	19.295
521.58	20.101
521.92	18.668
522.26	19.714
522.61	19.522
522.95	19.236
523.29	19.365
523.64	19.008
523.98	19.949
524.32	19.471
524.66	18.896
525.01	19.069
525.35	20.211
525.69	19.814
526.04	19.023
526.38	19.120
526.72	19.592
527.06	19.536
527.41	19.193
527.75	19.426
528.09	20.150
528.43	20.488
528.78	20.220
529.12	19.793
529.46	19.770
529.80	19.482
530.15	18.790
530.49	20.418
530.83	19.973
531.17	20.205
531.51	19.555
531.86	19.444
532.20	20.813
532.54	18.828
532.88	20.218
533.22	19.663
533.57	19.272
533.91	20.774
534.25	19.531
534.59	18.211
534.93	19.324
535.27	19.936
535.62	18.684
535.96	20.494
536.30	19.880
536.64	19.207
536.98	19.622
537.32	19.929
537.66	20.733
538.01	19.764
538.35	19.682
538.69	19.264
539.03	19.195
539.37	19.651
539.71	19.031
540.05	18.489
540.39	19.683
540.73	19.623
541.07	18.707
541.42	20.067
541.76	19.350
542.10	20.108
542.44	18.780
542.78	19.639
543.12	19.811
543.46	19.350
543.80	19.416
544.14	19.821
544.48	18.248
544.82	19.032
545.16	20.014
545.50	20.527
545.84	19.004
546.18	19.004
546.52	19.689
546.86	18.092
547.20	18.585
547.54	20.157
547.88	20.175
548.22	19.674
548.56	19.280
548.90	19.892
549.24	19.861
549.58	19.146
549.92	20.690
550.26	20.664
550.60	19.069
550.94	19.552
551.28	20.818
551.62	21.053
551.96	19.839
552.30	19.360
552.64	18.573
552.98	20.170
553.32	18.962
553.66	19.809
554.00	19.510
554.34	19.267
554.68	19.985
555.02	20.584
555.36	20.424
555.69	19.811
556.03	19.657
556.37	18.777
556.71	19.622
557.05	20.295
557.39	19.819
557.73	20.877
558.07	20.723
558.41	20.288
558.75	20.708
559.08	18.845
559.42	20.063
559.76	20.336
560.10	19.062
560.44	20.192
560.78	18.993
561.12	19.271
561.45	19.048
561.79	19.601
562.13	20.183
562.47	20.643
562.81	19.913
563.15	18.697
563.48	19.546
563.82	20.315
564.16	19.702
564.50	19.199
564.84	19.054
565.17	19.338
565.51	19.118
565.85	18.254
566.19	18.940
566.52	18.938
566.86	18.710
567.20	18.998
567.54	19.113
567.88	17.637
568.21	18.251
568.55	18.362
568.89	17.647
569.23	18.332
569.56	17.689
569.90	17.485
570.24	17.040
570.57	17.503
570.91	17.210
571.25	17.229
571.59	17.228
571.92	17.688
572.26	17.137
572.60	17.493
572.93	17.588
573.27	17.461
573.61	17.075
573.95	17.451
574.28	17.015
574.62	16.811
574.96	17.495
575.29	17.352
575.63	17.281
575.97	17.310
576.30	17.043
576.64	17.291
576.98	16.877
577.31	16.962
577.65	17.075
577.98	16.780
578.32	16.694
578.66	16.685
578.99	17.254
579.33	16.967
579.67	17.133
580.00	16.621
580.34	16.893
580.67	16.610
581.01	17.257
581.35	16.948
581.68	17.263
582.02	16.631
582.35	16.409
582.69	16.541
583.02	16.600
583.36	16.914
583.70	16.654
584.03	16.986
584.37	16.448
584.70	16.991
585.04	16.902
585.37	16.598
585.71	17.028
586.04	17.143
586.38	16.548
586.72	16.802
587.05	17.287
587.39	17.649
587.72	17.234
588.06	16.744
588.39	16.821
588.73	17.118
589.06	16.683
589.40	16.821
589.73	16.780
590.07	17.135
590.40	16.888
590.73	17.788
591.07	17.217
591.40	17.304
591.74	18.408
592.07	17.983
592.41	17.761
592.74	17.554
593.08	16.957
593.41	17.630
593.75	17.087
594.08	17.064
594.41	17.258
594.75	17.316
595.08	18.223
595.42	16.822
595.75	17.245
596.09	17.860
596.42	17.729
596.75	18.078
597.09	17.971
597.42	17.676
597.75	18.000
598.09	18.397
598.42	18.031
598.76	18.136
599.09	17.407
599.42	17.674
599.76	17.724
600.09	17.357
600.42	17.853
600.76	17.923
601.09	17.702
601.42	17.758
601.76	17.683
602.09	17.430
602.42	18.324
602.76	17.282
603.09	17.864
603.42	17.073
603.76	17.264
604.09	17.510
604.42	17.329
604.76	18.202
605.09	17.716
605.42	18.219
605.75	17.602
606.09	17.343
606.42	18.329
606.75	17.662
607.09	17.287
607.42	17.644
607.75	16.980
608.08	18.305
608.42	17.385
608.75	18.299
609.08	18.422
609.41	18.132
609.75	18.356
610.08	17.702
610.41	17.493
610.74	18.335
611.07	17.836
611.41	18.526
611.74	17.961
612.07	17.561
612.40	18.270
612.73	17.892
613.07	18.016
613.40	18.833
613.73	18.310
614.06	18.519
614.39	18.566
614.72	19.156
615.06	18.667
615.39	18.653
615.72	17.981
616.05	18.637
616.38	18.099
616.71	18.356
617.05	18.980
617.38	18.731
617.71	17.525
618.04	17.063
618.37	18.675
618.70	19.017
619.03	17.595
619.36	18.932
619.69	18.202
620.03	18.657
620.36	18.441
620.69	18.344
621.02	18.308
621.35	18.070
621.68	18.745
622.01	19.094
622.34	18.715
622.67	18.794
623.00	18.769
623.33	18.325
623.66	18.513
623.99	18.905
624.32	18.415
624.65	20.104
624.99	18.589
625.32	18.895
625.65	18.140
625.98	18.799
626.31	19.020
626.64	19.776
626.97	19.810
627.30	18.991
627.63	18.426
627.96	19.048
628.29	20.093
628.62	20.116
628.95	20.541
629.28	18.916
629.61	20.191
629.94	20.503
630.26	20.394
630.59	18.182
630.92	19.076
631.25	20.906
631.58	20.236
631.91	19.300
632.24	19.100
632.57	17.889
632.90	18.670
633.23	19.544
633.56	21.343
633.89	21.172
634.22	20.141
634.55	21.924
634.88	19.363
635.20	21.250
635.53	21.318
635.86	20.769
636.19	20.720
636.52	19.512
636.85	20.145
637.18	19.001
637.51	21.099
637.83	22.846
638.16	20.267
638.49	19.626
638.82	20.523
639.15	19.814
639.48	19.786
639.81	21.250
640.13	20.845
640.46	21.469
640.79	21.727
641.12	21.006
641.45	20.233
641.77	20.619
642.10	20.575
642.43	20.755
642.76	20.347
643.09	22.045
643.41	18.660
643.74	20.679
644.07	20.712
644.40	20.398
644.73	20.000
645.05	20.593
645.38	19.767
645.71	20.408
646.04	19.024
646.36	20.313
646.69	21.503
647.02	21.311
647.35	23.583
647.67	21.257
648.00	20.652
648.33	21.186
648.66	20.200
648.98	19.099
649.31	19.632
649.64	20.501
649.96	22.591
650.29	19.118
650.62	18.616
650.94	19.310
651.27	22.085
651.60	22.028
651.92	19.892
652.25	20.938
652.58	19.802
652.90	19.865
653.23	20.034
653.56	18.843
653.88	15.870
654.21	19.283
654.54	18.937
654.86	20.813
655.19	18.347
655.52	20.181
655.84	16.693
656.17	20.076
656.49	26.181
656.82	25.574
657.15	18.724
657.47	13.974
657.80	10.335
658.13	10.768
658.45	15.637
658.78	15.648
659.10	16.194
659.43	16.199
659.75	16.235
660.08	17.103
660.41	16.836
660.73	19.559
661.06	19.218
661.38	19.767
661.71	22.131
662.03	23.044
662.36	18.363
662.68	21.075
663.01	22.246
663.33	21.598
663.66	18.404
663.98	21.348
664.31	18.901
664.63	17.117
664.96	22.319
665.28	23.391
665.61	22.462
665.93	20.985
666.26	23.207
666.58	18.844
666.91	22.646
667.23	18.894
667.56	22.759
667.88	20.093
668.21	22.545
668.53	22.069
668.86	22.062
669.18	17.967
669.50	22.120
669.83	21.002
670.15	20.238
670.48	22.759
670.80	22.319
671.13	18.078
671.45	22.831
671.77	17.672
672.10	20.078
672.42	19.084
672.75	19.286
673.07	19.455
673.39	19.403
673.72	19.960
674.04	20.902
674.37	20.935
674.69	19.547
675.01	17.521
675.34	24.508
675.66	22.876
675.98	20.354
676.31	21.946
676.63	19.501
676.95	20.235
677.28	18.807
677.60	23.039
677.92	21.286
678.25	21.692
678.57	22.403
678.89	19.190
679.22	19.255
679.54	19.796
679.86	20.117
680.18	20.192
680.51	18.846
680.83	15.400
681.15	19.253
681.48	18.838
681.80	20.041
682.12	18.750
682.44	18.511
682.77	18.316
683.09	18.304
683.41	19.070
683.73	17.634
684.06	21.018
684.38	19.017
684.70	17.923
685.02	21.901
685.34	18.787
685.67	20.450
685.99	17.972
686.31	20.172
686.63	19.853
686.96	22.449
687.28	18.762
687.60	20.983
687.92	20.428
688.24	20.600
688.56	19.298
688.89	18.263
689.21	19.058
689.53	16.667
689.85	19.551
690.17	23.297
690.49	18.357
690.82	20.764
691.14	20.290
691.46	18.561
691.78	20.659
692.10	18.684
692.42	16.923
692.74	19.565
693.06	17.303
693.39	18.033
693.71	19.778
694.03	21.591
694.35	20.721
694.67	21.250
694.99	21.907
695.31	18.863
695.63	20.488
695.95	18.066
696.27	19.178
696.59	18.817
696.91	18.436
697.23	15.482
697.56	20.624
697.88	20.166
698.20	19.870
698.52	17.056
698.84	20.574
699.16	19.385
699.48	18.765
699.80	22.997
700.12	20.643
700.44	20.563
700.76	19.944
701.08	19.033
701.40	19.162
701.72	20.308
702.04	23.270
702.36	20.732
702.68	16.159
703.00	19.006
703.32	19.777
703.64	18.976
703.96	20.235
704.28	19.277
704.60	14.939
704.91	15.674
705.23	21.519
705.55	23.103
705.87	23.239
706.19	17.216
706.51	22.183
706.83	17.516
707.15	17.988
707.47	19.835
707.79	17.766
708.11	18.252
708.43	19.543
708.74	19.681
709.06	19.786
709.38	18.156
709.70	18.619
710.02	19.003
710.34	16.667
710.66	16.938
710.98	17.957
711.29	22.403
711.61	19.355
711.93	19.677
712.25	18.531
712.57	15.439
712.89	20.147
713.20	24.113
713.52	17.518
713.84	20.000
714.16	19.417
714.48	20.886
714.80	18.530
715.11	20.930
715.43	16.149
715.75	19.876
716.07	19.578
716.39	15.825
716.70	21.223
717.02	12.941
717.34	21.591
717.66	15.517
717.97	15.079
718.29	20.866
718.61	16.309
718.93	19.767
719.24	18.819
719.56	15.356
719.88	20.149
720.20	18.972
720.51	16.016
720.83	23.735
721.15	11.382
721.46	13.740
721.78	18.725
722.10	16.733
722.42	17.742
722.73	22.394
723.05	19.184
723.37	20.588
723.68	16.800
724.00	16.596
724.32	17.573
724.63	19.753
724.95	15.385
725.27	22.363
725.58	22.634
725.90	19.247
726.22	19.928
726.53	18.431
726.85	17.153
727.16	17.407
727.48	19.923
727.80	16.016
728.11	20.902
728.43	17.969
728.74	18.254
729.06	14.800
729.38	22.925
729.69	19.929
730.01	19.331
730.32	19.557
730.64	15.530
730.96	23.427
731.27	16.054
731.59	19.683
731.90	18.447
732.22	16.346
732.53	16.892
732.85	15.772
733.16	16.172
733.48	18.243
733.80	14.527
734.11	19.595
734.43	19.195
734.74	22.222
735.06	16.138
735.37	20.669
735.69	19.417
736.00	17.822
736.32	18.440
736.63	18.966
736.95	18.151
737.26	15.517
737.58	18.056
737.89	18.557
738.21	14.591
738.52	16.730
738.83	15.918
739.15	18.565
739.46	15.564
739.78	14.437
740.09	16.096
740.41	15.357
740.72	15.957
741.04	15.600
741.35	13.158
741.66	18.222
741.98	16.827
742.29	17.822
742.61	14.146
742.92	19.298
743.23	17.925
743.55	21.622
743.86	13.901
744.18	17.647
744.49	14.213
744.80	10.714
745.12	14.019
745.43	13.270
745.74	17.117
746.06	14.953
746.37	17.431
746.68	20.192
747.00	20.096
747.31	15.865
747.62	21.560
747.94	16.594
748.25	16.972
748.56	16.889
748.88	22.066
749.19	24.762
749.50	12.621
749.82	16.901
750.13	12.917
750.44	16.538
750.75	15.129
751.07	19.217
751.38	18.440
751.69	16.216
752.01	15.625
752.32	16.154
752.63	22.761
752.94	18.400
753.26	16.318
753.57	16.667
753.88	23.887
754.19	17.530
754.51	13.910
754.82	15.751
755.13	10.435
755.44	18.293
755.75	16.000
756.07	17.343
756.38	18.345
756.69	17.065
757.00	18.692
757.31	17.152
757.63	14.815
757.94	19.209
758.25	19.048
758.56	15.489
758.87	16.964
759.18	16.088
759.50	14.478
759.81	18.729
760.12	16.615
760.43	16.964
760.74	12.147
761.05	12.431
761.36	16.046
761.67	16.314
761.99	12.715
762.30	13.869
762.61	15.226
762.92	23.932
763.23	21.311
763.54	15.584
763.85	18.367
764.16	11.789
764.47	14.800
764.78	18.571
765.10	15.738
765.41	19.149
765.72	13.354
766.03	15.842
766.34	17.308
766.65	12.971
766.96	14.085
767.27	16.337
767.58	13.483
767.89	21.605
768.20	17.127
768.51	14.070
768.82	18.750
769.13	18.584
769.44	16.736
769.75	11.111
770.06	15.695
770.37	11.765
770.68	16.990
770.99	12.621
771.30	15.546
771.61	14.694
771.92	18.257
772.23	14.414
772.54	11.050
772.85	12.791
773.16	16.931
773.47	11.243
773.78	16.667
774.09	11.875
774.39	13.665
774.70	15.646
775.01	16.552
775.32	17.857
775.63	11.278
775.94	9.774
776.25	13.600
776.56	20.661
776.87	13.492
777.18	4.505
777.48	14.414
777.79	14.173
778.10	16.514
778.41	16.667
778.72	10.924
779.03	7.746
779.34	16.892
779.65	11.268
779.95	11.258
780.26	10.072
780.57	20.863
780.88	14.789
781.19	-1.681
781.50	21.477
781.80	17.544
782.11	9.302
782.42	18.239
782.73	15.033
783.04	13.793
783.34	11.450
783.65	18.121
783.96	11.538
784.27	20.000
784.57	17.021
784.88	1.923
785.19	22.727
785.50	10.000
785.81	9.524
786.11	5.882
786.42	20.354
786.73	19.811
787.04	11.927
787.34	3.960
787.65	7.500
787.96	14.876
788.26	13.768
788.57	11.111
788.88	9.756
789.19	13.600
789.49	6.870
789.80	19.697
790.11	16.038
790.41	7.921
790.72	6.383
791.03	3.261
791.33	-1.176
791.64	14.815
791.95	8.696
792.25	21.591
792.56	23.077
792.87	15.385
793.17	-6.410
793.48	2.381
793.79	1.250
794.09	18.269
794.40	18.750
794.70	9.910
795.01	10.156
795.32	6.957
795.62	2.174
795.93	13.208
796.23	16.162
796.54	1.220
796.85	9.524
797.15	10.606
797.46	-1.449
797.76	7.895
798.07	12.500
798.37	3.659
798.68	-3.226
798.99	1.351
799.29	8.434
799.60	17.949
799.90	9.231
800.21	6.061
800.51	-8.000
800.82	13.333
801.12	-6.250
801.43	-10.000
801.73	14.865
802.04	11.429
802.34	0.000
802.65	19.403
802.95	-5.455
803.26	13.793
803.56	-7.692
803.87	7.547
804.17	11.290
804.48	2.941
804.78	-19.512
805.09	8.696
805.39	-4.412
805.70	-17.021
806.00	22.807
806.30	16.667
806.61	26.316
806.91	2.703
807.22	5.263
807.52	7.955
807.83	0.000
808.13	-27.273
808.43	-5.000
808.74	-15.517
809.04	4.762
809.35	-8.163
809.65	6.667
809.95	-16.327
810.26	25.352
810.56	10.417
810.86	6.122
811.17	28.846
811.47	-6.383
811.77	-25.000
812.08	13.208
812.38	-28.125
812.69	1.818
812.99	4.878
813.29	2.703
813.59	-35.135
813.90	-7.273
814.20	16.364
814.50	1.667
814.81	-3.636
815.11	3.509
815.41	6.977
815.72	-22.500
816.02	-22.857
816.32	2.703
816.62	-6.250
816.93	0.000
817.23	-20.000
817.53	-38.889
817.84	-29.730
818.14	-4.878
818.44	22.000
818.74	0.000
819.04	9.756
819.35	-16.667
819.65	-18.182
819.95	-88.889
820.25	-24.242
820.56	-7.143
820.86	-8.333
821.16	-34.091
821.46	0.000
821.76	1.724
822.07	21.739
822.37	6.061
822.67	14.634
822.97	-5.405
823.27	-22.857
823.57	17.241
823.88	8.824
824.18	-16.667
824.48	11.429
824.78	-19.048
825.08	-35.714
825.38	-18.519
825.69	-9.677
825.99	-14.634
826.29	-22.222
826.59	-18.750
826.89	0.000
827.19	-4.348
827.49	-8.333
827.79	-73.913
828.09	6.452
828.39	6.250
828.70	-31.250
829.00	-41.379
829.30	13.514
829.60	-62.500
829.90	7.407
830.20	6.250
830.50	-13.636
830.80	-94.118
831.10	-36.364
831.40	-11.765
831.70	-46.154
832.00	-15.152
832.30	-11.765
832.60	-18.919
832.90	800.000
833.20	-28.571
833.50	-75.000
833.80	-13.158
834.10	-50.000
834.40	-68.182
834.70	-80.000
835.00	-130.000
835.30	-20.833
835.60	-9.524
835.90	-38.095
836.20	-16.000
836.50	-25.000
836.80	-73.684
837.10	16.216
837.40	36.667
837.70	-17.391
838.00	20.833
838.30	5.263
838.60	-160.000
838.90	-160.000
839.19	-116.667
839.49	-76.923
839.79	-57.895
840.09	-83.333
840.39	-100.000
840.69	-50.000
840.99	-23.810
841.29	-25.000
841.59	7.692
841.88	-13.333
842.18	-50.000
842.48	23.333
842.78	-414.286
843.08	-50.000
843.38	-225.000
843.68	-12.500
843.97	-14.286
844.27	-144.444
844.57	-190.909
844.87	-46.667
845.17	4.545
845.47	766.667
845.76	26.667
846.06	-50.000
846.36	-550.000
846.66	5.263
846.96	-18.182
847.25	-22.222
847.55	-177.778
847.85	-66.667
848.15	-76.923
848.44	-216.667
848.74	-50.000
849.04	-23.077
849.34	-350.000
849.63	-90.909
849.93	-121.429
850.23	45.000
850.53	-175.000
850.82	0.000
851.12	-40.000
851.42	-76.471
851.71	-75.000
852.01	52.941
852.31	-7.692
852.61	450.000
852.90	5.882
853.20	-60.000
853.50	-75.000
853.79	-114.286
854.09	-200.000
854.39	-50.000
854.68	5.000
854.98	-19.048
855.28	-44.000
855.57	-8.333
855.87	-20.833
856.17	-32.000
856.46	-9.375
856.76	20.000
857.05	28.000
857.35	-50.000
857.65	-58.824
857.94	-116.667
858.24	-33.333
858.53	-10.000
858.83	-45.455
859.13	28.000
859.42	-92.857
859.72	-137.500
860.01	16.667
860.31	-325.000
860.60	-75.000
860.90	-133.333
861.20	-116.667
861.49	-6.667
861.79	18.750
862.08	300.000
862.38	-100.000
862.67	357.143
862.97	475.000
863.26	-63.636
863.56	-63.636
863.85	42.105
864.15	23.529
864.44	-260.000
864.74	-110.000
865.03	-111.111
865.33	-14.286
865.62	100.000
865.92	5.263
866.21	-50.000
866.51	-100.000
866.80	-55.556
867.10	-225.000
867.39	-37.500
867.69	-153.333
867.98	-10.000
868.27	29.412
868.57	0.000
868.86	350.000
869.16	-225.000
869.45	-85.714
869.75	550.000
870.04	-100.000
870.33	-1500.000
870.63	-42.105
870.92	-50.000
871.22	-1500.000
871.51	-228.571
871.80	-177.778
872.10	-325.000
>>>>>End Processed Spectral Data<<<<<
