SpectraSuite Data File
++++++++++++++++++++++++++++++++++++
Date: Wed May 13 21:45:58 PDT 2015
User: schluterlab
Dark Spectrum Present: Yes
Reference Spectrum Present: Yes
Number of Sampled Component Spectra: 1
Spectrometers: USB2E3373
Integration Time (usec): 3000 (USB2E3373)
Spectra Averaged: 3 (USB2E3373)
Boxcar Smoothing: 0 (USB2E3373)
Correct for Electrical Dark: No (USB2E3373)
Strobe/Lamp Enabled: No (USB2E3373)
Correct for Detector Non-linearity: No (USB2E3373)
Correct for Stray Light: No (USB2E3373)
Number of Pixels in Processed Spectrum: 2048
>>>>>Begin Processed Spectral Data<<<<<
178.53	0.000
178.91	350.000
179.29	141.667
179.67	-850.000
180.04	-300.000
180.42	60.000
180.80	1900.000
181.18	250.000
181.56	-150.000
181.94	75.000
182.31	18.182
182.69	92.308
183.07	-340.000
183.45	266.667
183.83	222.222
184.20	-28.571
184.58	100.000
184.96	200.000
185.34	342.857
185.72	0.000
186.09	-500.000
186.47	-200.000
186.85	60.000
187.23	150.000
187.61	-50.000
187.98	-0.000
188.36	-100.000
188.74	0.000
189.12	0.000
189.49	60.000
189.87	83.333
190.25	320.000
190.63	-400.000
191.00	60.000
191.38	160.000
191.76	250.000
192.14	91.667
192.51	-10.526
192.89	600.000
193.27	350.000
193.65	-160.000
194.02	245.455
194.40	200.000
194.78	-200.000
195.15	180.000
195.53	-260.000
195.91	-25.000
196.29	-466.667
196.66	0.000
197.04	400.000
197.42	-100.000
197.79	0.000
198.17	-112.500
198.55	-100.000
198.92	275.000
199.30	-466.667
199.68	10.000
200.05	550.000
200.43	333.333
200.81	-1900.000
201.18	-220.000
201.56	-183.333
201.94	525.000
202.31	21.739
202.69	85.714
203.07	-366.667
203.44	-120.000
203.82	-400.000
204.19	-50.000
204.57	0.000
204.95	-66.667
205.32	0.000
205.70	-500.000
206.08	-300.000
206.45	-116.667
206.83	200.000
207.20	-166.667
207.58	-100.000
207.96	-1100.000
208.33	-114.286
208.71	-1300.000
209.08	275.000
209.46	150.000
209.84	0.000
210.21	150.000
210.59	2100.000
210.96	280.000
211.34	600.000
211.71	-500.000
212.09	-100.000
212.46	-130.000
212.84	100.000
213.22	-50.000
213.59	200.000
213.97	-200.000
214.34	-450.000
214.72	-23.077
215.09	100.000
215.47	144.444
215.84	600.000
216.22	-125.000
216.59	-550.000
216.97	566.667
217.34	100.000
217.72	0.000
218.09	33.333
218.47	-300.000
218.84	-200.000
219.22	-137.500
219.59	-133.333
219.97	-100.000
220.34	-125.000
220.72	20.000
221.09	0.000
221.47	-100.000
221.84	-600.000
222.22	0.000
222.59	100.000
222.97	-133.333
223.34	-16.667
223.72	-400.000
224.09	-550.000
224.46	-36.364
224.84	-62.500
225.21	-85.714
225.59	-75.000
225.96	-133.333
226.34	90.000
226.71	-42.857
227.08	250.000
227.46	-100.000
227.83	-400.000
228.21	-68.750
228.58	-325.000
228.95	-41.176
229.33	-37.500
229.70	-125.000
230.08	-23.077
230.45	-212.500
230.82	-41.667
231.20	114.286
231.57	200.000
231.95	100.000
232.32	66.667
232.69	23.529
233.07	-1600.000
233.44	-4.348
233.81	-300.000
234.19	8.333
234.56	0.000
234.93	-66.667
235.31	-21.053
235.68	-69.231
236.05	-84.615
236.43	-11.111
236.80	-12.121
237.17	-40.000
237.55	-88.235
237.92	-44.828
238.29	-25.926
238.67	-16.667
239.04	-35.484
239.41	-17.021
239.79	12.766
240.16	-27.907
240.53	5.357
240.91	1.786
241.28	1.786
241.65	-6.452
242.02	-3.947
242.40	-2.899
242.77	-2.899
243.14	2.564
243.51	8.511
243.89	-2.885
244.26	6.604
244.63	-5.769
245.00	1.042
245.38	-0.840
245.75	-0.820
246.12	1.504
246.49	-3.252
246.87	-5.042
247.24	10.811
247.61	4.636
247.98	1.923
248.36	2.959
248.73	2.809
249.10	4.040
249.47	0.000
249.84	2.632
250.22	2.985
250.59	3.271
250.96	3.636
251.33	-4.306
251.70	10.042
252.08	2.929
252.45	3.704
252.82	2.662
253.19	5.447
253.56	2.518
253.94	8.897
254.31	5.282
254.68	6.376
255.05	5.611
255.42	-1.399
255.79	6.748
256.16	10.095
256.54	3.175
256.91	3.797
257.28	5.660
257.65	2.866
258.02	6.745
258.39	8.480
258.76	1.744
259.14	3.409
259.51	3.371
259.88	5.149
260.25	3.889
260.62	4.494
260.99	5.570
261.36	5.959
261.73	4.938
262.10	4.326
262.47	3.704
262.85	4.975
263.22	4.872
263.59	3.896
263.96	5.353
264.33	6.010
264.70	6.512
265.07	7.407
265.44	6.437
265.81	1.831
266.18	4.328
266.55	5.240
266.92	6.144
267.29	5.967
267.66	5.096
268.03	7.819
268.40	2.966
268.77	6.405
269.14	5.714
269.51	8.624
269.88	4.684
270.25	6.780
270.62	4.098
270.99	5.315
271.36	7.937
271.73	6.827
272.10	7.048
272.47	6.334
272.84	7.480
273.21	6.849
273.58	5.943
273.95	6.792
274.32	5.784
274.69	4.554
275.06	7.244
275.43	5.461
275.80	6.915
276.17	5.709
276.54	5.861
276.91	5.749
277.28	4.874
277.65	6.643
278.02	5.536
278.39	4.973
278.76	7.525
279.13	5.660
279.50	7.931
279.87	5.072
280.23	5.045
280.60	5.709
280.97	5.032
281.34	6.782
281.71	6.829
282.08	4.957
282.45	5.902
282.82	6.550
283.19	6.707
283.56	5.938
283.92	6.881
284.29	4.992
284.66	4.613
285.03	5.863
285.40	7.855
285.77	6.907
286.14	6.991
286.51	8.096
286.87	7.231
287.24	6.195
287.61	6.627
287.98	6.765
288.35	4.024
288.72	6.456
289.08	7.407
289.45	5.580
289.82	6.505
290.19	6.311
290.56	6.392
290.93	6.768
291.29	7.250
291.66	5.874
292.03	6.540
292.40	8.614
292.77	9.371
293.13	7.531
293.50	7.712
293.87	7.067
294.24	8.466
294.60	8.322
294.97	7.540
295.34	5.937
295.71	6.570
296.08	6.806
296.44	7.143
296.81	7.308
297.18	8.125
297.55	9.552
297.91	8.820
298.28	8.232
298.65	9.483
299.02	10.256
299.38	8.589
299.75	8.654
300.12	8.140
300.48	8.421
300.85	9.238
301.22	9.292
301.59	10.329
301.95	8.246
302.32	9.335
302.69	8.588
303.05	10.188
303.42	9.659
303.79	10.515
304.15	10.186
304.52	10.968
304.89	10.742
305.25	10.209
305.62	11.388
305.99	12.622
306.35	12.121
306.72	10.987
307.09	12.200
307.45	11.715
307.82	11.474
308.19	11.076
308.55	12.282
308.92	14.047
309.29	12.012
309.65	13.087
310.02	14.314
310.38	14.024
310.75	12.722
311.12	14.966
311.48	14.540
311.85	15.354
312.22	15.571
312.58	14.203
312.95	16.020
313.31	16.529
313.68	16.126
314.05	15.690
314.41	16.811
314.78	17.742
315.14	17.500
315.51	18.173
315.87	19.926
316.24	18.090
316.61	18.721
316.97	18.889
317.34	19.251
317.70	19.179
318.07	19.965
318.43	21.229
318.80	20.157
319.16	20.955
319.53	20.968
319.89	22.493
320.26	21.349
320.62	22.335
320.99	22.093
321.35	23.480
321.72	23.292
322.08	24.077
322.45	25.347
322.81	26.248
323.18	25.581
323.54	26.805
323.91	26.558
324.27	25.833
324.64	27.003
325.00	27.297
325.37	29.266
325.73	28.788
326.10	28.932
326.46	29.599
326.83	29.854
327.19	29.431
327.56	31.668
327.92	30.330
328.29	32.220
328.65	32.954
329.01	30.343
329.38	33.391
329.74	32.961
330.11	32.642
330.47	33.160
330.84	33.303
331.20	32.878
331.56	34.511
331.93	33.333
332.29	34.666
332.66	33.220
333.02	33.189
333.38	34.737
333.75	33.447
334.11	34.201
334.48	33.915
334.84	33.216
335.20	33.962
335.57	33.943
335.93	33.935
336.29	33.538
336.66	33.248
337.02	34.609
337.38	33.681
337.75	34.022
338.11	34.927
338.47	34.161
338.84	34.536
339.20	34.921
339.56	34.898
339.93	35.523
340.29	35.269
340.65	35.843
341.02	35.691
341.38	34.797
341.74	33.950
342.11	35.425
342.47	36.318
342.83	35.866
343.20	36.717
343.56	36.222
343.92	34.281
344.28	36.607
344.65	35.755
345.01	35.028
345.37	37.336
345.73	36.846
346.10	35.474
346.46	35.366
346.82	35.474
347.19	35.997
347.55	36.914
347.91	35.464
348.27	36.356
348.63	36.298
349.00	35.928
349.36	35.950
349.72	37.664
350.08	36.973
350.45	37.197
350.81	37.715
351.17	35.643
351.53	38.099
351.89	35.028
352.26	34.826
352.62	36.744
352.98	36.022
353.34	36.957
353.70	36.215
354.07	36.706
354.43	36.703
354.79	37.580
355.15	37.655
355.51	37.585
355.87	37.529
356.24	38.283
356.60	37.060
356.96	37.452
357.32	38.700
357.68	37.815
358.04	37.936
358.40	39.147
358.77	37.997
359.13	39.222
359.49	38.607
359.85	39.348
360.21	38.936
360.57	39.468
360.93	39.757
361.29	38.860
361.66	38.952
362.02	38.844
362.38	38.626
362.74	40.319
363.10	39.696
363.46	39.193
363.82	40.650
364.18	39.376
364.54	40.190
364.90	38.746
365.26	39.207
365.62	39.986
365.98	40.427
366.35	39.220
366.71	39.729
367.07	40.539
367.43	39.721
367.79	40.445
368.15	39.733
368.51	40.436
368.87	40.544
369.23	40.498
369.59	40.662
369.95	40.784
370.31	40.795
370.67	40.695
371.03	41.277
371.39	39.603
371.75	40.214
372.11	41.311
372.47	40.663
372.83	41.678
373.19	42.230
373.55	41.185
373.91	40.594
374.27	39.765
374.63	42.674
374.99	40.181
375.35	42.671
375.71	41.168
376.07	42.358
376.42	41.845
376.78	41.347
377.14	42.102
377.50	41.786
377.86	42.032
378.22	42.288
378.58	43.127
378.94	41.938
379.30	42.036
379.66	42.170
380.02	42.402
380.38	41.506
380.74	42.259
381.09	41.737
381.45	41.657
381.81	41.282
382.17	41.273
382.53	41.231
382.89	42.039
383.25	41.914
383.61	42.252
383.97	41.875
384.32	41.273
384.68	41.826
385.04	41.662
385.40	42.528
385.76	41.058
386.12	43.577
386.48	41.881
386.83	42.741
387.19	42.320
387.55	41.937
387.91	42.558
388.27	41.924
388.62	42.572
388.98	42.804
389.34	42.544
389.70	41.026
390.06	42.250
390.42	42.397
390.77	41.256
391.13	42.235
391.49	41.240
391.85	41.597
392.20	42.293
392.56	42.095
392.92	42.539
393.28	42.243
393.64	42.875
393.99	40.330
394.35	42.531
394.71	41.987
395.07	39.560
395.42	40.829
395.78	40.476
396.14	41.027
396.50	39.442
396.85	41.364
397.21	40.886
397.57	41.429
397.92	40.060
398.28	41.342
398.64	41.348
399.00	40.402
399.35	41.203
399.71	40.827
400.07	40.602
400.42	40.815
400.78	40.060
401.14	40.527
401.49	40.324
401.85	41.339
402.21	40.557
402.57	39.608
402.92	40.613
403.28	39.212
403.63	39.120
403.99	39.219
404.35	39.651
404.70	39.456
405.06	39.930
405.42	39.824
405.77	39.977
406.13	38.857
406.49	39.844
406.84	39.805
407.20	38.721
407.55	39.481
407.91	38.915
408.27	37.555
408.62	38.183
408.98	37.608
409.34	37.995
409.69	39.766
410.05	37.624
410.40	37.797
410.76	37.485
411.11	37.624
411.47	39.681
411.83	39.052
412.18	37.846
412.54	37.155
412.89	37.304
413.25	37.050
413.60	37.304
413.96	36.954
414.31	36.806
414.67	37.016
415.03	37.686
415.38	37.450
415.74	36.842
416.09	37.872
416.45	38.004
416.80	36.779
417.16	38.057
417.51	36.906
417.87	36.905
418.22	37.750
418.58	36.334
418.93	36.598
419.29	37.954
419.64	36.514
420.00	37.079
420.35	36.521
420.71	36.929
421.06	36.962
421.42	37.409
421.77	37.514
422.12	37.994
422.48	37.077
422.83	37.803
423.19	36.630
423.54	36.396
423.90	35.748
424.25	36.915
424.61	36.106
424.96	37.788
425.31	35.446
425.67	35.802
426.02	36.278
426.38	35.759
426.73	35.797
427.09	35.835
427.44	36.700
427.79	34.917
428.15	35.596
428.50	35.770
428.85	36.470
429.21	36.072
429.56	36.769
429.92	35.919
430.27	35.685
430.62	36.097
430.98	36.171
431.33	35.948
431.68	35.729
432.04	36.732
432.39	35.277
432.74	35.193
433.10	36.897
433.45	35.917
433.80	35.345
434.16	35.664
434.51	36.196
434.86	36.337
435.22	35.823
435.57	35.258
435.92	35.283
436.28	34.655
436.63	36.085
436.98	35.135
437.34	36.203
437.69	35.478
438.04	34.409
438.39	36.364
438.75	35.042
439.10	36.322
439.45	36.320
439.81	35.776
440.16	36.058
440.51	35.672
440.86	35.151
441.22	36.259
441.57	35.466
441.92	35.044
442.27	35.768
442.63	35.145
442.98	35.185
443.33	35.722
443.68	36.057
444.03	35.569
444.39	37.382
444.74	35.726
445.09	34.912
445.44	36.563
445.79	35.829
446.15	36.106
446.50	36.068
446.85	35.756
447.20	36.487
447.55	36.430
447.91	35.000
448.26	35.792
448.61	36.076
448.96	35.649
449.31	35.408
449.66	35.512
450.02	34.679
450.37	36.016
450.72	35.132
451.07	36.050
451.42	34.311
451.77	36.093
452.12	34.165
452.47	36.281
452.83	34.316
453.18	35.964
453.53	36.948
453.88	36.145
454.23	35.105
454.58	35.355
454.93	35.985
455.28	34.811
455.63	33.687
455.98	34.936
456.34	32.804
456.69	35.847
457.04	34.056
457.39	35.719
457.74	34.411
458.09	34.419
458.44	35.429
458.79	34.377
459.14	33.708
459.49	34.390
459.84	34.780
460.19	33.974
460.54	34.428
460.89	34.403
461.24	33.231
461.59	34.722
461.94	34.071
462.29	33.701
462.64	33.707
462.99	33.266
463.34	35.290
463.69	34.149
464.04	33.313
464.39	34.167
464.74	33.907
465.09	32.920
465.44	33.502
465.79	35.365
466.14	33.865
466.49	34.721
466.84	33.891
467.19	33.312
467.54	34.932
467.89	33.061
468.24	32.883
468.59	32.951
468.94	34.036
469.29	33.047
469.64	33.403
469.99	33.931
470.34	33.513
470.68	32.416
471.03	32.722
471.38	32.337
471.73	33.471
472.08	33.265
472.43	33.509
472.78	32.725
473.13	31.464
473.48	33.333
473.83	32.643
474.17	32.878
474.52	32.621
474.87	32.750
475.22	32.911
475.57	33.129
475.92	32.606
476.27	31.876
476.61	33.069
476.96	33.352
477.31	32.740
477.66	32.655
478.01	32.143
478.36	32.480
478.70	32.546
479.05	32.741
479.40	31.617
479.75	32.200
480.10	31.464
480.45	31.878
480.79	33.250
481.14	32.320
481.49	31.179
481.84	31.338
482.19	31.589
482.53	32.429
482.88	31.352
483.23	31.424
483.58	31.711
483.92	31.955
484.27	31.519
484.62	30.360
484.97	31.024
485.31	31.716
485.66	31.465
486.01	32.387
486.36	31.310
486.70	32.042
487.05	31.902
487.40	31.923
487.75	31.639
488.09	30.873
488.44	30.880
488.79	31.226
489.13	30.696
489.48	30.740
489.83	30.773
490.17	30.731
490.52	31.089
490.87	30.320
491.22	30.711
491.56	30.810
491.91	30.053
492.26	30.029
492.60	29.293
492.95	30.952
493.30	30.378
493.64	29.736
493.99	30.628
494.34	29.624
494.68	30.358
495.03	29.743
495.37	29.781
495.72	30.576
496.07	30.979
496.41	30.323
496.76	30.484
497.11	30.188
497.45	30.156
497.80	30.490
498.14	30.227
498.49	29.148
498.84	29.150
499.18	29.318
499.53	29.591
499.87	29.112
500.22	29.915
500.56	30.542
500.91	29.678
501.26	29.458
501.60	29.314
501.95	29.899
502.29	29.078
502.64	30.135
502.98	28.998
503.33	29.197
503.67	29.455
504.02	29.216
504.36	28.826
504.71	28.862
505.06	29.699
505.40	29.433
505.75	29.095
506.09	29.484
506.44	28.679
506.78	28.593
507.13	29.730
507.47	29.268
507.82	29.356
508.16	29.499
508.51	28.719
508.85	28.771
509.19	29.153
509.54	29.491
509.88	28.710
510.23	28.000
510.57	28.972
510.92	29.256
511.26	28.658
511.61	29.089
511.95	28.611
512.30	27.929
512.64	29.512
512.98	28.476
513.33	28.507
513.67	28.563
514.02	28.677
514.36	28.427
514.70	28.233
515.05	28.321
515.39	28.302
515.74	28.182
516.08	27.906
516.42	27.995
516.77	28.822
517.11	27.984
517.46	28.571
517.80	29.600
518.14	27.985
518.49	27.607
518.83	26.969
519.17	28.012
519.52	28.528
519.86	28.476
520.20	27.532
520.55	27.488
520.89	27.894
521.23	28.269
521.58	28.445
521.92	28.096
522.26	27.521
522.61	27.925
522.95	27.979
523.29	26.984
523.64	27.654
523.98	28.653
524.32	27.473
524.66	28.247
525.01	28.113
525.35	27.518
525.69	27.899
526.04	27.166
526.38	27.597
526.72	27.811
527.06	26.564
527.41	27.267
527.75	26.769
528.09	27.842
528.43	28.426
528.78	27.519
529.12	27.684
529.46	27.575
529.80	27.379
530.15	26.319
530.49	27.224
530.83	27.217
531.17	26.986
531.51	24.815
531.86	25.881
532.20	27.567
532.54	26.069
532.88	27.706
533.22	27.071
533.57	26.093
533.91	27.548
534.25	26.823
534.59	26.834
534.93	27.423
535.27	26.178
535.62	26.974
535.96	27.326
536.30	27.194
536.64	25.701
536.98	26.279
537.32	25.552
537.66	27.010
538.01	25.798
538.35	26.934
538.69	26.087
539.03	25.503
539.37	25.755
539.71	26.671
540.05	24.831
540.39	25.671
540.73	25.628
541.07	27.143
541.42	26.734
541.76	26.116
542.10	24.577
542.44	25.087
542.78	25.399
543.12	26.685
543.46	25.639
543.80	26.069
544.14	26.015
544.48	24.552
544.82	25.488
545.16	25.423
545.50	24.848
545.84	25.806
546.18	25.035
546.52	25.335
546.86	25.018
547.20	25.804
547.54	24.160
547.88	25.236
548.22	25.537
548.56	25.284
548.90	24.560
549.24	25.417
549.58	24.270
549.92	25.752
550.26	25.904
550.60	25.000
550.94	24.701
551.28	24.224
551.62	25.263
551.96	24.744
552.30	24.672
552.64	25.000
552.98	25.781
553.32	24.658
553.66	24.505
554.00	24.190
554.34	23.370
554.68	25.056
555.02	23.353
555.36	25.416
555.69	24.909
556.03	24.518
556.37	23.826
556.71	24.527
557.05	25.166
557.39	24.491
557.73	23.601
558.07	24.868
558.41	24.527
558.75	23.711
559.08	24.699
559.42	25.806
559.76	23.777
560.10	24.443
560.44	24.392
560.78	23.094
561.12	24.947
561.45	24.762
561.79	23.521
562.13	23.699
562.47	24.429
562.81	24.315
563.15	23.442
563.48	24.914
563.82	24.077
564.16	24.238
564.50	24.288
564.84	23.919
565.17	24.570
565.51	24.465
565.85	22.851
566.19	23.377
566.52	23.722
566.86	23.135
567.20	23.091
567.54	22.740
567.88	23.124
568.21	22.868
568.55	23.318
568.89	22.931
569.23	23.327
569.56	23.696
569.90	23.351
570.24	23.141
570.57	23.132
570.91	23.202
571.25	22.739
571.59	23.211
571.92	22.675
572.26	22.869
572.60	22.944
572.93	22.805
573.27	22.563
573.61	23.179
573.95	22.396
574.28	22.789
574.62	22.315
574.96	22.810
575.29	22.593
575.63	22.893
575.97	22.663
576.30	22.439
576.64	22.845
576.98	23.032
577.31	22.883
577.65	22.487
577.98	22.284
578.32	22.620
578.66	22.548
578.99	23.005
579.33	22.839
579.67	22.480
580.00	22.410
580.34	22.734
580.67	22.562
581.01	22.691
581.35	22.229
581.68	22.298
582.02	22.432
582.35	22.492
582.69	21.874
583.02	21.641
583.36	22.591
583.70	22.684
584.03	22.486
584.37	22.049
584.70	22.077
585.04	22.434
585.37	22.236
585.71	22.455
586.04	22.030
586.38	21.679
586.72	21.944
587.05	22.222
587.39	22.264
587.72	21.862
588.06	21.806
588.39	22.278
588.73	21.781
589.06	21.953
589.40	21.775
589.73	21.595
590.07	21.947
590.40	21.999
590.73	22.285
591.07	21.563
591.40	20.652
591.74	21.476
592.07	21.406
592.41	22.179
592.74	21.952
593.08	21.538
593.41	21.901
593.75	21.253
594.08	22.245
594.41	21.353
594.75	22.076
595.08	21.733
595.42	21.296
595.75	21.547
596.09	21.401
596.42	20.833
596.75	21.369
597.09	21.793
597.42	21.803
597.75	21.244
598.09	21.220
598.42	22.595
598.76	21.411
599.09	21.729
599.42	21.110
599.76	21.292
600.09	21.122
600.42	21.205
600.76	20.473
601.09	21.281
601.42	21.599
601.76	22.085
602.09	21.970
602.42	21.915
602.76	20.973
603.09	21.232
603.42	20.992
603.76	20.616
604.09	21.186
604.42	20.762
604.76	20.777
605.09	21.251
605.42	21.817
605.75	20.899
606.09	20.737
606.42	20.989
606.75	20.476
607.09	20.745
607.42	21.235
607.75	19.781
608.08	21.190
608.42	20.759
608.75	21.118
609.08	20.431
609.41	20.020
609.75	20.777
610.08	20.562
610.41	20.603
610.74	20.549
611.07	20.892
611.41	20.983
611.74	21.325
612.07	19.229
612.40	20.703
612.73	20.966
613.07	20.177
613.40	20.760
613.73	20.964
614.06	20.287
614.39	20.233
614.72	20.766
615.06	19.944
615.39	21.192
615.72	20.518
616.05	19.426
616.38	20.447
616.71	19.556
617.05	21.192
617.38	19.717
617.71	19.792
618.04	20.232
618.37	19.621
618.70	19.987
619.03	20.344
619.36	19.858
619.69	20.614
620.03	19.152
620.36	20.042
620.69	20.200
621.02	19.846
621.35	19.542
621.68	18.989
622.01	19.660
622.34	19.191
622.67	20.673
623.00	20.897
623.33	19.222
623.66	20.223
623.99	19.655
624.32	19.369
624.65	18.769
624.99	20.059
625.32	21.060
625.65	19.457
625.98	18.878
626.31	20.816
626.64	19.347
626.97	20.242
627.30	21.215
627.63	18.858
627.96	19.134
628.29	20.279
628.62	19.923
628.95	18.236
629.28	19.015
629.61	19.904
629.94	18.859
630.26	18.916
630.59	19.580
630.92	19.578
631.25	19.567
631.58	20.985
631.91	20.361
632.24	18.551
632.57	18.000
632.90	19.253
633.23	19.424
633.56	19.305
633.89	21.411
634.22	21.908
634.55	20.219
634.88	18.627
635.20	20.000
635.53	19.121
635.86	20.128
636.19	20.223
636.52	18.659
636.85	18.697
637.18	18.027
637.51	19.351
637.83	19.713
638.16	17.467
638.49	18.959
638.82	19.346
639.15	20.612
639.48	19.251
639.81	19.861
640.13	21.127
640.46	19.774
640.79	18.993
641.12	17.604
641.45	19.942
641.77	19.882
642.10	18.306
642.43	20.283
642.76	17.350
643.09	18.850
643.41	18.660
643.74	19.063
644.07	19.417
644.40	18.242
644.73	16.780
645.05	16.754
645.38	16.113
645.71	20.068
646.04	16.330
646.36	17.014
646.69	17.133
647.02	16.576
647.35	18.282
647.67	15.342
648.00	18.478
648.33	18.644
648.66	16.027
648.98	19.099
649.31	17.791
649.64	16.588
649.96	18.325
650.29	16.667
650.62	17.133
650.94	17.931
651.27	19.258
651.60	18.706
651.92	18.817
652.25	19.095
652.58	19.802
652.90	19.192
653.23	15.110
653.56	19.008
653.88	15.870
654.21	14.846
654.54	16.113
654.86	16.585
655.19	16.947
655.52	18.827
655.84	17.668
656.17	20.960
656.49	28.359
656.82	28.068
657.15	20.783
657.47	15.521
657.80	11.220
658.13	12.103
658.45	18.008
658.78	17.211
659.10	17.754
659.43	17.528
659.75	16.822
660.08	17.103
660.41	16.734
660.73	18.182
661.06	15.986
661.38	16.085
661.71	15.574
662.03	19.239
662.36	14.381
662.68	16.774
663.01	19.703
663.33	15.551
663.66	16.186
663.98	17.303
664.31	14.725
664.63	13.514
664.96	18.600
665.28	19.957
665.61	14.687
665.93	14.775
666.26	17.511
666.58	13.919
666.91	18.386
667.23	15.438
667.56	16.322
667.88	17.056
668.21	17.857
668.53	14.943
668.86	17.506
669.18	16.548
669.50	17.051
669.83	16.229
670.15	17.143
670.48	15.862
670.80	18.600
671.13	17.849
671.45	18.721
671.77	16.595
672.10	13.645
672.42	17.366
672.75	15.536
673.07	17.818
673.39	18.657
673.72	17.764
674.04	15.984
674.37	16.463
674.69	15.021
675.01	16.239
675.34	17.724
675.66	17.647
675.98	16.150
676.31	18.100
676.63	17.914
676.95	15.059
677.28	17.202
677.60	18.627
677.92	16.851
678.25	18.221
678.57	16.701
678.89	15.565
679.22	13.043
679.54	16.122
679.86	15.820
680.18	15.962
680.51	16.154
680.83	14.425
681.15	17.878
681.48	15.030
681.80	16.769
682.12	15.208
682.44	14.889
682.77	12.632
683.09	14.509
683.41	15.116
683.73	16.741
684.06	17.478
684.38	13.675
684.70	14.868
685.02	17.149
685.34	13.894
685.67	14.071
685.99	16.548
686.31	15.862
686.63	15.074
686.96	14.657
687.28	15.968
687.60	16.068
687.92	15.953
688.24	15.600
688.56	15.789
688.89	15.590
689.21	15.471
689.53	12.387
689.85	15.730
690.17	16.484
690.49	14.010
690.82	13.604
691.14	15.217
691.46	14.385
691.78	16.484
692.10	13.588
692.42	12.747
692.74	17.391
693.06	14.382
693.39	14.520
693.71	15.111
694.03	18.409
694.35	17.342
694.67	14.750
694.99	17.784
695.31	14.987
695.63	17.317
695.95	17.303
696.27	15.342
696.59	12.366
696.91	15.922
697.23	13.198
697.56	13.909
697.88	14.345
698.20	14.471
698.52	15.187
698.84	16.029
699.16	14.657
699.48	14.815
699.80	19.121
700.12	17.158
700.44	14.366
700.76	14.888
701.08	13.897
701.40	16.467
701.72	14.462
702.04	11.006
702.36	14.939
702.68	10.366
703.00	16.667
703.32	15.320
703.64	15.964
703.96	11.730
704.28	15.060
704.60	12.195
704.91	12.853
705.23	12.658
705.55	10.690
705.87	13.380
706.19	12.454
706.51	13.028
706.83	14.013
707.15	14.329
707.47	15.427
707.79	13.198
708.11	11.825
708.43	15.990
708.74	11.968
709.06	14.706
709.38	13.256
709.70	14.715
710.02	13.084
710.34	10.000
710.66	13.681
710.98	11.455
711.29	9.091
711.61	11.613
711.93	14.194
712.25	10.490
712.57	8.772
712.89	14.652
713.20	15.603
713.52	11.314
713.84	13.226
714.16	15.210
714.48	11.392
714.80	7.668
715.11	18.314
715.43	11.801
715.75	15.528
716.07	10.843
716.39	12.121
716.70	13.669
717.02	10.588
717.34	12.879
717.66	9.483
717.97	11.905
718.29	17.323
718.61	7.296
718.93	8.527
719.24	17.712
719.56	8.240
719.88	13.060
720.20	7.905
720.51	12.891
720.83	13.230
721.15	9.756
721.46	14.122
721.78	12.749
722.10	9.163
722.42	13.710
722.73	12.741
723.05	12.245
723.37	8.824
723.68	14.400
724.00	11.064
724.32	10.042
724.63	12.757
724.95	8.120
725.27	14.768
725.58	16.461
725.90	11.297
726.22	12.681
726.53	9.412
726.85	10.949
727.16	11.852
727.48	10.345
727.80	9.375
728.11	11.885
728.43	12.500
728.74	11.111
729.06	7.600
729.38	13.043
729.69	11.744
730.01	8.178
730.32	14.022
730.64	14.773
730.96	15.734
731.27	9.030
731.59	11.746
731.90	11.327
732.22	8.654
732.53	10.135
732.85	7.718
733.16	13.531
733.48	15.878
733.80	10.473
734.11	12.500
734.43	10.526
734.74	12.613
735.06	12.968
735.37	13.678
735.69	11.650
736.00	9.901
736.32	10.638
736.63	12.069
736.95	12.671
737.26	8.621
737.58	9.028
737.89	13.746
738.21	10.320
738.52	8.365
738.83	10.204
739.15	11.392
739.46	10.506
739.78	7.746
740.09	12.329
740.41	10.357
740.72	10.993
741.04	9.200
741.35	8.772
741.66	12.889
741.98	11.058
742.29	14.851
742.61	8.293
742.92	12.719
743.23	11.321
743.55	11.712
743.86	12.556
744.18	12.745
744.49	11.168
744.80	13.776
745.12	15.888
745.43	10.900
745.74	15.766
746.06	8.879
746.37	9.633
746.68	9.615
747.00	12.440
747.31	10.096
747.62	14.679
747.94	10.917
748.25	12.844
748.56	16.889
748.88	18.310
749.19	14.286
749.50	7.767
749.82	6.573
750.13	12.083
750.44	8.462
750.75	10.701
751.07	12.811
751.38	15.957
751.69	7.336
752.01	7.812
752.32	10.000
752.63	9.701
752.94	10.400
753.26	5.858
753.57	11.667
753.88	14.170
754.19	8.367
754.51	11.278
754.82	6.960
755.13	4.348
755.44	7.724
755.75	8.400
756.07	9.225
756.38	8.633
756.69	10.239
757.00	11.215
757.31	12.621
757.63	9.877
757.94	9.040
758.25	12.963
758.56	10.598
758.87	13.095
759.18	13.249
759.50	9.428
759.81	9.699
760.12	13.538
760.43	9.524
760.74	11.017
761.05	10.497
761.36	8.596
761.67	11.178
761.99	8.591
762.30	9.489
762.61	5.761
762.92	11.111
763.23	16.803
763.54	13.420
763.85	8.163
764.16	4.878
764.47	6.800
764.78	11.071
765.10	10.820
765.41	13.374
765.72	9.627
766.03	13.201
766.34	9.231
766.65	8.787
766.96	6.103
767.27	11.881
767.58	-0.562
767.89	11.728
768.20	8.287
768.51	16.583
768.82	14.423
769.13	11.947
769.44	15.481
769.75	4.274
770.06	6.278
770.37	4.902
770.68	13.592
770.99	7.767
771.30	10.504
771.61	15.918
771.92	8.714
772.23	11.712
772.54	5.525
772.85	3.488
773.16	13.228
773.47	3.550
773.78	13.218
774.09	6.250
774.39	3.106
774.70	12.245
775.01	4.138
775.32	5.000
775.63	2.256
775.94	3.008
776.25	4.800
776.56	12.397
776.87	14.286
777.18	5.405
777.48	5.405
777.79	3.150
778.10	15.596
778.41	8.772
778.72	2.521
779.03	5.634
779.34	10.135
779.65	13.380
779.95	11.258
780.26	4.317
780.57	17.266
780.88	2.113
781.19	-5.042
781.50	14.765
781.80	5.848
782.11	6.395
782.42	12.579
782.73	9.804
783.04	4.828
783.34	3.817
783.65	1.342
783.96	8.462
784.27	3.571
784.57	9.220
784.88	-8.654
785.19	20.909
785.50	2.727
785.81	0.000
786.11	1.681
786.42	10.619
786.73	0.000
787.04	1.835
787.34	-1.980
787.65	5.833
787.96	2.479
788.26	6.522
788.57	15.873
788.88	1.626
789.19	-4.000
789.49	-6.870
789.80	14.394
790.11	1.887
790.41	2.970
790.72	1.064
791.03	1.087
791.33	-5.882
791.64	1.235
791.95	3.261
792.25	3.409
792.56	6.410
792.87	12.821
793.17	-16.667
793.48	-8.333
793.79	1.250
794.09	-2.885
794.40	3.125
794.70	2.703
795.01	-6.250
795.32	6.957
795.62	-13.043
795.93	-3.774
796.23	8.081
796.54	10.976
796.85	7.143
797.15	7.576
797.46	5.797
797.76	-1.316
798.07	5.682
798.37	3.659
798.68	-14.516
798.99	-10.811
799.29	3.614
799.60	-2.564
799.90	6.154
800.21	7.576
800.51	5.333
800.82	10.667
801.12	-16.667
801.43	-16.667
801.73	-1.351
802.04	14.286
802.34	4.918
802.65	2.985
802.95	14.545
803.26	1.724
803.56	12.308
803.87	-13.208
804.17	-1.613
804.48	19.118
804.78	-14.634
805.09	0.000
805.39	-4.412
805.70	-25.532
806.00	-8.772
806.30	15.385
806.61	7.895
806.91	17.568
807.22	9.211
807.52	12.500
807.83	-3.390
808.13	-18.182
808.43	-15.000
808.74	-17.241
809.04	3.175
809.35	-12.245
809.65	-5.000
809.95	-20.408
810.26	4.225
810.56	-8.333
810.86	-14.286
811.17	-11.538
811.47	0.000
811.77	-2.083
812.08	7.547
812.38	-37.500
812.69	-16.364
812.99	-19.512
813.29	-18.919
813.59	-13.514
813.90	-10.909
814.20	7.273
814.50	-11.667
814.81	10.909
815.11	-3.509
815.41	6.977
815.72	-15.000
816.02	-20.000
816.32	-29.730
816.62	-14.583
816.93	-11.111
817.23	-37.778
817.53	-41.667
817.84	-8.108
818.14	-24.390
818.44	-2.000
818.74	10.204
819.04	-7.317
819.35	-25.000
819.65	9.091
819.95	-122.222
820.25	-57.576
820.56	-35.714
820.86	-44.444
821.16	-43.182
821.46	-17.391
821.76	-18.966
822.07	13.043
822.37	9.091
822.67	31.707
822.97	10.811
823.27	-22.857
823.57	-10.345
823.88	-2.941
824.18	11.111
824.48	-2.857
824.78	-38.095
825.08	-21.429
825.38	3.704
825.69	-3.226
825.99	-14.634
826.29	-55.556
826.59	6.250
826.89	-41.935
827.19	-56.522
827.49	-44.444
827.79	-39.130
828.09	-22.581
828.39	6.250
828.70	-31.250
829.00	-17.241
829.30	-13.514
829.60	-41.667
829.90	-11.111
830.20	-9.375
830.50	0.000
830.80	-117.647
831.10	-31.818
831.40	-29.412
831.70	-11.538
832.00	3.030
832.30	29.412
832.60	0.000
832.90	1700.000
833.20	3.571
833.50	-65.000
833.80	-2.632
834.10	-20.833
834.40	-36.364
834.70	-126.667
835.00	-100.000
835.30	-29.167
835.60	-42.857
835.90	-23.810
836.20	-44.000
836.50	8.333
836.80	-31.579
837.10	0.000
837.40	16.667
837.70	52.174
838.00	58.333
838.30	0.000
838.60	-100.000
838.90	-190.000
839.19	-108.333
839.49	-138.462
839.79	-52.632
840.09	-316.667
840.39	-130.000
840.69	-59.091
840.99	-19.048
841.29	-66.667
841.59	-84.615
841.88	-66.667
842.18	-100.000
842.48	16.667
842.78	-342.857
843.08	-64.286
843.38	-75.000
843.68	-93.750
843.97	64.286
844.27	-155.556
844.57	-127.273
844.87	-66.667
845.17	4.545
845.47	600.000
845.76	0.000
846.06	-91.667
846.36	-1100.000
846.66	-31.579
846.96	-45.455
847.25	-61.111
847.55	-166.667
847.85	-52.381
848.15	-38.462
848.44	-333.333
848.74	-83.333
849.04	-92.308
849.34	-225.000
849.63	-127.273
849.93	-128.571
850.23	45.000
850.53	-200.000
850.82	-38.889
851.12	-26.667
851.42	-35.294
851.71	-137.500
852.01	0.000
852.31	-15.385
852.61	650.000
852.90	-29.412
853.20	13.333
853.50	-75.000
853.79	-121.429
854.09	-250.000
854.39	-50.000
854.68	-15.000
854.98	14.286
855.28	-32.000
855.57	-16.667
855.87	-29.167
856.17	-56.000
856.46	-15.625
856.76	-55.000
857.05	-20.000
857.35	-75.000
857.65	-35.294
857.94	-191.667
858.24	-116.667
858.53	-25.000
858.83	-45.455
859.13	-8.000
859.42	-78.571
859.72	-187.500
860.01	0.000
860.31	-225.000
860.60	0.000
860.90	-183.333
861.20	-100.000
861.49	20.000
861.79	-6.250
862.08	325.000
862.38	-75.000
862.67	271.429
862.97	350.000
863.26	-81.818
863.56	-154.545
863.85	36.842
864.15	-11.765
864.44	-300.000
864.74	-140.000
865.03	-133.333
865.33	-57.143
865.62	192.857
865.92	-31.579
866.21	-38.889
866.51	-54.545
866.80	-188.889
867.10	-225.000
867.39	-31.250
867.69	-106.667
867.98	-50.000
868.27	-41.176
868.57	0.000
868.86	1200.000
869.16	-225.000
869.45	-257.143
869.75	700.000
870.04	-70.000
870.33	-1200.000
870.63	-52.632
870.92	-83.333
871.22	-1200.000
871.51	-171.429
871.80	-166.667
872.10	-225.000
>>>>>End Processed Spectral Data<<<<<
