SpectraSuite Data File
++++++++++++++++++++++++++++++++++++
Date: Wed May 13 21:43:03 PDT 2015
User: schluterlab
Dark Spectrum Present: Yes
Reference Spectrum Present: Yes
Number of Sampled Component Spectra: 1
Spectrometers: USB2E3373
Integration Time (usec): 3000 (USB2E3373)
Spectra Averaged: 3 (USB2E3373)
Boxcar Smoothing: 0 (USB2E3373)
Correct for Electrical Dark: No (USB2E3373)
Strobe/Lamp Enabled: No (USB2E3373)
Correct for Detector Non-linearity: No (USB2E3373)
Correct for Stray Light: No (USB2E3373)
Number of Pixels in Processed Spectrum: 2048
>>>>>Begin Processed Spectral Data<<<<<
178.53	0.000
178.91	500.000
179.29	225.000
179.67	-750.000
180.04	-200.000
180.42	140.000
180.80	1400.000
181.18	133.333
181.56	-500.000
181.94	-450.000
182.31	-45.455
182.69	153.846
183.07	-100.000
183.45	150.000
183.83	144.444
184.20	185.714
184.58	100.000
184.96	233.333
185.34	142.857
185.72	0.000
186.09	0.000
186.47	-240.000
186.85	260.000
187.23	0.000
187.61	-50.000
187.98	900.000
188.36	37.500
188.74	0.000
189.12	36.364
189.49	0.000
189.87	166.667
190.25	240.000
190.63	1200.000
191.00	-20.000
191.38	220.000
191.76	200.000
192.14	166.667
192.51	-78.947
192.89	233.333
193.27	325.000
193.65	0.000
194.02	136.364
194.40	180.000
194.78	400.000
195.15	180.000
195.53	-300.000
195.91	25.000
196.29	-33.333
196.66	0.000
197.04	850.000
197.42	-180.000
197.79	-50.000
198.17	-225.000
198.55	-233.333
198.92	200.000
199.30	-233.333
199.68	-40.000
200.05	400.000
200.43	250.000
200.81	-1600.000
201.18	-180.000
201.56	-83.333
201.94	475.000
202.31	-13.043
202.69	-42.857
203.07	-400.000
203.44	-100.000
203.82	-333.333
204.19	-80.000
204.57	0.000
204.95	-200.000
205.32	0.000
205.70	-50.000
206.08	-325.000
206.45	-316.667
206.83	350.000
207.20	-500.000
207.58	-80.000
207.96	-1800.000
208.33	-114.286
208.71	-1300.000
209.08	137.500
209.46	550.000
209.84	0.000
210.21	150.000
210.59	2300.000
210.96	120.000
211.34	2000.000
211.71	-700.000
212.09	-133.333
212.46	-180.000
212.84	-333.333
213.22	0.000
213.59	-1100.000
213.97	-300.000
214.34	-450.000
214.72	-53.846
215.09	187.500
215.47	166.667
215.84	350.000
216.22	12.500
216.59	-200.000
216.97	166.667
217.34	122.222
217.72	0.000
218.09	333.333
218.47	-200.000
218.84	0.000
219.22	-50.000
219.59	-433.333
219.97	-100.000
220.34	-87.500
220.72	-220.000
221.09	0.000
221.47	-150.000
221.84	-800.000
222.22	0.000
222.59	500.000
222.97	-633.333
223.34	-25.000
223.72	-1100.000
224.09	-650.000
224.46	36.364
224.84	-12.500
225.21	-100.000
225.59	-150.000
225.96	-116.667
226.34	-20.000
226.71	-228.571
227.08	1000.000
227.46	-150.000
227.83	300.000
228.21	-56.250
228.58	-225.000
228.95	-64.706
229.33	-87.500
229.70	-75.000
230.08	-100.000
230.45	-125.000
230.82	-41.667
231.20	200.000
231.57	-450.000
231.95	1000.000
232.32	75.000
232.69	-52.941
233.07	-1000.000
233.44	-60.870
233.81	-550.000
234.19	-12.500
234.56	-100.000
234.93	-113.333
235.31	-57.895
235.68	-92.308
236.05	-23.077
236.43	-55.556
236.80	-9.091
237.17	-46.667
237.55	-82.353
237.92	-55.172
238.29	-74.074
238.67	-19.444
239.04	-9.677
239.41	-23.404
239.79	-2.128
240.16	-30.233
240.53	-10.714
240.91	-5.357
241.28	-10.714
241.65	-1.613
242.02	-2.632
242.40	2.899
242.77	-8.696
243.14	-17.949
243.51	-1.064
243.89	-1.923
244.26	15.094
244.63	-6.731
245.00	-8.333
245.38	-5.042
245.75	1.639
246.12	9.023
246.49	-5.691
246.87	-10.924
247.24	6.081
247.61	2.649
247.98	4.487
248.36	1.775
248.73	3.933
249.10	2.020
249.47	-3.226
249.84	2.632
250.22	2.488
250.59	7.009
250.96	3.636
251.33	-5.742
251.70	1.674
252.08	2.510
252.45	4.115
252.82	1.141
253.19	2.724
253.56	1.799
253.94	6.762
254.31	2.817
254.68	7.047
255.05	4.620
255.42	6.993
255.79	7.975
256.16	2.839
256.54	5.714
256.91	3.481
257.28	4.717
257.65	-0.318
258.02	4.985
258.39	7.602
258.76	6.105
259.14	1.989
259.51	2.247
259.88	3.794
260.25	6.389
260.62	4.213
260.99	7.692
261.36	6.736
261.73	3.210
262.10	2.036
262.47	2.469
262.85	2.985
263.22	4.359
263.59	4.156
263.96	4.623
264.33	5.288
264.70	4.651
265.07	4.167
265.44	4.828
265.81	4.805
266.18	3.645
266.55	1.310
266.92	4.661
267.29	4.527
267.66	5.520
268.03	7.613
268.40	3.602
268.77	4.959
269.14	5.306
269.51	7.392
269.88	4.684
270.25	5.297
270.62	3.689
270.99	5.906
271.36	5.159
271.73	4.418
272.10	4.952
272.47	4.990
272.84	5.512
273.21	4.892
273.58	5.533
273.95	4.340
274.32	5.784
274.69	6.922
275.06	7.774
275.43	5.085
275.80	4.610
276.17	4.788
276.54	5.506
276.91	6.620
277.28	3.610
277.65	7.343
278.02	6.786
278.39	3.908
278.76	5.518
279.13	6.003
279.50	5.345
279.87	3.623
280.23	5.405
280.60	3.806
280.97	4.058
281.34	6.940
281.71	4.878
282.08	5.470
282.45	6.230
282.82	5.751
283.19	5.945
283.56	6.562
283.92	3.976
284.29	5.148
284.66	3.624
285.03	4.397
285.40	6.647
285.77	7.658
286.14	5.319
286.51	6.747
286.87	4.923
287.24	4.572
287.61	5.572
287.98	5.882
288.35	3.577
288.72	6.743
289.08	6.695
289.45	5.580
289.82	5.900
290.19	6.872
290.56	4.403
290.93	5.249
291.29	4.514
291.66	6.011
292.03	6.131
292.40	4.711
292.77	7.363
293.13	5.718
293.50	4.314
293.87	6.533
294.24	7.275
294.60	7.542
294.97	6.481
295.34	5.409
295.71	3.811
296.08	4.581
296.44	4.464
296.81	5.116
297.18	8.375
297.55	6.014
297.91	8.447
298.28	5.932
298.65	6.281
299.02	6.960
299.38	6.626
299.75	6.971
300.12	5.698
300.48	5.029
300.85	7.390
301.22	6.504
301.59	5.869
301.95	4.878
302.32	7.118
302.69	6.215
303.05	5.426
303.42	7.386
303.79	7.150
304.15	5.476
304.52	6.882
304.89	6.312
305.25	5.708
305.62	7.592
305.99	8.052
306.35	8.359
306.72	8.240
307.09	7.404
307.45	7.987
307.82	8.000
308.19	7.001
308.55	8.598
308.92	10.806
309.29	8.008
309.65	7.992
310.02	9.642
310.38	8.435
310.75	9.270
311.12	9.232
311.48	9.199
311.85	10.039
312.22	9.574
312.58	10.048
312.95	9.055
313.31	11.570
313.68	10.687
314.05	11.153
314.41	12.296
314.78	11.765
315.14	10.926
315.51	12.369
315.87	12.975
316.24	12.489
316.61	13.151
316.97	12.500
317.34	12.567
317.70	13.738
318.07	14.108
318.43	14.453
318.80	13.525
319.16	13.351
319.53	14.606
319.89	14.724
320.26	14.325
320.62	15.014
320.99	15.795
321.35	16.090
321.72	15.688
322.08	16.328
322.45	16.836
322.81	17.652
323.18	17.710
323.54	17.419
323.91	18.157
324.27	18.182
324.64	18.641
325.00	18.810
325.37	19.113
325.73	19.276
326.10	19.092
326.46	20.903
326.83	20.631
327.19	20.569
327.56	21.112
327.92	21.802
328.29	21.953
328.65	21.823
329.01	21.020
329.38	23.304
329.74	22.747
330.11	21.912
330.47	22.309
330.84	21.480
331.20	23.228
331.56	22.645
331.93	22.481
332.29	23.197
332.66	22.712
333.02	22.589
333.38	23.333
333.75	24.147
334.11	23.611
334.48	25.196
334.84	22.261
335.20	23.070
335.57	23.586
335.93	21.821
336.29	23.030
336.66	23.162
337.02	22.783
337.38	22.802
337.75	23.170
338.11	23.228
338.47	21.404
338.84	23.797
339.20	22.663
339.56	23.208
339.93	22.990
340.29	21.947
340.65	23.781
341.02	22.463
341.38	23.564
341.74	22.521
342.11	23.287
342.47	23.347
342.83	23.693
343.20	22.081
343.56	23.140
343.92	23.396
344.28	23.864
344.65	22.857
345.01	22.760
345.37	23.849
345.73	23.856
346.10	23.997
346.46	22.602
346.82	23.997
347.19	24.051
347.55	24.233
347.91	23.928
348.27	23.502
348.63	22.436
349.00	23.978
349.36	23.077
349.72	24.053
350.08	23.323
350.45	23.806
350.81	24.100
351.17	24.865
351.53	23.252
351.89	23.511
352.26	22.548
352.62	23.953
352.98	23.642
353.34	23.913
353.70	24.533
354.07	24.078
354.43	23.639
354.79	24.279
355.15	23.525
355.51	23.538
355.87	25.020
356.24	23.836
356.60	22.909
356.96	24.098
357.32	23.994
357.68	24.905
358.04	24.205
358.40	24.574
358.77	25.000
359.13	25.525
359.49	25.208
359.85	24.640
360.21	24.827
360.57	25.095
360.93	23.748
361.29	24.278
361.66	25.133
362.02	24.833
362.38	24.742
362.74	24.365
363.10	23.933
363.46	25.144
363.82	24.760
364.18	24.946
364.54	23.924
364.90	24.181
365.26	24.275
365.62	24.858
365.98	24.840
366.35	25.957
366.71	24.608
367.07	25.514
367.43	24.878
367.79	26.268
368.15	25.387
368.51	24.191
368.87	25.680
369.23	24.270
369.59	24.877
369.95	25.399
370.31	25.174
370.67	25.923
371.03	24.870
371.39	25.053
371.75	25.286
372.11	24.929
372.47	25.523
372.83	25.867
373.19	25.180
373.55	26.590
373.91	25.955
374.27	25.311
374.63	26.031
374.99	26.045
375.35	25.000
375.71	24.864
376.07	25.565
376.42	24.265
376.78	25.033
377.14	25.627
377.50	25.098
377.86	25.963
378.22	25.790
378.58	25.536
378.94	27.063
379.30	24.360
379.66	26.017
380.02	25.368
380.38	25.964
380.74	25.523
381.09	25.754
381.45	25.091
381.81	25.262
382.17	25.268
382.53	26.585
382.89	25.392
383.25	25.988
383.61	25.182
383.97	25.562
384.32	24.638
384.68	25.787
385.04	25.290
385.40	25.280
385.76	25.791
386.12	25.500
386.48	25.329
386.83	25.469
387.19	25.416
387.55	25.322
387.91	26.322
388.27	27.189
388.62	25.968
388.98	25.907
389.34	25.627
389.70	25.214
390.06	26.188
390.42	26.095
390.77	25.240
391.13	24.937
391.49	24.984
391.85	25.367
392.20	25.627
392.56	26.095
392.92	25.805
393.28	25.218
393.64	25.443
393.99	23.807
394.35	24.877
394.71	24.615
395.07	24.151
395.42	25.411
395.78	24.903
396.14	24.794
396.50	24.667
396.85	26.514
397.21	24.906
397.57	24.161
397.92	25.269
398.28	24.309
398.64	25.379
399.00	25.000
399.35	24.915
399.71	24.287
400.07	24.458
400.42	25.016
400.78	24.411
401.14	24.647
401.49	23.427
401.85	24.570
402.21	25.325
402.57	24.831
402.92	25.031
403.28	24.015
403.63	24.241
403.99	24.248
404.35	23.940
404.70	22.961
405.06	24.251
405.42	22.990
405.77	23.041
406.13	23.829
406.49	24.626
406.84	23.321
407.20	23.683
407.55	23.636
407.91	22.899
408.27	22.396
408.62	24.432
408.98	23.366
409.34	23.329
409.69	24.237
410.05	24.005
410.40	22.702
410.76	23.947
411.11	23.321
411.47	24.021
411.83	22.957
412.18	22.544
412.54	24.185
412.89	23.824
413.25	22.655
413.60	23.950
413.96	22.659
414.31	23.428
414.67	22.794
415.03	23.207
415.38	23.184
415.74	22.677
416.09	23.794
416.45	22.898
416.80	22.081
417.16	23.684
417.51	22.974
417.87	22.751
418.22	23.012
418.58	22.602
418.93	23.352
419.29	23.366
419.64	22.774
420.00	23.873
420.35	23.252
420.71	23.035
421.06	23.247
421.42	23.601
421.77	23.179
422.12	23.782
422.48	22.301
422.83	22.563
423.19	22.139
423.54	23.793
423.90	23.100
424.25	23.686
424.61	22.921
424.96	21.112
425.31	22.154
425.67	23.692
426.02	23.498
426.38	23.943
426.73	22.847
427.09	22.764
427.44	24.016
427.79	21.912
428.15	22.691
428.50	22.477
428.85	23.001
429.21	22.960
429.56	23.751
429.92	22.801
430.27	23.620
430.62	23.610
430.98	23.427
431.33	22.783
431.68	24.068
432.04	22.704
432.39	22.171
432.74	23.360
433.10	23.300
433.45	23.314
433.80	23.506
434.16	22.556
434.51	22.663
434.86	23.086
435.22	23.713
435.57	22.297
435.92	23.583
436.28	23.243
436.63	22.633
436.98	24.148
437.34	22.955
437.69	23.731
438.04	22.750
438.39	22.790
438.75	23.540
439.10	23.193
439.45	22.760
439.81	23.768
440.16	23.014
440.51	23.127
440.86	23.059
441.22	23.752
441.57	23.265
441.92	22.810
442.27	22.835
442.63	22.390
442.98	23.380
443.33	22.968
443.68	22.878
444.03	23.746
444.39	23.451
444.74	24.130
445.09	23.018
445.44	23.211
445.79	22.509
446.15	22.851
446.50	22.963
446.85	23.944
447.20	23.837
447.55	23.279
447.91	23.596
448.26	23.156
448.61	23.936
448.96	23.349
449.31	23.529
449.66	24.118
450.02	23.877
450.37	22.444
450.72	22.503
451.07	22.759
451.42	22.895
451.77	23.859
452.12	22.876
452.47	24.015
452.83	23.290
453.18	23.806
453.53	23.203
453.88	23.795
454.23	23.609
454.58	23.100
454.93	22.963
455.28	23.314
455.63	22.895
455.98	22.276
456.34	22.378
456.69	23.067
457.04	22.291
457.39	22.610
457.74	22.442
458.09	22.690
458.44	22.385
458.79	22.295
459.14	22.022
459.49	22.012
459.84	22.604
460.19	21.909
460.54	23.175
460.89	22.466
461.24	22.750
461.59	21.920
461.94	22.377
462.29	21.446
462.64	22.361
462.99	21.596
463.34	22.376
463.69	22.423
464.04	21.549
464.39	22.636
464.74	22.236
465.09	22.505
465.44	22.334
465.79	22.024
466.14	22.121
466.49	21.584
466.84	22.236
467.19	22.229
467.54	21.905
467.89	21.559
468.24	22.495
468.59	21.351
468.94	21.711
469.29	21.679
469.64	21.827
469.99	22.759
470.34	20.836
470.68	22.082
471.03	21.439
471.38	22.114
471.73	22.154
472.08	22.405
472.43	22.230
472.78	22.448
473.13	20.976
473.48	21.070
473.83	21.218
474.17	20.703
474.52	21.553
474.87	22.075
475.22	21.800
475.57	21.361
475.92	21.538
476.27	21.737
476.61	21.234
476.96	21.588
477.31	20.766
477.66	21.186
478.01	21.154
478.36	20.708
478.70	20.462
479.05	21.310
479.40	21.217
479.75	19.394
480.10	21.010
480.45	20.206
480.79	20.557
481.14	21.277
481.49	20.572
481.84	19.793
482.19	20.102
482.53	20.143
482.88	20.614
483.23	19.682
483.58	20.463
483.92	20.088
484.27	20.494
484.62	20.107
484.97	20.821
485.31	20.193
485.66	19.603
486.01	20.094
486.36	19.694
486.70	20.181
487.05	20.464
487.40	20.310
487.75	20.241
488.09	20.081
488.44	20.084
488.79	19.871
489.13	19.404
489.48	19.581
489.83	19.741
490.17	19.428
490.52	20.524
490.87	19.842
491.22	20.207
491.56	19.358
491.91	19.491
492.26	19.584
492.60	19.384
492.95	20.360
493.30	19.622
493.64	19.185
493.99	20.242
494.34	19.509
494.68	19.189
495.03	19.022
495.37	19.757
495.72	19.298
496.07	19.191
496.41	18.718
496.76	19.424
497.11	18.545
497.45	18.969
497.80	19.283
498.14	19.093
498.49	18.507
498.84	19.028
499.18	18.716
499.53	18.612
499.87	17.758
500.22	18.666
500.56	19.107
500.91	18.712
501.26	18.227
501.60	18.333
501.95	18.495
502.29	18.495
502.64	19.142
502.98	18.593
503.33	17.956
503.67	18.647
504.02	18.039
504.36	18.177
504.71	17.785
505.06	17.830
505.40	18.299
505.75	18.718
506.09	18.549
506.44	18.246
506.78	18.029
507.13	17.723
507.47	17.922
507.82	18.053
508.16	17.942
508.51	18.130
508.85	17.989
509.19	18.201
509.54	18.552
509.88	17.527
510.23	17.526
510.57	18.061
510.92	17.457
511.26	18.317
511.61	17.838
511.95	16.924
512.30	17.934
512.64	17.537
512.98	17.562
513.33	17.803
513.67	17.490
514.02	17.731
514.36	17.978
514.70	17.667
515.05	17.496
515.39	16.981
515.74	17.111
516.08	17.168
516.42	16.820
516.77	16.520
517.11	17.343
517.46	17.947
517.80	18.220
518.14	16.656
518.49	17.541
518.83	16.527
519.17	16.205
519.52	17.250
519.86	16.758
520.20	16.192
520.55	16.294
520.89	16.572
521.23	17.692
521.58	17.004
521.92	16.342
522.26	15.875
522.61	16.096
522.95	15.415
523.29	16.127
523.64	16.720
523.98	16.582
524.32	16.320
524.66	15.519
525.01	16.055
525.35	17.512
525.69	16.700
526.04	16.678
526.38	16.826
526.72	16.502
527.06	16.312
527.41	16.347
527.75	15.421
528.09	16.950
528.43	17.028
528.78	15.698
529.12	16.365
529.46	16.379
529.80	16.893
530.15	15.894
530.49	15.162
530.83	15.978
531.17	15.959
531.51	14.498
531.86	14.702
532.20	15.093
532.54	15.655
532.88	17.018
533.22	15.354
533.57	15.563
533.91	15.935
534.25	15.495
534.59	14.994
534.93	16.071
535.27	15.287
535.62	14.671
535.96	16.916
536.30	15.426
536.64	15.789
536.98	14.856
537.32	15.089
537.66	15.938
538.01	14.840
538.35	15.124
538.69	15.251
539.03	14.631
539.37	14.420
539.71	14.529
540.05	14.238
540.39	15.348
540.73	15.154
541.07	15.306
541.42	15.152
541.76	14.817
542.10	13.744
542.44	14.622
542.78	15.059
543.12	14.286
543.46	14.513
543.80	13.985
544.14	15.279
544.48	13.736
544.82	14.391
545.16	15.145
545.50	15.327
545.84	14.446
546.18	14.656
546.52	15.243
546.86	14.205
547.20	14.582
547.54	13.581
547.88	13.833
548.22	14.984
548.56	13.476
548.90	14.479
549.24	15.000
549.58	14.377
549.92	15.187
550.26	15.277
550.60	14.039
550.94	13.657
551.28	13.248
551.62	15.113
551.96	14.129
552.30	12.373
552.64	13.983
552.98	14.631
553.32	13.987
553.66	14.820
554.00	12.455
554.34	14.066
554.68	13.796
555.02	13.997
555.36	14.221
555.69	14.712
556.03	13.009
556.37	13.656
556.71	14.015
557.05	13.875
557.39	14.469
557.73	14.221
558.07	14.393
558.41	14.913
558.75	14.704
559.08	12.029
559.42	14.477
559.76	13.303
560.10	13.297
560.44	14.223
560.78	13.813
561.12	13.875
561.45	14.082
561.79	14.237
562.13	14.627
562.47	13.786
562.81	12.698
563.15	13.527
563.48	13.558
563.82	14.022
564.16	13.676
564.50	13.161
564.84	13.378
565.17	12.252
565.51	13.369
565.85	12.791
566.19	12.848
566.52	13.434
566.86	12.579
567.20	13.378
567.54	12.896
567.88	12.094
568.21	12.765
568.55	13.146
568.89	12.413
569.23	13.107
569.56	13.016
569.90	12.730
570.24	12.130
570.57	12.351
570.91	13.149
571.25	12.325
571.59	12.357
571.92	12.584
572.26	13.068
572.60	12.750
572.93	12.746
573.27	12.572
573.61	12.756
573.95	12.401
574.28	12.735
574.62	12.540
574.96	12.672
575.29	12.763
575.63	12.381
575.97	12.418
576.30	12.032
576.64	12.706
576.98	12.134
577.31	12.409
577.65	11.951
577.98	12.725
578.32	12.056
578.66	12.567
578.99	12.793
579.33	12.919
579.67	12.704
580.00	12.323
580.34	12.458
580.67	12.420
581.01	12.243
581.35	12.127
581.68	12.569
582.02	12.198
582.35	12.532
582.69	12.367
583.02	12.445
583.36	12.297
583.70	12.420
584.03	12.133
584.37	12.350
584.70	12.357
585.04	12.426
585.37	12.126
585.71	12.615
586.04	12.657
586.38	12.128
586.72	12.363
587.05	12.662
587.39	12.436
587.72	12.394
588.06	11.847
588.39	12.343
588.73	12.335
589.06	12.092
589.40	12.040
589.73	11.678
590.07	11.885
590.40	12.722
590.73	12.480
591.07	12.411
591.40	12.174
591.74	12.228
592.07	11.958
592.41	12.484
592.74	12.269
593.08	12.068
593.41	12.075
593.75	12.274
594.08	12.124
594.41	11.993
594.75	12.519
595.08	11.912
595.42	12.062
595.75	11.967
596.09	12.356
596.42	11.724
596.75	11.847
597.09	12.739
597.42	12.831
597.75	12.089
598.09	12.386
598.42	12.886
598.76	12.594
599.09	12.365
599.42	12.651
599.76	12.430
600.09	11.785
600.42	12.316
600.76	12.269
601.09	12.128
601.42	12.348
601.76	12.201
602.09	12.566
602.42	12.753
602.76	11.703
603.09	11.622
603.42	11.915
603.76	12.354
604.09	11.739
604.42	11.762
604.76	11.785
605.09	12.098
605.42	12.686
605.75	11.263
606.09	11.341
606.42	11.762
606.75	11.645
607.09	11.968
607.42	12.609
607.75	10.985
608.08	12.579
608.42	12.137
608.75	12.136
609.08	11.416
609.41	11.873
609.75	10.993
610.08	12.229
610.41	11.662
610.74	12.079
611.07	11.473
611.41	12.129
611.74	11.957
612.07	11.829
612.40	12.216
612.73	11.965
613.07	11.973
613.40	11.949
613.73	12.026
614.06	11.111
614.39	11.673
614.72	12.382
615.06	11.611
615.39	11.865
615.72	11.933
616.05	11.655
616.38	11.569
616.71	11.758
617.05	11.978
617.38	12.261
617.71	10.907
618.04	10.299
618.37	11.672
618.70	12.290
619.03	10.790
619.36	10.890
619.69	11.184
620.03	10.813
620.36	10.717
620.69	11.349
621.02	10.923
621.35	10.957
621.68	10.595
622.01	12.055
622.34	11.420
622.67	11.198
623.00	11.550
623.33	11.593
623.66	10.632
623.99	11.628
624.32	11.225
624.65	11.053
624.99	11.315
625.32	11.053
625.65	10.775
625.98	10.506
626.31	11.265
626.64	11.264
626.97	11.851
627.30	11.377
627.63	12.197
627.96	10.736
628.29	12.465
628.62	11.799
628.95	11.122
629.28	10.246
629.61	12.344
629.94	11.315
630.26	11.330
630.59	10.589
630.92	10.944
631.25	10.402
631.58	12.313
631.91	10.498
632.24	10.867
632.57	10.444
632.90	11.319
633.23	9.712
633.56	11.871
633.89	11.364
634.22	12.721
634.55	10.475
634.88	10.172
635.20	11.375
635.53	10.724
635.86	12.821
636.19	10.174
636.52	11.829
636.85	10.374
637.18	9.135
637.51	11.735
637.83	10.966
638.16	9.733
638.49	8.278
638.82	10.980
639.15	9.176
639.48	11.364
639.81	11.111
640.13	10.845
640.46	12.288
640.79	10.504
641.12	11.095
641.45	9.316
641.77	10.457
642.10	10.287
642.43	9.277
642.76	9.306
643.09	9.105
643.41	12.759
643.74	10.339
644.07	10.518
644.40	10.779
644.73	9.153
645.05	11.344
645.38	8.638
645.71	10.714
646.04	8.418
646.36	8.160
646.69	12.238
647.02	11.475
647.35	11.700
647.67	9.057
648.00	9.239
648.33	10.169
648.66	9.349
648.98	10.559
649.31	9.816
649.64	8.764
649.96	12.164
650.29	8.497
650.62	9.226
650.94	9.655
651.27	10.071
651.60	11.888
651.92	11.470
652.25	10.888
652.58	11.716
652.90	10.101
653.23	8.829
653.56	10.413
653.88	8.191
654.21	6.485
654.54	10.133
654.86	10.081
655.19	8.964
655.52	10.896
655.84	10.670
656.17	12.843
656.49	16.762
656.82	16.383
657.15	12.378
657.47	9.069
657.80	6.626
658.13	6.966
658.45	10.498
658.78	10.051
659.10	10.267
659.43	9.742
659.75	9.878
660.08	10.138
660.41	8.519
660.73	10.744
661.06	9.694
661.38	8.915
661.71	9.016
662.03	9.725
662.36	7.743
662.68	8.817
663.01	9.534
663.33	8.423
663.66	7.761
663.98	9.888
664.31	8.791
664.63	5.631
664.96	11.160
665.28	9.013
665.61	6.911
665.93	11.991
666.26	12.447
666.58	6.852
666.91	11.435
667.23	8.756
667.56	10.345
667.88	9.579
668.21	9.598
668.53	8.046
668.86	7.674
669.18	9.456
669.50	6.452
669.83	10.979
670.15	7.381
670.48	9.195
670.80	11.379
671.13	7.323
671.45	10.274
671.77	9.914
672.10	10.331
672.42	7.634
672.75	7.679
673.07	8.000
673.39	9.888
673.72	9.581
674.04	9.221
674.37	11.179
674.69	8.436
675.01	8.761
675.34	9.190
675.66	9.368
675.98	8.186
676.31	9.729
676.63	12.245
676.95	8.941
677.28	7.110
677.60	6.618
677.92	10.200
678.25	11.063
678.57	9.572
678.89	7.036
679.22	8.489
679.54	9.796
679.86	8.984
680.18	9.423
680.51	6.923
680.83	9.747
681.15	11.198
681.48	8.016
681.80	8.793
682.12	6.458
682.44	7.646
682.77	5.684
683.09	8.259
683.41	6.279
683.73	7.366
684.06	8.407
684.38	5.769
684.70	5.092
685.02	9.711
685.34	10.568
685.67	8.818
685.99	8.363
686.31	11.034
686.63	9.007
686.96	10.204
687.28	6.986
687.60	8.696
687.92	7.393
688.24	9.000
688.56	10.526
688.89	5.791
689.21	10.090
689.53	6.306
689.85	8.764
690.17	9.670
690.49	7.246
690.82	6.921
691.14	5.797
691.46	5.336
691.78	8.791
692.10	9.130
692.42	6.154
692.74	10.000
693.06	7.416
693.39	8.665
693.71	10.222
694.03	11.136
694.35	12.838
694.67	10.250
694.99	8.763
695.31	10.594
695.63	8.049
695.95	5.344
696.27	6.849
696.59	6.183
696.91	10.894
697.23	7.360
697.56	11.751
697.88	9.771
698.20	9.935
698.52	7.009
698.84	8.612
699.16	8.511
699.48	10.864
699.80	9.044
700.12	8.847
700.44	7.042
700.76	7.022
701.08	6.949
701.40	7.186
701.72	5.231
702.04	3.145
702.36	7.012
702.68	3.354
703.00	7.602
703.32	10.306
703.64	8.133
703.96	7.038
704.28	6.627
704.60	9.451
704.91	3.762
705.23	8.861
705.55	5.517
705.87	9.155
706.19	5.861
706.51	6.690
706.83	5.732
707.15	7.927
707.47	8.264
707.79	7.868
708.11	5.656
708.43	10.660
708.74	8.777
709.06	7.487
709.38	7.205
709.70	7.508
710.02	5.296
710.34	5.667
710.66	6.840
710.98	4.334
711.29	7.143
711.61	5.161
711.93	8.065
712.25	2.098
712.57	5.263
712.89	5.861
713.20	10.284
713.52	9.489
713.84	6.129
714.16	6.796
714.48	7.278
714.80	5.431
715.11	9.302
715.43	4.969
715.75	10.870
716.07	7.530
716.39	9.091
716.70	8.273
717.02	2.745
717.34	6.439
717.66	6.466
717.97	4.762
718.29	8.661
718.61	1.288
718.93	4.651
719.24	9.225
719.56	8.614
719.88	3.731
720.20	4.348
720.51	5.469
720.83	8.560
721.15	2.033
721.46	9.160
721.78	8.367
722.10	5.179
722.42	4.435
722.73	3.475
723.05	5.306
723.37	11.345
723.68	5.600
724.00	6.809
724.32	5.439
724.63	10.700
724.95	5.128
725.27	12.236
725.58	6.173
725.90	7.950
726.22	5.435
726.53	4.314
726.85	7.299
727.16	5.185
727.48	8.429
727.80	7.031
728.11	6.967
728.43	7.813
728.74	6.349
729.06	4.400
729.38	5.534
729.69	6.406
730.01	1.115
730.32	8.856
730.64	4.545
730.96	12.238
731.27	6.355
731.59	9.841
731.90	2.265
732.22	5.449
732.53	3.378
732.85	4.027
733.16	9.571
733.48	8.108
733.80	5.405
734.11	10.811
734.43	8.050
734.74	10.511
735.06	7.781
735.37	4.559
735.69	3.883
736.00	7.261
736.32	3.901
736.63	6.207
736.95	7.534
737.26	5.172
737.58	7.639
737.89	7.904
738.21	8.185
738.52	4.943
738.83	9.388
739.15	4.641
739.46	3.891
739.78	7.394
740.09	6.164
740.41	3.571
740.72	3.191
741.04	5.200
741.35	1.754
741.66	5.778
741.98	6.250
742.29	8.911
742.61	3.415
742.92	10.088
743.23	6.132
743.55	5.856
743.86	6.726
744.18	5.882
744.49	4.569
744.80	4.592
745.12	3.271
745.43	7.109
745.74	5.405
746.06	4.673
746.37	2.752
746.68	5.769
747.00	6.220
747.31	4.808
747.62	7.798
747.94	10.044
748.25	2.752
748.56	12.444
748.88	7.512
749.19	9.048
749.50	6.311
749.82	3.286
750.13	-0.833
750.44	2.692
750.75	3.321
751.07	7.473
751.38	3.191
751.69	5.019
752.01	6.250
752.32	1.923
752.63	7.090
752.94	8.800
753.26	7.531
753.57	7.917
753.88	10.931
754.19	7.171
754.51	4.887
754.82	4.396
755.13	3.478
755.44	5.691
755.75	2.000
756.07	1.845
756.38	8.633
756.69	8.874
757.00	7.788
757.31	5.178
757.63	0.309
757.94	5.650
758.25	8.201
758.56	4.348
758.87	8.333
759.18	5.047
759.50	7.407
759.81	7.358
760.12	4.615
760.43	3.571
760.74	4.520
761.05	6.630
761.36	2.579
761.67	6.949
761.99	-0.344
762.30	4.380
762.61	5.350
762.92	10.256
763.23	8.197
763.54	7.359
763.85	8.163
764.16	2.846
764.47	3.200
764.78	6.786
765.10	6.557
765.41	6.383
765.72	7.453
766.03	5.941
766.34	7.692
766.65	5.858
766.96	6.103
767.27	7.921
767.58	3.933
767.89	6.790
768.20	3.315
768.51	13.065
768.82	7.212
769.13	4.425
769.44	8.787
769.75	2.991
770.06	3.587
770.37	3.431
770.68	4.854
770.99	0.971
771.30	2.941
771.61	2.449
771.92	7.884
772.23	4.054
772.54	-2.762
772.85	1.744
773.16	8.466
773.47	-0.592
773.78	7.471
774.09	4.375
774.39	8.696
774.70	3.401
775.01	3.448
775.32	7.857
775.63	-3.759
775.94	-1.504
776.25	2.400
776.56	-1.653
776.87	2.381
777.18	-2.703
777.48	2.703
777.79	10.236
778.10	3.670
778.41	2.632
778.72	-3.361
779.03	-2.113
779.34	2.703
779.65	0.000
779.95	1.987
780.26	-2.158
780.57	6.475
780.88	-3.521
781.19	0.000
781.50	1.342
781.80	1.170
782.11	1.744
782.42	5.660
782.73	7.190
783.04	-5.517
783.34	-0.763
783.65	8.054
783.96	2.308
784.27	2.143
784.57	5.674
784.88	-12.500
785.19	11.818
785.50	4.545
785.81	-13.333
786.11	-5.882
786.42	5.310
786.73	-13.208
787.04	-10.092
787.34	-6.931
787.65	4.167
787.96	-4.959
788.26	13.043
788.57	0.000
788.88	1.626
789.19	1.600
789.49	-4.580
789.80	13.636
790.11	6.604
790.41	9.901
790.72	-5.319
791.03	-5.435
791.33	-8.235
791.64	4.938
791.95	8.696
792.25	0.000
792.56	10.256
792.87	-8.974
793.17	-11.538
793.48	1.190
793.79	-5.000
794.09	4.808
794.40	-4.167
794.70	-7.207
795.01	-0.781
795.32	2.609
795.62	-31.522
795.93	-7.547
796.23	3.030
796.54	-10.976
796.85	3.571
797.15	-9.091
797.46	-1.449
797.76	-5.263
798.07	6.818
798.37	-4.878
798.68	-11.290
798.99	-10.811
799.29	12.048
799.60	-3.846
799.90	-3.077
800.21	1.515
800.51	-4.000
800.82	-2.667
801.12	-25.000
801.43	-13.333
801.73	8.108
802.04	12.857
802.34	-18.033
802.65	5.970
802.95	-12.727
803.26	3.448
803.56	-7.692
803.87	-7.547
804.17	-1.613
804.48	-4.412
804.78	-24.390
805.09	0.000
805.39	1.471
805.70	-12.766
806.00	-22.807
806.30	7.692
806.61	6.579
806.91	2.703
807.22	3.947
807.52	14.773
807.83	-20.339
808.13	-28.788
808.43	0.000
808.74	-22.414
809.04	-23.810
809.35	-6.122
809.65	-10.000
809.95	-20.408
810.26	1.408
810.56	-4.167
810.86	-14.286
811.17	1.923
811.47	-23.404
811.77	-22.917
812.08	-11.321
812.38	-18.750
812.69	-3.636
812.99	4.878
813.29	-43.243
813.59	-37.838
813.90	-23.636
814.20	5.455
814.50	5.000
814.81	9.091
815.11	-10.526
815.41	-4.651
815.72	17.500
816.02	-5.714
816.32	-35.135
816.62	-27.083
816.93	-24.444
817.23	-26.667
817.53	-52.778
817.84	-29.730
818.14	-31.707
818.44	-14.000
818.74	-10.204
819.04	2.439
819.35	-25.000
819.65	-27.273
819.95	-144.444
820.25	-36.364
820.56	-23.810
820.86	-38.889
821.16	-4.545
821.46	-17.391
821.76	-18.966
822.07	21.739
822.37	-27.273
822.67	14.634
822.97	-27.027
823.27	-8.571
823.57	-13.793
823.88	-2.941
824.18	-30.556
824.48	-42.857
824.78	-42.857
825.08	-21.429
825.38	-18.519
825.69	-29.032
825.99	-26.829
826.29	11.111
826.59	-37.500
826.89	-58.065
827.19	-56.522
827.49	-13.889
827.79	-21.739
828.09	-22.581
828.39	-16.667
828.70	-31.250
829.00	-27.586
829.30	-8.108
829.60	-66.667
829.90	-18.519
830.20	6.250
830.50	-27.273
830.80	-147.059
831.10	-81.818
831.40	-32.353
831.70	0.000
832.00	-3.030
832.30	-11.765
832.60	16.216
832.90	2100.000
833.20	-14.286
833.50	-45.000
833.80	-13.158
834.10	-25.000
834.40	-40.909
834.70	-80.000
835.00	-20.000
835.30	-50.000
835.60	-14.286
835.90	-47.619
836.20	-24.000
836.50	-37.500
836.80	-78.947
837.10	29.730
837.40	6.667
837.70	-39.130
838.00	16.667
838.30	-21.053
838.60	-140.000
838.90	-190.000
839.19	-166.667
839.49	-7.692
839.79	-5.263
840.09	-233.333
840.39	-170.000
840.69	-27.273
840.99	-52.381
841.29	-66.667
841.59	-61.538
841.88	-86.667
842.18	-21.429
842.48	-6.667
842.78	-200.000
843.08	-50.000
843.38	-200.000
843.68	-37.500
843.97	-14.286
844.27	-155.556
844.57	-90.909
844.87	-40.000
845.17	-18.182
845.47	700.000
845.76	-66.667
846.06	-66.667
846.36	-1200.000
846.66	-47.368
846.96	-50.000
847.25	-44.444
847.55	-244.444
847.85	-66.667
848.15	-15.385
848.44	-183.333
848.74	-33.333
849.04	-46.154
849.34	-325.000
849.63	-154.545
849.93	-71.429
850.23	15.000
850.53	-112.500
850.82	-77.778
851.12	-46.667
851.42	-58.824
851.71	0.000
852.01	-29.412
852.31	-115.385
852.61	600.000
852.90	-5.882
853.20	-26.667
853.50	-50.000
853.79	-92.857
854.09	-300.000
854.39	-75.000
854.68	-22.500
854.98	-9.524
855.28	-12.000
855.57	-50.000
855.87	-37.500
856.17	-52.000
856.46	-37.500
856.76	-15.000
857.05	-8.000
857.35	-41.667
857.65	-76.471
857.94	-141.667
858.24	-66.667
858.53	-65.000
858.83	-154.545
859.13	-40.000
859.42	-128.571
859.72	-150.000
860.01	-29.167
860.31	-212.500
860.60	-87.500
860.90	-83.333
861.20	-200.000
861.49	-6.667
861.79	-12.500
862.08	225.000
862.38	-208.333
862.67	300.000
862.97	400.000
863.26	-90.909
863.56	-9.091
863.85	-21.053
864.15	-58.824
864.44	-300.000
864.74	-50.000
865.03	-133.333
865.33	-21.429
865.62	221.429
865.92	-47.368
866.21	-55.556
866.51	-81.818
866.80	-11.111
867.10	-75.000
867.39	-25.000
867.69	-120.000
867.98	-110.000
868.27	-35.294
868.57	0.000
868.86	1300.000
869.16	-200.000
869.45	-271.429
869.75	500.000
870.04	-70.000
870.33	-1200.000
870.63	-57.895
870.92	-41.667
871.22	-300.000
871.51	-185.714
871.80	-122.222
872.10	-50.000
>>>>>End Processed Spectral Data<<<<<
