SpectraSuite Data File
++++++++++++++++++++++++++++++++++++
Date: Wed May 13 21:50:46 PDT 2015
User: schluterlab
Dark Spectrum Present: Yes
Reference Spectrum Present: Yes
Number of Sampled Component Spectra: 1
Spectrometers: USB2E3373
Integration Time (usec): 3000 (USB2E3373)
Spectra Averaged: 3 (USB2E3373)
Boxcar Smoothing: 0 (USB2E3373)
Correct for Electrical Dark: No (USB2E3373)
Strobe/Lamp Enabled: No (USB2E3373)
Correct for Detector Non-linearity: No (USB2E3373)
Correct for Stray Light: No (USB2E3373)
Number of Pixels in Processed Spectrum: 2048
>>>>>Begin Processed Spectral Data<<<<<
178.53	0.000
178.91	50.000
179.29	200.000
179.67	-900.000
180.04	-300.000
180.42	400.000
180.80	1800.000
181.18	266.667
181.56	-400.000
181.94	-250.000
182.31	-36.364
182.69	169.231
183.07	-60.000
183.45	266.667
183.83	211.111
184.20	214.286
184.58	-133.333
184.96	300.000
185.34	242.857
185.72	0.000
186.09	-1300.000
186.47	-180.000
186.85	100.000
187.23	-200.000
187.61	300.000
187.98	1300.000
188.36	-37.500
188.74	0.000
189.12	-18.182
189.49	20.000
189.87	66.667
190.25	240.000
190.63	300.000
191.00	-120.000
191.38	240.000
191.76	425.000
192.14	100.000
192.51	-21.053
192.89	533.333
193.27	200.000
193.65	-340.000
194.02	290.909
194.40	240.000
194.78	-1000.000
195.15	180.000
195.53	-280.000
195.91	-12.500
196.29	-266.667
196.66	0.000
197.04	500.000
197.42	0.000
197.79	0.000
198.17	-162.500
198.55	-166.667
198.92	25.000
199.30	-433.333
199.68	-60.000
200.05	50.000
200.43	50.000
200.81	-1200.000
201.18	-120.000
201.56	-33.333
201.94	625.000
202.31	17.391
202.69	-71.429
203.07	-333.333
203.44	-380.000
203.82	-333.333
204.19	-10.000
204.57	0.000
204.95	-66.667
205.32	0.000
205.70	-100.000
206.08	-375.000
206.45	-250.000
206.83	400.000
207.20	-366.667
207.58	-60.000
207.96	-1400.000
208.33	-57.143
208.71	-700.000
209.08	275.000
209.46	200.000
209.84	0.000
210.21	70.000
210.59	3100.000
210.96	340.000
211.34	800.000
211.71	-850.000
212.09	-166.667
212.46	-170.000
212.84	66.667
213.22	-25.000
213.59	-1100.000
213.97	-800.000
214.34	-950.000
214.72	-23.077
215.09	262.500
215.47	133.333
215.84	900.000
216.22	-25.000
216.59	-600.000
216.97	533.333
217.34	244.444
217.72	0.000
218.09	400.000
218.47	-1000.000
218.84	-57.143
219.22	-162.500
219.59	-266.667
219.97	-125.000
220.34	-100.000
220.72	-100.000
221.09	0.000
221.47	-16.667
221.84	-800.000
222.22	0.000
222.59	700.000
222.97	-266.667
223.34	-41.667
223.72	0.000
224.09	-350.000
224.46	-118.182
224.84	-87.500
225.21	-114.286
225.59	-575.000
225.96	-133.333
226.34	0.000
226.71	-85.714
227.08	100.000
227.46	-137.500
227.83	-200.000
228.21	-37.500
228.58	-450.000
228.95	-64.706
229.33	-50.000
229.70	-112.500
230.08	-69.231
230.45	-150.000
230.82	-41.667
231.20	128.571
231.57	-275.000
231.95	800.000
232.32	8.333
232.69	-64.706
233.07	-1000.000
233.44	-8.696
233.81	-550.000
234.19	16.667
234.56	-53.333
234.93	-13.333
235.31	-31.579
235.68	-84.615
236.05	-46.154
236.43	22.222
236.80	12.121
237.17	-80.000
237.55	-29.412
237.92	-51.724
238.29	-25.926
238.67	-2.778
239.04	-19.355
239.41	-19.149
239.79	8.511
240.16	-11.628
240.53	-1.786
240.91	23.214
241.28	8.929
241.65	4.839
242.02	6.579
242.40	27.536
242.77	-5.797
243.14	14.103
243.51	7.447
243.89	9.615
244.26	32.075
244.63	3.846
245.00	15.625
245.38	10.084
245.75	17.213
246.12	24.060
246.49	10.569
246.87	12.605
247.24	20.270
247.61	16.556
247.98	28.205
248.36	14.201
248.73	16.854
249.10	20.707
249.47	11.828
249.84	18.421
250.22	23.383
250.59	19.626
250.96	21.364
251.33	12.440
251.70	23.013
252.08	22.176
252.45	23.868
252.82	20.532
253.19	21.401
253.56	17.986
253.94	23.843
254.31	19.366
254.68	19.128
255.05	21.122
255.42	21.678
255.79	22.393
256.16	18.297
256.54	21.270
256.91	17.089
257.28	23.270
257.65	18.153
258.02	20.528
258.39	23.392
258.76	20.640
259.14	21.023
259.51	22.753
259.88	20.325
260.25	25.833
260.62	20.787
260.99	21.485
261.36	23.057
261.73	21.975
262.10	22.901
262.47	18.765
262.85	20.647
263.22	23.077
263.59	19.740
263.96	22.871
264.33	18.990
264.70	22.791
265.07	23.148
265.44	24.138
265.81	23.570
266.18	21.412
266.55	23.144
266.92	21.186
267.29	20.370
267.66	22.718
268.03	23.457
268.40	19.703
268.77	19.628
269.14	23.265
269.51	23.203
269.88	21.792
270.25	23.305
270.62	20.697
270.99	22.441
271.36	23.413
271.73	21.285
272.10	25.143
272.47	24.568
272.84	23.425
273.21	21.918
273.58	22.336
273.95	20.566
274.32	22.388
274.69	21.858
275.06	24.028
275.43	22.222
275.80	21.631
276.17	22.468
276.54	19.361
276.91	22.648
277.28	21.300
277.65	25.175
278.02	23.393
278.39	21.492
278.76	23.746
279.13	22.127
279.50	21.897
279.87	20.290
280.23	23.784
280.60	18.858
280.97	23.214
281.34	23.186
281.71	19.675
282.08	19.487
282.45	22.131
282.82	20.447
283.19	21.494
283.56	23.281
283.92	23.089
284.29	23.089
284.66	21.252
285.03	21.336
285.40	20.091
285.77	21.622
286.14	22.644
286.51	23.238
286.87	20.615
287.24	19.617
287.61	21.084
287.98	21.029
288.35	21.162
288.72	21.090
289.08	23.219
289.45	20.705
289.82	19.818
290.19	20.617
290.56	21.165
290.93	18.232
291.29	18.605
291.66	19.399
292.03	20.845
292.40	20.861
292.77	19.277
293.13	21.339
293.50	20.131
293.87	20.667
294.24	19.180
294.60	17.945
294.97	21.429
295.34	18.074
295.71	19.054
296.08	17.670
296.44	18.622
296.81	18.879
297.18	19.500
297.55	18.514
297.91	19.627
298.28	20.218
298.65	18.966
299.02	18.681
299.38	18.282
299.75	18.870
300.12	17.674
300.48	18.246
300.85	18.476
301.22	18.815
301.59	19.131
301.95	18.351
302.32	19.253
302.69	17.966
303.05	17.497
303.42	20.341
303.79	19.348
304.15	19.058
304.52	20.430
304.89	19.048
305.25	18.222
305.62	19.631
305.99	20.131
306.35	20.690
306.72	19.736
307.09	17.623
307.45	19.063
307.82	19.684
308.19	18.809
308.55	19.652
308.92	20.825
309.29	21.622
309.65	20.979
310.02	21.272
310.38	20.833
310.75	20.907
311.12	21.088
311.48	19.585
311.85	21.358
312.22	22.824
312.58	20.966
312.95	22.289
313.31	22.314
313.68	21.851
314.05	23.819
314.41	24.400
314.78	24.858
315.14	23.426
315.51	24.929
315.87	25.487
316.24	24.885
316.61	25.662
316.97	25.463
317.34	25.045
317.70	25.870
318.07	25.732
318.43	26.558
318.80	27.487
319.16	28.294
319.53	27.240
319.89	27.191
320.26	29.482
320.62	29.750
320.99	28.004
321.35	28.157
321.72	28.874
322.08	28.690
322.45	30.527
322.81	30.961
323.18	29.785
323.54	30.144
323.91	31.256
324.27	32.583
324.64	32.578
325.00	32.196
325.37	33.788
325.73	31.650
326.10	31.455
326.46	31.187
326.83	33.333
327.19	33.171
327.56	33.924
327.92	34.191
328.29	35.142
328.65	36.109
329.01	33.597
329.38	35.739
329.74	35.021
330.11	34.896
330.47	33.507
330.84	35.650
331.20	35.952
331.56	34.511
331.93	35.401
332.29	36.316
332.66	34.661
333.02	35.969
333.38	35.702
333.75	33.532
334.11	37.674
334.48	35.310
334.84	34.276
335.20	34.477
335.57	34.552
335.93	34.622
336.29	34.238
336.66	35.043
337.02	36.000
337.38	34.639
337.75	34.625
338.11	34.757
338.47	33.048
338.84	36.168
339.20	35.009
339.56	34.898
339.93	35.696
340.29	33.646
340.65	34.645
341.02	33.195
341.38	33.868
341.74	33.950
342.11	34.269
342.47	32.385
342.83	32.435
343.20	33.503
343.56	34.260
343.92	33.225
344.28	32.873
344.65	34.204
345.01	32.607
345.37	33.964
345.73	34.150
346.10	33.868
346.46	33.008
346.82	33.387
347.19	32.991
347.55	33.764
347.91	32.814
348.27	32.965
348.63	33.974
349.00	33.412
349.36	32.261
349.72	32.947
350.08	32.683
350.45	33.359
350.81	32.473
351.17	33.333
351.53	32.993
351.89	31.612
352.26	31.969
352.62	31.240
352.98	32.268
353.34	32.609
353.70	32.944
354.07	32.471
354.43	32.348
354.79	32.853
355.15	32.686
355.51	32.043
355.87	32.916
356.24	32.665
356.60	31.431
356.96	32.233
357.32	32.043
357.68	32.544
358.04	32.739
358.40	32.481
358.77	32.492
359.13	32.607
359.49	32.324
359.85	32.525
360.21	32.845
360.57	31.939
360.93	31.487
361.29	32.198
361.66	31.587
362.02	31.282
362.38	31.905
362.74	31.255
363.10	33.116
363.46	31.412
363.82	32.520
364.18	31.617
364.54	30.999
364.90	31.498
365.26	30.998
365.62	32.386
365.98	31.744
366.35	33.050
366.71	31.526
367.07	31.538
367.43	31.289
367.79	31.897
368.15	31.997
368.51	31.505
368.87	32.729
369.23	31.815
369.59	31.712
369.95	31.060
370.31	31.032
370.67	31.427
371.03	32.220
371.39	31.654
371.75	31.500
372.11	31.766
372.47	31.435
372.83	30.860
373.19	30.647
373.55	31.214
373.91	31.542
374.27	30.014
374.63	31.721
374.99	32.312
375.35	31.164
375.71	30.774
376.07	30.912
376.42	31.217
376.78	31.770
377.14	31.186
377.50	30.834
377.86	31.673
378.22	31.037
378.58	30.517
378.94	31.063
379.30	31.106
379.66	30.148
380.02	30.270
380.38	30.602
380.74	31.022
381.09	30.941
381.45	31.258
381.81	30.314
382.17	30.750
382.53	29.477
382.89	29.614
383.25	30.123
383.61	30.993
383.97	30.437
384.32	29.364
384.68	29.673
385.04	29.933
385.40	30.884
385.76	30.353
386.12	29.955
386.48	29.781
386.83	30.038
387.19	30.228
387.55	29.675
387.91	30.812
388.27	30.025
388.62	29.838
388.98	29.161
389.34	30.451
389.70	30.525
390.06	30.000
390.42	29.832
390.77	29.981
391.13	30.114
391.49	29.222
391.85	28.946
392.20	29.261
392.56	30.032
392.92	28.613
393.28	29.402
393.64	29.235
393.99	28.335
394.35	28.642
394.71	29.551
395.07	28.113
395.42	29.311
395.78	27.928
396.14	29.486
396.50	28.979
396.85	29.446
397.21	28.527
397.57	28.509
397.92	27.964
398.28	28.144
398.64	28.112
399.00	28.404
399.35	28.263
399.71	28.305
400.07	28.012
400.42	28.715
400.78	28.338
401.14	28.204
401.49	28.161
401.85	28.256
402.21	28.545
402.57	28.204
402.92	28.911
403.28	28.768
403.63	28.146
403.99	27.959
404.35	27.369
404.70	27.130
405.06	28.420
405.42	26.068
405.77	27.189
406.13	26.629
406.49	27.561
406.84	26.801
407.20	26.939
407.55	26.818
407.91	27.134
408.27	26.201
408.62	26.703
408.98	27.004
409.34	27.599
409.69	27.550
410.05	27.301
410.40	26.537
410.76	27.738
411.11	27.425
411.47	28.202
411.83	27.074
412.18	26.574
412.54	27.318
412.89	26.270
413.25	26.254
413.60	26.520
413.96	26.030
414.31	26.326
414.67	26.349
415.03	26.387
415.38	26.420
415.74	26.316
416.09	26.834
416.45	26.999
416.80	26.846
417.16	26.586
417.51	26.122
417.87	26.720
418.22	27.214
418.58	26.150
418.93	26.868
419.29	26.073
419.64	26.590
420.00	26.794
420.35	25.762
420.71	26.325
421.06	26.876
421.42	26.703
421.77	27.457
422.12	26.361
422.48	26.554
422.83	26.816
423.19	26.740
423.54	26.855
423.90	26.603
424.25	27.210
424.61	27.295
424.96	26.730
425.31	26.080
425.67	26.514
426.02	28.327
426.38	27.923
426.73	26.756
427.09	26.579
427.44	26.659
427.79	27.078
428.15	26.972
428.50	26.344
428.85	27.183
429.21	26.899
429.56	27.365
429.92	28.006
430.27	28.272
430.62	28.017
430.98	27.499
431.33	27.297
431.68	27.583
432.04	27.831
432.39	27.656
432.74	27.345
433.10	28.879
433.45	27.515
433.80	27.414
434.16	27.854
434.51	27.283
434.86	27.797
435.22	27.787
435.57	28.501
435.92	28.408
436.28	27.808
436.63	27.771
436.98	28.261
437.34	29.304
437.69	28.217
438.04	27.957
438.39	28.892
438.75	28.546
439.10	28.976
439.45	28.087
439.81	29.433
440.16	28.754
440.51	28.775
440.86	28.631
441.22	28.342
441.57	28.688
441.92	28.616
442.27	28.463
442.63	28.418
442.98	28.588
443.33	28.894
443.68	28.202
444.03	29.409
444.39	28.557
444.74	28.327
445.09	28.689
445.44	29.577
445.79	28.911
446.15	29.839
446.50	28.689
446.85	28.808
447.20	28.542
447.55	29.491
447.91	28.764
448.26	28.874
448.61	29.919
448.96	29.100
449.31	29.298
449.66	30.422
450.02	29.392
450.37	29.495
450.72	29.047
451.07	29.530
451.42	28.384
451.77	30.128
452.12	30.006
452.47	29.374
452.83	29.481
453.18	30.236
453.53	30.517
453.88	30.783
454.23	30.037
454.58	29.902
454.93	30.404
455.28	30.379
455.63	29.881
455.98	30.006
456.34	28.671
456.69	30.415
457.04	29.721
457.39	30.788
457.74	29.443
458.09	29.443
458.44	29.788
458.79	29.434
459.14	29.382
459.49	30.671
459.84	29.820
460.19	29.652
460.54	29.988
460.89	30.518
461.24	29.655
461.59	30.556
461.94	30.405
462.29	29.841
462.64	30.673
462.99	29.846
463.34	31.146
463.69	29.575
464.04	29.412
464.39	31.117
464.74	29.730
465.09	30.316
465.44	31.201
465.79	30.305
466.14	30.103
466.49	30.499
466.84	29.707
467.19	29.682
467.54	30.136
467.89	30.484
468.24	30.793
468.59	30.083
468.94	31.098
469.29	32.056
469.64	30.962
469.99	31.379
470.34	31.153
470.68	30.483
471.03	30.183
471.38	30.737
471.73	30.864
472.08	30.790
472.43	30.541
472.78	30.088
473.13	29.288
473.48	29.485
473.83	30.006
474.17	30.013
474.52	31.003
474.87	30.338
475.22	29.710
475.57	30.229
475.92	30.643
476.27	29.953
476.61	28.992
476.96	29.983
477.31	30.744
477.66	30.339
478.01	29.890
478.36	29.700
478.70	30.505
479.05	31.021
479.40	30.213
479.75	30.393
480.10	29.679
480.45	30.603
480.79	30.214
481.14	32.016
481.49	30.291
481.84	29.595
482.19	30.107
482.53	29.667
482.88	30.105
483.23	29.500
483.58	29.679
483.92	30.010
484.27	29.003
484.62	29.294
484.97	30.402
485.31	29.754
485.66	27.444
486.01	28.534
486.36	28.463
486.70	28.795
487.05	29.881
487.40	29.270
487.75	29.601
488.09	29.058
488.44	29.653
488.79	30.091
489.13	29.980
489.48	29.158
489.83	29.745
490.17	29.687
490.52	30.341
490.87	30.042
491.22	30.664
491.56	30.474
491.91	30.149
492.26	30.319
492.60	29.149
492.95	29.592
493.30	29.360
493.64	29.592
493.99	30.483
494.34	29.961
494.68	29.785
495.03	29.051
495.37	30.219
495.72	30.276
496.07	30.200
496.41	29.715
496.76	29.525
497.11	29.531
497.45	29.426
497.80	30.086
498.14	30.680
498.49	29.249
498.84	30.314
499.18	29.169
499.53	29.099
499.87	29.064
500.22	29.965
500.56	30.441
500.91	30.231
501.26	29.754
501.60	30.049
501.95	29.516
502.29	29.515
502.64	29.894
502.98	29.961
503.33	28.759
503.67	29.406
504.02	28.873
504.36	29.817
504.71	29.116
505.06	29.852
505.40	29.794
505.75	29.756
506.09	28.871
506.44	29.637
506.78	29.660
507.13	29.366
507.47	30.064
507.82	29.566
508.16	29.551
508.51	28.977
508.85	29.393
509.19	29.153
509.54	29.598
509.88	29.301
510.23	29.579
510.57	30.403
510.92	30.011
511.26	30.418
511.61	29.473
511.95	28.721
512.30	29.428
512.64	29.512
512.98	30.194
513.33	29.014
513.67	29.074
514.02	30.502
514.36	29.663
514.70	29.446
515.05	29.608
515.39	29.422
515.74	30.314
516.08	29.381
516.42	28.744
516.77	28.998
517.11	28.865
517.46	29.652
517.80	30.266
518.14	28.475
518.49	28.632
518.83	29.415
519.17	29.217
519.52	28.951
519.86	30.055
520.20	28.260
520.55	29.104
520.89	29.538
521.23	30.000
521.58	29.646
521.92	28.724
522.26	29.408
522.61	28.765
522.95	29.145
523.29	29.397
523.64	30.388
523.98	29.098
524.32	28.607
524.66	29.416
525.01	29.554
525.35	29.361
525.69	28.628
526.04	27.752
526.38	29.764
526.72	28.468
527.06	28.691
527.41	28.524
527.75	28.905
528.09	29.884
528.43	29.240
528.78	28.424
529.12	28.396
529.46	28.535
529.80	27.961
530.15	27.542
530.49	28.369
530.83	29.655
531.17	29.041
531.51	26.905
531.86	28.523
532.20	27.567
532.54	27.724
532.88	27.434
533.22	28.418
533.57	27.748
533.91	28.452
534.25	28.385
534.59	26.963
534.93	27.296
535.27	27.771
535.62	28.355
535.96	27.977
536.30	27.394
536.64	27.888
536.98	27.751
537.32	28.612
537.66	27.786
538.01	26.976
538.35	27.555
538.69	26.890
539.03	26.711
539.37	27.632
539.71	27.899
540.05	27.530
540.39	27.598
540.73	27.723
541.07	27.551
541.42	27.071
541.76	27.199
542.10	25.863
542.44	27.096
542.78	27.134
543.12	27.628
543.46	25.985
543.80	26.409
544.14	28.424
544.48	26.344
544.82	27.505
545.16	27.519
545.50	27.279
545.84	26.999
546.18	26.508
546.52	27.735
546.86	26.714
547.20	27.091
547.54	27.663
547.88	27.598
548.22	27.362
548.56	27.618
548.90	26.725
549.24	27.083
549.58	27.687
549.92	27.880
550.26	27.749
550.60	27.177
550.94	26.418
551.28	26.798
551.62	26.692
551.96	25.695
552.30	27.147
552.64	26.483
552.98	26.705
553.32	27.469
553.66	26.706
554.00	25.486
554.34	26.520
554.68	25.951
555.02	26.347
555.36	26.324
555.69	25.783
556.03	26.376
556.37	26.387
556.71	26.069
557.05	26.863
557.39	26.074
557.73	27.307
558.07	26.375
558.41	27.176
558.75	27.406
559.08	25.100
559.42	27.616
559.76	25.841
560.10	27.825
560.44	27.119
560.78	26.835
561.12	26.559
561.45	25.714
561.79	27.029
562.13	27.004
562.47	26.929
562.81	26.335
563.15	26.133
563.48	25.052
563.82	26.881
564.16	26.269
564.50	27.069
564.84	26.284
565.17	26.821
565.51	25.535
565.85	24.717
566.19	25.364
566.52	25.360
566.86	25.411
567.20	26.329
567.54	25.561
567.88	24.972
568.21	24.715
568.55	24.726
568.89	24.776
569.23	25.252
569.56	24.698
569.90	24.502
570.24	23.755
570.57	24.360
570.91	24.501
571.25	23.758
571.59	23.782
571.92	24.259
572.26	23.968
572.60	23.529
572.93	23.930
573.27	23.960
573.61	23.697
573.95	23.638
574.28	23.460
574.62	23.574
574.96	23.868
575.29	23.170
575.63	23.472
575.97	24.484
576.30	23.348
576.64	23.736
576.98	23.385
577.31	23.543
577.65	23.150
577.98	23.546
578.32	23.335
578.66	23.173
578.99	23.568
579.33	23.163
579.67	23.269
580.00	23.056
580.34	22.904
580.67	23.714
581.01	22.785
581.35	23.315
581.68	22.998
582.02	23.279
582.35	23.760
582.69	23.884
583.02	23.054
583.36	23.698
583.70	23.172
584.03	23.537
584.37	23.443
584.70	23.542
585.04	23.566
585.37	23.086
585.71	23.710
586.04	23.459
586.38	23.073
586.72	23.602
587.05	24.112
587.39	24.111
587.72	23.670
588.06	23.557
588.39	23.538
588.73	23.526
589.06	23.602
589.40	23.873
589.73	23.069
590.07	23.587
590.40	23.476
590.73	23.865
591.07	24.363
591.40	23.000
591.74	24.233
592.07	23.733
592.41	24.625
592.74	23.071
593.08	23.350
593.41	23.764
593.75	23.127
594.08	23.903
594.41	23.144
594.75	24.175
595.08	24.010
595.42	23.336
595.75	23.463
596.09	24.365
596.42	24.183
596.75	23.475
597.09	24.249
597.42	24.316
597.75	23.911
598.09	24.180
598.42	23.669
598.76	24.097
599.09	24.330
599.42	23.301
599.76	23.320
600.09	23.268
600.42	23.540
600.76	23.171
601.09	23.126
601.42	23.089
601.76	23.668
602.09	23.916
602.42	23.937
602.76	23.238
603.09	23.285
603.42	24.030
603.76	23.071
604.09	22.609
604.42	23.106
604.76	22.785
605.09	23.652
605.42	23.617
605.75	22.955
606.09	23.096
606.42	23.150
606.75	23.117
607.09	22.784
607.42	23.599
607.75	22.144
608.08	23.309
608.42	23.758
608.75	23.602
609.08	22.979
609.41	23.497
609.75	22.995
610.08	23.570
610.41	24.150
610.74	23.628
611.07	23.647
611.41	23.746
611.74	24.431
612.07	22.251
612.40	23.297
612.73	23.600
613.07	23.392
613.40	23.954
613.73	23.944
614.06	22.499
614.39	22.790
614.72	23.043
615.06	23.722
615.39	23.179
615.72	22.516
616.05	23.029
616.38	23.253
616.71	22.795
617.05	23.956
617.38	22.674
617.71	23.100
618.04	22.730
618.37	23.218
618.70	24.386
619.03	23.574
619.36	23.416
619.69	22.880
620.03	23.675
620.36	23.730
620.69	23.055
621.02	23.385
621.35	23.630
621.68	22.249
622.01	23.463
622.34	21.570
622.67	23.414
623.00	24.620
623.33	23.710
623.66	23.494
623.99	23.631
624.32	22.377
624.65	23.220
624.99	23.365
625.32	23.450
625.65	22.791
625.98	22.275
626.31	24.000
626.64	24.592
626.97	22.578
627.30	23.524
627.63	22.837
627.96	23.030
628.29	24.000
628.62	24.178
628.95	23.447
629.28	23.251
629.61	24.306
629.94	23.694
630.26	22.857
630.59	22.478
630.92	21.687
631.25	22.348
631.58	23.876
631.91	22.163
632.24	23.600
632.57	22.333
632.90	23.454
633.23	22.422
633.56	23.022
633.89	23.086
634.22	26.620
634.55	24.848
634.88	22.181
635.20	23.625
635.53	22.868
635.86	24.103
636.19	23.945
636.52	21.707
636.85	22.437
637.18	21.194
637.51	23.596
637.83	24.021
638.16	22.267
638.49	22.029
638.82	22.092
639.15	23.803
639.48	24.064
639.81	23.333
640.13	24.648
640.46	23.588
640.79	22.302
641.12	23.373
641.45	23.872
641.77	24.595
642.10	23.601
642.43	22.170
642.76	21.767
643.09	22.684
643.41	22.967
643.74	23.425
644.07	22.168
644.40	23.881
644.73	20.678
645.05	23.560
645.38	21.096
645.71	21.769
646.04	21.717
646.36	21.701
646.69	22.028
647.02	22.951
647.35	24.314
647.67	21.072
648.00	23.370
648.33	22.881
648.66	22.371
648.98	21.739
649.31	23.006
649.64	21.753
649.96	24.013
650.29	21.569
650.62	21.582
650.94	22.586
651.27	24.382
651.60	22.028
651.92	22.043
652.25	23.618
652.58	23.762
652.90	22.222
653.23	19.864
653.56	23.306
653.88	19.113
654.21	20.478
654.54	22.259
654.86	21.138
655.19	21.709
655.52	22.695
655.84	20.873
656.17	24.981
656.49	33.021
656.82	32.170
657.15	24.049
657.47	17.697
657.80	13.346
658.13	14.066
658.45	20.398
658.78	20.289
659.10	19.739
659.43	19.963
659.75	20.147
660.08	19.310
660.41	18.357
660.73	21.488
661.06	21.769
661.38	19.186
661.71	24.590
662.03	20.085
662.36	17.920
662.68	22.151
663.01	23.941
663.33	20.950
663.66	18.847
663.98	23.371
664.31	18.901
664.63	17.793
664.96	22.976
665.28	22.747
665.61	19.654
665.93	20.771
666.26	23.629
666.58	21.199
666.91	22.646
667.23	22.350
667.56	19.310
667.88	20.561
668.21	20.313
668.53	23.448
668.86	22.062
669.18	20.095
669.50	20.507
669.83	22.434
670.15	19.286
670.48	22.989
670.80	23.632
671.13	21.739
671.45	22.831
671.77	21.767
672.10	18.519
672.42	20.611
672.75	20.000
673.07	21.273
673.39	18.657
673.72	17.764
674.04	22.541
674.37	21.545
674.69	17.901
675.01	22.650
675.34	22.976
675.66	21.786
675.98	20.354
676.31	19.910
676.63	21.542
676.95	19.765
677.28	19.037
677.60	19.363
677.92	22.616
678.25	21.258
678.57	21.792
678.89	17.910
679.22	20.704
679.54	18.367
679.86	21.289
680.18	21.731
680.51	18.077
680.83	19.298
681.15	20.629
681.48	21.443
681.80	21.063
682.12	18.542
682.44	21.127
682.77	16.211
683.09	21.652
683.41	17.907
683.73	17.188
684.06	22.124
684.38	18.803
684.70	17.923
685.02	21.074
685.34	19.765
685.67	21.013
685.99	19.395
686.31	20.172
686.63	19.118
686.96	20.594
687.28	20.359
687.60	21.550
687.92	18.093
688.24	19.600
688.56	20.833
688.89	18.486
689.21	19.731
689.53	18.694
689.85	20.674
690.17	18.462
690.49	16.425
690.82	20.048
691.14	19.565
691.46	17.633
691.78	19.121
692.10	20.807
692.42	17.363
692.74	20.000
693.06	16.854
693.39	18.735
693.71	20.222
694.03	21.136
694.35	21.171
694.67	19.000
694.99	21.134
695.31	20.413
695.63	22.927
695.95	17.557
696.27	17.534
696.59	20.161
696.91	19.832
697.23	18.528
697.56	20.384
697.88	21.830
698.20	20.518
698.52	17.056
698.84	17.464
699.16	19.149
699.48	18.519
699.80	20.413
700.12	19.303
700.44	17.465
700.76	20.787
701.08	17.523
701.40	19.760
701.72	18.462
702.04	18.868
702.36	16.768
702.68	16.159
703.00	17.836
703.32	15.877
703.64	19.277
703.96	17.889
704.28	17.771
704.60	17.683
704.91	17.555
705.23	17.722
705.55	17.241
705.87	22.535
706.19	15.385
706.51	11.972
706.83	15.924
707.15	18.902
707.47	22.039
707.79	16.751
708.11	17.481
708.43	20.305
708.74	18.883
709.06	18.182
709.38	21.902
709.70	16.216
710.02	23.988
710.34	15.667
710.66	16.612
710.98	15.789
711.29	19.805
711.61	17.419
711.93	17.097
712.25	15.385
712.57	15.088
712.89	18.315
713.20	16.667
713.52	18.248
713.84	16.129
714.16	17.152
714.48	12.342
714.80	15.974
715.11	20.930
715.43	18.323
715.75	19.876
716.07	16.867
716.39	18.855
716.70	21.583
717.02	12.941
717.34	20.076
717.66	19.828
717.97	9.127
718.29	20.079
718.61	12.876
718.93	15.116
719.24	15.498
719.56	14.232
719.88	14.552
720.20	19.763
720.51	16.797
720.83	18.288
721.15	13.008
721.46	15.267
721.78	14.741
722.10	15.936
722.42	12.903
722.73	19.305
723.05	23.673
723.37	15.546
723.68	16.000
724.00	13.617
724.32	16.736
724.63	23.457
724.95	18.376
725.27	17.722
725.58	16.049
725.90	18.828
726.22	14.130
726.53	13.725
726.85	14.234
727.16	18.148
727.48	15.709
727.80	17.578
728.11	16.803
728.43	14.453
728.74	15.476
729.06	10.400
729.38	16.601
729.69	17.082
730.01	12.268
730.32	17.712
730.64	14.773
730.96	22.727
731.27	14.381
731.59	13.968
731.90	17.152
732.22	14.103
732.53	13.176
732.85	13.758
733.16	18.152
733.48	16.554
733.80	17.905
734.11	19.257
734.43	15.480
734.74	19.820
735.06	14.986
735.37	18.541
735.69	16.828
736.00	12.541
736.32	14.894
736.63	13.793
736.95	16.781
737.26	15.172
737.58	15.972
737.89	15.808
738.21	17.438
738.52	17.490
738.83	17.143
739.15	18.143
739.46	12.451
739.78	15.141
740.09	14.384
740.41	9.643
740.72	14.894
741.04	10.000
741.35	14.912
741.66	14.222
741.98	11.058
742.29	23.267
742.61	15.122
742.92	20.175
743.23	12.264
743.55	16.667
743.86	9.417
744.18	19.118
744.49	14.213
744.80	14.796
745.12	14.486
745.43	16.114
745.74	14.414
746.06	13.084
746.37	11.468
746.68	13.462
747.00	14.354
747.31	18.269
747.62	13.761
747.94	16.157
748.25	15.138
748.56	17.333
748.88	20.657
749.19	14.762
749.50	16.990
749.82	13.615
750.13	10.000
750.44	15.385
750.75	13.284
751.07	16.370
751.38	19.504
751.69	16.216
752.01	15.234
752.32	11.538
752.63	15.672
752.94	17.200
753.26	18.410
753.57	17.500
753.88	17.409
754.19	14.343
754.51	15.038
754.82	9.158
755.13	9.130
755.44	15.041
755.75	15.600
756.07	16.236
756.38	14.748
756.69	15.017
757.00	17.134
757.31	13.592
757.63	12.963
757.94	14.407
758.25	16.138
758.56	13.859
758.87	17.262
759.18	18.297
759.50	14.141
759.81	16.054
760.12	14.462
760.43	15.774
760.74	13.842
761.05	16.022
761.36	12.034
761.67	14.502
761.99	10.309
762.30	14.599
762.61	13.580
762.92	18.376
763.23	18.033
763.54	19.048
763.85	11.020
764.16	3.659
764.47	14.800
764.78	12.857
765.10	13.115
765.41	12.766
765.72	14.286
766.03	15.512
766.34	15.385
766.65	10.879
766.96	10.798
767.27	12.871
767.58	2.247
767.89	14.198
768.20	16.575
768.51	15.578
768.82	13.942
769.13	12.832
769.44	20.502
769.75	9.829
770.06	17.040
770.37	10.294
770.68	15.534
770.99	11.165
771.30	17.647
771.61	15.510
771.92	17.012
772.23	13.964
772.54	3.867
772.85	11.628
773.16	19.577
773.47	7.101
773.78	16.667
774.09	17.500
774.39	6.832
774.70	12.925
775.01	6.897
775.32	10.714
775.63	9.774
775.94	11.278
776.25	4.000
776.56	8.264
776.87	13.492
777.18	4.505
777.48	11.712
777.79	5.512
778.10	15.596
778.41	9.649
778.72	12.605
779.03	11.972
779.34	16.216
779.65	11.268
779.95	13.245
780.26	7.914
780.57	13.669
780.88	7.042
781.19	5.042
781.50	14.765
781.80	10.526
782.11	11.047
782.42	15.723
782.73	14.379
783.04	9.655
783.34	13.740
783.65	12.081
783.96	6.923
784.27	22.143
784.57	17.021
784.88	2.885
785.19	21.818
785.50	14.545
785.81	6.667
786.11	22.689
786.42	15.929
786.73	5.660
787.04	0.000
787.34	-1.980
787.65	17.500
787.96	2.479
788.26	13.043
788.57	1.587
788.88	13.008
789.19	0.000
789.49	6.870
789.80	17.424
790.11	8.491
790.41	14.851
790.72	8.511
791.03	4.348
791.33	-3.529
791.64	9.877
791.95	7.609
792.25	4.545
792.56	12.821
792.87	-8.974
793.17	-16.667
793.48	-8.333
793.79	3.750
794.09	14.423
794.40	16.667
794.70	6.306
795.01	7.813
795.32	12.174
795.62	-3.261
795.93	6.604
796.23	15.152
796.54	1.220
796.85	-2.381
797.15	-4.545
797.46	2.899
797.76	10.526
798.07	4.545
798.37	7.317
798.68	-9.677
798.99	-8.108
799.29	19.277
799.60	14.103
799.90	9.231
800.21	16.667
800.51	2.667
800.82	8.000
801.12	-43.750
801.43	-25.000
801.73	9.459
802.04	12.857
802.34	0.000
802.65	1.493
802.95	9.091
803.26	3.448
803.56	12.308
803.87	13.208
804.17	-6.452
804.48	0.000
804.78	-9.756
805.09	5.797
805.39	-7.353
805.70	-31.915
806.00	1.754
806.30	16.667
806.61	11.842
806.91	-13.514
807.22	-6.579
807.52	9.091
807.83	-11.864
808.13	-21.212
808.43	-1.667
808.74	-22.414
809.04	-6.349
809.35	-18.367
809.65	-5.000
809.95	-24.490
810.26	15.493
810.56	-22.917
810.86	-8.163
811.17	13.462
811.47	-17.021
811.77	-4.167
812.08	-18.868
812.38	-56.250
812.69	7.273
812.99	-4.878
813.29	-29.730
813.59	-21.622
813.90	0.000
814.20	-20.000
814.50	-16.667
814.81	-20.000
815.11	-15.789
815.41	30.233
815.72	-20.000
816.02	0.000
816.32	-45.946
816.62	16.667
816.93	-13.333
817.23	-6.667
817.53	-47.222
817.84	-18.919
818.14	2.439
818.44	8.000
818.74	-10.204
819.04	12.195
819.35	-38.889
819.65	6.818
819.95	-83.333
820.25	-12.121
820.56	-21.429
820.86	-16.667
821.16	-22.727
821.46	6.522
821.76	-13.793
822.07	-4.348
822.37	-6.061
822.67	24.390
822.97	-10.811
823.27	-22.857
823.57	0.000
823.88	-2.941
824.18	-5.556
824.48	-11.429
824.78	-47.619
825.08	-7.143
825.38	-44.444
825.69	0.000
825.99	-9.756
826.29	-51.852
826.59	-25.000
826.89	0.000
827.19	-17.391
827.49	-30.556
827.79	-56.522
828.09	-12.903
828.39	-16.667
828.70	-62.500
829.00	-13.793
829.30	8.108
829.60	-62.500
829.90	-37.037
830.20	-28.125
830.50	27.273
830.80	-82.353
831.10	-59.091
831.40	-20.588
831.70	-3.846
832.00	0.000
832.30	-20.588
832.60	-2.703
832.90	600.000
833.20	3.571
833.50	-65.000
833.80	-5.263
834.10	-70.833
834.40	-59.091
834.70	-120.000
835.00	-140.000
835.30	-29.167
835.60	-76.190
835.90	-33.333
836.20	-44.000
836.50	-62.500
836.80	-36.842
837.10	8.108
837.40	20.000
837.70	-43.478
838.00	0.000
838.30	-10.526
838.60	-190.000
838.90	-250.000
839.19	-166.667
839.49	0.000
839.79	-47.368
840.09	-283.333
840.39	-40.000
840.69	-40.909
840.99	-38.095
841.29	-79.167
841.59	-100.000
841.88	-106.667
842.18	-42.857
842.48	-3.333
842.78	-271.429
843.08	-92.857
843.38	-262.500
843.68	-143.750
843.97	-21.429
844.27	-266.667
844.57	-27.273
844.87	-73.333
845.17	4.545
845.47	666.667
845.76	-120.000
846.06	-150.000
846.36	-1100.000
846.66	-63.158
846.96	-13.636
847.25	-22.222
847.55	-77.778
847.85	-52.381
848.15	-69.231
848.44	-316.667
848.74	-141.667
849.04	-92.308
849.34	-275.000
849.63	-163.636
849.93	-207.143
850.23	-10.000
850.53	-75.000
850.82	-16.667
851.12	-6.667
851.42	-88.235
851.71	-125.000
852.01	5.882
852.31	-69.231
852.61	200.000
852.90	-17.647
853.20	-60.000
853.50	-18.750
853.79	-107.143
854.09	-450.000
854.39	-95.000
854.68	-30.000
854.98	-47.619
855.28	-40.000
855.57	8.333
855.87	-16.667
856.17	-28.000
856.46	-9.375
856.76	-15.000
857.05	24.000
857.35	-141.667
857.65	-82.353
857.94	-75.000
858.24	-58.333
858.53	0.000
858.83	-118.182
859.13	-12.000
859.42	-64.286
859.72	-100.000
860.01	-16.667
860.31	-150.000
860.60	-87.500
860.90	-200.000
861.20	-266.667
861.49	-33.333
861.79	-68.750
862.08	125.000
862.38	-116.667
862.67	271.429
862.97	425.000
863.26	-81.818
863.56	-63.636
863.85	-36.842
864.15	-41.176
864.44	-460.000
864.74	-40.000
865.03	-222.222
865.33	14.286
865.62	114.286
865.92	-10.526
866.21	-72.222
866.51	-63.636
866.80	-66.667
867.10	-200.000
867.39	-56.250
867.69	-60.000
867.98	-110.000
868.27	-76.471
868.57	0.000
868.86	250.000
869.16	-225.000
869.45	-157.143
869.75	400.000
870.04	-70.000
870.33	-1800.000
870.63	-42.105
870.92	-33.333
871.22	-1300.000
871.51	-285.714
871.80	-144.444
872.10	-250.000
>>>>>End Processed Spectral Data<<<<<
