SpectraSuite Data File
++++++++++++++++++++++++++++++++++++
Date: Wed May 13 21:51:56 PDT 2015
User: schluterlab
Dark Spectrum Present: Yes
Reference Spectrum Present: Yes
Number of Sampled Component Spectra: 1
Spectrometers: USB2E3373
Integration Time (usec): 3000 (USB2E3373)
Spectra Averaged: 3 (USB2E3373)
Boxcar Smoothing: 0 (USB2E3373)
Correct for Electrical Dark: No (USB2E3373)
Strobe/Lamp Enabled: No (USB2E3373)
Correct for Detector Non-linearity: No (USB2E3373)
Correct for Stray Light: No (USB2E3373)
Number of Pixels in Processed Spectrum: 2048
>>>>>Begin Processed Spectral Data<<<<<
178.53	0.000
178.91	900.000
179.29	275.000
179.67	-1050.000
180.04	-500.000
180.42	360.000
180.80	1400.000
181.18	383.333
181.56	-500.000
181.94	-175.000
182.31	-63.636
182.69	123.077
183.07	-240.000
183.45	266.667
183.83	188.889
184.20	71.429
184.58	-100.000
184.96	500.000
185.34	185.714
185.72	0.000
186.09	-1100.000
186.47	-200.000
186.85	180.000
187.23	-200.000
187.61	850.000
187.98	2200.000
188.36	-25.000
188.74	0.000
189.12	9.091
189.49	40.000
189.87	166.667
190.25	380.000
190.63	2500.000
191.00	-180.000
191.38	260.000
191.76	250.000
192.14	133.333
192.51	-63.158
192.89	633.333
193.27	425.000
193.65	-440.000
194.02	227.273
194.40	190.000
194.78	-200.000
195.15	280.000
195.53	-200.000
195.91	37.500
196.29	166.667
196.66	0.000
197.04	850.000
197.42	140.000
197.79	-140.000
198.17	-137.500
198.55	33.333
198.92	400.000
199.30	-400.000
199.68	-70.000
200.05	650.000
200.43	400.000
200.81	-1500.000
201.18	-280.000
201.56	-150.000
201.94	625.000
202.31	-17.391
202.69	-200.000
203.07	-400.000
203.44	-240.000
203.82	-200.000
204.19	-80.000
204.57	0.000
204.95	-100.000
205.32	0.000
205.70	-300.000
206.08	-475.000
206.45	-266.667
206.83	275.000
207.20	-300.000
207.58	-180.000
207.96	-2300.000
208.33	-271.429
208.71	-1000.000
209.08	175.000
209.46	625.000
209.84	0.000
210.21	180.000
210.59	2100.000
210.96	260.000
211.34	1500.000
211.71	-450.000
212.09	-116.667
212.46	-150.000
212.84	-66.667
213.22	-250.000
213.59	-1400.000
213.97	-500.000
214.34	-650.000
214.72	-76.923
215.09	300.000
215.47	200.000
215.84	550.000
216.22	-12.500
216.59	-650.000
216.97	500.000
217.34	133.333
217.72	0.000
218.09	200.000
218.47	-500.000
218.84	-228.571
219.22	-187.500
219.59	-400.000
219.97	-400.000
220.34	-112.500
220.72	-240.000
221.09	0.000
221.47	-216.667
221.84	-1100.000
222.22	0.000
222.59	300.000
222.97	-266.667
223.34	-100.000
223.72	-1500.000
224.09	-650.000
224.46	-100.000
224.84	-75.000
225.21	-100.000
225.59	-300.000
225.96	-250.000
226.34	-50.000
226.71	-285.714
227.08	900.000
227.46	-150.000
227.83	-500.000
228.21	-6.250
228.58	-225.000
228.95	-23.529
229.33	0.000
229.70	-25.000
230.08	23.077
230.45	-175.000
230.82	-91.667
231.20	128.571
231.57	-350.000
231.95	1000.000
232.32	83.333
232.69	-11.765
233.07	-1500.000
233.44	-34.783
233.81	-550.000
234.19	12.500
234.56	-60.000
234.93	-20.000
235.31	47.368
235.68	-61.538
236.05	76.923
236.43	38.889
236.80	21.212
237.17	-46.667
237.55	-58.824
237.92	-6.897
238.29	-11.111
238.67	-2.778
239.04	-9.677
239.41	21.277
239.79	27.660
240.16	9.302
240.53	35.714
240.91	19.643
241.28	25.000
241.65	38.710
242.02	14.474
242.40	50.725
242.77	27.536
243.14	41.026
243.51	35.106
243.89	31.731
244.26	44.340
244.63	32.692
245.00	38.542
245.38	37.815
245.75	36.885
246.12	32.331
246.49	28.455
246.87	34.454
247.24	44.595
247.61	37.086
247.98	34.615
248.36	34.320
248.73	42.697
249.10	35.354
249.47	43.011
249.84	42.105
250.22	39.801
250.59	42.056
250.96	38.636
251.33	37.321
251.70	43.515
252.08	37.238
252.45	44.444
252.82	37.643
253.19	40.078
253.56	37.050
253.94	35.231
254.31	41.901
254.68	42.282
255.05	38.944
255.42	40.909
255.79	43.252
256.16	40.063
256.54	44.444
256.91	41.772
257.28	44.025
257.65	41.720
258.02	42.229
258.39	45.322
258.76	42.733
259.14	43.182
259.51	39.607
259.88	42.547
260.25	43.333
260.62	43.258
260.99	41.114
261.36	40.674
261.73	42.716
262.10	40.967
262.47	40.000
262.85	39.801
263.22	43.077
263.59	44.156
263.96	38.200
264.33	40.625
264.70	42.791
265.07	39.815
265.44	42.529
265.81	43.021
266.18	44.191
266.55	41.485
266.92	41.102
267.29	39.712
267.66	40.764
268.03	43.827
268.40	41.102
268.77	39.669
269.14	41.429
269.51	45.791
269.88	38.086
270.25	42.373
270.62	40.369
270.99	40.551
271.36	43.452
271.73	40.161
272.10	43.238
272.47	42.418
272.84	41.535
273.21	42.270
273.58	42.623
273.95	40.189
274.32	42.910
274.69	40.619
275.06	42.933
275.43	42.938
275.80	39.894
276.17	41.989
276.54	40.320
276.91	39.895
277.28	38.989
277.65	42.832
278.02	43.929
278.39	38.899
278.76	42.475
279.13	40.995
279.50	40.000
279.87	39.493
280.23	40.541
280.60	40.311
280.97	39.773
281.34	41.483
281.71	38.862
282.08	41.368
282.45	39.344
282.82	41.374
283.19	40.244
283.56	39.687
283.92	38.685
284.29	39.470
284.66	41.351
285.03	38.925
285.40	34.743
285.77	39.790
286.14	38.754
286.51	41.679
286.87	38.923
287.24	38.348
287.61	39.608
287.98	37.059
288.35	38.152
288.72	37.590
289.08	39.601
289.45	36.711
289.82	39.637
290.19	37.167
290.56	36.080
290.93	36.878
291.29	37.209
291.66	35.109
292.03	35.695
292.40	36.474
292.77	35.877
293.13	37.238
293.50	34.248
293.87	36.400
294.24	34.788
294.60	32.900
294.97	35.053
295.34	33.641
295.71	33.640
296.08	32.199
296.44	32.526
296.81	32.765
297.18	33.750
297.55	32.665
297.91	32.174
298.28	34.383
298.65	32.020
299.02	32.845
299.38	30.798
299.75	31.010
300.12	31.279
300.48	30.058
300.85	32.102
301.22	31.243
301.59	31.338
301.95	31.010
302.32	31.505
302.69	30.169
303.05	29.679
303.42	30.227
303.79	31.125
304.15	31.325
304.52	31.398
304.89	31.340
305.25	30.077
305.62	30.369
305.99	31.338
306.35	31.661
306.72	29.400
307.09	31.178
307.45	32.694
307.82	29.368
308.19	28.109
308.55	29.887
308.92	30.648
309.29	29.730
309.65	30.070
310.02	29.324
310.38	31.199
310.75	29.586
311.12	29.738
311.48	29.278
311.85	30.709
312.22	28.917
312.58	29.372
312.95	29.950
313.31	29.936
313.68	29.962
314.05	30.340
314.41	30.451
314.78	29.981
315.14	29.074
315.51	28.735
315.87	29.935
316.24	28.926
316.61	30.411
316.97	29.722
317.34	29.234
317.70	29.973
318.07	30.435
318.43	29.449
318.80	29.843
319.16	29.001
319.53	29.122
319.89	29.359
320.26	29.760
320.62	30.213
320.99	30.233
321.35	29.186
321.72	29.836
322.08	30.166
322.45	30.250
322.81	30.222
323.18	28.265
323.54	28.610
323.91	31.527
324.27	30.513
324.64	29.617
325.00	30.796
325.37	31.911
325.73	29.798
326.10	30.278
326.46	30.017
326.83	29.288
327.19	30.650
327.56	30.862
327.92	29.525
328.29	31.469
328.65	30.500
329.01	28.408
329.38	31.391
329.74	29.614
330.11	30.117
330.47	29.080
330.84	30.505
331.20	28.779
331.56	29.167
331.93	30.577
332.29	28.584
332.66	28.814
333.02	30.235
333.38	30.000
333.75	30.461
334.11	31.424
334.48	29.643
334.84	29.329
335.20	29.331
335.57	27.589
335.93	28.608
336.29	30.123
336.66	27.949
337.02	27.913
337.38	29.243
337.75	28.338
338.11	28.779
338.47	28.767
338.84	28.694
339.20	29.189
339.56	29.266
339.93	28.090
340.29	28.950
340.65	27.887
341.02	28.203
341.38	28.041
341.74	28.403
342.11	27.002
342.47	28.033
342.83	27.451
343.20	29.865
343.56	29.109
343.92	27.539
344.28	28.490
344.65	27.592
345.01	28.087
345.37	28.618
345.73	29.167
346.10	28.411
346.46	26.748
346.82	27.849
347.19	26.820
347.55	28.998
347.91	26.345
348.27	27.524
348.63	26.683
349.00	27.201
349.36	28.336
349.72	27.610
350.08	27.613
350.45	27.095
350.81	26.995
351.17	28.176
351.53	27.730
351.89	26.291
352.26	26.100
352.62	27.674
352.98	25.719
353.34	26.087
353.70	26.324
354.07	27.608
354.43	26.516
354.79	27.003
355.15	25.776
355.51	26.576
355.87	26.505
356.24	26.164
356.60	26.583
356.96	27.782
357.32	27.632
357.68	27.273
358.04	27.851
358.40	26.589
358.77	26.223
359.13	26.226
359.49	25.587
359.85	26.308
360.21	27.217
360.57	26.312
360.93	26.859
361.29	27.165
361.66	26.500
362.02	26.612
362.38	26.736
362.74	26.178
363.10	27.693
363.46	25.793
363.82	26.164
364.18	26.251
364.54	26.550
364.90	25.854
365.26	24.982
365.62	25.994
365.98	26.619
366.35	26.099
366.71	25.107
367.07	26.435
367.43	26.202
367.79	27.589
368.15	26.020
368.51	25.738
368.87	27.006
369.23	26.477
369.59	25.793
369.95	25.689
370.31	25.593
370.67	25.778
371.03	26.875
371.39	25.976
371.75	25.786
372.11	24.786
372.47	26.027
372.83	25.381
373.19	25.827
373.55	25.072
373.91	25.318
374.27	25.311
374.63	25.605
374.99	26.184
375.35	25.479
375.71	25.340
376.07	25.703
376.42	25.134
376.78	25.892
377.14	25.559
377.50	25.359
377.86	26.029
378.22	24.526
378.58	24.779
378.94	26.188
379.30	25.796
379.66	25.339
380.02	25.490
380.38	24.699
380.74	26.539
381.09	25.935
381.45	25.574
381.81	25.385
382.17	25.457
382.53	25.600
382.89	24.487
383.25	25.802
383.61	25.605
383.97	25.562
384.32	24.827
384.68	25.170
385.04	24.068
385.40	25.841
385.76	25.547
386.12	25.048
386.48	24.953
386.83	25.657
387.19	25.416
387.55	25.383
387.91	24.969
388.27	25.092
388.62	24.657
388.98	25.657
389.34	24.937
389.70	24.725
390.06	24.750
390.42	24.678
390.77	25.561
391.13	25.442
391.49	25.870
391.85	24.665
392.20	24.561
392.56	25.016
392.92	24.868
393.28	24.637
393.64	24.954
393.99	23.990
394.35	23.765
394.71	25.385
395.07	23.459
395.42	24.863
395.78	24.389
396.14	25.618
396.50	24.667
396.85	24.410
397.21	23.783
397.57	23.416
397.92	24.311
398.28	24.647
398.64	24.226
399.00	24.609
399.35	24.007
399.71	25.218
400.07	24.036
400.42	23.950
400.78	23.807
401.14	23.666
401.49	24.925
401.85	24.263
402.21	24.644
402.57	24.954
402.92	24.906
403.28	24.265
403.63	24.489
403.99	24.568
404.35	24.127
404.70	23.927
405.06	24.897
405.42	24.183
405.77	24.021
406.13	24.000
406.49	24.206
406.84	24.359
407.20	24.689
407.55	24.156
407.91	23.362
408.27	23.144
408.62	24.555
408.98	23.921
409.34	24.257
409.69	24.561
410.05	24.129
410.40	23.615
410.76	24.308
411.11	23.445
411.47	23.756
411.83	22.895
412.18	23.929
412.54	22.870
412.89	23.197
413.25	22.950
413.60	23.699
413.96	22.784
414.31	23.674
414.67	24.063
415.03	23.816
415.38	22.721
415.74	22.742
416.09	23.397
416.45	23.855
416.80	23.221
417.16	24.561
417.51	23.510
417.87	23.479
418.22	23.465
418.58	23.390
418.93	23.415
419.29	24.092
419.64	22.646
420.00	24.127
420.35	24.088
420.71	23.400
421.06	23.678
421.42	24.209
421.77	23.873
422.12	23.725
422.48	23.446
422.83	23.568
423.19	23.922
423.54	23.616
423.90	23.575
424.25	23.281
424.61	23.352
424.96	23.241
425.31	22.939
425.67	23.986
426.02	23.793
426.38	24.129
426.73	22.969
427.09	23.265
427.44	23.899
427.79	23.337
428.15	23.119
428.50	22.175
428.85	23.555
429.21	22.904
429.56	24.070
429.92	23.686
430.27	24.080
430.62	23.505
430.98	23.533
431.33	23.428
431.68	23.376
432.04	23.099
432.39	23.037
432.74	22.685
433.10	23.359
433.45	23.314
433.80	23.448
434.16	23.539
434.51	22.989
434.86	23.498
435.22	23.316
435.57	22.482
435.92	22.738
436.28	23.063
436.63	23.152
436.98	23.325
437.34	23.321
437.69	22.609
438.04	22.298
438.39	23.350
438.75	21.990
439.10	22.961
439.45	23.487
439.81	24.261
440.16	23.536
440.51	22.533
440.86	23.237
441.22	23.064
441.57	23.048
441.92	22.758
442.27	23.268
442.63	23.036
442.98	22.685
443.33	23.138
443.68	23.405
444.03	23.398
444.39	22.905
444.74	23.192
445.09	23.238
445.44	23.155
445.79	23.129
446.15	23.461
446.50	23.238
446.85	23.036
447.20	23.262
447.55	22.440
447.91	22.697
448.26	22.584
448.61	23.015
448.96	22.437
449.31	22.730
449.66	23.193
450.02	22.342
450.37	22.855
450.72	22.790
451.07	23.135
451.42	21.335
451.77	22.520
452.12	22.757
452.47	22.983
452.83	22.465
453.18	23.425
453.53	22.005
453.88	22.470
454.23	23.177
454.58	22.733
454.93	22.643
455.28	21.965
455.63	22.583
455.98	21.242
456.34	21.996
456.69	21.278
457.04	22.539
457.39	21.828
457.74	21.903
458.09	22.690
458.44	22.327
458.79	23.284
459.14	21.854
459.49	21.951
459.84	21.251
460.19	22.029
460.54	23.175
460.89	21.959
461.24	22.750
461.59	22.766
461.94	22.756
462.29	22.426
462.64	21.834
462.99	22.066
463.34	21.616
463.69	21.907
464.04	21.128
464.39	21.660
464.74	21.683
465.09	22.691
465.44	23.064
465.79	23.404
466.14	22.349
466.49	21.935
466.84	21.339
467.19	21.338
467.54	22.165
467.89	22.439
468.24	21.573
468.59	22.435
468.94	21.009
469.29	21.877
469.64	22.455
469.99	22.138
470.34	22.117
470.68	21.041
471.03	21.862
471.38	20.862
471.73	21.742
472.08	21.718
472.43	21.042
472.78	21.839
473.13	20.778
473.48	21.265
473.83	22.097
474.17	21.094
474.52	21.553
474.87	20.808
475.22	21.498
475.57	21.695
475.92	21.592
476.27	22.086
476.61	21.291
476.96	21.416
477.31	21.197
477.66	22.373
478.01	20.989
478.36	20.763
478.70	21.751
479.05	22.031
479.40	21.217
479.75	21.520
480.10	21.112
480.45	20.696
480.79	22.250
481.14	21.530
481.49	22.595
481.84	21.065
482.19	21.399
482.53	21.952
482.88	21.429
483.23	20.741
483.58	21.786
483.92	21.644
484.27	20.952
484.62	20.595
484.97	22.148
485.31	22.083
485.66	22.644
486.01	23.947
486.36	24.054
486.70	24.055
487.05	23.978
487.40	22.832
487.75	22.653
488.09	22.459
488.44	21.661
488.79	22.142
489.13	21.034
489.48	20.949
489.83	20.947
490.17	20.744
490.52	21.131
490.87	20.352
491.22	21.196
491.56	21.466
491.91	20.595
492.26	20.793
492.60	20.298
492.95	20.943
493.30	20.107
493.64	20.432
493.99	20.435
494.34	20.376
494.68	21.337
495.03	19.960
495.37	21.265
495.72	21.003
496.07	20.507
496.41	20.870
496.76	20.750
497.11	21.033
497.45	20.720
497.80	21.201
498.14	21.209
498.49	19.970
498.84	20.243
499.18	20.259
499.53	20.384
499.87	20.087
500.22	21.005
500.56	20.461
500.91	20.624
501.26	21.478
501.60	20.196
501.95	20.556
502.29	20.534
502.64	20.781
502.98	20.472
503.33	20.730
503.67	20.399
504.02	19.853
504.36	20.158
504.71	20.783
505.06	20.479
505.40	20.361
505.75	20.346
506.09	20.439
506.44	20.212
506.78	20.112
507.13	19.751
507.47	20.042
507.82	19.990
508.16	20.475
508.51	19.421
508.85	19.285
509.19	19.418
509.54	19.357
509.88	19.301
510.23	19.526
510.57	20.922
510.92	20.744
511.26	20.077
511.61	19.429
511.95	19.129
512.30	20.655
512.64	20.091
512.98	19.335
513.33	19.887
513.67	19.421
514.02	19.099
514.36	19.888
514.70	18.938
515.05	19.661
515.39	19.281
515.74	19.124
516.08	19.233
516.42	19.816
516.77	18.864
517.11	19.165
517.46	19.868
517.80	20.097
518.14	18.861
518.49	18.746
518.83	19.212
519.17	19.337
519.52	18.335
519.86	19.672
520.20	19.224
520.55	18.284
520.89	18.406
521.23	18.590
521.58	17.952
521.92	18.228
522.26	18.543
522.61	19.457
522.95	19.560
523.29	18.984
523.64	18.563
523.98	18.361
524.32	18.399
524.66	17.597
525.01	18.873
525.35	19.552
525.69	18.091
526.04	18.306
526.38	19.758
526.72	19.198
527.06	17.602
527.41	19.060
527.75	18.692
528.09	19.061
528.43	19.878
528.78	18.282
529.12	19.664
529.46	18.426
529.80	19.547
530.15	18.468
530.49	19.340
530.83	19.634
531.17	18.836
531.51	18.274
531.86	18.360
532.20	17.574
532.54	18.276
532.88	18.448
533.22	19.125
533.57	19.139
533.91	20.129
534.25	18.880
534.59	18.468
534.93	19.707
535.27	18.662
535.62	18.684
535.96	20.039
536.30	19.282
536.64	18.387
536.98	18.711
537.32	18.007
537.66	17.913
538.01	19.209
538.35	17.956
538.69	18.662
539.03	19.463
539.37	18.444
539.71	18.895
540.05	19.231
540.39	18.858
540.73	18.575
541.07	18.980
541.42	19.731
541.76	19.215
542.10	18.687
542.44	18.850
542.78	19.431
543.12	17.925
543.46	18.728
543.80	18.805
544.14	19.133
544.48	19.111
544.82	19.032
545.16	19.202
545.50	19.311
545.84	19.495
546.18	18.093
546.52	18.419
546.86	18.304
547.20	17.941
547.54	18.442
547.88	20.985
548.22	18.697
548.56	18.679
548.90	18.268
549.24	18.958
549.58	17.794
549.92	19.369
550.26	20.000
550.60	18.093
550.94	18.507
551.28	18.395
551.62	18.045
551.96	19.400
552.30	18.122
552.64	18.997
552.98	20.099
553.32	19.394
553.66	19.222
554.00	20.014
554.34	17.949
554.68	19.389
555.02	18.263
555.36	18.986
555.69	17.771
556.03	18.227
556.37	18.990
556.71	17.519
557.05	18.450
557.39	17.634
557.73	18.533
558.07	18.463
558.41	17.941
558.75	18.322
559.08	16.038
559.42	18.411
559.76	18.272
560.10	18.294
560.44	18.865
560.78	17.986
561.12	19.481
561.45	18.571
561.79	19.464
562.13	19.058
562.47	19.429
562.81	18.326
563.15	18.768
563.48	19.064
563.82	18.605
564.16	19.228
564.50	19.267
564.84	19.189
565.17	20.000
565.51	18.650
565.85	18.787
566.19	18.675
566.52	18.938
566.86	19.406
567.20	20.586
567.54	18.595
567.88	19.989
568.21	19.663
568.55	20.136
568.89	20.688
569.23	20.898
569.56	21.235
569.90	21.856
570.24	21.625
570.57	22.108
570.91	21.971
571.25	21.083
571.59	22.189
571.92	22.734
572.26	22.245
572.60	22.174
572.93	22.462
573.27	21.804
573.61	23.035
573.95	22.739
574.28	22.841
574.62	22.291
574.96	23.179
575.29	22.192
575.63	22.734
575.97	23.098
576.30	22.026
576.64	22.898
576.98	22.603
577.31	22.812
577.65	23.040
577.98	23.071
578.32	23.089
578.66	22.720
578.99	23.122
579.33	22.739
579.67	22.429
580.00	22.186
580.34	22.201
580.67	22.832
581.01	22.761
581.35	23.669
581.68	23.718
582.02	23.063
582.35	23.484
582.69	23.768
583.02	23.012
583.36	22.662
583.70	22.633
584.03	21.920
584.37	21.995
584.70	22.823
585.04	23.077
585.37	22.746
585.71	23.107
586.04	23.083
586.38	22.363
586.72	22.478
587.05	22.758
587.39	22.943
587.72	22.606
588.06	22.271
588.39	23.034
588.73	21.631
589.06	21.823
589.40	21.706
589.73	21.128
590.07	21.400
590.40	21.583
590.73	20.908
591.07	21.730
591.40	21.130
591.74	21.699
592.07	21.360
592.41	22.222
592.74	21.759
593.08	21.915
593.41	22.961
593.75	22.061
594.08	22.556
594.41	21.426
594.75	21.702
595.08	22.255
595.42	21.940
595.75	21.403
596.09	22.017
596.42	21.242
596.75	21.281
597.09	21.975
597.42	21.624
597.75	21.822
598.09	21.539
598.42	21.477
598.76	21.159
599.09	22.689
599.42	22.168
599.76	22.418
600.09	21.800
600.42	21.996
600.76	21.914
601.09	22.034
601.42	21.717
601.76	21.583
602.09	22.092
602.42	21.667
602.76	21.309
603.09	21.930
603.42	22.271
603.76	21.239
604.09	22.332
604.42	21.515
604.76	21.388
605.09	21.658
605.42	22.087
605.75	21.585
606.09	21.109
606.42	20.989
606.75	20.996
607.09	21.676
607.42	21.235
607.75	20.875
608.08	21.821
608.42	21.556
608.75	21.452
609.08	20.725
609.41	20.318
609.75	20.071
610.08	20.759
610.41	21.429
610.74	20.885
611.07	20.591
611.41	21.597
611.74	20.911
612.07	19.750
612.40	20.757
612.73	20.417
613.07	20.344
613.40	21.421
613.73	20.477
614.06	20.840
614.39	19.733
614.72	20.933
615.06	20.833
615.39	20.364
615.72	20.788
616.05	19.876
616.38	20.103
616.71	19.496
617.05	19.226
617.38	20.579
617.71	19.608
618.04	19.683
618.37	20.442
618.70	19.470
619.03	19.313
619.36	19.858
619.69	19.225
620.03	18.799
620.36	19.903
620.69	18.558
621.02	18.538
621.35	17.171
621.68	18.256
622.01	17.961
622.34	18.002
622.67	17.776
623.00	20.289
623.33	18.848
623.66	17.918
623.99	18.680
624.32	19.516
624.65	18.249
624.99	19.471
625.32	18.671
625.65	19.380
625.98	18.720
626.31	18.122
626.64	18.917
626.97	17.907
627.30	18.905
627.63	18.512
627.96	16.450
628.29	17.674
628.62	17.215
628.95	16.733
629.28	16.059
629.61	19.426
629.94	18.182
630.26	18.719
630.59	16.384
630.92	16.566
631.25	15.448
631.58	19.486
631.91	17.179
632.24	15.807
632.57	16.111
632.90	16.686
633.23	13.549
633.56	15.348
633.89	16.148
634.22	18.139
634.55	15.956
634.88	14.461
635.20	17.000
635.53	14.858
635.86	14.359
636.19	15.881
636.52	15.488
636.85	14.475
637.18	15.469
637.51	16.979
637.83	15.274
638.16	14.800
638.49	14.419
638.82	15.425
639.15	15.691
639.48	16.845
639.81	15.833
640.13	16.479
640.46	15.819
640.79	14.964
641.12	13.609
641.45	12.955
641.77	13.844
642.10	16.036
642.43	14.151
642.76	12.618
643.09	13.578
643.41	14.354
643.74	14.378
644.07	14.239
644.40	11.940
644.73	11.864
645.05	12.216
645.38	13.787
645.71	14.286
646.04	12.290
646.36	12.847
646.69	14.685
647.02	15.118
647.35	13.528
647.67	14.233
648.00	12.681
648.33	14.746
648.66	14.858
648.98	15.217
649.31	15.337
649.64	13.928
649.96	16.272
650.29	13.399
650.62	11.697
650.94	13.448
651.27	13.428
651.60	12.762
651.92	13.799
652.25	14.070
652.58	16.667
652.90	13.468
653.23	14.771
653.56	13.388
653.88	12.287
654.21	14.164
654.54	13.289
654.86	13.821
655.19	15.686
655.52	23.469
655.84	25.855
656.17	31.738
656.49	41.453
656.82	39.430
657.15	28.652
657.47	20.875
657.80	15.107
658.13	15.412
658.45	21.853
658.78	20.965
659.10	19.994
659.43	19.705
659.75	18.484
660.08	17.172
660.41	14.909
660.73	13.774
661.06	13.605
661.38	10.078
661.71	12.500
662.03	14.165
662.36	11.947
662.68	9.032
663.01	12.924
663.33	11.879
663.66	10.643
663.98	10.787
664.31	13.407
664.63	7.207
664.96	10.066
665.28	12.232
665.61	11.447
665.93	12.206
666.26	15.612
666.58	12.206
666.91	15.695
667.23	11.982
667.56	12.874
667.88	12.383
668.21	12.277
668.53	9.885
668.86	12.710
669.18	11.348
669.50	13.825
669.83	10.740
670.15	8.095
670.48	11.724
670.80	15.317
671.13	10.297
671.45	12.557
671.77	13.793
672.10	12.281
672.42	16.794
672.75	14.107
673.07	14.000
673.39	17.164
673.72	15.569
674.04	15.369
674.37	15.447
674.69	13.786
675.01	12.179
675.34	14.223
675.66	12.636
675.98	12.389
676.31	13.122
676.63	12.925
676.95	12.235
677.28	12.385
677.60	11.765
677.92	16.186
678.25	15.401
678.57	15.275
678.89	11.940
679.22	14.907
679.54	13.673
679.86	15.625
680.18	12.692
680.51	15.385
680.83	14.035
681.15	16.503
681.48	14.228
681.80	12.679
682.12	14.583
682.44	10.463
682.77	9.053
683.09	10.938
683.41	11.395
683.73	13.616
684.06	13.053
684.38	14.744
684.70	12.627
685.02	16.116
685.34	14.677
685.67	14.259
685.99	16.904
686.31	16.207
686.63	14.890
686.96	16.327
687.28	13.573
687.60	18.336
687.92	13.424
688.24	12.800
688.56	15.789
688.89	11.359
689.21	15.247
689.53	11.486
689.85	15.281
690.17	17.143
690.49	13.768
690.82	12.411
691.14	12.077
691.46	15.313
691.78	13.846
692.10	14.650
692.42	11.429
692.74	16.522
693.06	11.910
693.39	15.925
693.71	15.111
694.03	17.727
694.35	15.315
694.67	14.750
694.99	14.433
695.31	14.729
695.63	12.683
695.95	11.959
696.27	13.425
696.59	8.602
696.91	11.453
697.23	12.944
697.56	15.827
697.88	16.840
698.20	16.847
698.52	14.486
698.84	14.833
699.16	13.712
699.48	13.580
699.80	16.796
700.12	13.673
700.44	11.831
700.76	9.831
701.08	12.387
701.40	14.371
701.72	12.615
702.04	10.692
702.36	10.366
702.68	10.366
703.00	14.035
703.32	8.357
703.64	10.843
703.96	10.557
704.28	16.566
704.60	11.890
704.91	10.972
705.23	13.291
705.55	10.345
705.87	11.268
706.19	8.791
706.51	9.859
706.83	7.643
707.15	13.110
707.47	14.601
707.79	16.497
708.11	12.082
708.43	15.482
708.74	14.362
709.06	12.834
709.38	14.409
709.70	11.111
710.02	14.330
710.34	8.667
710.66	14.332
710.98	13.003
711.29	12.338
711.61	8.065
711.93	11.613
712.25	7.343
712.57	9.474
712.89	11.355
713.20	11.348
713.52	12.409
713.84	14.839
714.16	11.650
714.48	12.025
714.80	9.904
715.11	12.209
715.43	12.112
715.75	16.770
716.07	12.651
716.39	11.785
716.70	12.590
717.02	3.137
717.34	9.848
717.66	8.190
717.97	4.365
718.29	12.205
718.61	6.009
718.93	12.016
719.24	16.236
719.56	9.363
719.88	7.090
720.20	16.206
720.51	10.938
720.83	13.230
721.15	6.911
721.46	13.740
721.78	11.155
722.10	7.968
722.42	9.677
722.73	12.355
723.05	15.918
723.37	11.765
723.68	5.600
724.00	7.234
724.32	6.695
724.63	13.169
724.95	9.402
725.27	9.705
725.58	14.403
725.90	11.297
726.22	10.870
726.53	5.490
726.85	17.153
727.16	11.481
727.48	11.111
727.80	14.062
728.11	11.066
728.43	16.406
728.74	9.524
729.06	6.800
729.38	14.229
729.69	13.879
730.01	11.896
730.32	19.557
730.64	11.364
730.96	17.133
731.27	12.375
731.59	16.825
731.90	14.563
732.22	13.782
732.53	9.122
732.85	17.785
733.16	15.842
733.48	13.176
733.80	14.189
734.11	20.608
734.43	12.693
734.74	14.414
735.06	16.427
735.37	15.502
735.69	16.505
736.00	15.182
736.32	9.929
736.63	12.069
736.95	13.356
737.26	18.966
737.58	14.583
737.89	14.089
738.21	12.811
738.52	12.167
738.83	15.510
739.15	12.236
739.46	10.117
739.78	14.437
740.09	14.726
740.41	12.857
740.72	15.248
741.04	13.600
741.35	9.211
741.66	8.889
741.98	10.577
742.29	16.832
742.61	10.732
742.92	17.544
743.23	9.434
743.55	11.261
743.86	9.865
744.18	10.784
744.49	11.168
744.80	13.776
745.12	13.551
745.43	12.322
745.74	10.811
746.06	12.617
746.37	10.092
746.68	8.654
747.00	14.833
747.31	14.423
747.62	12.385
747.94	13.537
748.25	9.633
748.56	14.222
748.88	8.451
749.19	16.190
749.50	10.680
749.82	8.451
750.13	11.250
750.44	13.077
750.75	13.284
751.07	15.302
751.38	14.184
751.69	13.127
752.01	12.500
752.32	11.923
752.63	17.164
752.94	11.200
753.26	15.063
753.57	14.167
753.88	15.789
754.19	9.562
754.51	15.789
754.82	8.059
755.13	9.130
755.44	15.854
755.75	9.200
756.07	14.760
756.38	15.827
756.69	18.089
757.00	16.199
757.31	12.945
757.63	18.827
757.94	16.102
758.25	17.725
758.56	15.217
758.87	17.560
759.18	16.404
759.50	12.458
759.81	15.385
760.12	17.231
760.43	17.262
760.74	13.277
761.05	19.613
761.36	16.905
761.67	17.221
761.99	12.715
762.30	14.964
762.61	13.580
762.92	16.239
763.23	16.393
763.54	15.152
763.85	13.469
764.16	12.195
764.47	14.400
764.78	16.786
765.10	16.393
765.41	17.021
765.72	17.702
766.03	15.182
766.34	14.615
766.65	12.134
766.96	15.962
767.27	15.842
767.58	2.809
767.89	11.111
768.20	12.707
768.51	16.080
768.82	13.942
769.13	17.257
769.44	15.481
769.75	9.829
770.06	12.556
770.37	10.784
770.68	12.136
770.99	10.194
771.30	11.765
771.61	20.408
771.92	19.502
772.23	16.216
772.54	3.867
772.85	8.721
773.16	15.344
773.47	9.467
773.78	15.517
774.09	14.375
774.39	8.075
774.70	20.408
775.01	6.897
775.32	12.857
775.63	6.015
775.94	10.526
776.25	-0.800
776.56	10.744
776.87	13.492
777.18	3.604
777.48	9.910
777.79	3.937
778.10	4.587
778.41	7.895
778.72	3.361
779.03	-2.113
779.34	16.216
779.65	11.268
779.95	14.570
780.26	14.388
780.57	7.914
780.88	4.930
781.19	3.361
781.50	14.094
781.80	11.696
782.11	11.047
782.42	18.239
782.73	15.686
783.04	12.414
783.34	10.687
783.65	13.423
783.96	9.231
784.27	12.857
784.57	9.929
784.88	-4.808
785.19	19.091
785.50	8.182
785.81	5.714
786.11	11.765
786.42	6.195
786.73	-2.830
787.04	-2.752
787.34	-3.960
787.65	17.500
787.96	11.570
788.26	10.870
788.57	7.937
788.88	13.821
789.19	5.600
789.49	3.053
789.80	14.394
790.11	-0.943
790.41	8.911
790.72	8.511
791.03	5.435
791.33	-9.412
791.64	6.173
791.95	-11.957
792.25	1.136
792.56	2.564
792.87	10.256
793.17	-10.256
793.48	7.143
793.79	-2.500
794.09	10.577
794.40	4.167
794.70	6.306
795.01	12.500
795.32	1.739
795.62	-7.609
795.93	5.660
796.23	16.162
796.54	4.878
796.85	1.190
797.15	-3.030
797.46	-2.899
797.76	7.895
798.07	4.545
798.37	3.659
798.68	-4.839
798.99	-4.054
799.29	10.843
799.60	-1.282
799.90	-7.692
800.21	12.121
800.51	-5.333
800.82	2.667
801.12	-35.417
801.43	-11.667
801.73	-16.216
802.04	12.857
802.34	-8.197
802.65	10.448
802.95	5.455
803.26	10.345
803.56	3.077
803.87	-9.434
804.17	3.226
804.48	2.941
804.78	-29.268
805.09	7.246
805.39	-17.647
805.70	-40.426
806.00	7.018
806.30	20.513
806.61	2.632
806.91	5.405
807.22	-3.947
807.52	7.955
807.83	-13.559
808.13	-21.212
808.43	6.667
808.74	-13.793
809.04	1.587
809.35	-16.327
809.65	0.000
809.95	-10.204
810.26	11.268
810.56	-6.250
810.86	-22.449
811.17	19.231
811.47	-23.404
811.77	-8.333
812.08	-3.774
812.38	-37.500
812.69	0.000
812.99	-9.756
813.29	-13.514
813.59	-27.027
813.90	1.818
814.20	-5.455
814.50	-1.667
814.81	1.818
815.11	1.754
815.41	-4.651
815.72	-25.000
816.02	-45.714
816.32	-21.622
816.62	-8.333
816.93	-4.444
817.23	-22.222
817.53	-47.222
817.84	-16.216
818.14	-31.707
818.44	-2.000
818.74	-20.408
819.04	0.000
819.35	-30.556
819.65	6.818
819.95	-72.222
820.25	-18.182
820.56	-33.333
820.86	-19.444
821.16	-22.727
821.46	10.870
821.76	-20.690
822.07	4.348
822.37	-21.212
822.67	9.756
822.97	-13.514
823.27	-42.857
823.57	31.034
823.88	-20.588
824.18	-5.556
824.48	-17.143
824.78	-76.190
825.08	-42.857
825.38	-25.926
825.69	-6.452
825.99	-19.512
826.29	-25.926
826.59	-18.750
826.89	-58.065
827.19	-56.522
827.49	-47.222
827.79	-78.261
828.09	-61.290
828.39	-4.167
828.70	-31.250
829.00	-41.379
829.30	-32.432
829.60	-50.000
829.90	-22.222
830.20	-15.625
830.50	-45.455
830.80	-176.471
831.10	-72.727
831.40	-50.000
831.70	-23.077
832.00	3.030
832.30	-17.647
832.60	-24.324
832.90	1500.000
833.20	21.429
833.50	-115.000
833.80	-13.158
834.10	-66.667
834.40	-81.818
834.70	-86.667
835.00	-150.000
835.30	-4.167
835.60	-47.619
835.90	-4.762
836.20	-24.000
836.50	-70.833
836.80	-73.684
837.10	-8.108
837.40	0.000
837.70	-56.522
838.00	-25.000
838.30	-42.105
838.60	-110.000
838.90	-260.000
839.19	-133.333
839.49	-69.231
839.79	-52.632
840.09	-216.667
840.39	-60.000
840.69	-22.727
840.99	-42.857
841.29	-66.667
841.59	-123.077
841.88	-106.667
842.18	-78.571
842.48	-26.667
842.78	-314.286
843.08	-100.000
843.38	-112.500
843.68	-87.500
843.97	-57.143
844.27	-233.333
844.57	-154.545
844.87	-120.000
845.17	-27.273
845.47	866.667
845.76	-26.667
846.06	-100.000
846.36	-1250.000
846.66	-105.263
846.96	-77.273
847.25	-100.000
847.55	-155.556
847.85	-76.190
848.15	-107.692
848.44	-416.667
848.74	-91.667
849.04	-61.538
849.34	-600.000
849.63	-154.545
849.93	-157.143
850.23	10.000
850.53	-312.500
850.82	-77.778
851.12	-53.333
851.42	-35.294
851.71	-175.000
852.01	5.882
852.31	-107.692
852.61	800.000
852.90	-23.529
853.20	-40.000
853.50	-62.500
853.79	-150.000
854.09	-475.000
854.39	-35.000
854.68	-5.000
854.98	-57.143
855.28	-20.000
855.57	-25.000
855.87	-33.333
856.17	-16.000
856.46	-31.250
856.76	-50.000
857.05	-36.000
857.35	-50.000
857.65	-35.294
857.94	-133.333
858.24	-16.667
858.53	-20.000
858.83	-200.000
859.13	4.000
859.42	-42.857
859.72	-162.500
860.01	-37.500
860.31	-125.000
860.60	-56.250
860.90	-250.000
861.20	-33.333
861.49	-6.667
861.79	-143.750
862.08	400.000
862.38	-100.000
862.67	385.714
862.97	500.000
863.26	-136.364
863.56	-109.091
863.85	-42.105
864.15	-52.941
864.44	-400.000
864.74	-40.000
865.03	-111.111
865.33	-71.429
865.62	178.571
865.92	31.579
866.21	-33.333
866.51	-63.636
866.80	-55.556
867.10	-250.000
867.39	-75.000
867.69	-80.000
867.98	-120.000
868.27	-58.824
868.57	0.000
868.86	1100.000
869.16	-325.000
869.45	-214.286
869.75	350.000
870.04	-30.000
870.33	-900.000
870.63	15.789
870.92	-108.333
871.22	-1400.000
871.51	-214.286
871.80	-288.889
872.10	-375.000
>>>>>End Processed Spectral Data<<<<<
