SpectraSuite Data File
++++++++++++++++++++++++++++++++++++
Date: Wed May 13 21:44:01 PDT 2015
User: schluterlab
Dark Spectrum Present: Yes
Reference Spectrum Present: Yes
Number of Sampled Component Spectra: 1
Spectrometers: USB2E3373
Integration Time (usec): 3000 (USB2E3373)
Spectra Averaged: 3 (USB2E3373)
Boxcar Smoothing: 0 (USB2E3373)
Correct for Electrical Dark: No (USB2E3373)
Strobe/Lamp Enabled: No (USB2E3373)
Correct for Detector Non-linearity: No (USB2E3373)
Correct for Stray Light: No (USB2E3373)
Number of Pixels in Processed Spectrum: 2048
>>>>>Begin Processed Spectral Data<<<<<
178.53	0.000
178.91	500.000
179.29	150.000
179.67	-650.000
180.04	-466.667
180.42	360.000
180.80	700.000
181.18	133.333
181.56	-200.000
181.94	-175.000
182.31	-45.455
182.69	130.769
183.07	-220.000
183.45	350.000
183.83	100.000
184.20	200.000
184.58	-133.333
184.96	200.000
185.34	171.429
185.72	0.000
186.09	-600.000
186.47	-260.000
186.85	240.000
187.23	150.000
187.61	-50.000
187.98	300.000
188.36	0.000
188.74	0.000
189.12	-100.000
189.49	20.000
189.87	100.000
190.25	400.000
190.63	1200.000
191.00	-100.000
191.38	140.000
191.76	275.000
192.14	133.333
192.51	0.000
192.89	333.333
193.27	25.000
193.65	-260.000
194.02	172.727
194.40	180.000
194.78	200.000
195.15	120.000
195.53	-120.000
195.91	-37.500
196.29	-66.667
196.66	0.000
197.04	450.000
197.42	-40.000
197.79	50.000
198.17	-112.500
198.55	-433.333
198.92	350.000
199.30	-100.000
199.68	0.000
200.05	300.000
200.43	133.333
200.81	-1300.000
201.18	-180.000
201.56	-166.667
201.94	675.000
202.31	43.478
202.69	-100.000
203.07	-400.000
203.44	-80.000
203.82	-133.333
204.19	0.000
204.57	0.000
204.95	-50.000
205.32	0.000
205.70	50.000
206.08	-375.000
206.45	-50.000
206.83	225.000
207.20	-66.667
207.58	-40.000
207.96	-2400.000
208.33	-142.857
208.71	-2000.000
209.08	162.500
209.46	500.000
209.84	0.000
210.21	80.000
210.59	1700.000
210.96	180.000
211.34	1300.000
211.71	-250.000
212.09	-16.667
212.46	-80.000
212.84	66.667
213.22	-175.000
213.59	-700.000
213.97	0.000
214.34	-650.000
214.72	7.692
215.09	300.000
215.47	122.222
215.84	650.000
216.22	25.000
216.59	-350.000
216.97	833.333
217.34	177.778
217.72	0.000
218.09	300.000
218.47	-100.000
218.84	-185.714
219.22	-275.000
219.59	-466.667
219.97	-75.000
220.34	-112.500
220.72	-180.000
221.09	0.000
221.47	-183.333
221.84	-100.000
222.22	0.000
222.59	1200.000
222.97	0.000
223.34	-41.667
223.72	-1000.000
224.09	-350.000
224.46	-27.273
224.84	-12.500
225.21	-71.429
225.59	-250.000
225.96	-16.667
226.34	0.000
226.71	-214.286
227.08	250.000
227.46	-137.500
227.83	-600.000
228.21	-50.000
228.58	-175.000
228.95	-47.059
229.33	50.000
229.70	-75.000
230.08	-23.077
230.45	-112.500
230.82	-108.333
231.20	142.857
231.57	-225.000
231.95	500.000
232.32	-16.667
232.69	-41.176
233.07	-1100.000
233.44	-26.087
233.81	-500.000
234.19	25.000
234.56	-20.000
234.93	40.000
235.31	36.842
235.68	-30.769
236.05	-38.462
236.43	11.111
236.80	0.000
237.17	-40.000
237.55	-17.647
237.92	-37.931
238.29	-22.222
238.67	11.111
239.04	-38.710
239.41	4.255
239.79	27.660
240.16	27.907
240.53	10.714
240.91	14.286
241.28	37.500
241.65	41.935
242.02	21.053
242.40	33.333
242.77	1.449
243.14	28.205
243.51	28.723
243.89	22.115
244.26	32.075
244.63	30.769
245.00	37.500
245.38	26.891
245.75	23.770
246.12	25.564
246.49	17.886
246.87	34.454
247.24	28.378
247.61	35.099
247.98	31.410
248.36	28.994
248.73	24.157
249.10	29.293
249.47	27.957
249.84	33.158
250.22	31.343
250.59	34.579
250.96	35.909
251.33	26.794
251.70	33.473
252.08	27.615
252.45	32.510
252.82	31.179
253.19	31.907
253.56	27.698
253.94	34.875
254.31	33.803
254.68	30.537
255.05	35.974
255.42	29.720
255.79	34.663
256.16	30.915
256.54	28.571
256.91	30.063
257.28	31.761
257.65	29.618
258.02	32.258
258.39	32.749
258.76	31.395
259.14	32.102
259.51	31.461
259.88	28.997
260.25	33.611
260.62	33.146
260.99	34.748
261.36	31.865
261.73	30.864
262.10	32.061
262.47	29.877
262.85	30.597
263.22	28.974
263.59	32.987
263.96	30.414
264.33	29.567
264.70	29.535
265.07	30.556
265.44	33.563
265.81	34.783
266.18	30.068
266.55	31.223
266.92	31.356
267.29	29.835
267.66	32.272
268.03	35.802
268.40	33.263
268.77	32.025
269.14	32.449
269.51	35.934
269.88	31.568
270.25	33.475
270.62	30.943
270.99	33.071
271.36	30.556
271.73	31.727
272.10	32.571
272.47	31.670
272.84	32.283
273.21	30.333
273.58	32.787
273.95	27.547
274.32	33.209
274.69	32.423
275.06	32.509
275.43	32.580
275.80	31.560
276.17	30.939
276.54	30.728
276.91	31.707
277.28	28.520
277.65	32.168
278.02	31.964
278.39	31.083
278.76	31.438
279.13	33.276
279.50	32.069
279.87	29.710
280.23	31.351
280.60	31.661
280.97	31.656
281.34	34.227
281.71	31.545
282.08	32.479
282.45	30.820
282.82	30.831
283.19	31.250
283.56	31.250
283.92	30.581
284.29	30.889
284.66	31.796
285.03	27.687
285.40	30.060
285.77	31.231
286.14	30.395
286.51	32.234
286.87	29.077
287.24	32.301
287.61	31.175
287.98	28.676
288.35	29.359
288.72	30.273
289.08	30.912
289.45	28.634
289.82	30.862
290.19	27.910
290.56	29.972
290.93	27.762
291.29	27.360
291.66	28.552
292.03	30.381
292.40	26.783
292.77	28.782
293.13	29.010
293.50	26.928
293.87	29.467
294.24	27.116
294.60	28.479
294.97	28.439
295.34	25.726
295.71	25.624
296.08	25.785
296.44	27.168
296.81	26.309
297.18	26.625
297.55	25.236
297.91	26.335
298.28	26.150
298.65	25.985
299.02	29.304
299.38	25.767
299.75	24.038
300.12	24.070
300.48	24.678
300.85	26.097
301.22	25.784
301.59	26.408
301.95	25.203
302.32	25.088
302.69	24.294
303.05	24.806
303.42	24.659
303.79	25.552
304.15	24.315
304.52	26.129
304.89	24.363
305.25	23.600
305.62	23.753
305.99	25.789
306.35	26.228
306.72	24.822
307.09	24.713
307.45	26.518
307.82	25.368
308.19	24.242
308.55	24.872
308.92	26.228
309.29	24.825
309.65	25.275
310.02	26.044
310.38	26.829
310.75	23.767
311.12	26.239
311.48	26.409
311.85	26.772
312.22	26.112
312.58	28.502
312.95	25.871
313.31	27.640
313.68	26.813
314.05	27.883
314.41	28.242
314.78	29.507
315.14	29.815
315.51	29.781
315.87	30.028
316.24	30.028
316.61	30.685
316.97	30.648
317.34	30.392
317.70	31.668
318.07	31.677
318.43	32.159
318.80	31.937
319.16	32.714
319.53	32.706
319.89	34.237
320.26	33.826
320.62	34.384
320.99	35.078
321.35	33.676
321.72	36.670
322.08	37.269
322.45	37.743
322.81	39.464
323.18	39.356
323.54	40.072
323.91	39.747
324.27	39.784
324.64	39.460
325.00	40.857
325.37	41.126
325.73	40.152
326.10	41.884
326.46	42.224
326.83	43.123
327.19	43.659
327.56	44.722
327.92	45.696
328.29	44.240
328.65	46.801
329.01	44.151
329.38	47.130
329.74	45.064
330.11	47.881
330.47	46.007
330.84	46.841
331.20	46.883
331.56	48.460
331.93	47.804
332.29	49.435
332.66	46.864
333.02	47.871
333.38	48.596
333.75	48.038
334.11	49.479
334.48	49.520
334.84	48.498
335.20	48.714
335.57	48.477
335.93	49.485
336.29	48.161
336.66	49.573
337.02	49.652
337.38	47.520
337.75	49.182
338.11	49.274
338.47	49.058
338.84	49.656
339.20	49.559
339.56	50.171
339.93	50.562
340.29	50.640
340.65	50.385
341.02	49.168
341.38	50.422
341.74	49.832
342.11	49.794
342.47	49.623
342.83	49.510
343.20	51.184
343.56	50.531
343.92	50.284
344.28	49.269
344.65	51.020
345.01	48.588
345.37	50.905
345.73	50.408
346.10	50.803
346.46	49.512
346.82	50.321
347.19	51.028
347.55	50.889
347.91	49.649
348.27	50.552
348.63	51.362
349.00	50.786
349.36	51.805
349.72	50.735
350.08	50.624
350.45	49.804
350.81	51.643
351.17	51.116
351.53	50.903
351.89	50.596
352.26	49.575
352.62	52.481
352.98	51.518
353.34	50.966
353.70	50.701
354.07	49.961
354.43	51.477
354.79	52.885
355.15	51.553
355.51	50.418
355.87	51.525
356.24	51.445
356.60	51.134
356.96	51.420
357.32	51.316
357.68	50.267
358.04	53.142
358.40	51.008
358.77	51.606
359.13	50.973
359.49	51.476
359.85	50.265
360.21	51.966
360.57	51.483
360.93	54.021
361.29	51.962
361.66	52.468
362.02	51.668
362.38	51.551
362.74	50.616
363.10	52.061
363.46	51.585
363.82	52.550
364.18	51.777
364.54	51.787
364.90	52.334
365.26	51.663
365.62	51.207
365.98	52.313
366.35	52.270
366.71	52.282
367.07	52.091
367.43	52.822
367.79	52.397
368.15	52.743
368.51	50.141
368.87	53.454
369.23	52.384
369.59	53.488
369.95	53.628
370.31	52.371
370.67	51.991
371.03	53.081
371.39	52.165
371.75	52.500
372.11	52.778
372.47	52.848
372.83	52.566
373.19	51.942
373.55	53.829
373.91	52.475
374.27	52.490
374.63	52.418
374.99	53.760
375.35	52.671
375.71	51.630
376.07	53.461
376.42	53.810
376.78	53.897
377.14	54.712
377.50	54.433
377.86	54.316
378.22	53.413
378.58	53.657
378.94	54.875
379.30	54.091
379.66	52.651
380.02	53.983
380.38	53.253
380.74	53.497
381.09	52.051
381.45	52.539
381.81	53.543
382.17	52.993
382.53	52.615
382.89	53.317
383.25	53.333
383.61	52.724
383.97	53.437
384.32	52.804
384.68	53.054
385.04	52.657
385.40	53.923
385.76	53.345
386.12	53.196
386.48	53.041
386.83	52.190
387.19	53.115
387.55	52.912
387.91	53.752
388.27	53.329
388.62	53.371
388.98	53.630
389.34	53.383
389.70	52.381
390.06	51.688
390.42	53.157
390.77	52.466
391.13	53.346
391.49	52.498
391.85	51.821
392.20	51.880
392.56	52.508
392.92	52.370
393.28	51.133
393.64	52.661
393.99	51.775
394.35	51.667
394.71	51.282
395.07	50.755
395.42	51.554
395.78	51.480
396.14	51.871
396.50	52.758
396.85	51.944
397.21	51.186
397.57	50.435
397.92	50.180
398.28	50.987
398.64	50.698
399.00	51.004
399.35	50.227
399.71	50.437
400.07	51.265
400.42	50.533
400.78	49.305
401.14	49.479
401.49	49.790
401.85	50.184
402.21	50.031
402.57	49.479
402.92	50.438
403.28	50.657
403.63	50.837
403.99	49.584
404.35	50.499
404.70	50.272
405.06	50.088
405.42	49.686
405.77	48.041
406.13	49.371
406.49	49.131
406.84	49.328
407.20	48.135
407.55	49.805
407.91	48.445
408.27	47.536
408.62	49.601
408.98	47.534
409.34	47.772
409.69	48.928
410.05	47.886
410.40	47.474
410.76	48.736
411.11	48.259
411.47	48.905
411.83	48.721
412.18	47.796
412.54	47.932
412.89	47.837
413.25	46.431
413.60	48.715
413.96	46.941
414.31	47.411
414.67	47.175
415.03	49.256
415.38	48.217
415.74	47.693
416.09	47.786
416.45	47.573
416.80	48.389
417.16	48.516
417.51	48.359
417.87	47.817
418.22	49.127
418.58	47.898
418.93	48.085
419.29	47.987
419.64	48.346
420.00	49.397
420.35	48.416
420.71	48.020
421.06	48.708
421.42	48.966
421.77	49.306
422.12	49.971
422.48	48.419
422.83	49.557
423.19	50.086
423.54	50.177
423.90	48.872
424.25	49.451
424.61	50.893
424.96	48.906
425.31	49.748
425.67	51.146
426.02	51.001
426.38	50.560
426.73	51.069
427.09	52.470
427.44	49.794
427.79	50.119
428.15	50.765
428.50	51.299
428.85	51.107
429.21	50.084
429.56	50.903
429.92	51.275
430.27	51.022
430.62	51.154
430.98	51.666
431.33	51.263
431.68	52.662
432.04	51.606
432.39	51.905
432.74	51.625
433.10	53.632
433.45	52.249
433.80	52.759
434.16	51.720
434.51	52.283
434.86	52.709
435.22	53.537
435.57	52.641
435.92	52.714
436.28	52.913
436.63	52.829
436.98	53.290
437.34	53.541
437.69	53.011
438.04	52.235
438.39	54.670
438.75	53.397
439.10	55.350
439.45	53.874
439.81	54.126
440.16	54.957
440.51	54.578
440.86	54.238
441.22	53.414
441.57	53.905
441.92	54.847
442.27	54.004
442.63	53.606
442.98	54.572
443.33	54.571
443.68	54.560
444.03	54.347
444.39	55.330
444.74	54.887
445.09	54.460
445.44	54.310
445.79	55.292
446.15	54.964
446.50	54.405
446.85	55.799
447.20	55.985
447.55	55.176
447.91	55.056
448.26	54.603
448.61	54.833
448.96	55.239
449.31	55.911
449.66	55.639
450.02	55.998
450.37	55.758
450.72	55.568
451.07	55.925
451.42	54.398
451.77	55.021
452.12	55.021
452.47	56.488
452.83	55.778
453.18	55.379
453.53	55.801
453.88	55.060
454.23	55.748
454.58	55.637
454.93	55.548
455.28	56.712
455.63	55.271
455.98	55.934
456.34	55.563
456.69	56.805
457.04	54.799
457.39	56.945
457.74	54.279
458.09	56.517
458.44	56.052
458.79	54.585
459.14	54.831
459.49	55.732
459.84	54.961
460.19	54.562
460.54	55.414
460.89	56.025
461.24	55.425
461.59	56.763
461.94	56.574
462.29	56.556
462.64	55.607
462.99	55.869
463.34	56.423
463.69	57.345
464.04	55.042
464.39	56.193
464.74	55.590
465.09	55.301
465.44	55.051
465.79	54.917
466.14	55.644
466.49	56.716
466.84	56.665
467.19	55.796
467.54	57.161
467.89	56.003
468.24	57.283
468.59	57.170
468.94	56.386
469.29	55.585
469.64	56.416
469.99	56.621
470.34	56.237
470.68	57.175
471.03	54.795
471.38	54.937
471.73	56.447
472.08	56.976
472.43	56.728
472.78	55.713
473.13	54.354
473.48	56.686
473.83	55.053
474.17	56.055
474.52	57.476
474.87	56.031
475.22	55.374
475.57	55.661
475.92	55.780
476.27	56.352
476.61	55.606
476.96	56.425
477.31	55.987
477.66	56.610
478.01	55.110
478.36	55.368
478.70	55.747
479.05	56.382
479.40	54.758
479.75	55.685
480.10	55.176
480.45	54.487
480.79	55.998
481.14	56.636
481.49	56.389
481.84	55.372
482.19	54.794
482.53	55.905
482.88	55.417
483.23	55.582
483.58	55.293
483.92	55.885
484.27	55.855
484.62	54.727
484.97	56.035
485.31	54.905
485.66	52.702
486.01	53.383
486.36	53.488
486.70	55.027
487.05	55.788
487.40	55.702
487.75	56.905
488.09	56.365
488.44	57.028
488.79	57.116
489.13	56.262
489.48	56.092
489.83	56.186
490.17	56.015
490.52	56.522
490.87	54.798
491.22	55.959
491.56	56.205
491.91	56.025
492.26	56.818
492.60	55.171
492.95	57.483
493.30	56.395
493.64	54.820
493.99	55.121
494.34	55.443
494.68	55.656
495.03	56.225
495.37	55.864
495.72	56.792
496.07	56.649
496.41	55.826
496.76	54.890
497.11	55.728
497.45	57.685
497.80	57.395
498.14	56.474
498.49	55.522
498.84	55.820
499.18	55.251
499.53	56.524
499.87	54.634
500.22	56.297
500.56	55.316
500.91	56.036
501.26	56.207
501.60	54.951
501.95	56.445
502.29	56.845
502.64	55.497
502.98	55.395
503.33	56.302
503.67	55.988
504.02	55.245
504.36	55.770
504.71	55.793
505.06	56.495
505.40	56.598
505.75	55.951
506.09	56.157
506.44	56.552
506.78	56.526
507.13	56.601
507.47	55.673
507.82	56.672
508.16	57.045
508.51	55.475
508.85	55.106
509.19	55.450
509.54	56.622
509.88	57.312
510.23	56.105
510.57	56.038
510.92	56.950
511.26	57.426
511.61	56.367
511.95	56.064
512.30	56.191
512.64	55.732
512.98	56.011
513.33	55.437
513.67	57.070
514.02	57.583
514.36	56.011
514.70	55.947
515.05	56.524
515.39	56.958
515.74	56.069
516.08	55.516
516.42	56.336
516.77	56.122
517.11	57.143
517.46	58.163
517.80	57.143
518.14	56.828
518.49	55.093
518.83	56.026
519.17	56.988
519.52	56.936
519.86	58.227
520.20	55.852
520.55	57.649
520.89	57.242
521.23	59.231
521.58	56.511
521.92	55.374
522.26	56.929
522.61	56.884
522.95	57.707
523.29	55.683
523.64	56.643
523.98	57.814
524.32	56.018
524.66	56.818
525.01	56.029
525.35	57.604
525.69	56.859
526.04	56.091
526.38	57.170
526.72	56.147
527.06	56.802
527.41	55.394
527.75	55.073
528.09	57.726
528.43	57.259
528.78	55.814
529.12	56.274
529.46	57.326
529.80	55.922
530.15	55.084
530.49	57.547
530.83	57.278
531.17	57.192
531.51	55.226
531.86	56.301
532.20	57.064
532.54	55.931
532.88	56.093
533.22	57.374
533.57	55.298
533.91	56.129
534.25	57.357
534.59	55.663
534.93	55.676
535.27	56.369
535.62	57.039
535.96	56.994
536.30	56.981
536.64	56.459
536.98	55.711
537.32	55.516
537.66	56.841
538.01	56.657
538.35	55.732
538.69	54.849
539.03	55.436
539.37	55.600
539.71	55.730
540.05	55.196
540.39	55.334
540.73	55.866
541.07	56.735
541.42	56.431
541.76	55.074
542.10	54.570
542.44	55.440
542.78	55.309
543.12	54.852
543.46	56.185
543.80	53.904
544.14	56.641
544.48	54.545
544.82	55.481
545.16	55.037
545.50	55.098
545.84	54.628
546.18	55.680
546.52	56.246
546.86	56.325
547.20	56.040
547.54	55.969
547.88	56.410
548.22	55.179
548.56	55.170
548.90	55.277
549.24	55.903
549.58	55.943
549.92	57.080
550.26	58.081
550.60	57.132
550.94	56.642
551.28	55.791
551.62	55.113
551.96	56.003
552.30	55.822
552.64	55.438
552.98	57.457
553.32	56.309
553.66	57.960
554.00	57.379
554.34	56.190
554.68	56.749
555.02	55.389
555.36	57.035
555.69	55.936
556.03	57.041
556.37	56.472
556.71	55.992
557.05	57.638
557.39	56.066
557.73	57.489
558.07	57.649
558.41	58.743
558.75	56.813
559.08	57.899
559.42	59.087
559.76	54.893
560.10	56.802
560.44	57.848
560.78	56.043
561.12	56.903
561.45	55.782
561.79	56.259
562.13	56.470
562.47	57.214
562.81	56.854
563.15	57.295
563.48	57.054
563.82	56.772
564.16	56.804
564.50	57.870
564.84	56.824
565.17	56.291
565.51	56.217
565.85	55.563
566.19	56.623
566.52	55.177
566.86	56.700
567.20	55.589
567.54	54.634
567.88	54.087
568.21	55.350
568.55	55.138
568.89	53.789
569.23	54.170
569.56	54.485
569.90	52.684
570.24	52.563
570.57	52.644
570.91	52.763
571.25	53.217
571.59	51.834
571.92	53.593
572.26	53.490
572.60	53.742
572.93	54.139
573.27	53.234
573.61	53.095
573.95	52.618
574.28	52.797
574.62	51.691
574.96	52.756
575.29	52.633
575.63	53.003
575.97	54.375
576.30	52.974
576.64	53.000
576.98	53.431
577.31	52.182
577.65	52.021
577.98	52.638
578.32	52.513
578.66	53.460
578.99	53.803
579.33	54.323
579.67	53.641
580.00	53.093
580.34	53.490
580.67	54.042
581.01	53.638
581.35	53.267
581.68	52.754
582.02	53.297
582.35	53.749
582.69	53.527
583.02	53.280
583.36	54.393
583.70	54.811
584.03	54.786
584.37	55.355
584.70	54.594
585.04	55.158
585.37	54.678
585.71	54.848
586.04	54.937
586.38	54.091
586.72	54.650
587.05	55.245
587.39	54.711
587.72	55.372
588.06	55.048
588.39	54.968
588.73	55.415
589.06	56.515
589.40	55.728
589.73	55.875
590.07	55.231
590.40	55.547
590.73	57.131
591.07	55.997
591.40	55.478
591.74	56.514
592.07	56.778
592.41	56.499
592.74	55.556
593.08	54.803
593.41	55.491
593.75	54.877
594.08	55.751
594.41	56.344
594.75	56.184
595.08	56.833
595.42	55.369
595.75	55.568
596.09	56.659
596.42	56.781
596.75	56.384
597.09	57.643
597.42	58.053
597.75	57.067
598.09	57.878
598.42	56.689
598.76	57.011
599.09	57.223
599.42	56.156
599.76	57.942
600.09	57.003
600.42	55.706
600.76	56.171
601.09	57.213
601.42	56.488
601.76	56.371
602.09	57.154
602.42	57.903
602.76	56.963
603.09	59.097
603.42	56.098
603.76	56.235
604.09	56.206
604.42	56.551
604.76	56.656
605.09	58.496
605.42	56.725
605.75	57.216
606.09	56.043
606.42	56.608
606.75	57.056
607.09	57.092
607.42	56.305
607.75	56.236
608.08	57.619
608.42	57.216
608.75	59.341
609.08	57.423
609.41	57.178
609.75	58.497
610.08	57.742
610.41	58.746
610.74	57.459
611.07	57.615
611.41	58.802
611.74	57.609
612.07	56.175
612.40	58.270
612.73	59.056
613.07	57.871
613.40	58.590
613.73	56.176
614.06	57.822
614.39	58.255
614.72	59.245
615.06	58.111
615.39	58.609
615.72	57.073
616.05	59.122
616.38	59.221
616.71	58.788
617.05	59.644
617.38	57.486
617.71	56.924
618.04	58.440
618.37	59.369
618.70	58.215
619.03	60.344
619.36	59.075
619.69	59.649
620.03	57.951
620.36	58.386
620.69	58.601
621.02	57.385
621.35	59.444
621.68	57.783
622.01	60.761
622.34	59.635
622.67	59.749
623.00	59.726
623.33	59.910
623.66	58.364
623.99	59.640
624.32	59.061
624.65	61.053
624.99	58.486
625.32	59.895
625.65	58.992
625.98	60.821
626.31	59.429
626.64	61.135
626.97	61.851
627.30	60.821
627.63	60.813
627.96	60.260
628.29	61.581
628.62	60.928
628.95	61.623
629.28	62.069
629.61	59.426
629.94	61.025
630.26	61.576
630.59	59.441
630.92	58.534
631.25	60.865
631.58	61.135
631.91	59.173
632.24	59.605
632.57	60.333
632.90	64.411
633.23	62.110
633.56	62.230
633.89	61.483
634.22	60.895
634.55	61.510
634.88	61.152
635.20	61.375
635.53	61.370
635.86	61.538
636.19	61.290
636.52	61.341
636.85	60.314
637.18	57.734
637.51	59.301
637.83	61.619
638.16	61.200
638.49	59.279
638.82	59.869
639.15	59.574
639.48	61.898
639.81	61.806
640.13	64.225
640.46	60.734
640.79	59.856
641.12	61.538
641.45	60.553
641.77	62.150
642.10	61.876
642.43	65.723
642.76	61.356
643.09	59.265
643.41	62.839
643.74	60.420
644.07	59.061
644.40	62.023
644.73	60.847
645.05	62.478
645.38	60.797
645.71	63.095
646.04	62.795
646.36	64.062
646.69	60.140
647.02	64.481
647.35	64.899
647.67	62.107
648.00	58.877
648.33	61.864
648.66	60.935
648.98	59.317
649.31	59.356
649.64	59.781
649.96	62.243
650.29	58.007
650.62	60.132
650.94	59.483
651.27	62.367
651.60	62.413
651.92	63.799
652.25	59.966
652.58	60.396
652.90	62.121
653.23	60.102
653.56	59.008
653.88	61.263
654.21	59.556
654.54	61.296
654.86	60.488
655.19	58.543
655.52	57.834
655.84	52.804
656.17	62.550
656.49	83.902
656.82	84.791
657.15	66.210
657.47	49.571
657.80	37.793
658.13	41.066
658.45	61.096
658.78	61.707
659.10	62.649
659.43	62.694
659.75	62.005
660.08	63.241
660.41	61.562
660.73	63.223
661.06	62.245
661.38	62.016
661.71	63.730
662.03	62.156
662.36	64.381
662.68	62.366
663.01	62.500
663.33	62.851
663.66	58.093
663.98	62.472
664.31	62.637
664.63	58.559
664.96	61.926
665.28	62.017
665.61	60.259
665.93	62.955
666.26	64.135
666.58	55.460
666.91	67.489
667.23	60.829
667.56	60.920
667.88	60.047
668.21	59.375
668.53	62.529
668.86	64.988
669.18	60.284
669.50	62.903
669.83	66.110
670.15	65.952
670.48	60.230
670.80	61.488
671.13	60.870
671.45	60.731
671.77	63.147
672.10	57.700
672.42	60.496
672.75	61.964
673.07	58.909
673.39	59.515
673.72	63.673
674.04	61.066
674.37	60.163
674.69	57.407
675.01	58.761
675.34	61.926
675.66	60.131
675.98	57.965
676.31	59.955
676.63	61.678
676.95	59.765
677.28	60.780
677.60	64.216
677.92	58.758
678.25	59.653
678.57	62.118
678.89	62.260
679.22	58.178
679.54	61.633
679.86	60.352
680.18	59.231
680.51	60.962
680.83	59.064
681.15	59.528
681.48	58.717
681.80	57.873
682.12	62.083
682.44	56.942
682.77	58.316
683.09	56.696
683.41	60.000
683.73	56.920
684.06	58.186
684.38	57.265
684.70	57.841
685.02	60.744
685.34	58.904
685.67	60.788
685.99	56.762
686.31	57.241
686.63	57.537
686.96	58.627
687.28	57.884
687.60	61.437
687.92	58.560
688.24	55.400
688.56	60.088
688.89	54.788
689.21	55.605
689.53	55.180
689.85	59.551
690.17	58.462
690.49	63.768
690.82	61.337
691.14	57.488
691.46	61.021
691.78	59.121
692.10	57.749
692.42	55.165
692.74	57.174
693.06	57.528
693.39	59.251
693.71	57.556
694.03	60.682
694.35	58.108
694.67	60.000
694.99	64.175
695.31	61.240
695.63	56.585
695.95	56.997
696.27	59.726
696.59	53.226
696.91	58.101
697.23	54.315
697.56	59.233
697.88	55.925
698.20	54.428
698.52	58.645
698.84	57.656
699.16	54.137
699.48	60.247
699.80	58.140
700.12	60.858
700.44	58.028
700.76	56.180
701.08	62.236
701.40	59.281
701.72	62.154
702.04	56.604
702.36	57.927
702.68	56.707
703.00	63.158
703.32	52.368
703.64	60.542
703.96	59.531
704.28	54.819
704.60	57.622
704.91	52.665
705.23	56.646
705.55	57.586
705.87	59.155
706.19	58.608
706.51	56.690
706.83	52.229
707.15	58.537
707.47	54.821
707.79	56.345
708.11	56.298
708.43	57.868
708.74	54.787
709.06	53.209
709.38	55.620
709.70	53.453
710.02	55.763
710.34	50.667
710.66	55.375
710.98	52.012
711.29	60.390
711.61	54.516
711.93	57.097
712.25	57.692
712.57	52.281
712.89	56.044
713.20	59.929
713.52	57.664
713.84	54.194
714.16	51.133
714.48	54.430
714.80	56.550
715.11	57.849
715.43	52.795
715.75	56.832
716.07	50.904
716.39	58.249
716.70	59.353
717.02	53.725
717.34	57.576
717.66	54.310
717.97	48.016
718.29	57.087
718.61	57.511
718.93	51.163
719.24	55.351
719.56	52.809
719.88	53.731
720.20	51.779
720.51	53.125
720.83	59.922
721.15	52.033
721.46	51.527
721.78	54.980
722.10	51.793
722.42	47.581
722.73	55.985
723.05	54.286
723.37	57.983
723.68	50.800
724.00	52.340
724.32	56.067
724.63	56.379
724.95	53.846
725.27	58.228
725.58	58.436
725.90	59.414
726.22	53.986
726.53	55.294
726.85	54.745
727.16	54.074
727.48	56.322
727.80	48.828
728.11	57.377
728.43	50.781
728.74	53.968
729.06	52.000
729.38	54.941
729.69	54.448
730.01	51.301
730.32	57.934
730.64	54.545
730.96	56.993
731.27	48.495
731.59	48.889
731.90	51.133
732.22	46.154
732.53	53.378
732.85	47.315
733.16	50.165
733.48	49.662
733.80	51.351
734.11	54.730
734.43	50.464
734.74	53.754
735.06	48.127
735.37	54.407
735.69	47.896
736.00	47.525
736.32	52.128
736.63	50.000
736.95	47.603
737.26	54.483
737.58	50.347
737.89	52.234
738.21	51.957
738.52	49.810
738.83	47.347
739.15	46.414
739.46	52.140
739.78	50.000
740.09	51.027
740.41	50.000
740.72	48.227
741.04	51.200
741.35	50.439
741.66	50.667
741.98	54.327
742.29	56.436
742.61	56.585
742.92	57.018
743.23	46.698
743.55	51.351
743.86	50.673
744.18	53.431
744.49	50.254
744.80	50.510
745.12	49.065
745.43	50.711
745.74	55.405
746.06	55.140
746.37	49.541
746.68	49.519
747.00	48.325
747.31	47.115
747.62	52.752
747.94	48.908
748.25	54.587
748.56	45.778
748.88	54.930
749.19	48.571
749.50	49.515
749.82	47.887
750.13	47.083
750.44	49.615
750.75	52.030
751.07	48.754
751.38	48.582
751.69	50.193
752.01	53.516
752.32	47.692
752.63	52.612
752.94	48.000
753.26	49.372
753.57	43.333
753.88	49.393
754.19	49.402
754.51	44.361
754.82	47.985
755.13	47.826
755.44	47.154
755.75	46.400
756.07	47.232
756.38	50.719
756.69	48.464
757.00	42.368
757.31	47.249
757.63	45.062
757.94	48.023
758.25	44.974
758.56	50.000
758.87	46.131
759.18	49.527
759.50	45.791
759.81	49.498
760.12	47.692
760.43	44.643
760.74	49.718
761.05	46.409
761.36	46.132
761.67	47.734
761.99	46.048
762.30	43.796
762.61	44.444
762.92	47.436
763.23	46.311
763.54	45.887
763.85	44.082
764.16	44.309
764.47	48.400
764.78	44.286
765.10	44.918
765.41	44.985
765.72	45.963
766.03	42.574
766.34	45.769
766.65	42.678
766.96	43.192
767.27	48.515
767.58	36.517
767.89	50.000
768.20	40.331
768.51	55.779
768.82	49.519
769.13	51.327
769.44	45.188
769.75	36.325
770.06	45.291
770.37	42.157
770.68	47.573
770.99	48.058
771.30	48.319
771.61	47.755
771.92	46.058
772.23	45.045
772.54	42.541
772.85	45.349
773.16	47.090
773.47	39.053
773.78	47.126
774.09	44.375
774.39	51.553
774.70	48.980
775.01	46.897
775.32	47.143
775.63	38.346
775.94	36.842
776.25	36.800
776.56	45.455
776.87	45.238
777.18	37.838
777.48	44.144
777.79	37.795
778.10	55.046
778.41	38.596
778.72	42.017
779.03	38.732
779.34	46.622
779.65	43.662
779.95	41.722
780.26	42.446
780.57	43.165
780.88	46.479
781.19	43.697
781.50	46.309
781.80	42.690
782.11	41.860
782.42	37.107
782.73	45.098
783.04	35.862
783.34	40.458
783.65	33.557
783.96	40.000
784.27	47.857
784.57	36.879
784.88	33.654
785.19	53.636
785.50	43.636
785.81	31.429
786.11	38.655
786.42	54.867
786.73	38.679
787.04	38.532
787.34	40.594
787.65	44.167
787.96	41.322
788.26	34.783
788.57	26.190
788.88	35.772
789.19	25.600
789.49	28.244
789.80	47.727
790.11	30.189
790.41	35.644
790.72	45.745
791.03	35.870
791.33	35.294
791.64	34.568
791.95	33.696
792.25	40.909
792.56	50.000
792.87	30.769
793.17	23.077
793.48	29.762
793.79	27.500
794.09	48.077
794.40	44.792
794.70	36.036
795.01	43.750
795.32	40.870
795.62	33.696
795.93	38.679
796.23	31.313
796.54	40.244
796.85	39.286
797.15	42.424
797.46	31.884
797.76	46.053
798.07	43.182
798.37	30.488
798.68	24.194
798.99	31.081
799.29	38.554
799.60	39.744
799.90	38.462
800.21	39.394
800.51	30.667
800.82	36.000
801.12	37.500
801.43	8.333
801.73	27.027
802.04	45.714
802.34	24.590
802.65	44.776
802.95	32.727
803.26	24.138
803.56	40.000
803.87	37.736
804.17	37.097
804.48	47.059
804.78	24.390
805.09	44.928
805.39	26.471
805.70	8.511
806.00	31.579
806.30	37.179
806.61	44.737
806.91	36.486
807.22	30.263
807.52	32.955
807.83	13.559
808.13	13.636
808.43	30.000
808.74	15.517
809.04	25.397
809.35	22.449
809.65	28.333
809.95	28.571
810.26	26.761
810.56	50.000
810.86	28.571
811.17	59.615
811.47	40.426
811.77	22.917
812.08	32.075
812.38	25.000
812.69	18.182
812.99	29.268
813.29	16.216
813.59	2.703
813.90	27.273
814.20	18.182
814.50	36.667
814.81	36.364
815.11	24.561
815.41	53.488
815.72	32.500
816.02	28.571
816.32	13.514
816.62	27.083
816.93	26.667
817.23	11.111
817.53	13.889
817.84	5.405
818.14	14.634
818.44	44.000
818.74	8.163
819.04	-7.317
819.35	19.444
819.65	15.909
819.95	-61.111
820.25	-9.091
820.56	9.524
820.86	55.556
821.16	22.727
821.46	-4.348
821.76	8.621
822.07	4.348
822.37	45.455
822.67	21.951
822.97	29.730
823.27	-11.429
823.57	41.379
823.88	47.059
824.18	36.111
824.48	37.143
824.78	14.286
825.08	-7.143
825.38	33.333
825.69	12.903
825.99	29.268
826.29	40.741
826.59	37.500
826.89	22.581
827.19	4.348
827.49	-5.556
827.79	26.087
828.09	19.355
828.39	12.500
828.70	0.000
829.00	-6.897
829.30	-2.703
829.60	0.000
829.90	48.148
830.20	37.500
830.50	13.636
830.80	-47.059
831.10	-31.818
831.40	-23.529
831.70	11.538
832.00	12.121
832.30	14.706
832.60	27.027
832.90	1300.000
833.20	7.143
833.50	-45.000
833.80	23.684
834.10	-25.000
834.40	-18.182
834.70	53.333
835.00	-40.000
835.30	-8.333
835.60	-28.571
835.90	9.524
836.20	0.000
836.50	-12.500
836.80	-21.053
837.10	21.622
837.40	23.333
837.70	39.130
838.00	50.000
838.30	-10.526
838.60	-150.000
838.90	-10.000
839.19	-33.333
839.49	30.769
839.79	5.263
840.09	-166.667
840.39	-90.000
840.69	-31.818
840.99	33.333
841.29	-20.833
841.59	7.692
841.88	-93.333
842.18	14.286
842.48	0.000
842.78	-100.000
843.08	-14.286
843.38	-100.000
843.68	-56.250
843.97	28.571
844.27	-77.778
844.57	0.000
844.87	-66.667
845.17	36.364
845.47	500.000
845.76	53.333
846.06	-116.667
846.36	-800.000
846.66	-68.421
846.96	4.545
847.25	5.556
847.55	-66.667
847.85	14.286
848.15	-30.769
848.44	-216.667
848.74	-100.000
849.04	7.692
849.34	-150.000
849.63	-45.455
849.93	-150.000
850.23	-10.000
850.53	-62.500
850.82	-11.111
851.12	-33.333
851.42	-23.529
851.71	12.500
852.01	29.412
852.31	-30.769
852.61	-50.000
852.90	23.529
853.20	20.000
853.50	-43.750
853.79	-14.286
854.09	-150.000
854.39	-15.000
854.68	15.000
854.98	38.095
855.28	-12.000
855.57	-16.667
855.87	-29.167
856.17	-36.000
856.46	15.625
856.76	0.000
857.05	24.000
857.35	25.000
857.65	-17.647
857.94	-75.000
858.24	33.333
858.53	40.000
858.83	-118.182
859.13	-8.000
859.42	-50.000
859.72	-100.000
860.01	-12.500
860.31	-62.500
860.60	-12.500
860.90	-216.667
861.20	100.000
861.49	-53.333
861.79	-43.750
862.08	325.000
862.38	-83.333
862.67	314.286
862.97	125.000
863.26	9.091
863.56	-118.182
863.85	-10.526
864.15	-35.294
864.44	-200.000
864.74	-30.000
865.03	-244.444
865.33	-21.429
865.62	171.429
865.92	-15.789
866.21	-50.000
866.51	-45.455
866.80	-77.778
867.10	-150.000
867.39	31.250
867.69	-80.000
867.98	-10.000
868.27	17.647
868.57	0.000
868.86	250.000
869.16	-275.000
869.45	-142.857
869.75	350.000
870.04	10.000
870.33	-1400.000
870.63	10.526
870.92	-25.000
871.22	-1000.000
871.51	-100.000
871.80	-166.667
872.10	-275.000
>>>>>End Processed Spectral Data<<<<<
