SpectraSuite Data File
++++++++++++++++++++++++++++++++++++
Date: Wed May 13 21:42:59 PDT 2015
User: schluterlab
Dark Spectrum Present: Yes
Reference Spectrum Present: Yes
Number of Sampled Component Spectra: 1
Spectrometers: USB2E3373
Integration Time (usec): 3000 (USB2E3373)
Spectra Averaged: 3 (USB2E3373)
Boxcar Smoothing: 0 (USB2E3373)
Correct for Electrical Dark: No (USB2E3373)
Strobe/Lamp Enabled: No (USB2E3373)
Correct for Detector Non-linearity: No (USB2E3373)
Correct for Stray Light: No (USB2E3373)
Number of Pixels in Processed Spectrum: 2048
>>>>>Begin Processed Spectral Data<<<<<
178.53	0.000
178.91	450.000
179.29	175.000
179.67	-800.000
180.04	-300.000
180.42	440.000
180.80	700.000
181.18	333.333
181.56	-450.000
181.94	-300.000
182.31	54.545
182.69	92.308
183.07	60.000
183.45	166.667
183.83	133.333
184.20	128.571
184.58	-200.000
184.96	600.000
185.34	300.000
185.72	0.000
186.09	-600.000
186.47	-120.000
186.85	300.000
187.23	-400.000
187.61	550.000
187.98	400.000
188.36	25.000
188.74	0.000
189.12	-90.909
189.49	50.000
189.87	116.667
190.25	360.000
190.63	800.000
191.00	-160.000
191.38	380.000
191.76	425.000
192.14	200.000
192.51	-15.789
192.89	300.000
193.27	400.000
193.65	-340.000
194.02	163.636
194.40	280.000
194.78	-100.000
195.15	380.000
195.53	-340.000
195.91	-37.500
196.29	-300.000
196.66	0.000
197.04	200.000
197.42	-180.000
197.79	-80.000
198.17	-175.000
198.55	-433.333
198.92	125.000
199.30	-100.000
199.68	-10.000
200.05	250.000
200.43	300.000
200.81	-900.000
201.18	-300.000
201.56	-100.000
201.94	500.000
202.31	4.348
202.69	28.571
203.07	-600.000
203.44	-80.000
203.82	-100.000
204.19	-10.000
204.57	0.000
204.95	-50.000
205.32	0.000
205.70	-350.000
206.08	0.000
206.45	-133.333
206.83	675.000
207.20	-433.333
207.58	-80.000
207.96	-300.000
208.33	-85.714
208.71	-2300.000
209.08	137.500
209.46	425.000
209.84	0.000
210.21	170.000
210.59	1300.000
210.96	400.000
211.34	900.000
211.71	-650.000
212.09	-216.667
212.46	-180.000
212.84	-166.667
213.22	-175.000
213.59	-2000.000
213.97	-150.000
214.34	-350.000
214.72	-115.385
215.09	275.000
215.47	288.889
215.84	600.000
216.22	-150.000
216.59	-700.000
216.97	433.333
217.34	233.333
217.72	0.000
218.09	166.667
218.47	600.000
218.84	-157.143
219.22	-125.000
219.59	-466.667
219.97	-200.000
220.34	-137.500
220.72	-100.000
221.09	0.000
221.47	-183.333
221.84	-1300.000
222.22	0.000
222.59	1200.000
222.97	-233.333
223.34	-83.333
223.72	-1300.000
224.09	-800.000
224.46	-9.091
224.84	-100.000
225.21	-114.286
225.59	-450.000
225.96	-100.000
226.34	-60.000
226.71	-200.000
227.08	950.000
227.46	-87.500
227.83	-100.000
228.21	-18.750
228.58	-250.000
228.95	-64.706
229.33	31.250
229.70	-125.000
230.08	-61.538
230.45	-12.500
230.82	-91.667
231.20	242.857
231.57	-300.000
231.95	1500.000
232.32	-8.333
232.69	-29.412
233.07	-1900.000
233.44	-26.087
233.81	-500.000
234.19	0.000
234.56	-113.333
234.93	-66.667
235.31	-94.737
235.68	-61.538
236.05	15.385
236.43	-44.444
236.80	-27.273
237.17	-113.333
237.55	-41.176
237.92	-55.172
238.29	-55.556
238.67	-33.333
239.04	-25.806
239.41	-42.553
239.79	2.128
240.16	-30.233
240.53	-8.929
240.91	5.357
241.28	-16.071
241.65	-11.290
242.02	-19.737
242.40	-2.899
242.77	-2.899
243.14	-14.103
243.51	-4.255
243.89	-9.615
244.26	14.151
244.63	-14.423
245.00	0.000
245.38	-11.765
245.75	-9.016
246.12	-4.511
246.49	-4.065
246.87	-13.445
247.24	-2.027
247.61	-3.974
247.98	-12.179
248.36	-8.876
248.73	-3.371
249.10	-1.010
249.47	-5.914
249.84	-3.684
250.22	-3.980
250.59	-0.935
250.96	-2.727
251.33	-7.656
251.70	1.674
252.08	-1.255
252.45	-0.823
252.82	2.662
253.19	-4.280
253.56	-0.360
253.94	3.559
254.31	3.873
254.68	2.349
255.05	4.950
255.42	-1.748
255.79	-2.147
256.16	0.631
256.54	1.587
256.91	-0.633
257.28	0.943
257.65	-3.503
258.02	-0.587
258.39	0.877
258.76	-2.035
259.14	-0.568
259.51	0.281
259.88	0.271
260.25	-3.056
260.62	-3.652
260.99	1.326
261.36	-0.259
261.73	0.247
262.10	-2.036
262.47	0.247
262.85	-1.493
263.22	0.769
263.59	-2.338
263.96	-1.703
264.33	-1.442
264.70	0.233
265.07	0.694
265.44	0.460
265.81	0.458
266.18	0.228
266.55	0.218
266.92	0.212
267.29	-1.029
267.66	-1.274
268.03	0.206
268.40	-2.542
268.77	2.479
269.14	1.224
269.51	1.643
269.88	-2.037
270.25	-1.483
270.62	-1.025
270.99	0.787
271.36	1.389
271.73	0.803
272.10	1.333
272.47	1.344
272.84	-0.394
273.21	-2.153
273.58	-1.434
273.95	-0.189
274.32	0.373
274.69	2.186
275.06	2.473
275.43	0.000
275.80	-0.709
276.17	0.000
276.54	-1.066
276.91	0.697
277.28	-0.361
277.65	0.874
278.02	-0.893
278.39	-1.776
278.76	1.839
279.13	1.029
279.50	0.690
279.87	0.181
280.23	-0.180
280.60	-1.211
280.97	1.299
281.34	1.735
281.71	0.976
282.08	-0.684
282.45	0.492
282.82	-0.160
283.19	2.134
283.56	0.938
283.92	0.306
284.29	0.624
284.66	0.494
285.03	-0.977
285.40	0.755
285.77	1.652
286.14	1.368
286.51	2.099
286.87	-0.462
287.24	-0.590
287.61	1.355
287.98	1.176
288.35	-1.490
288.72	1.148
289.08	1.567
289.45	0.147
289.82	1.967
290.19	2.244
290.56	0.426
290.93	0.967
291.29	0.547
291.66	-0.137
292.03	1.090
292.40	1.077
292.77	2.677
293.13	0.837
293.50	0.654
293.87	1.600
294.24	2.249
294.60	1.951
294.97	2.116
295.34	1.979
295.71	0.657
296.08	1.702
296.44	0.128
296.81	0.731
297.18	2.625
297.55	0.590
297.91	0.124
298.28	1.211
298.65	0.862
299.02	2.442
299.38	1.472
299.75	2.043
300.12	0.349
300.48	0.819
300.85	0.808
301.22	1.742
301.59	1.291
301.95	0.232
302.32	2.917
302.69	0.678
303.05	2.215
303.42	1.818
303.79	3.785
304.15	2.410
304.52	3.226
304.89	1.883
305.25	1.756
305.62	1.518
305.99	2.176
306.35	3.553
306.72	2.747
307.09	2.711
307.45	3.408
307.82	2.000
308.19	1.463
308.55	3.173
308.92	3.929
309.29	2.302
309.65	2.897
310.02	3.380
310.38	3.252
310.75	3.748
311.12	4.373
311.48	3.363
311.85	4.626
312.22	5.222
312.58	3.188
312.95	4.876
313.31	4.591
313.68	5.439
314.05	6.616
314.41	5.572
314.78	5.408
315.14	6.019
315.51	6.375
315.87	5.839
316.24	7.897
316.61	6.301
316.97	7.407
317.34	7.219
317.70	7.672
318.07	7.897
318.43	8.130
318.80	7.766
319.16	8.842
319.53	9.319
319.89	8.672
320.26	8.965
320.62	9.175
320.99	9.302
321.35	9.448
321.72	10.780
322.08	11.439
322.45	12.211
322.81	11.275
323.18	11.807
323.54	12.726
323.91	11.924
324.27	12.601
324.64	12.544
325.00	12.861
325.37	13.055
325.73	14.478
326.10	14.382
326.46	14.130
326.83	14.968
327.19	14.309
327.56	16.680
327.92	15.929
328.29	16.694
328.65	16.915
329.01	15.655
329.38	18.870
329.74	16.910
330.11	16.862
330.47	16.059
330.84	16.877
331.20	16.567
331.56	16.757
331.93	17.313
332.29	17.897
332.66	17.288
333.02	18.766
333.38	17.895
333.75	17.321
334.11	19.097
334.48	17.960
334.84	17.314
335.20	17.667
335.57	18.538
335.93	18.471
336.29	17.951
336.66	19.316
337.02	19.739
337.38	17.929
337.75	19.638
338.11	17.079
338.47	18.408
338.84	18.900
339.20	18.254
339.56	19.027
339.93	19.015
340.29	19.300
340.65	19.675
341.02	19.301
341.38	18.919
341.74	18.992
342.11	19.736
342.47	19.163
342.83	17.402
343.20	18.866
343.56	18.479
343.92	18.115
344.28	19.318
344.65	17.878
345.01	18.725
345.37	20.066
345.73	20.016
346.10	19.904
346.46	19.187
346.82	18.860
347.19	18.908
347.55	19.709
347.91	18.628
348.27	19.085
348.63	19.792
349.00	19.811
349.36	20.801
349.72	21.191
350.08	18.799
350.45	20.282
350.81	19.484
351.17	20.939
351.53	19.560
351.89	19.222
352.26	19.305
352.62	20.620
352.98	21.086
353.34	19.485
353.70	20.249
354.07	20.392
354.43	19.907
354.79	20.593
355.15	21.118
355.51	20.577
355.87	20.250
356.24	19.262
356.60	20.250
356.96	20.952
357.32	20.743
357.68	21.390
358.04	20.481
358.40	20.078
358.77	21.254
359.13	20.467
359.49	21.423
359.85	21.683
360.21	22.051
360.57	21.445
360.93	21.017
361.29	21.021
361.66	21.412
362.02	21.201
362.38	20.827
362.74	20.087
363.10	21.764
363.46	21.037
363.82	22.099
364.18	21.030
364.54	22.757
364.90	22.021
365.26	20.524
365.62	21.733
365.98	21.708
366.35	21.915
366.71	21.113
367.07	22.183
367.43	22.857
367.79	21.126
368.15	22.504
368.51	22.293
368.87	22.680
369.23	21.851
369.59	21.705
369.95	22.279
370.31	23.013
370.67	22.810
371.03	22.791
371.39	22.711
371.75	22.429
372.11	22.009
372.47	24.009
372.83	22.538
373.19	22.878
373.55	23.338
373.91	23.550
374.27	22.960
374.63	23.684
374.99	22.702
375.35	22.466
375.71	23.166
376.07	23.235
376.42	23.596
376.78	24.637
377.14	23.593
377.50	23.533
377.86	24.170
378.22	22.314
378.58	23.014
378.94	24.187
379.30	23.485
379.66	23.551
380.02	23.652
380.38	23.795
380.74	24.507
381.09	24.427
381.45	23.519
381.81	23.598
382.17	23.440
382.53	23.631
382.89	23.884
383.25	23.951
383.61	24.758
383.97	23.437
384.32	23.251
384.68	23.936
385.04	23.885
385.40	24.159
385.76	24.513
386.12	24.080
386.48	23.824
386.83	23.342
387.19	24.491
387.55	24.525
387.91	24.908
388.27	23.736
388.62	23.596
388.98	23.467
389.34	23.747
389.70	23.748
390.06	23.500
390.42	24.356
390.77	24.343
391.13	24.558
391.49	23.023
391.85	24.473
392.20	23.183
392.56	24.000
392.92	24.400
393.28	23.881
393.64	23.609
393.99	22.705
394.35	24.012
394.71	23.654
395.07	23.899
395.42	23.644
395.78	21.686
396.14	23.399
396.50	22.955
396.85	23.582
397.21	22.659
397.57	23.354
397.92	23.353
398.28	23.632
398.64	23.194
399.00	23.772
399.35	24.177
399.71	23.471
400.07	23.614
400.42	22.571
400.78	23.142
401.14	22.502
401.49	23.367
401.85	23.464
402.21	23.158
402.57	24.157
402.92	23.091
403.28	22.389
403.63	22.567
403.99	22.841
404.35	22.257
404.70	21.934
405.06	22.959
405.42	22.864
405.77	23.272
406.13	22.286
406.49	22.049
406.84	22.466
407.20	22.913
407.55	23.377
407.91	22.105
408.27	21.709
408.62	22.591
408.98	22.503
409.34	22.772
409.69	22.937
410.05	22.264
410.40	21.729
410.76	21.480
411.11	22.637
411.47	23.092
411.83	22.645
412.18	22.481
412.54	22.807
412.89	21.944
413.25	21.534
413.60	22.759
413.96	21.910
414.31	22.750
414.67	22.032
415.03	21.989
415.38	21.995
415.74	22.157
416.09	22.406
416.45	21.668
416.80	23.020
417.16	22.807
417.51	21.500
417.87	20.238
418.22	21.267
418.58	21.682
418.93	21.594
419.29	22.640
419.64	22.265
420.00	21.206
420.35	21.757
420.71	21.511
421.06	21.771
421.42	22.263
421.77	22.370
422.12	21.948
422.48	21.374
422.83	21.559
423.19	21.737
423.54	22.379
423.90	21.734
424.25	21.895
424.61	21.565
424.96	21.348
425.31	21.256
425.67	22.869
426.02	22.556
426.38	21.953
426.73	21.991
427.09	21.263
427.44	21.785
427.79	21.496
428.15	21.590
428.50	21.692
428.85	21.956
429.21	22.116
429.56	22.210
429.92	21.812
430.27	22.495
430.62	22.141
430.98	21.999
431.33	21.870
431.68	22.204
432.04	21.915
432.39	21.594
432.74	20.846
433.10	22.022
433.45	21.716
433.80	21.667
434.16	22.119
434.51	21.630
434.86	22.792
435.22	22.467
435.57	21.007
435.92	21.532
436.28	21.321
436.63	22.113
436.98	22.150
437.34	22.222
437.69	21.251
438.04	21.392
438.39	21.856
438.75	21.990
439.10	22.094
439.45	21.186
439.81	21.675
440.16	21.565
440.51	22.414
440.86	22.110
441.22	21.400
441.57	21.312
441.92	20.684
442.27	21.158
442.63	21.206
442.98	21.759
443.33	22.460
443.68	21.244
444.03	22.305
444.39	22.707
444.74	21.093
445.09	21.476
445.44	22.366
445.79	21.064
446.15	22.130
446.50	21.971
446.85	22.234
447.20	22.321
447.55	22.440
447.91	21.236
448.26	21.326
448.61	21.749
448.96	21.697
449.31	21.759
449.66	22.325
450.02	21.546
450.37	21.328
450.72	21.240
451.07	21.693
451.42	20.774
451.77	21.242
452.12	20.974
452.47	21.885
452.83	21.050
453.18	22.279
453.53	21.564
453.88	21.506
454.23	21.755
454.58	20.895
454.93	21.745
455.28	21.580
455.63	20.774
455.98	20.937
456.34	20.216
456.69	20.511
457.04	20.619
457.39	20.866
457.74	20.766
458.09	20.498
458.44	21.093
458.79	20.758
459.14	20.281
459.49	20.915
459.84	21.251
460.19	20.588
460.54	20.438
460.89	21.115
461.24	20.037
461.59	21.135
461.94	20.164
462.29	19.792
462.64	19.129
462.99	20.791
463.34	20.925
463.69	20.103
464.04	19.988
464.39	19.890
464.74	20.393
465.09	19.591
465.44	20.819
465.79	20.874
466.14	19.498
466.49	20.176
466.84	19.964
467.19	18.790
467.54	20.285
467.89	20.365
468.24	20.283
468.59	19.057
468.94	19.987
469.29	18.969
469.64	19.665
469.99	20.000
470.34	19.353
470.68	19.331
471.03	19.182
471.38	18.567
471.73	19.959
472.08	19.656
472.43	18.799
472.78	19.473
473.13	18.734
473.48	18.265
473.83	19.648
474.17	19.727
474.52	19.417
474.87	19.240
475.22	19.082
475.57	19.520
475.92	19.084
476.27	19.172
476.61	18.856
476.96	19.760
477.31	18.716
477.66	18.983
478.01	18.681
478.36	19.346
478.70	18.260
479.05	18.812
479.40	18.929
479.75	18.597
480.10	18.256
480.45	18.244
480.79	19.014
481.14	18.338
481.49	18.155
481.84	18.002
482.19	18.157
482.53	18.286
482.88	17.977
483.23	17.421
483.58	18.053
483.92	17.412
484.27	17.017
484.62	17.621
484.97	17.130
485.31	18.302
485.66	17.416
486.01	18.008
486.36	18.246
486.70	17.893
487.05	18.029
487.40	17.998
487.75	17.628
488.09	17.610
488.44	17.666
488.79	18.244
489.13	17.137
489.48	17.230
489.83	17.418
490.17	17.158
490.52	17.438
490.87	16.829
491.22	17.522
491.56	17.202
491.91	16.947
492.26	16.779
492.60	16.883
492.95	16.812
493.30	16.667
493.64	15.444
493.99	16.908
494.34	16.137
494.68	15.990
495.03	16.107
495.37	16.156
495.72	17.143
496.07	16.171
496.41	16.097
496.76	16.956
497.11	17.465
497.45	15.905
497.80	16.608
498.14	16.423
498.49	15.582
498.84	15.840
499.18	15.381
499.53	15.953
499.87	15.381
500.22	15.580
500.56	15.647
500.91	15.744
501.26	16.207
501.60	15.637
501.95	16.052
502.29	14.951
502.64	15.767
502.98	14.884
503.33	15.815
503.67	15.628
504.02	14.706
504.36	15.404
504.71	15.091
505.06	15.334
505.40	15.670
505.75	15.463
506.09	15.227
506.44	14.466
506.78	14.525
507.13	14.709
507.47	14.528
507.82	14.443
508.16	14.776
508.51	14.618
508.85	14.930
509.19	14.709
509.54	14.477
509.88	15.376
510.23	14.158
510.57	15.095
510.92	15.356
511.26	14.356
511.61	13.886
511.95	13.947
512.30	14.325
512.64	14.699
512.98	13.906
513.33	14.310
513.67	14.367
514.02	13.854
514.36	13.876
514.70	14.838
515.05	13.751
515.39	14.151
515.74	14.150
516.08	13.215
516.42	13.076
516.77	13.650
517.11	14.168
517.46	14.286
517.80	14.225
518.14	12.492
518.49	13.924
518.83	12.947
519.17	13.072
519.52	13.510
519.86	14.086
520.20	13.402
520.55	12.998
520.89	13.283
521.23	13.910
521.58	13.464
521.92	13.639
522.26	12.622
522.61	12.540
522.95	12.824
523.29	12.825
523.64	13.795
523.98	12.516
524.32	12.602
524.66	11.818
525.01	12.713
525.35	12.706
525.69	12.061
526.04	13.029
526.38	12.938
526.72	12.689
527.06	13.024
527.41	11.979
527.75	12.684
528.09	12.866
528.43	12.551
528.78	11.886
529.12	12.743
529.46	12.668
529.80	12.168
530.15	11.776
530.49	12.129
530.83	12.390
531.17	11.918
531.51	12.003
531.86	10.908
532.20	11.647
532.54	11.448
532.88	12.117
533.22	11.785
533.57	12.318
533.91	11.935
534.25	11.654
534.59	11.647
534.93	11.288
535.27	11.401
535.62	11.513
535.96	12.492
536.30	10.771
536.64	11.552
536.98	11.142
537.32	11.317
537.66	12.200
538.01	11.373
538.35	10.981
538.69	10.903
539.03	12.215
539.37	11.603
539.71	11.528
540.05	11.538
540.39	10.392
540.73	10.824
541.07	11.497
541.42	11.717
541.76	10.893
542.10	10.291
542.44	10.880
542.78	11.103
543.12	12.534
543.46	10.090
543.80	11.134
544.14	11.012
544.48	11.148
544.82	11.365
545.16	11.291
545.50	11.951
545.84	10.799
546.18	9.677
546.52	11.080
546.86	10.389
547.20	10.936
547.54	10.579
547.88	11.404
548.22	10.945
548.56	10.607
548.90	10.149
549.24	11.667
549.58	10.605
549.92	10.418
550.26	11.956
550.60	10.886
550.94	10.448
551.28	10.598
551.62	11.053
551.96	11.420
552.30	8.806
552.64	10.805
552.98	10.866
553.32	9.661
553.66	10.198
554.00	9.143
554.34	10.256
554.68	10.589
555.02	10.479
555.36	10.061
555.69	11.071
556.03	10.222
556.37	9.815
556.71	10.021
557.05	9.889
557.39	9.420
557.73	10.666
558.07	9.947
558.41	9.841
558.75	10.470
559.08	8.901
559.42	11.172
559.76	8.945
560.10	9.224
560.44	10.685
560.78	9.496
561.12	10.091
561.45	10.068
561.79	10.523
562.13	10.127
562.47	10.429
562.81	9.524
563.15	8.782
563.48	9.566
563.82	10.397
564.16	8.869
564.50	9.566
564.84	9.595
565.17	10.530
565.51	9.158
565.85	8.394
566.19	9.007
566.52	8.650
566.86	9.039
567.20	9.835
567.54	9.614
567.88	9.406
568.21	8.963
568.55	9.598
568.89	9.123
569.23	9.487
569.56	10.179
569.90	9.778
570.24	9.278
570.57	9.894
570.91	9.953
571.25	9.427
571.59	9.802
571.92	9.504
572.26	10.039
572.60	9.824
572.93	9.528
573.27	9.323
573.61	10.222
573.95	9.810
574.28	9.539
574.62	9.603
574.96	9.916
575.29	9.955
575.63	9.484
575.97	9.511
576.30	10.050
576.64	9.667
576.98	9.460
577.31	9.743
577.65	9.410
577.98	9.435
578.32	9.256
578.66	9.830
578.99	9.789
579.33	9.795
579.67	9.292
580.00	9.441
580.34	9.549
580.67	9.407
581.01	9.142
581.35	9.664
581.68	9.748
582.02	9.766
582.35	9.537
582.69	9.391
583.02	9.133
583.36	9.258
583.70	9.366
584.03	9.517
584.37	9.153
584.70	9.747
585.04	9.725
585.37	9.429
585.71	9.624
586.04	9.373
586.38	9.129
586.72	9.244
587.05	9.588
587.39	8.933
587.72	9.309
588.06	8.865
588.39	9.292
588.73	9.085
589.06	9.020
589.40	8.978
589.73	8.732
590.07	9.005
590.40	9.163
590.73	9.036
591.07	9.402
591.40	8.696
591.74	8.715
592.07	8.398
592.41	8.966
592.74	9.028
593.08	8.752
593.41	8.960
593.75	8.624
594.08	8.843
594.41	8.665
594.75	9.670
595.08	8.850
595.42	8.375
595.75	8.568
596.09	8.930
596.42	8.987
596.75	8.381
597.09	9.509
597.42	9.690
597.75	8.622
598.09	8.652
598.42	9.485
598.76	9.110
599.09	9.164
599.42	9.177
599.76	9.275
600.09	8.961
600.42	8.889
600.76	8.574
601.09	8.475
601.42	8.938
601.76	8.649
602.09	9.404
602.42	8.791
602.76	8.389
603.09	9.158
603.42	8.876
603.76	8.924
604.09	8.379
604.42	8.204
604.76	8.730
605.09	9.017
605.42	9.582
605.75	8.480
606.09	8.113
606.42	8.811
606.75	8.225
607.09	7.890
607.42	8.275
607.75	7.877
608.08	8.566
608.42	8.529
608.75	8.696
609.08	8.231
609.41	8.743
609.75	8.270
610.08	8.037
610.41	8.892
610.74	9.095
611.07	8.317
611.41	8.342
611.74	8.385
612.07	8.338
612.40	8.919
612.73	8.233
613.07	7.705
613.40	8.425
613.73	8.559
614.06	8.458
614.39	7.671
614.72	8.828
615.06	8.056
615.39	8.057
615.72	7.559
616.05	8.164
616.38	8.591
616.71	8.098
617.05	9.091
617.38	8.071
617.71	7.108
618.04	7.922
618.37	8.265
618.70	7.568
619.03	7.423
619.36	7.616
619.69	7.895
620.03	7.915
620.36	7.655
620.69	7.209
621.02	6.923
621.35	6.214
621.68	7.742
622.01	7.848
622.34	7.692
622.67	7.518
623.00	7.903
623.33	7.479
623.66	8.327
623.99	8.102
624.32	7.924
624.65	8.086
624.99	8.082
625.32	7.543
625.65	7.364
625.98	7.899
626.31	8.571
626.64	7.653
626.97	7.526
627.30	8.640
627.63	6.574
627.96	6.234
628.29	7.535
628.62	7.253
628.95	8.016
629.28	6.700
629.61	8.325
629.94	7.253
630.26	8.571
630.59	7.792
630.92	7.831
631.25	7.106
631.58	6.745
631.91	6.893
632.24	6.806
632.57	5.778
632.90	8.051
633.23	6.235
633.56	7.314
633.89	7.656
634.22	7.303
634.55	7.430
634.88	7.230
635.20	6.375
635.53	5.685
635.86	6.538
636.19	8.189
636.52	5.244
636.85	6.152
637.18	4.994
637.51	7.116
637.83	5.744
638.16	6.133
638.49	4.139
638.82	5.752
639.15	6.516
639.48	6.952
639.81	5.556
640.13	7.746
640.46	6.215
640.79	5.899
641.12	3.254
641.45	5.095
641.77	6.038
642.10	6.505
642.43	6.447
642.76	5.521
643.09	5.272
643.41	6.699
643.74	5.170
644.07	5.663
644.40	5.307
644.73	4.746
645.05	6.108
645.38	5.648
645.71	7.313
646.04	3.872
646.36	7.118
646.69	6.294
647.02	6.740
647.35	6.216
647.67	4.991
648.00	4.167
648.33	6.102
648.66	4.841
648.98	6.832
649.31	6.902
649.64	4.538
649.96	6.951
650.29	4.085
650.62	5.437
650.94	6.552
651.27	4.594
651.60	6.119
651.92	4.301
652.25	7.035
652.58	6.601
652.90	3.535
653.23	5.093
653.56	4.463
653.88	3.584
654.21	5.119
654.54	5.316
654.86	6.504
655.19	4.762
655.52	8.124
655.84	7.519
656.17	9.061
656.49	12.159
656.82	12.094
657.15	8.907
657.47	6.732
657.80	4.942
658.13	5.294
658.45	7.988
658.78	7.416
659.10	7.771
659.43	7.269
659.75	7.237
660.08	7.172
660.41	7.099
660.73	6.336
661.06	5.782
661.38	5.039
661.71	4.098
662.03	4.863
662.36	4.425
662.68	5.376
663.01	4.449
663.33	4.968
663.66	1.996
663.98	5.169
664.31	5.275
664.63	0.676
664.96	5.689
665.28	6.438
665.61	4.104
665.93	4.925
666.26	5.485
666.58	3.854
666.91	5.605
667.23	3.687
667.56	4.138
667.88	3.738
668.21	4.464
668.53	3.448
668.86	4.077
669.18	5.201
669.50	3.456
669.83	2.387
670.15	1.429
670.48	4.368
670.80	7.440
671.13	4.805
671.45	4.795
671.77	5.603
672.10	5.458
672.42	1.908
672.75	4.643
673.07	6.545
673.39	6.157
673.72	4.391
674.04	6.352
674.37	7.927
674.69	5.144
675.01	4.915
675.34	5.252
675.66	6.536
675.98	6.858
676.31	4.525
676.63	4.989
676.95	2.824
677.28	3.670
677.60	1.961
677.92	7.095
678.25	5.206
678.57	7.943
678.89	3.838
679.22	4.969
679.54	5.714
679.86	6.250
680.18	3.654
680.51	3.846
680.83	1.949
681.15	5.697
681.48	4.409
681.80	4.703
682.12	3.125
682.44	5.030
682.77	3.579
683.09	4.464
683.41	3.488
683.73	2.679
684.06	3.319
684.38	3.419
684.70	3.259
685.02	5.992
685.34	4.892
685.67	5.816
685.99	6.228
686.31	6.207
686.63	6.250
686.96	6.122
687.28	4.391
687.60	5.860
687.92	5.058
688.24	4.600
688.56	6.798
688.89	3.563
689.21	1.345
689.53	-0.676
689.85	5.618
690.17	5.495
690.49	4.106
690.82	3.819
691.14	1.932
691.46	4.176
691.78	8.352
692.10	3.822
692.42	2.637
692.74	4.783
693.06	2.697
693.39	3.747
693.71	4.444
694.03	7.045
694.35	8.108
694.67	5.000
694.99	5.670
695.31	4.134
695.63	5.122
695.95	3.562
696.27	1.918
696.59	4.570
696.91	1.676
697.23	4.569
697.56	5.036
697.88	4.990
698.20	4.320
698.52	3.271
698.84	3.349
699.16	3.073
699.48	3.951
699.80	4.910
700.12	5.630
700.44	2.535
700.76	3.371
701.08	1.813
701.40	4.192
701.72	4.000
702.04	1.258
702.36	4.268
702.68	1.220
703.00	6.140
703.32	1.671
703.64	4.217
703.96	3.812
704.28	3.012
704.60	2.439
704.91	-0.627
705.23	0.949
705.55	1.724
705.87	2.465
706.19	-0.366
706.51	3.521
706.83	-1.274
707.15	2.439
707.47	4.408
707.79	4.061
708.11	1.542
708.43	5.838
708.74	2.128
709.06	4.813
709.38	4.899
709.70	3.604
710.02	3.427
710.34	-2.333
710.66	1.629
710.98	4.334
711.29	2.597
711.61	3.226
711.93	2.903
712.25	1.049
712.57	-0.351
712.89	4.029
713.20	2.837
713.52	1.825
713.84	4.194
714.16	2.913
714.48	0.000
714.80	-0.319
715.11	6.977
715.43	3.727
715.75	5.590
716.07	4.217
716.39	1.684
716.70	3.597
717.02	1.961
717.34	4.167
717.66	-1.293
717.97	1.190
718.29	5.512
718.61	1.717
718.93	2.713
719.24	1.107
719.56	1.124
719.88	0.000
720.20	-0.791
720.51	3.125
720.83	1.167
721.15	-4.472
721.46	1.527
721.78	3.586
722.10	-0.398
722.42	-2.016
722.73	5.019
723.05	5.306
723.37	3.782
723.68	1.600
724.00	-2.553
724.32	-3.766
724.63	5.761
724.95	1.282
725.27	5.063
725.58	4.115
725.90	2.092
726.22	1.087
726.53	1.569
726.85	3.650
727.16	1.852
727.48	1.533
727.80	3.125
728.11	1.639
728.43	5.078
728.74	1.587
729.06	0.000
729.38	2.767
729.69	4.270
730.01	4.461
730.32	1.845
730.64	3.409
730.96	5.594
731.27	-1.003
731.59	1.270
731.90	2.589
732.22	1.282
732.53	-0.338
732.85	0.000
733.16	1.320
733.48	3.716
733.80	-1.351
734.11	4.730
734.43	2.167
734.74	3.003
735.06	2.882
735.37	6.383
735.69	4.207
736.00	3.300
736.32	4.255
736.63	4.828
736.95	3.082
737.26	-0.345
737.58	2.431
737.89	2.749
738.21	-1.068
738.52	-0.380
738.83	3.265
739.15	-2.532
739.46	1.556
739.78	1.408
740.09	2.055
740.41	-2.857
740.72	7.801
741.04	-0.400
741.35	-0.877
741.66	3.111
741.98	5.769
742.29	3.960
742.61	5.854
742.92	9.211
743.23	1.415
743.55	2.703
743.86	-0.448
744.18	0.980
744.49	-4.061
744.80	2.551
745.12	1.869
745.43	0.474
745.74	7.207
746.06	0.935
746.37	-5.963
746.68	1.923
747.00	5.263
747.31	5.769
747.62	0.917
747.94	4.803
748.25	1.376
748.56	9.333
748.88	5.634
749.19	8.571
749.50	0.000
749.82	-0.939
750.13	-4.583
750.44	-0.385
750.75	1.476
751.07	4.982
751.38	2.482
751.69	-0.386
752.01	0.391
752.32	0.769
752.63	6.343
752.94	4.000
753.26	2.929
753.57	3.750
753.88	6.073
754.19	-0.398
754.51	2.632
754.82	3.297
755.13	-7.391
755.44	2.846
755.75	0.800
756.07	1.107
756.38	5.396
756.69	2.048
757.00	4.361
757.31	4.854
757.63	0.926
757.94	3.955
758.25	1.852
758.56	2.174
758.87	3.571
759.18	3.785
759.50	0.673
759.81	3.344
760.12	4.923
760.43	0.298
760.74	5.085
761.05	3.315
761.36	0.000
761.67	2.115
761.99	-0.344
762.30	1.460
762.61	-0.823
762.92	6.410
763.23	4.098
763.54	1.299
763.85	1.224
764.16	-1.220
764.47	2.800
764.78	5.357
765.10	4.590
765.41	4.863
765.72	1.863
766.03	1.980
766.34	3.846
766.65	1.255
766.96	0.939
767.27	1.980
767.58	-7.865
767.89	4.321
768.20	1.657
768.51	7.538
768.82	5.288
769.13	1.770
769.44	2.510
769.75	-2.137
770.06	0.897
770.37	1.471
770.68	0.971
770.99	2.427
771.30	5.462
771.61	0.816
771.92	2.905
772.23	0.901
772.54	-1.105
772.85	0.000
773.16	3.704
773.47	-4.734
773.78	5.172
774.09	-0.625
774.39	4.969
774.70	5.442
775.01	-4.138
775.32	4.286
775.63	-6.015
775.94	2.256
776.25	-8.000
776.56	0.826
776.87	2.381
777.18	-11.712
777.48	-6.306
777.79	-3.150
778.10	-3.670
778.41	-3.509
778.72	-6.723
779.03	-2.113
779.34	5.405
779.65	-4.225
779.95	4.636
780.26	-5.036
780.57	0.719
780.88	2.817
781.19	-10.924
781.50	6.711
781.80	4.678
782.11	-8.140
782.42	6.918
782.73	1.961
783.04	-3.448
783.34	-9.160
783.65	2.685
783.96	-6.923
784.27	4.286
784.57	-3.546
784.88	-19.231
785.19	9.091
785.50	-1.818
785.81	-10.476
786.11	0.840
786.42	-1.770
786.73	-14.151
787.04	-6.422
787.34	-9.901
787.65	-4.167
787.96	-4.132
788.26	4.348
788.57	-4.762
788.88	-0.813
789.19	-13.600
789.49	-1.527
789.80	5.303
790.11	-10.377
790.41	-5.941
790.72	-2.128
791.03	-11.957
791.33	-8.235
791.64	-2.469
791.95	-8.696
792.25	0.000
792.56	-5.128
792.87	-5.128
793.17	-17.949
793.48	-15.476
793.79	-2.500
794.09	-2.885
794.40	-2.083
794.70	1.802
795.01	-7.813
795.32	-1.739
795.62	-20.652
795.93	0.000
796.23	-6.061
796.54	-4.878
796.85	-1.190
797.15	-18.182
797.46	0.000
797.76	-21.053
798.07	-11.364
798.37	-19.512
798.68	-17.742
798.99	-13.514
799.29	3.614
799.60	-7.692
799.90	-1.538
800.21	-7.576
800.51	6.667
800.82	-4.000
801.12	-43.750
801.43	-31.667
801.73	-12.162
802.04	5.714
802.34	-18.033
802.65	1.493
802.95	-7.273
803.26	-12.069
803.56	-3.077
803.87	-3.774
804.17	8.065
804.48	-1.471
804.78	-19.512
805.09	2.899
805.39	8.824
805.70	-31.915
806.00	-3.509
806.30	-15.385
806.61	-3.947
806.91	-12.162
807.22	-9.211
807.52	15.909
807.83	-18.644
808.13	-21.212
808.43	-30.000
808.74	-34.483
809.04	-12.698
809.35	-36.735
809.65	-10.000
809.95	-18.367
810.26	2.817
810.56	-18.750
810.86	-20.408
811.17	1.923
811.47	-17.021
811.77	-27.083
812.08	-9.434
812.38	-53.125
812.69	-1.818
812.99	-7.317
813.29	-37.838
813.59	-54.054
813.90	-18.182
814.20	-7.273
814.50	-21.667
814.81	-3.636
815.11	-14.035
815.41	-9.302
815.72	-7.500
816.02	-11.429
816.32	-29.730
816.62	-12.500
816.93	-17.778
817.23	-35.556
817.53	-27.778
817.84	-29.730
818.14	-17.073
818.44	0.000
818.74	-18.367
819.04	-12.195
819.35	-55.556
819.65	-9.091
819.95	-88.889
820.25	-9.091
820.56	-26.190
820.86	-30.556
821.16	-40.909
821.46	-4.348
821.76	-29.310
822.07	0.000
822.37	-21.212
822.67	14.634
822.97	-8.108
823.27	-31.429
823.57	-3.448
823.88	-55.882
824.18	-27.778
824.48	-20.000
824.78	-52.381
825.08	-32.143
825.38	-37.037
825.69	3.226
825.99	-17.073
826.29	-44.444
826.59	-31.250
826.89	-45.161
827.19	-78.261
827.49	-38.889
827.79	-43.478
828.09	-19.355
828.39	-12.500
828.70	-50.000
829.00	-44.828
829.30	-18.919
829.60	-87.500
829.90	-25.926
830.20	-9.375
830.50	4.545
830.80	-111.765
831.10	-22.727
831.40	-26.471
831.70	-65.385
832.00	-27.273
832.30	2.941
832.60	2.703
832.90	1400.000
833.20	-21.429
833.50	-90.000
833.80	-10.526
834.10	-16.667
834.40	-81.818
834.70	-60.000
835.00	-140.000
835.30	-54.167
835.60	-76.190
835.90	4.762
836.20	-40.000
836.50	-37.500
836.80	-52.632
837.10	-2.703
837.40	0.000
837.70	0.000
838.00	20.833
838.30	-5.263
838.60	-130.000
838.90	-230.000
839.19	-183.333
839.49	-84.615
839.79	-52.632
840.09	-250.000
840.39	-160.000
840.69	-59.091
840.99	-19.048
841.29	-75.000
841.59	-107.692
841.88	-93.333
842.18	-64.286
842.48	0.000
842.78	-285.714
843.08	-100.000
843.38	-150.000
843.68	-62.500
843.97	-57.143
844.27	-266.667
844.57	-145.455
844.87	-126.667
845.17	0.000
845.47	1000.000
845.76	-33.333
846.06	-91.667
846.36	-950.000
846.66	-89.474
846.96	-36.364
847.25	-50.000
847.55	-144.444
847.85	-33.333
848.15	-38.462
848.44	-200.000
848.74	-116.667
849.04	-76.923
849.34	-475.000
849.63	-136.364
849.93	-185.714
850.23	5.000
850.53	-12.500
850.82	44.444
851.12	-40.000
851.42	-58.824
851.71	-162.500
852.01	-17.647
852.31	-61.538
852.61	700.000
852.90	-17.647
853.20	-26.667
853.50	-6.250
853.79	-121.429
854.09	-325.000
854.39	-55.000
854.68	-7.500
854.98	-19.048
855.28	0.000
855.57	8.333
855.87	-33.333
856.17	-52.000
856.46	-12.500
856.76	-35.000
857.05	-32.000
857.35	-100.000
857.65	-41.176
857.94	-141.667
858.24	-183.333
858.53	-10.000
858.83	-63.636
859.13	-24.000
859.42	-128.571
859.72	-50.000
860.01	-12.500
860.31	-137.500
860.60	-37.500
860.90	-283.333
861.20	0.000
861.49	0.000
861.79	-50.000
862.08	475.000
862.38	-208.333
862.67	228.571
862.97	425.000
863.26	-54.545
863.56	-118.182
863.85	-5.263
864.15	-17.647
864.44	-360.000
864.74	-130.000
865.03	-111.111
865.33	-121.429
865.62	185.714
865.92	-21.053
866.21	-61.111
866.51	-36.364
866.80	-77.778
867.10	-37.500
867.39	18.750
867.69	-86.667
867.98	-110.000
868.27	-52.941
868.57	0.000
868.86	900.000
869.16	-475.000
869.45	-142.857
869.75	950.000
870.04	-150.000
870.33	-1700.000
870.63	0.000
870.92	-100.000
871.22	-1500.000
871.51	-214.286
871.80	-244.444
872.10	-375.000
>>>>>End Processed Spectral Data<<<<<
