SpectraSuite Data File
++++++++++++++++++++++++++++++++++++
Date: Wed May 13 21:44:24 PDT 2015
User: schluterlab
Dark Spectrum Present: Yes
Reference Spectrum Present: Yes
Number of Sampled Component Spectra: 1
Spectrometers: USB2E3373
Integration Time (usec): 3000 (USB2E3373)
Spectra Averaged: 3 (USB2E3373)
Boxcar Smoothing: 0 (USB2E3373)
Correct for Electrical Dark: No (USB2E3373)
Strobe/Lamp Enabled: No (USB2E3373)
Correct for Detector Non-linearity: No (USB2E3373)
Correct for Stray Light: No (USB2E3373)
Number of Pixels in Processed Spectrum: 2048
>>>>>Begin Processed Spectral Data<<<<<
178.53	0.000
178.91	650.000
179.29	191.667
179.67	-850.000
180.04	-300.000
180.42	40.000
180.80	1200.000
181.18	283.333
181.56	-325.000
181.94	-50.000
182.31	-109.091
182.69	146.154
183.07	-60.000
183.45	133.333
183.83	111.111
184.20	-0.000
184.58	133.333
184.96	600.000
185.34	157.143
185.72	0.000
186.09	300.000
186.47	-300.000
186.85	60.000
187.23	-100.000
187.61	300.000
187.98	800.000
188.36	-50.000
188.74	0.000
189.12	-45.455
189.49	-30.000
189.87	158.333
190.25	320.000
190.63	1700.000
191.00	-160.000
191.38	240.000
191.76	175.000
192.14	208.333
192.51	-21.053
192.89	533.333
193.27	425.000
193.65	-200.000
194.02	145.455
194.40	170.000
194.78	400.000
195.15	200.000
195.53	-160.000
195.91	-87.500
196.29	-66.667
196.66	0.000
197.04	800.000
197.42	80.000
197.79	-40.000
198.17	-25.000
198.55	-166.667
198.92	275.000
199.30	-100.000
199.68	-90.000
200.05	50.000
200.43	-0.000
200.81	-1300.000
201.18	-200.000
201.56	-50.000
201.94	725.000
202.31	4.348
202.69	42.857
203.07	-200.000
203.44	-180.000
203.82	-300.000
204.19	-30.000
204.57	0.000
204.95	-100.000
205.32	0.000
205.70	-150.000
206.08	-350.000
206.45	-216.667
206.83	175.000
207.20	-66.667
207.58	-40.000
207.96	-1100.000
208.33	-142.857
208.71	-1600.000
209.08	275.000
209.46	475.000
209.84	0.000
210.21	200.000
210.59	1200.000
210.96	200.000
211.34	600.000
211.71	-950.000
212.09	-100.000
212.46	-110.000
212.84	-100.000
213.22	-100.000
213.59	-1500.000
213.97	-700.000
214.34	-950.000
214.72	-61.538
215.09	137.500
215.47	111.111
215.84	750.000
216.22	-50.000
216.59	-50.000
216.97	666.667
217.34	111.111
217.72	0.000
218.09	500.000
218.47	-1000.000
218.84	-185.714
219.22	-125.000
219.59	-200.000
219.97	-175.000
220.34	-37.500
220.72	-80.000
221.09	0.000
221.47	-200.000
221.84	-400.000
222.22	0.000
222.59	500.000
222.97	-366.667
223.34	-50.000
223.72	-1000.000
224.09	-850.000
224.46	-81.818
224.84	12.500
225.21	-28.571
225.59	-200.000
225.96	-133.333
226.34	-90.000
226.71	-100.000
227.08	1050.000
227.46	-75.000
227.83	-100.000
228.21	-75.000
228.58	-350.000
228.95	-52.941
229.33	-50.000
229.70	-125.000
230.08	-69.231
230.45	-150.000
230.82	-75.000
231.20	200.000
231.57	-150.000
231.95	-400.000
232.32	50.000
232.69	0.000
233.07	-900.000
233.44	-4.348
233.81	-500.000
234.19	66.667
234.56	-120.000
234.93	20.000
235.31	26.316
235.68	-84.615
236.05	-7.692
236.43	-33.333
236.80	-6.061
237.17	-113.333
237.55	-111.765
237.92	-58.621
238.29	-25.926
238.67	2.778
239.04	-16.129
239.41	2.128
239.79	-23.404
240.16	11.628
240.53	21.429
240.91	21.429
241.28	14.286
241.65	16.129
242.02	2.632
242.40	13.043
242.77	4.348
243.14	10.256
243.51	13.830
243.89	13.462
244.26	20.755
244.63	4.808
245.00	3.125
245.38	19.328
245.75	13.934
246.12	11.278
246.49	12.195
246.87	11.765
247.24	18.919
247.61	15.232
247.98	9.615
248.36	14.201
248.73	13.483
249.10	19.697
249.47	14.516
249.84	14.737
250.22	15.920
250.59	11.682
250.96	16.364
251.33	9.091
251.70	17.992
252.08	12.552
252.45	22.222
252.82	18.631
253.19	17.510
253.56	14.388
253.94	15.302
254.31	16.901
254.68	15.101
255.05	17.162
255.42	13.986
255.79	15.951
256.16	13.880
256.54	17.778
256.91	12.342
257.28	15.723
257.65	17.197
258.02	11.144
258.39	16.667
258.76	14.244
259.14	14.489
259.51	16.854
259.88	14.905
260.25	15.278
260.62	14.045
260.99	17.772
261.36	17.617
261.73	15.556
262.10	16.794
262.47	11.605
262.85	17.413
263.22	17.436
263.59	15.584
263.96	17.032
264.33	16.346
264.70	15.581
265.07	17.593
265.44	19.080
265.81	15.103
266.18	15.945
266.55	15.284
266.92	18.644
267.29	14.609
267.66	18.684
268.03	19.753
268.40	15.678
268.77	18.802
269.14	18.571
269.51	17.864
269.88	16.293
270.25	16.949
270.62	14.959
270.99	18.898
271.36	18.651
271.73	15.261
272.10	14.857
272.47	18.618
272.84	19.094
273.21	13.894
273.58	18.238
273.95	17.358
274.32	17.351
274.69	18.944
275.06	18.905
275.43	17.137
275.80	16.667
276.17	16.206
276.54	16.874
276.91	16.899
277.28	14.440
277.65	16.958
278.02	17.679
278.39	14.210
278.76	17.057
279.13	16.123
279.50	15.517
279.87	17.572
280.23	17.658
280.60	14.533
280.97	17.208
281.34	17.666
281.71	15.935
282.08	15.726
282.45	16.557
282.82	16.773
283.19	18.445
283.56	16.406
283.92	16.055
284.29	16.537
284.66	17.298
285.03	15.472
285.40	15.861
285.77	16.967
286.14	15.198
286.51	17.391
286.87	14.615
287.24	17.257
287.61	17.470
287.98	15.441
288.35	14.158
288.72	15.925
289.08	17.664
289.45	14.831
289.82	16.793
290.19	14.025
290.56	12.642
290.93	14.088
291.29	14.364
291.66	15.847
292.03	14.986
292.40	15.478
292.77	14.324
293.13	14.505
293.50	15.686
293.87	14.933
294.24	15.212
294.60	15.865
294.97	14.021
295.34	12.269
295.71	13.535
296.08	13.351
296.44	13.138
296.81	13.276
297.18	13.875
297.55	14.741
297.91	13.789
298.28	14.891
298.65	14.901
299.02	13.919
299.38	13.374
299.75	14.303
300.12	12.674
300.48	12.865
300.85	14.088
301.22	13.937
301.59	13.967
301.95	13.124
302.32	12.485
302.69	12.768
303.05	13.068
303.42	13.750
303.79	14.826
304.15	13.143
304.52	14.409
304.89	12.514
305.25	11.416
305.62	13.991
305.99	14.037
306.35	15.361
306.72	15.259
307.09	14.599
307.45	14.909
307.82	14.526
308.19	12.853
308.55	14.534
308.92	15.619
309.29	14.414
309.65	14.985
310.02	14.911
310.38	14.939
310.75	14.497
311.12	14.674
311.48	14.045
311.85	15.157
312.22	15.764
312.58	15.072
312.95	14.527
313.31	16.804
313.68	17.462
314.05	17.297
314.41	17.291
314.78	17.552
315.14	18.333
315.51	18.268
315.87	17.702
316.24	19.376
316.61	19.087
316.97	18.889
317.34	19.519
317.70	19.090
318.07	20.674
318.43	19.512
318.80	20.157
319.16	20.955
319.53	22.043
319.89	21.319
320.26	20.887
320.62	21.501
320.99	23.256
321.35	22.544
321.72	22.233
322.08	22.786
322.45	23.219
322.81	23.105
323.18	23.345
323.54	24.910
323.91	25.474
324.27	25.383
324.64	26.394
325.00	24.672
325.37	27.389
325.73	26.263
326.10	26.241
326.46	26.087
326.83	26.618
327.19	26.911
327.56	28.203
327.92	28.158
328.29	29.633
328.65	28.922
329.01	27.529
329.38	29.043
329.74	28.670
330.11	29.035
330.47	29.861
330.84	28.791
331.20	28.950
331.56	29.167
331.93	29.802
332.29	29.366
332.66	29.576
333.02	28.671
333.38	30.877
333.75	29.522
334.11	30.382
334.48	29.381
334.84	28.180
335.20	30.189
335.57	29.504
335.93	29.296
336.29	29.685
336.66	30.342
337.02	29.217
337.38	30.200
337.75	30.319
338.11	28.181
338.47	28.596
338.84	30.326
339.20	31.834
339.56	30.034
339.93	29.300
340.29	28.950
340.65	30.967
341.02	30.033
341.38	30.490
341.74	29.580
342.11	29.975
342.47	30.126
342.83	30.229
343.20	30.795
343.56	30.908
343.92	29.651
344.28	30.114
344.65	29.306
345.01	30.186
345.37	30.181
345.73	30.556
346.10	30.417
346.46	29.431
346.82	29.294
347.19	29.351
347.55	30.695
347.91	30.242
348.27	30.284
348.63	31.170
349.00	28.931
349.36	30.377
349.72	30.936
350.08	29.563
350.45	30.227
350.81	30.595
351.17	30.408
351.53	31.658
351.89	29.786
352.26	29.575
352.62	31.085
352.98	30.192
353.34	29.871
353.70	30.452
354.07	30.745
354.43	29.549
354.79	30.449
355.15	30.202
355.51	30.448
355.87	30.493
356.24	30.738
356.60	30.884
356.96	30.084
357.32	30.650
357.68	32.238
358.04	30.644
358.40	30.775
358.77	30.657
359.13	29.961
359.49	30.204
359.85	30.933
360.21	32.074
360.57	30.038
360.93	30.956
361.29	31.606
361.66	30.979
362.02	30.689
362.38	31.388
362.74	30.602
363.10	31.526
363.46	31.196
363.82	31.338
364.18	31.690
364.54	32.312
364.90	30.871
365.26	32.059
365.62	31.889
365.98	31.174
366.35	31.702
366.71	30.956
367.07	31.680
367.43	32.265
367.79	32.175
368.15	32.700
368.51	31.716
368.87	33.357
369.23	31.601
369.59	32.135
369.95	30.769
370.31	31.241
370.67	31.282
371.03	33.333
371.39	32.576
371.75	31.857
372.11	32.835
372.47	32.444
372.83	31.692
373.19	31.799
373.55	32.442
373.91	31.683
374.27	30.982
374.63	31.721
374.99	32.451
375.35	32.877
375.71	32.337
376.07	32.145
376.42	31.885
376.78	33.752
377.14	32.814
377.50	32.399
377.86	32.072
378.22	32.048
378.58	32.598
378.94	33.500
379.30	33.229
379.66	33.292
380.02	32.782
380.38	32.590
380.74	32.756
381.09	32.630
381.45	32.104
381.81	32.779
382.17	32.199
382.53	31.815
382.89	32.328
383.25	32.407
383.61	32.446
383.97	32.500
384.32	32.892
384.68	32.819
385.04	30.971
385.40	32.379
385.76	32.056
386.12	31.569
386.48	32.351
386.83	32.103
387.19	32.387
387.55	32.434
387.91	32.349
388.27	31.134
388.62	31.710
388.98	32.666
389.34	32.707
389.70	32.112
390.06	32.062
390.42	32.925
390.77	32.864
391.13	33.018
391.49	32.638
391.85	31.565
392.20	31.704
392.56	32.000
392.92	31.831
393.28	31.319
393.64	31.621
393.99	31.273
394.35	31.852
394.71	32.372
395.07	30.000
395.42	31.627
395.78	31.596
396.14	32.086
396.50	31.833
396.85	32.377
397.21	31.461
397.57	31.056
397.92	31.796
398.28	31.077
398.64	30.662
399.00	31.306
399.35	31.555
399.71	31.275
400.07	30.783
400.42	30.784
400.78	30.816
401.14	30.901
401.49	30.857
401.85	30.344
402.21	30.774
402.57	30.595
402.92	32.040
403.28	29.894
403.63	31.432
403.99	30.838
404.35	30.237
404.70	30.151
405.06	30.828
405.42	29.962
405.77	30.645
406.13	30.000
406.49	31.156
406.84	30.342
407.20	29.070
407.55	29.870
407.91	30.113
408.27	28.571
408.62	29.650
408.98	30.271
409.34	30.569
409.69	29.825
410.05	30.348
410.40	28.789
410.76	29.362
411.11	29.789
411.47	31.254
411.83	29.507
412.18	29.912
412.54	30.201
412.89	29.592
413.25	29.499
413.60	30.721
413.96	28.901
414.31	29.408
414.67	28.444
415.03	29.905
415.38	28.600
415.74	28.005
416.09	28.619
416.45	29.802
416.80	29.597
417.16	30.364
417.51	28.667
417.87	29.034
418.22	28.895
418.58	28.515
418.93	28.876
419.29	29.769
419.64	29.071
420.00	29.651
420.35	28.811
420.71	28.154
421.06	29.705
421.42	29.927
421.77	29.133
422.12	29.456
422.48	28.953
422.83	29.061
423.19	29.672
423.54	30.271
423.90	29.632
424.25	29.001
424.61	29.513
424.96	29.627
425.31	28.772
425.67	29.512
426.02	29.270
426.38	29.042
426.73	28.467
427.09	29.393
427.44	29.654
427.79	29.751
428.15	29.235
428.50	28.822
428.85	29.889
429.21	28.644
429.56	30.128
429.92	30.141
430.27	29.243
430.62	29.171
430.98	29.773
431.33	29.930
431.68	29.659
432.04	29.577
432.39	28.753
432.74	29.491
433.10	30.041
433.45	29.231
433.80	29.368
434.16	29.492
434.51	29.728
434.86	30.094
435.22	29.428
435.57	29.054
435.92	28.951
436.28	27.928
436.63	30.081
436.98	29.730
437.34	30.586
437.69	29.457
438.04	28.580
438.39	29.639
438.75	28.427
439.10	30.191
439.45	29.722
439.81	30.296
440.16	29.855
440.51	29.489
440.86	30.646
441.22	29.948
441.57	29.881
441.92	29.601
442.27	30.032
442.63	29.333
442.98	29.398
443.33	30.135
443.68	29.520
444.03	29.856
444.39	29.995
444.74	29.763
445.09	29.846
445.44	30.817
445.79	30.305
446.15	29.229
446.50	30.617
446.85	30.037
447.20	31.103
447.55	30.610
447.91	30.225
448.26	29.617
448.61	28.999
448.96	30.866
449.31	29.983
449.66	29.728
450.02	30.870
450.37	30.259
450.72	29.277
451.07	30.784
451.42	28.509
451.77	29.519
452.12	28.699
452.47	30.471
452.83	29.304
453.18	29.217
453.53	29.319
453.88	29.398
454.23	29.975
454.58	29.289
454.93	29.185
455.28	29.801
455.63	29.382
455.98	30.128
456.34	28.926
456.69	29.776
457.04	29.412
457.39	29.585
457.74	29.743
458.09	29.739
458.44	28.790
458.79	29.105
459.14	28.202
459.49	29.756
459.84	29.481
460.19	28.511
460.54	29.075
460.89	29.054
461.24	28.915
461.59	28.684
461.94	29.014
462.29	29.412
462.64	28.562
462.99	28.974
463.34	28.936
463.69	29.768
464.04	27.611
464.39	28.981
464.74	28.686
465.09	29.386
465.44	28.339
465.79	28.695
466.14	28.278
466.49	28.387
466.84	28.631
467.19	28.408
467.54	28.257
467.89	29.164
468.24	27.843
468.59	28.107
468.94	27.586
469.29	28.222
469.64	28.801
469.99	28.414
470.34	27.579
470.68	27.584
471.03	27.151
471.38	27.677
471.73	28.532
472.08	27.973
472.43	27.836
472.78	28.533
473.13	26.649
473.48	26.810
473.83	27.370
474.17	27.083
474.52	27.379
474.87	27.201
475.22	27.899
475.57	27.552
475.92	27.699
476.27	27.739
476.61	27.293
476.96	28.212
477.31	27.346
477.66	27.345
478.01	26.484
478.36	26.594
478.70	26.531
479.05	27.081
479.40	26.053
479.75	26.302
480.10	26.058
480.45	26.287
480.79	26.481
481.14	27.812
481.49	26.887
481.84	26.296
482.19	26.308
482.53	26.571
482.88	26.894
483.23	25.457
483.58	26.654
483.92	25.243
484.27	26.167
484.62	26.099
484.97	26.296
485.31	26.472
485.66	26.489
486.01	26.936
486.36	27.460
486.70	26.932
487.05	27.010
487.40	26.484
487.75	26.960
488.09	25.993
488.44	25.657
488.79	26.609
489.13	25.328
489.48	24.925
489.83	25.770
490.17	24.921
490.52	26.695
490.87	24.525
491.22	25.106
491.56	25.108
491.91	24.868
492.26	25.774
492.60	25.637
492.95	26.045
493.30	24.273
493.64	24.556
493.99	24.589
494.34	25.000
494.68	24.582
495.03	25.494
495.37	24.623
495.72	24.962
496.07	24.939
496.41	24.052
496.76	25.274
497.11	24.648
497.45	23.881
497.80	24.382
498.14	24.534
498.49	24.206
498.84	24.241
499.18	24.340
499.53	23.043
499.87	23.241
500.22	24.241
500.56	24.072
500.91	24.296
501.26	24.286
501.60	23.578
501.95	23.766
502.29	24.175
502.64	24.204
502.98	24.229
503.33	23.650
503.67	23.710
504.02	23.480
504.36	23.427
504.71	23.984
505.06	24.045
505.40	23.814
505.75	23.754
506.09	23.352
506.44	23.185
506.78	23.718
507.13	23.493
507.47	22.906
507.82	22.763
508.16	23.272
508.51	22.314
508.85	23.069
509.19	22.751
509.54	23.110
509.88	23.118
510.23	22.737
510.57	22.934
510.92	23.653
511.26	22.497
511.61	22.722
511.95	22.216
512.30	22.265
512.64	23.099
512.98	22.659
513.33	22.535
513.67	22.147
514.02	22.919
514.36	22.472
514.70	23.095
515.05	22.060
515.39	21.875
515.74	21.847
516.08	21.121
516.42	21.141
516.77	20.972
517.11	21.399
517.46	21.609
517.80	21.913
518.14	20.576
518.49	21.640
518.83	21.838
519.17	21.446
519.52	21.773
519.86	20.947
520.20	21.104
520.55	22.015
520.89	21.189
521.23	22.436
521.58	21.618
521.92	20.930
522.26	20.690
522.61	20.556
522.95	20.531
523.29	20.254
523.64	21.742
523.98	21.537
524.32	20.731
524.66	20.260
525.01	21.035
525.35	20.013
525.69	20.610
526.04	19.805
526.38	21.160
526.72	19.855
527.06	20.890
527.41	20.384
527.75	20.561
528.09	21.035
528.43	20.624
528.78	20.866
529.12	20.116
529.46	20.026
529.80	20.906
530.15	19.949
530.49	20.418
530.83	19.838
531.17	20.205
531.51	19.083
531.86	18.902
532.20	20.124
532.54	19.655
532.88	19.946
533.22	19.731
533.57	19.669
533.91	20.710
534.25	21.615
534.59	19.498
534.93	20.217
535.27	20.318
535.62	19.408
535.96	19.388
536.30	20.146
536.64	19.275
536.98	19.411
537.32	20.142
537.66	20.028
538.01	19.071
538.35	19.337
538.69	18.328
539.03	19.732
539.37	19.517
539.71	19.850
540.05	18.826
540.39	18.789
540.73	18.645
541.07	19.184
541.42	19.192
541.76	19.689
542.10	18.483
542.44	18.365
542.78	19.639
543.12	19.340
543.46	18.314
543.80	18.737
544.14	18.513
544.48	17.518
544.82	18.157
545.16	18.661
545.50	19.716
545.84	18.654
546.18	18.233
546.52	19.195
546.86	18.092
547.20	17.798
547.54	17.655
547.88	18.691
548.22	18.827
548.56	19.546
548.90	18.471
549.24	18.333
549.58	18.292
549.92	18.782
550.26	18.893
550.60	17.868
550.94	17.612
551.28	17.335
551.62	17.970
551.96	18.375
552.30	17.322
552.64	18.785
552.98	18.892
553.32	18.097
553.66	18.855
554.00	17.855
554.34	17.216
554.68	18.195
555.02	17.440
555.36	17.625
555.69	17.990
556.03	17.513
556.37	16.643
556.71	17.099
557.05	18.007
557.39	17.558
557.73	17.700
558.07	16.654
558.41	17.487
558.75	17.090
559.08	17.642
559.42	17.860
559.76	17.966
560.10	16.833
560.44	18.055
560.78	17.626
561.12	18.010
561.45	17.415
561.79	17.813
562.13	17.300
562.47	17.214
562.81	17.244
563.15	17.422
563.48	17.206
563.82	17.373
564.16	17.265
564.50	18.114
564.84	18.108
565.17	17.550
565.51	16.511
565.85	17.122
566.19	17.285
566.52	17.169
566.86	16.308
567.20	17.654
567.54	16.811
567.88	17.021
568.21	17.708
568.55	17.475
568.89	17.248
569.23	17.736
569.56	18.023
569.90	17.791
570.24	16.931
570.57	17.673
570.91	18.309
571.25	17.516
571.59	17.529
571.92	17.512
572.26	18.147
572.60	18.017
572.93	17.151
573.27	17.097
573.61	17.650
573.95	17.901
574.28	17.943
574.62	17.724
574.96	17.963
575.29	17.402
575.63	17.808
575.97	17.826
576.30	17.098
576.64	17.841
576.98	17.760
577.31	17.905
577.65	17.583
577.98	18.084
578.32	17.756
578.66	17.892
578.99	18.099
579.33	17.791
579.67	17.744
580.00	17.540
580.34	17.475
580.67	17.932
581.01	17.514
581.35	17.742
581.68	17.982
582.02	17.874
582.35	18.376
582.69	17.604
583.02	17.401
583.36	17.220
583.70	17.141
584.03	17.525
584.37	17.295
584.70	17.683
585.04	17.829
585.37	17.424
585.71	17.704
586.04	17.594
586.38	16.996
586.72	17.280
587.05	18.020
587.39	17.459
587.72	17.527
588.06	17.319
588.39	17.296
588.73	16.998
589.06	16.715
589.40	16.718
589.73	16.888
590.07	16.806
590.40	17.380
590.73	16.977
591.07	16.883
591.40	16.957
591.74	17.030
592.07	16.979
592.41	16.602
592.74	17.130
593.08	16.308
593.41	17.052
593.75	16.376
594.08	16.822
594.41	17.038
594.75	17.279
595.08	16.654
595.42	16.571
595.75	16.811
596.09	16.821
596.42	16.422
596.75	17.201
597.09	16.697
597.42	17.048
597.75	16.222
598.09	16.940
598.42	17.226
598.76	16.331
599.09	17.087
599.42	16.767
599.76	17.499
600.09	16.867
600.42	16.949
600.76	15.965
601.09	16.874
601.42	16.935
601.76	16.757
602.09	16.092
602.42	16.550
602.76	16.023
603.09	16.509
603.42	16.713
603.76	16.524
604.09	16.166
604.42	16.032
604.76	16.107
605.09	16.357
605.42	16.374
605.75	15.889
606.09	15.977
606.42	16.251
606.75	16.147
607.09	16.312
607.42	16.550
607.75	15.492
608.08	16.727
608.42	15.886
608.75	16.627
609.08	15.973
609.41	16.294
609.75	15.784
610.08	16.223
610.41	17.055
610.74	15.881
611.07	16.082
611.41	16.581
611.74	16.356
612.07	16.050
612.40	15.351
612.73	15.203
613.07	16.242
613.40	15.419
613.73	15.764
614.06	15.478
614.39	15.231
614.72	16.158
615.06	15.833
615.39	15.232
615.72	16.091
616.05	15.822
616.38	16.724
616.71	14.937
617.05	15.111
617.38	15.219
617.71	15.809
618.04	15.600
618.37	15.394
618.70	15.718
619.03	15.120
619.36	15.018
619.69	14.327
620.03	14.912
620.36	15.101
620.69	14.347
621.02	14.385
621.35	15.290
621.68	15.240
622.01	14.968
622.34	14.354
622.67	14.957
623.00	15.502
623.33	15.034
623.66	14.796
623.99	15.754
624.32	14.967
624.65	13.947
624.99	14.842
625.32	15.534
625.65	15.581
625.98	14.376
626.31	15.429
626.64	14.187
626.97	14.792
627.30	15.825
627.63	14.446
627.96	13.247
628.29	16.465
628.62	13.540
628.95	14.830
629.28	13.005
629.61	15.407
629.94	14.410
630.26	14.877
630.59	14.585
630.92	14.056
631.25	13.182
631.58	15.632
631.91	14.210
632.24	12.843
632.57	13.444
632.90	13.652
633.23	12.350
633.56	13.429
633.89	15.191
634.22	15.077
634.55	14.616
634.88	14.706
635.20	14.125
635.53	12.920
635.86	13.718
636.19	16.501
636.52	13.293
636.85	13.148
637.18	12.546
637.51	12.360
637.83	12.924
638.16	13.200
638.49	11.749
638.82	12.941
639.15	13.830
639.48	14.305
639.81	12.778
640.13	13.099
640.46	14.548
640.79	12.374
641.12	12.574
641.45	13.683
641.77	13.255
642.10	12.557
642.43	14.623
642.76	14.038
643.09	11.661
643.41	13.397
643.74	12.116
644.07	11.489
644.40	14.096
644.73	12.712
645.05	11.693
645.38	12.791
645.71	14.626
646.04	11.616
646.36	12.500
646.69	12.762
647.02	12.022
647.35	12.797
647.67	12.015
648.00	10.145
648.33	11.356
648.66	12.354
648.98	13.975
649.31	12.883
649.64	12.363
649.96	14.060
650.29	11.928
650.62	11.038
650.94	12.069
651.27	12.721
651.60	12.063
651.92	12.724
652.25	13.400
652.58	14.356
652.90	13.636
653.23	11.545
653.56	10.744
653.88	11.775
654.21	11.263
654.54	11.960
654.86	12.033
655.19	14.146
655.52	16.763
655.84	16.466
656.17	20.017
656.49	26.036
656.82	24.877
657.15	18.162
657.47	13.353
657.80	9.493
658.13	10.118
658.45	15.100
658.78	14.459
659.10	14.521
659.43	14.613
659.75	14.181
660.08	14.000
660.41	11.968
660.73	11.983
661.06	12.415
661.38	9.302
661.71	12.295
662.03	9.514
662.36	11.062
662.68	11.613
663.01	11.653
663.33	10.583
663.66	6.874
663.98	13.483
664.31	12.747
664.63	6.982
664.96	12.254
665.28	13.519
665.61	9.503
665.93	10.278
666.26	12.447
666.58	10.921
666.91	11.883
667.23	9.908
667.56	12.874
667.88	10.748
668.21	9.598
668.53	12.414
668.86	11.751
669.18	12.057
669.50	11.521
669.83	7.399
670.15	10.952
670.48	13.793
670.80	17.068
671.13	11.213
671.45	11.644
671.77	12.284
672.10	10.136
672.42	11.069
672.75	11.429
673.07	11.818
673.39	13.993
673.72	9.581
674.04	11.270
674.37	11.179
674.69	13.169
675.01	10.470
675.34	9.190
675.66	14.815
675.98	11.504
676.31	8.597
676.63	15.193
676.95	8.235
677.28	11.239
677.60	10.049
677.92	13.969
678.25	10.629
678.57	14.053
678.89	9.382
679.22	12.008
679.54	9.388
679.86	13.086
680.18	12.885
680.51	10.577
680.83	11.306
681.15	14.538
681.48	10.020
681.80	12.270
682.12	9.792
682.44	12.676
682.77	8.421
683.09	9.152
683.41	7.674
683.73	10.491
684.06	14.381
684.38	9.188
684.70	10.591
685.02	11.157
685.34	11.350
685.67	14.071
685.99	13.345
686.31	13.966
686.63	10.294
686.96	12.059
687.28	10.579
687.60	13.800
687.92	12.257
688.24	10.000
688.56	14.035
688.89	10.690
689.21	9.417
689.53	7.432
689.85	11.685
690.17	12.747
690.49	12.077
690.82	9.785
691.14	8.937
691.46	10.905
691.78	12.308
692.10	11.890
692.42	8.571
692.74	12.174
693.06	8.989
693.39	10.773
693.71	10.667
694.03	12.727
694.35	12.613
694.67	13.750
694.99	11.856
695.31	11.111
695.63	10.732
695.95	9.160
696.27	10.685
696.59	9.677
696.91	12.570
697.23	9.137
697.56	14.628
697.88	15.385
698.20	13.607
698.52	11.449
698.84	10.287
699.16	11.584
699.48	12.099
699.80	14.729
700.12	14.209
700.44	13.521
700.76	10.112
701.08	7.855
701.40	11.078
701.72	12.923
702.04	8.805
702.36	10.061
702.68	6.707
703.00	10.819
703.32	10.306
703.64	7.229
703.96	8.211
704.28	9.036
704.60	11.585
704.91	7.210
705.23	7.911
705.55	4.828
705.87	8.451
706.19	4.396
706.51	10.563
706.83	7.325
707.15	10.671
707.47	9.917
707.79	11.168
708.11	9.254
708.43	12.437
708.74	9.840
709.06	9.893
709.38	9.798
709.70	8.108
710.02	9.969
710.34	5.333
710.66	9.772
710.98	10.836
711.29	10.714
711.61	10.000
711.93	8.710
712.25	7.343
712.57	6.667
712.89	5.495
713.20	10.993
713.52	6.934
713.84	12.258
714.16	9.061
714.48	8.228
714.80	5.431
715.11	12.209
715.43	7.453
715.75	9.627
716.07	15.060
716.39	7.407
716.70	12.950
717.02	2.745
717.34	7.955
717.66	6.034
717.97	5.556
718.29	9.055
718.61	9.442
718.93	3.876
719.24	8.856
719.56	8.240
719.88	10.075
720.20	5.534
720.51	7.813
720.83	12.451
721.15	4.472
721.46	10.305
721.78	12.351
722.10	8.765
722.42	7.661
722.73	10.039
723.05	6.531
723.37	12.185
723.68	7.600
724.00	0.851
724.32	7.113
724.63	8.642
724.95	2.564
725.27	13.080
725.58	13.169
725.90	10.042
726.22	10.507
726.53	7.451
726.85	8.029
727.16	7.037
727.48	11.111
727.80	16.016
728.11	8.607
728.43	9.375
728.74	10.317
729.06	8.800
729.38	11.858
729.69	10.320
730.01	8.550
730.32	11.070
730.64	8.712
730.96	13.986
731.27	7.358
731.59	9.524
731.90	9.709
732.22	8.974
732.53	9.459
732.85	10.403
733.16	9.901
733.48	10.811
733.80	10.811
734.11	10.135
734.43	8.978
734.74	13.213
735.06	14.121
735.37	12.462
735.69	8.091
736.00	6.601
736.32	10.284
736.63	7.931
736.95	12.329
737.26	4.483
737.58	8.333
737.89	10.997
738.21	7.117
738.52	6.464
738.83	8.980
739.15	8.017
739.46	5.058
739.78	12.676
740.09	9.589
740.41	6.071
740.72	7.801
741.04	6.400
741.35	5.702
741.66	12.889
741.98	8.654
742.29	9.406
742.61	11.220
742.92	17.982
743.23	6.604
743.55	12.613
743.86	3.139
744.18	6.373
744.49	13.706
744.80	7.653
745.12	7.477
745.43	11.374
745.74	12.613
746.06	6.542
746.37	6.422
746.68	3.846
747.00	8.612
747.31	9.135
747.62	13.303
747.94	12.664
748.25	9.633
748.56	12.889
748.88	13.615
749.19	10.952
749.50	7.767
749.82	4.225
750.13	3.750
750.44	5.000
750.75	6.273
751.07	12.456
751.38	9.574
751.69	7.722
752.01	10.156
752.32	5.385
752.63	8.582
752.94	6.000
753.26	13.389
753.57	5.417
753.88	9.717
754.19	9.562
754.51	12.406
754.82	6.593
755.13	4.783
755.44	11.789
755.75	4.400
756.07	6.642
756.38	8.993
756.69	7.850
757.00	14.642
757.31	11.327
757.63	9.568
757.94	12.994
758.25	11.111
758.56	13.315
758.87	11.607
759.18	10.726
759.50	6.397
759.81	13.043
760.12	12.308
760.43	10.714
760.74	10.169
761.05	11.602
761.36	12.894
761.67	7.553
761.99	8.591
762.30	8.394
762.61	9.465
762.92	12.821
763.23	11.475
763.54	11.688
763.85	7.755
764.16	6.504
764.47	8.400
764.78	9.286
765.10	8.852
765.41	10.030
765.72	10.559
766.03	8.581
766.34	10.385
766.65	5.858
766.96	6.573
767.27	16.337
767.58	0.000
767.89	6.790
768.20	5.525
768.51	10.050
768.82	10.577
769.13	14.159
769.44	11.297
769.75	2.991
770.06	8.072
770.37	10.294
770.68	13.107
770.99	6.311
771.30	5.462
771.61	11.837
771.92	9.959
772.23	6.306
772.54	1.105
772.85	8.140
773.16	13.228
773.47	4.142
773.78	14.943
774.09	7.500
774.39	7.453
774.70	10.884
775.01	4.138
775.32	6.429
775.63	4.511
775.94	3.008
776.25	1.600
776.56	4.132
776.87	9.524
777.18	0.000
777.48	11.712
777.79	2.362
778.10	4.587
778.41	-2.632
778.72	-1.681
779.03	3.521
779.34	6.757
779.65	8.451
779.95	9.272
780.26	2.878
780.57	7.914
780.88	5.634
781.19	0.840
781.50	10.738
781.80	5.263
782.11	5.814
782.42	10.692
782.73	13.725
783.04	0.000
783.34	3.817
783.65	3.356
783.96	3.846
784.27	4.286
784.57	10.638
784.88	4.808
785.19	7.273
785.50	9.091
785.81	3.810
786.11	2.521
786.42	-0.885
786.73	4.717
787.04	0.917
787.34	-5.941
787.65	3.333
787.96	2.479
788.26	7.971
788.57	3.968
788.88	5.691
789.19	7.200
789.49	4.580
789.80	21.970
790.11	8.491
790.41	10.891
790.72	4.255
791.03	-2.174
791.33	-8.235
791.64	3.704
791.95	0.000
792.25	10.227
792.56	11.538
792.87	-5.128
793.17	-11.538
793.48	4.762
793.79	-2.500
794.09	5.769
794.40	8.333
794.70	9.910
795.01	7.813
795.32	9.565
795.62	-5.435
795.93	2.830
796.23	9.091
796.54	-4.878
796.85	2.381
797.15	-3.030
797.46	-13.043
797.76	-5.263
798.07	3.409
798.37	-12.195
798.68	-12.903
798.99	-6.757
799.29	2.410
799.60	0.000
799.90	-1.538
800.21	12.121
800.51	-8.000
800.82	5.333
801.12	-29.167
801.43	-8.333
801.73	-5.405
802.04	17.143
802.34	11.475
802.65	8.955
802.95	-12.727
803.26	10.345
803.56	9.231
803.87	-13.208
804.17	-16.129
804.48	-13.235
804.78	-14.634
805.09	-8.696
805.39	4.412
805.70	-4.255
806.00	1.754
806.30	3.846
806.61	3.947
806.91	0.000
807.22	2.632
807.52	2.273
807.83	-16.949
808.13	-31.818
808.43	1.667
808.74	-22.414
809.04	1.587
809.35	-20.408
809.65	-3.333
809.95	-8.163
810.26	14.085
810.56	0.000
810.86	4.082
811.17	26.923
811.47	-2.128
811.77	-6.250
812.08	16.981
812.38	-40.625
812.69	-10.909
812.99	-29.268
813.29	-16.216
813.59	-24.324
813.90	-5.455
814.20	-16.364
814.50	-11.667
814.81	-12.727
815.11	-8.772
815.41	6.977
815.72	-2.500
816.02	-17.143
816.32	10.811
816.62	-2.083
816.93	20.000
817.23	-22.222
817.53	-33.333
817.84	-16.216
818.14	-14.634
818.44	-10.000
818.74	-4.082
819.04	7.317
819.35	-16.667
819.65	-6.818
819.95	-105.556
820.25	6.061
820.56	2.381
820.86	-11.111
821.16	-13.636
821.46	0.000
821.76	-17.241
822.07	-2.174
822.37	-6.061
822.67	19.512
822.97	-2.703
823.27	-28.571
823.57	-10.345
823.88	-35.294
824.18	-36.111
824.48	-22.857
824.78	-76.190
825.08	-25.000
825.38	-22.222
825.69	-19.355
825.99	-9.756
826.29	-48.148
826.59	-6.250
826.89	0.000
827.19	-47.826
827.49	-36.111
827.79	-69.565
828.09	-54.839
828.39	-10.417
828.70	-53.125
829.00	-17.241
829.30	-5.405
829.60	-33.333
829.90	-7.407
830.20	-25.000
830.50	-13.636
830.80	-123.529
831.10	-31.818
831.40	-32.353
831.70	-38.462
832.00	9.091
832.30	-2.941
832.60	-8.108
832.90	1400.000
833.20	14.286
833.50	-75.000
833.80	5.263
834.10	-58.333
834.40	-22.727
834.70	-26.667
835.00	-140.000
835.30	0.000
835.60	-76.190
835.90	23.810
836.20	-28.000
836.50	-29.167
836.80	-84.211
837.10	8.108
837.40	10.000
837.70	-17.391
838.00	75.000
838.30	-15.789
838.60	-100.000
838.90	-180.000
839.19	-58.333
839.49	-46.154
839.79	-26.316
840.09	-250.000
840.39	-100.000
840.69	-13.636
840.99	-28.571
841.29	-16.667
841.59	-76.923
841.88	-80.000
842.18	-64.286
842.48	10.000
842.78	-385.714
843.08	0.000
843.38	-187.500
843.68	-62.500
843.97	0.000
844.27	-77.778
844.57	-118.182
844.87	-73.333
845.17	-22.727
845.47	833.333
845.76	-80.000
846.06	-125.000
846.36	-650.000
846.66	-63.158
846.96	0.000
847.25	-100.000
847.55	-177.778
847.85	-28.571
848.15	-53.846
848.44	-400.000
848.74	-75.000
849.04	-76.923
849.34	-25.000
849.63	-227.273
849.93	-85.714
850.23	-15.000
850.53	-237.500
850.82	-77.778
851.12	-80.000
851.42	-94.118
851.71	-62.500
852.01	-58.824
852.31	-38.462
852.61	650.000
852.90	-23.529
853.20	-26.667
853.50	-31.250
853.79	-142.857
854.09	-275.000
854.39	-35.000
854.68	-17.500
854.98	-76.190
855.28	-56.000
855.57	-20.833
855.87	-4.167
856.17	-24.000
856.46	-12.500
856.76	30.000
857.05	8.000
857.35	-66.667
857.65	-5.882
857.94	-108.333
858.24	-133.333
858.53	0.000
858.83	-118.182
859.13	-24.000
859.42	-14.286
859.72	-125.000
860.01	20.833
860.31	-150.000
860.60	-75.000
860.90	-266.667
861.20	16.667
861.49	-20.000
861.79	-50.000
862.08	400.000
862.38	-191.667
862.67	285.714
862.97	350.000
863.26	-100.000
863.56	-81.818
863.85	26.316
864.15	-41.176
864.44	-240.000
864.74	-40.000
865.03	-233.333
865.33	-28.571
865.62	142.857
865.92	-5.263
866.21	-16.667
866.51	0.000
866.80	-55.556
867.10	-150.000
867.39	18.750
867.69	-26.667
867.98	20.000
868.27	-17.647
868.57	0.000
868.86	700.000
869.16	-275.000
869.45	-128.571
869.75	800.000
870.04	10.000
870.33	-1500.000
870.63	-31.579
870.92	8.333
871.22	-1100.000
871.51	-71.429
871.80	-155.556
872.10	-150.000
>>>>>End Processed Spectral Data<<<<<
