SpectraSuite Data File
++++++++++++++++++++++++++++++++++++
Date: Wed May 13 21:45:29 PDT 2015
User: schluterlab
Dark Spectrum Present: Yes
Reference Spectrum Present: Yes
Number of Sampled Component Spectra: 1
Spectrometers: USB2E3373
Integration Time (usec): 3000 (USB2E3373)
Spectra Averaged: 3 (USB2E3373)
Boxcar Smoothing: 0 (USB2E3373)
Correct for Electrical Dark: No (USB2E3373)
Strobe/Lamp Enabled: No (USB2E3373)
Correct for Detector Non-linearity: No (USB2E3373)
Correct for Stray Light: No (USB2E3373)
Number of Pixels in Processed Spectrum: 2048
>>>>>Begin Processed Spectral Data<<<<<
178.53	0.000
178.91	550.000
179.29	225.000
179.67	-500.000
180.04	-433.333
180.42	80.000
180.80	700.000
181.18	216.667
181.56	-600.000
181.94	-275.000
182.31	0.000
182.69	146.154
183.07	60.000
183.45	233.333
183.83	233.333
184.20	114.286
184.58	0.000
184.96	333.333
185.34	214.286
185.72	0.000
186.09	-900.000
186.47	-40.000
186.85	160.000
187.23	0.000
187.61	700.000
187.98	1400.000
188.36	-12.500
188.74	0.000
189.12	63.636
189.49	40.000
189.87	100.000
190.25	380.000
190.63	900.000
191.00	-120.000
191.38	140.000
191.76	400.000
192.14	158.333
192.51	5.263
192.89	366.667
193.27	375.000
193.65	-40.000
194.02	163.636
194.40	210.000
194.78	200.000
195.15	-20.000
195.53	-120.000
195.91	100.000
196.29	-100.000
196.66	0.000
197.04	150.000
197.42	0.000
197.79	-40.000
198.17	-62.500
198.55	-300.000
198.92	300.000
199.30	-400.000
199.68	-10.000
200.05	-150.000
200.43	133.333
200.81	-700.000
201.18	-240.000
201.56	0.000
201.94	475.000
202.31	0.000
202.69	42.857
203.07	-466.667
203.44	20.000
203.82	-133.333
204.19	20.000
204.57	0.000
204.95	-166.667
205.32	0.000
205.70	-350.000
206.08	-200.000
206.45	33.333
206.83	450.000
207.20	-200.000
207.58	-50.000
207.96	-1900.000
208.33	-71.429
208.71	-200.000
209.08	187.500
209.46	175.000
209.84	0.000
210.21	80.000
210.59	1200.000
210.96	420.000
211.34	700.000
211.71	-550.000
212.09	-233.333
212.46	-80.000
212.84	-233.333
213.22	100.000
213.59	-200.000
213.97	-250.000
214.34	-500.000
214.72	-69.231
215.09	162.500
215.47	77.778
215.84	100.000
216.22	-25.000
216.59	-550.000
216.97	400.000
217.34	144.444
217.72	0.000
218.09	233.333
218.47	1100.000
218.84	-42.857
219.22	-112.500
219.59	-33.333
219.97	-150.000
220.34	-100.000
220.72	-80.000
221.09	0.000
221.47	-233.333
221.84	300.000
222.22	0.000
222.59	1400.000
222.97	-366.667
223.34	75.000
223.72	900.000
224.09	-450.000
224.46	27.273
224.84	-12.500
225.21	-28.571
225.59	-125.000
225.96	-83.333
226.34	-10.000
226.71	0.000
227.08	450.000
227.46	-100.000
227.83	-200.000
228.21	-43.750
228.58	-250.000
228.95	-17.647
229.33	-18.750
229.70	-137.500
230.08	-69.231
230.45	-187.500
230.82	-58.333
231.20	114.286
231.57	-250.000
231.95	200.000
232.32	58.333
232.69	0.000
233.07	300.000
233.44	-4.348
233.81	-200.000
234.19	8.333
234.56	-13.333
234.93	-66.667
235.31	15.789
235.68	-84.615
236.05	53.846
236.43	-11.111
236.80	15.152
237.17	-46.667
237.55	-35.294
237.92	-6.897
238.29	-22.222
238.67	-11.111
239.04	-19.355
239.41	12.766
239.79	21.277
240.16	30.233
240.53	21.429
240.91	44.643
241.28	12.500
241.65	19.355
242.02	10.526
242.40	17.391
242.77	10.145
243.14	14.103
243.51	19.149
243.89	26.923
244.26	29.245
244.63	16.346
245.00	32.292
245.38	25.210
245.75	16.393
246.12	18.045
246.49	8.943
246.87	10.924
247.24	20.270
247.61	23.179
247.98	18.590
248.36	18.343
248.73	19.101
249.10	14.646
249.47	19.892
249.84	21.053
250.22	22.388
250.59	17.757
250.96	17.727
251.33	15.311
251.70	23.849
252.08	22.176
252.45	23.868
252.82	22.814
253.19	19.066
253.56	17.266
253.94	20.996
254.31	18.662
254.68	18.456
255.05	20.132
255.42	18.182
255.79	19.325
256.16	19.558
256.54	17.143
256.91	18.671
257.28	22.956
257.65	18.471
258.02	19.355
258.39	22.222
258.76	19.477
259.14	19.602
259.51	15.730
259.88	18.699
260.25	18.889
260.62	19.101
260.99	23.607
261.36	22.798
261.73	19.259
262.10	17.812
262.47	18.765
262.85	17.910
263.22	22.051
263.59	18.442
263.96	16.302
264.33	20.673
264.70	18.837
265.07	20.602
265.44	20.690
265.81	21.510
266.18	16.629
266.55	18.777
266.92	17.373
267.29	20.165
267.66	21.231
268.03	20.782
268.40	18.856
268.77	19.421
269.14	20.000
269.51	23.409
269.88	18.941
270.25	19.280
270.62	20.287
270.99	20.472
271.36	20.238
271.73	20.884
272.10	19.238
272.47	19.578
272.84	20.472
273.21	20.939
273.58	20.287
273.95	20.189
274.32	20.149
274.69	21.676
275.06	20.495
275.43	20.527
275.80	19.326
276.17	21.363
276.54	18.472
276.91	19.512
277.28	18.953
277.65	20.280
278.02	20.357
278.39	18.295
278.76	19.231
279.13	18.868
279.50	18.621
279.87	17.029
280.23	21.441
280.60	18.512
280.97	19.156
281.34	23.817
281.71	18.699
282.08	20.684
282.45	20.164
282.82	20.128
283.19	21.799
283.56	18.594
283.92	19.266
284.29	20.437
284.66	18.122
285.03	19.381
285.40	20.091
285.77	18.468
286.14	19.909
286.51	21.139
286.87	19.385
287.24	20.059
287.61	19.880
287.98	20.882
288.35	19.225
288.72	19.943
289.08	20.655
289.45	18.796
289.82	20.272
290.19	19.916
290.56	18.324
290.93	18.785
291.29	19.562
291.66	18.306
292.03	19.346
292.40	18.708
292.77	19.009
293.13	19.526
293.50	17.516
293.87	20.133
294.24	18.386
294.60	18.986
294.97	19.841
295.34	18.997
295.71	17.346
296.08	18.455
296.44	18.240
296.81	17.905
297.18	19.625
297.55	19.693
297.91	21.118
298.28	19.976
298.65	20.320
299.02	20.147
299.38	20.613
299.75	19.712
300.12	17.558
300.48	20.936
300.85	21.709
301.22	21.254
301.59	20.423
301.95	20.325
302.32	19.020
302.69	19.774
303.05	21.152
303.42	20.795
303.79	22.503
304.15	21.468
304.52	22.581
304.89	21.705
305.25	20.417
305.62	22.777
305.99	23.395
306.35	21.421
306.72	23.093
307.09	23.670
307.45	23.642
307.82	23.263
308.19	22.257
308.55	23.541
308.92	26.130
309.29	24.024
309.65	25.075
310.02	24.254
310.38	26.423
310.75	24.260
311.12	26.239
311.48	25.915
311.85	26.181
312.22	27.660
312.58	26.280
312.95	28.159
313.31	27.273
313.68	28.340
314.05	28.261
314.41	29.779
314.78	29.222
315.14	29.352
315.51	30.352
315.87	31.047
316.24	30.670
316.61	29.772
316.97	31.296
317.34	31.996
317.70	32.382
318.07	33.363
318.43	33.062
318.80	33.595
319.16	33.687
319.53	33.244
319.89	34.237
320.26	36.691
320.62	36.330
320.99	36.143
321.35	36.483
321.72	36.477
322.08	38.745
322.45	39.223
322.81	40.388
323.18	40.250
323.54	42.058
323.91	41.283
324.27	41.944
324.64	41.551
325.00	43.307
325.37	45.137
325.73	43.939
326.10	46.257
326.46	47.492
326.83	47.977
327.19	48.455
327.56	49.396
327.92	48.592
328.29	51.002
328.65	50.920
329.01	52.243
329.38	53.130
329.74	51.931
330.11	52.840
330.47	53.819
330.84	54.513
331.20	54.056
331.56	55.525
331.93	55.383
332.29	56.299
332.66	54.322
333.02	55.951
333.38	56.140
333.75	56.229
334.11	57.986
334.48	56.844
334.84	56.714
335.20	56.604
335.57	56.484
335.93	56.271
336.29	57.356
336.66	55.385
337.02	56.609
337.38	55.004
337.75	56.158
338.11	57.558
338.47	58.048
338.84	55.412
339.20	58.907
339.56	57.679
339.93	58.686
340.29	57.899
340.65	58.854
341.02	58.153
341.38	58.699
341.74	56.639
342.11	59.125
342.47	57.657
342.83	57.026
343.20	60.321
343.56	57.645
343.92	57.677
344.28	59.334
344.65	59.020
345.01	58.354
345.37	58.306
345.73	60.784
346.10	59.390
346.46	59.350
346.82	59.872
347.19	57.991
347.55	60.582
347.91	59.626
348.27	58.675
348.63	60.096
349.00	59.355
349.36	61.303
349.72	59.087
350.08	60.998
350.45	59.984
350.81	61.268
351.17	60.354
351.53	60.487
351.89	60.127
352.26	60.618
352.62	61.550
352.98	60.863
353.34	62.963
353.70	61.293
354.07	60.863
354.43	61.120
354.79	62.660
355.15	61.335
355.51	61.124
355.87	62.314
356.24	63.242
356.60	63.565
356.96	62.241
357.32	62.461
357.68	62.414
358.04	63.693
358.40	63.256
358.77	63.914
359.13	64.280
359.49	63.815
359.85	63.154
360.21	63.917
360.57	64.259
360.93	63.581
361.29	65.063
361.66	63.933
362.02	64.270
362.38	64.476
362.74	64.612
363.10	65.148
363.46	64.625
363.82	65.706
364.18	63.307
364.54	66.375
364.90	65.296
365.26	65.817
365.62	66.193
365.98	65.907
366.35	66.879
366.71	67.546
367.07	66.052
367.43	66.341
367.79	66.644
368.15	67.722
368.51	65.120
368.87	67.830
369.23	65.552
369.59	66.878
369.95	68.433
370.31	67.643
370.67	67.415
371.03	68.597
371.39	68.843
371.75	68.714
372.11	67.521
372.47	69.214
372.83	68.308
373.19	69.353
373.55	69.725
373.91	68.953
374.27	68.050
374.63	69.559
374.99	70.334
375.35	69.658
375.71	67.663
376.07	70.254
376.42	70.588
376.78	70.938
377.14	71.932
377.50	70.730
377.86	72.377
378.22	70.607
378.58	69.672
378.94	72.500
379.30	71.643
379.66	72.750
380.02	71.752
380.38	70.663
380.74	71.847
381.09	71.291
381.45	71.524
381.81	70.795
382.17	72.590
382.53	70.338
382.89	72.014
383.25	71.728
383.61	72.397
383.97	72.562
384.32	73.220
384.68	72.239
385.04	71.350
385.40	73.724
385.76	73.844
386.12	72.498
386.48	72.915
386.83	73.529
387.19	72.486
387.55	73.391
387.91	74.785
388.27	72.688
388.62	75.031
388.98	74.093
389.34	73.747
389.70	73.443
390.06	73.313
390.42	74.098
390.77	73.479
391.13	73.990
391.49	73.371
391.85	74.249
392.20	74.123
392.56	74.794
392.92	73.142
393.28	73.039
393.64	73.945
393.99	72.827
394.35	74.383
394.71	74.744
395.07	72.013
395.42	73.492
395.78	75.032
396.14	75.587
396.50	74.001
396.85	75.590
397.21	74.469
397.57	72.981
397.92	73.353
398.28	72.927
398.64	71.645
399.00	73.493
399.35	73.610
399.71	72.860
400.07	73.976
400.42	73.856
400.78	72.387
401.14	73.758
401.49	73.457
401.85	74.079
402.21	74.861
402.57	73.023
402.92	74.468
403.28	72.858
403.63	73.714
403.99	74.152
404.35	73.441
404.70	72.749
405.06	74.398
405.42	72.927
405.77	73.560
406.13	72.629
406.49	72.319
406.84	73.687
407.20	71.995
407.55	75.844
407.91	73.197
408.27	72.863
408.62	73.481
408.98	73.551
409.34	72.710
409.69	72.904
410.05	72.512
410.40	72.428
410.76	72.984
411.11	73.694
411.47	74.851
411.83	74.797
412.18	73.363
412.54	72.870
412.89	74.859
413.25	73.156
413.60	72.915
413.96	73.096
414.31	72.626
414.67	72.190
415.03	75.304
415.38	72.787
415.74	73.294
416.09	74.620
416.45	73.958
416.80	75.570
417.16	73.617
417.51	75.218
417.87	74.802
418.22	73.950
418.58	73.259
418.93	76.334
419.29	76.766
419.64	73.855
420.00	74.730
420.35	74.357
420.71	75.015
421.06	74.539
421.42	75.426
421.77	75.491
422.12	75.587
422.48	73.555
422.83	75.133
423.19	75.733
423.54	76.737
423.90	75.238
424.25	76.950
424.61	76.771
424.96	76.878
425.31	74.089
425.67	76.955
426.02	77.385
426.38	78.731
426.73	78.009
427.09	78.236
427.44	77.217
427.79	77.732
428.15	77.370
428.50	76.798
428.85	78.352
429.21	77.490
429.56	77.683
429.92	78.449
430.27	78.067
430.62	78.227
430.98	76.891
431.33	77.754
431.68	78.594
432.04	80.507
432.39	77.252
432.74	77.805
433.10	80.070
433.45	78.225
433.80	77.931
434.16	77.772
434.51	78.152
434.86	78.857
435.22	80.079
435.57	78.378
435.92	80.036
436.28	77.598
436.63	79.677
436.98	79.671
437.34	81.136
437.69	78.335
438.04	79.796
438.39	81.258
438.75	80.751
439.10	81.261
439.45	79.600
439.81	80.542
440.16	80.174
440.51	79.608
440.86	80.498
441.22	81.124
441.57	80.098
441.92	79.990
442.27	79.654
442.63	79.386
442.98	80.324
443.33	81.095
443.68	79.547
444.03	80.527
444.39	79.623
444.74	80.342
445.09	79.626
445.44	80.451
445.79	81.053
446.15	81.087
446.50	79.075
446.85	80.652
447.20	80.031
447.55	79.519
447.91	80.225
448.26	81.704
448.61	80.207
448.96	81.207
449.31	80.640
449.66	80.972
450.02	81.012
450.37	81.140
450.72	80.827
451.07	80.376
451.42	79.850
451.77	81.984
452.12	79.976
452.47	80.181
452.83	79.835
453.18	81.158
453.53	81.904
453.88	81.566
454.23	82.077
454.58	81.924
454.93	79.987
455.28	80.668
455.63	81.223
455.98	83.688
456.34	80.038
456.69	82.109
457.04	79.443
457.39	82.321
457.74	79.773
458.09	80.983
458.44	81.727
458.79	79.901
459.14	77.809
459.49	82.378
459.84	79.651
460.19	79.232
460.54	81.144
460.89	79.392
461.24	79.223
461.59	81.461
461.94	80.973
462.29	82.047
462.64	83.113
462.99	80.148
463.34	82.528
463.69	81.572
464.04	80.312
464.39	81.086
464.74	81.020
465.09	81.029
465.44	79.349
465.79	80.276
466.14	80.331
466.49	81.701
466.84	80.514
467.19	81.592
467.54	81.335
467.89	81.207
468.24	82.729
468.59	81.453
468.94	81.545
469.29	82.155
469.64	83.054
469.99	83.517
470.34	80.917
470.68	82.974
471.03	82.793
471.38	81.641
471.73	82.373
472.08	83.711
472.43	83.509
472.78	81.406
473.13	80.343
473.48	81.539
473.83	82.800
474.17	82.357
474.52	83.560
474.87	80.579
475.22	83.454
475.57	81.149
475.92	82.116
476.27	80.594
476.61	80.351
476.96	80.754
477.31	81.068
477.66	81.751
478.01	80.385
478.36	81.090
478.70	81.740
479.05	82.630
479.40	81.019
479.75	82.094
480.10	81.693
480.45	80.824
480.79	81.185
481.14	81.155
481.49	80.612
481.84	80.066
482.19	79.481
482.53	80.571
482.88	80.777
483.23	81.039
483.58	81.900
483.92	81.518
484.27	79.552
484.62	78.784
484.97	79.013
485.31	78.416
485.66	72.455
486.01	71.560
486.36	70.944
486.70	73.105
487.05	74.598
487.40	76.537
487.75	77.060
488.09	77.260
488.44	78.023
488.79	78.766
489.13	78.449
489.48	79.863
489.83	79.768
490.17	81.071
490.52	81.300
490.87	78.906
491.22	80.782
491.56	80.642
491.91	80.029
492.26	82.302
492.60	79.798
492.95	80.709
493.30	80.475
493.64	80.767
493.99	81.498
494.34	81.310
494.68	81.384
495.03	81.670
495.37	79.708
495.72	81.604
496.07	82.562
496.41	79.270
496.76	80.941
497.11	80.751
497.45	81.420
497.80	81.474
498.14	81.360
498.49	81.493
498.84	81.781
499.18	79.293
499.53	80.355
499.87	79.767
500.22	81.981
500.56	81.595
500.91	81.237
501.26	80.099
501.60	80.539
501.95	80.307
502.29	80.291
502.64	79.364
502.98	80.154
503.33	79.367
503.67	79.211
504.02	80.000
504.36	79.198
504.71	79.522
505.06	80.234
505.40	82.062
505.75	79.959
506.09	80.327
506.44	80.091
506.78	80.091
507.13	81.185
507.47	81.177
507.82	79.383
508.16	80.580
508.51	79.390
508.85	80.715
509.19	81.746
509.54	81.555
509.88	80.645
510.23	80.474
510.57	79.608
510.92	80.603
511.26	82.068
511.61	81.120
511.95	80.485
512.30	79.567
512.64	82.520
512.98	80.332
513.33	82.310
513.67	81.317
514.02	81.585
514.36	82.247
514.70	80.889
515.05	82.095
515.39	82.842
515.74	82.297
516.08	81.888
516.42	81.106
516.77	81.429
517.11	82.128
517.46	84.214
517.80	83.898
518.14	81.874
518.49	83.002
518.83	81.802
519.17	82.410
519.52	82.811
519.86	84.639
520.20	82.050
520.55	84.639
520.89	83.175
521.23	85.449
521.58	84.450
521.92	82.087
522.26	83.279
522.61	83.840
522.95	84.067
523.29	82.540
523.64	82.136
523.98	81.639
524.32	80.655
524.66	83.506
525.01	83.879
525.35	85.056
525.69	83.963
526.04	81.954
526.38	82.792
526.72	83.169
527.06	82.012
527.41	82.462
527.75	81.041
528.09	84.071
528.43	84.464
528.78	81.783
529.12	82.665
529.46	81.958
529.80	81.359
530.15	80.631
530.49	83.491
530.83	83.209
531.17	84.726
531.51	81.861
531.86	83.469
532.20	80.841
532.54	81.448
532.88	81.892
533.22	81.481
533.57	81.854
533.91	81.613
534.25	80.924
534.59	80.373
534.93	80.102
535.27	80.127
535.62	81.711
535.96	78.595
536.30	81.184
536.64	81.271
536.98	80.939
537.32	82.918
537.66	81.735
538.01	81.415
538.35	80.801
538.69	78.528
539.03	77.248
539.37	78.538
539.71	80.150
540.05	78.745
540.39	78.527
540.73	80.098
541.07	80.272
541.42	78.451
541.76	79.838
542.10	79.553
542.44	79.626
542.78	78.834
543.12	79.043
543.46	79.129
543.80	77.257
544.14	80.385
544.48	77.704
544.82	80.229
545.16	78.499
545.50	79.068
545.84	80.224
546.18	77.630
546.52	78.335
546.86	78.516
547.20	79.771
547.54	76.340
547.88	80.094
548.22	76.808
548.56	75.517
548.90	76.793
549.24	80.347
549.58	79.288
549.92	80.778
550.26	81.771
550.60	80.405
550.94	80.746
551.28	80.091
551.62	79.624
551.96	79.283
552.30	78.894
552.64	77.613
552.98	78.835
553.32	78.298
553.66	80.411
554.00	78.186
554.34	79.267
554.68	80.015
555.02	78.743
555.36	80.030
555.69	79.170
556.03	78.699
556.37	76.671
556.71	75.543
557.05	79.779
557.39	80.407
557.73	79.879
558.07	80.030
558.41	80.167
558.75	79.831
559.08	80.593
559.42	81.039
559.76	76.529
560.10	79.477
560.44	78.408
560.78	78.273
561.12	76.454
561.45	76.054
561.79	76.479
562.13	77.356
562.47	77.857
562.81	78.211
563.15	76.062
563.48	76.118
563.82	77.223
564.16	75.897
564.50	76.730
564.84	76.622
565.17	74.967
565.51	75.134
565.85	74.350
566.19	77.086
566.52	74.771
566.86	73.451
567.20	73.060
567.54	72.827
567.88	71.501
568.21	70.125
568.55	70.631
568.89	69.840
569.23	68.423
569.56	67.000
569.90	65.759
570.24	65.307
570.57	64.517
570.91	64.947
571.25	63.185
571.59	63.349
571.92	63.626
572.26	63.380
572.60	64.306
572.93	64.136
573.27	62.618
573.61	63.403
573.95	62.480
574.28	62.181
574.62	61.022
574.96	60.285
575.29	61.058
575.63	61.828
575.97	63.750
576.30	62.004
576.64	62.222
576.98	61.049
577.31	60.486
577.65	59.664
577.98	59.859
578.32	59.624
578.66	60.315
578.99	60.892
579.33	61.519
579.67	61.456
580.00	60.398
580.34	60.616
580.67	60.510
581.01	60.308
581.35	59.570
581.68	59.076
582.02	59.063
582.35	58.857
582.69	59.034
583.02	59.439
583.36	60.683
583.70	61.201
584.03	61.283
584.37	61.011
584.70	60.373
585.04	60.715
585.37	60.632
585.71	60.010
586.04	60.376
586.38	60.353
586.72	60.214
587.05	61.111
587.39	60.739
587.72	60.824
588.06	61.012
588.39	60.453
588.73	60.379
589.06	62.011
589.40	62.367
589.73	61.588
590.07	62.122
590.40	63.044
590.73	64.627
591.07	64.187
591.40	62.870
591.74	64.962
592.07	64.445
592.41	64.007
592.74	62.037
593.08	60.786
593.41	60.051
593.75	60.627
594.08	60.898
594.41	62.121
594.75	61.657
595.08	62.136
595.42	61.346
595.75	61.280
596.09	63.048
596.42	62.949
596.75	63.932
597.09	64.331
597.42	64.872
597.75	64.133
598.09	63.024
598.42	64.161
598.76	62.217
599.09	62.385
599.42	60.574
599.76	61.322
600.09	61.935
600.42	61.168
600.76	60.052
601.09	60.640
601.42	61.113
601.76	60.116
602.09	62.262
602.42	62.485
602.76	61.997
603.09	62.136
603.42	61.815
603.76	60.912
604.09	61.186
604.42	60.904
604.76	62.375
605.09	62.030
605.42	63.473
605.75	60.685
606.09	60.430
606.42	61.139
606.75	62.121
607.09	61.968
607.42	61.909
607.75	61.225
608.08	62.894
608.42	62.699
608.75	62.542
609.08	62.714
609.41	62.494
609.75	63.389
610.08	63.018
610.41	62.391
610.74	62.849
611.07	62.425
611.41	63.357
611.74	63.043
612.07	60.969
612.40	64.919
612.73	63.282
613.07	63.692
613.40	62.885
613.73	63.489
614.06	63.018
614.39	63.035
614.72	63.132
615.06	62.611
615.39	63.024
615.72	62.797
616.05	63.739
616.38	64.204
616.71	63.827
617.05	64.128
617.38	62.230
617.71	63.664
618.04	64.046
618.37	64.732
618.70	64.748
619.03	65.292
619.36	66.762
619.69	66.520
620.03	64.876
620.36	65.344
620.69	64.739
621.02	66.692
621.35	68.847
621.68	66.911
622.01	67.961
622.34	66.376
622.67	67.267
623.00	65.881
623.33	66.866
623.66	66.766
623.99	66.242
624.32	64.857
624.65	66.395
624.99	65.540
625.32	64.899
625.65	66.434
625.98	66.193
626.31	67.837
626.64	69.475
626.97	67.993
627.30	68.007
627.63	68.080
627.96	66.407
628.29	70.326
628.62	70.696
628.95	70.842
629.28	71.429
629.61	70.239
629.94	70.503
630.26	70.837
630.59	71.129
630.92	70.683
631.25	70.237
631.58	71.734
631.91	71.156
632.24	70.143
632.57	74.333
632.90	74.679
633.23	73.141
633.56	74.940
633.89	73.445
634.22	73.616
634.55	74.543
634.88	72.426
635.20	74.375
635.53	75.065
635.86	75.128
636.19	74.069
636.52	73.171
636.85	73.221
637.18	68.697
637.51	73.159
637.83	73.238
638.16	73.600
638.49	73.832
638.82	74.248
639.15	72.207
639.48	73.128
639.81	74.028
640.13	77.183
640.46	75.424
640.79	75.396
641.12	76.775
641.45	73.654
641.77	76.289
642.10	76.248
642.43	78.931
642.76	74.763
643.09	76.997
643.41	75.758
643.74	76.414
644.07	77.832
644.40	78.607
644.73	79.153
645.05	79.930
645.38	75.748
645.71	78.061
646.04	73.737
646.36	80.556
646.69	76.748
647.02	78.506
647.35	83.547
647.67	78.743
648.00	78.261
648.33	74.576
648.66	72.454
648.98	71.273
649.31	73.006
649.64	73.709
649.96	73.144
650.29	73.203
650.62	70.675
650.94	71.724
651.27	77.032
651.60	73.601
651.92	77.061
652.25	74.204
652.58	74.752
652.90	73.232
653.23	73.514
653.56	72.231
653.88	73.038
654.21	72.867
654.54	70.764
654.86	70.081
655.19	68.207
655.52	56.673
655.84	47.783
656.17	55.529
656.49	73.198
656.82	73.013
657.15	55.228
657.47	41.810
657.80	31.890
658.13	33.965
658.45	50.080
658.78	51.049
659.10	51.418
659.43	53.284
659.75	54.181
660.08	56.414
660.41	61.866
660.73	64.738
661.06	70.068
661.38	71.899
661.71	73.975
662.03	78.647
662.36	77.876
662.68	76.559
663.01	77.966
663.33	77.538
663.66	75.388
663.98	75.506
664.31	74.066
664.63	72.297
664.96	79.650
665.28	77.039
665.61	72.570
665.93	72.163
666.26	73.629
666.58	73.448
666.91	80.717
667.23	76.498
667.56	78.391
667.88	78.972
668.21	77.455
668.53	76.552
668.86	77.218
669.18	75.177
669.50	73.502
669.83	78.043
670.15	74.286
670.48	73.333
670.80	76.149
671.13	73.684
671.45	77.626
671.77	73.707
672.10	69.006
672.42	67.939
672.75	65.536
673.07	66.727
673.39	69.216
673.72	74.251
674.04	72.131
674.37	73.374
674.69	68.930
675.01	69.658
675.34	72.867
675.66	73.420
675.98	73.230
676.31	73.077
676.63	72.336
676.95	71.529
677.28	71.560
677.60	74.755
677.92	74.058
678.25	70.282
678.57	70.061
678.89	73.774
679.22	67.081
679.54	68.776
679.86	68.555
680.18	65.577
680.51	67.885
680.83	64.522
681.15	68.959
681.48	65.932
681.80	66.871
682.12	65.833
682.44	66.197
682.77	65.263
683.09	67.634
683.41	68.140
683.73	63.393
684.06	67.920
684.38	66.239
684.70	62.933
685.02	68.595
685.34	65.166
685.67	62.664
685.99	62.811
686.31	62.241
686.63	64.338
686.96	65.121
687.28	63.673
687.60	67.297
687.92	62.840
688.24	63.000
688.56	67.325
688.89	63.474
689.21	67.265
689.53	65.315
689.85	64.045
690.17	66.374
690.49	68.357
690.82	69.212
691.14	66.184
691.46	63.109
691.78	63.297
692.10	64.968
692.42	65.495
692.74	63.913
693.06	65.393
693.39	63.700
693.71	62.889
694.03	65.909
694.35	65.090
694.67	70.750
694.99	70.361
695.31	69.509
695.63	67.073
695.95	66.158
696.27	69.315
696.59	65.054
696.91	69.553
697.23	66.244
697.56	64.748
697.88	61.331
698.20	59.827
698.52	66.355
698.84	61.483
699.16	58.629
699.48	67.654
699.80	67.442
700.12	66.488
700.44	69.014
700.76	66.011
701.08	67.674
701.40	66.168
701.72	68.308
702.04	66.667
702.36	65.244
702.68	66.463
703.00	65.789
703.32	63.788
703.64	71.084
703.96	63.343
704.28	64.759
704.60	67.073
704.91	68.339
705.23	67.089
705.55	65.517
705.87	68.310
706.19	71.429
706.51	64.085
706.83	62.420
707.15	60.061
707.47	61.157
707.79	55.838
708.11	61.697
708.43	60.660
708.74	60.106
709.06	59.626
709.38	60.807
709.70	64.264
710.02	60.436
710.34	63.667
710.66	66.450
710.98	57.585
711.29	65.584
711.61	60.968
711.93	61.613
712.25	63.636
712.57	64.912
712.89	68.864
713.20	64.539
713.52	64.599
713.84	63.226
714.16	57.282
714.48	59.494
714.80	60.064
715.11	60.465
715.43	59.938
715.75	61.491
716.07	58.735
716.39	64.983
716.70	63.309
717.02	61.569
717.34	62.500
717.66	71.552
717.97	62.302
718.29	68.504
718.61	64.807
718.93	63.566
719.24	61.624
719.56	60.300
719.88	60.075
720.20	64.822
720.51	62.500
720.83	60.311
721.15	61.789
721.46	63.359
721.78	67.331
722.10	59.363
722.42	57.258
722.73	62.548
723.05	62.857
723.37	58.403
723.68	58.800
724.00	57.872
724.32	56.485
724.63	60.905
724.95	64.530
725.27	62.869
725.58	60.905
725.90	60.669
726.22	57.609
726.53	56.863
726.85	60.584
727.16	57.037
727.48	59.387
727.80	57.812
728.11	57.787
728.43	59.766
728.74	65.079
729.06	57.600
729.38	59.684
729.69	58.363
730.01	55.762
730.32	56.827
730.64	54.924
730.96	60.490
731.27	53.512
731.59	53.016
731.90	56.634
732.22	50.000
732.53	52.365
732.85	53.691
733.16	51.485
733.48	54.730
733.80	53.716
734.11	56.081
734.43	55.418
734.74	50.150
735.06	51.297
735.37	50.760
735.69	55.016
736.00	51.815
736.32	56.738
736.63	50.345
736.95	53.425
737.26	55.862
737.58	54.167
737.89	51.203
738.21	54.448
738.52	54.753
738.83	55.102
739.15	50.211
739.46	54.086
739.78	45.423
740.09	52.055
740.41	50.714
740.72	50.709
741.04	50.800
741.35	55.702
741.66	58.222
741.98	59.135
742.29	66.337
742.61	55.122
742.92	53.947
743.23	56.132
743.55	56.757
743.86	52.018
744.18	55.392
744.49	55.330
744.80	59.694
745.12	54.206
745.43	54.502
745.74	56.757
746.06	57.944
746.37	50.917
746.68	54.327
747.00	56.459
747.31	53.846
747.62	62.844
747.94	57.205
748.25	56.422
748.56	53.333
748.88	58.216
749.19	58.095
749.50	52.427
749.82	54.930
750.13	45.417
750.44	53.846
750.75	50.185
751.07	51.246
751.38	48.227
751.69	51.351
752.01	48.438
752.32	51.538
752.63	55.970
752.94	57.200
753.26	51.883
753.57	52.500
753.88	52.227
754.19	47.809
754.51	48.120
754.82	46.154
755.13	51.304
755.44	51.220
755.75	47.200
756.07	42.435
756.38	48.201
756.69	44.027
757.00	44.237
757.31	46.278
757.63	47.222
757.94	46.045
758.25	44.709
758.56	45.109
758.87	48.810
759.18	46.057
759.50	43.771
759.81	46.488
760.12	44.000
760.43	43.452
760.74	46.328
761.05	45.028
761.36	44.126
761.67	47.432
761.99	44.674
762.30	48.175
762.61	48.560
762.92	47.863
763.23	46.311
763.54	52.814
763.85	46.939
764.16	47.967
764.47	43.600
764.78	41.429
765.10	47.541
765.41	45.593
765.72	42.236
766.03	45.215
766.34	45.000
766.65	46.444
766.96	44.131
767.27	53.465
767.58	42.135
767.89	54.321
768.20	46.961
768.51	46.231
768.82	47.115
769.13	50.885
769.44	47.280
769.75	41.880
770.06	41.704
770.37	43.627
770.68	48.544
770.99	42.718
771.30	47.899
771.61	42.857
771.92	44.398
772.23	39.640
772.54	39.227
772.85	48.837
773.16	56.085
773.47	47.337
773.78	56.897
774.09	51.875
774.39	45.963
774.70	62.585
775.01	46.207
775.32	58.571
775.63	47.368
775.94	44.361
776.25	40.800
776.56	48.760
776.87	45.238
777.18	51.351
777.48	57.658
777.79	48.031
778.10	51.376
778.41	47.368
778.72	44.538
779.03	36.620
779.34	50.676
779.65	50.704
779.95	43.709
780.26	41.727
780.57	49.640
780.88	42.254
781.19	47.059
781.50	55.034
781.80	42.105
782.11	45.349
782.42	40.252
782.73	52.288
783.04	48.276
783.34	44.275
783.65	43.624
783.96	39.231
784.27	36.429
784.57	43.262
784.88	29.808
785.19	62.727
785.50	49.091
785.81	40.952
786.11	42.857
786.42	50.442
786.73	41.509
787.04	42.202
787.34	31.683
787.65	51.667
787.96	45.455
788.26	38.406
788.57	46.032
788.88	38.211
789.19	34.400
789.49	35.878
789.80	52.273
790.11	39.623
790.41	43.564
790.72	41.489
791.03	35.870
791.33	43.529
791.64	49.383
791.95	46.739
792.25	55.682
792.56	39.744
792.87	35.897
793.17	17.949
793.48	38.095
793.79	36.250
794.09	42.308
794.40	48.958
794.70	37.838
795.01	43.750
795.32	48.696
795.62	44.565
795.93	31.132
796.23	44.444
796.54	31.707
796.85	44.048
797.15	37.879
797.46	39.130
797.76	35.526
798.07	30.682
798.37	41.463
798.68	35.484
798.99	33.784
799.29	40.964
799.60	47.436
799.90	43.077
800.21	50.000
800.51	37.333
800.82	42.667
801.12	37.500
801.43	35.000
801.73	28.378
802.04	35.714
802.34	52.459
802.65	34.328
802.95	30.909
803.26	22.414
803.56	56.923
803.87	45.283
804.17	35.484
804.48	27.941
804.78	36.585
805.09	27.536
805.39	39.706
805.70	8.511
806.00	28.070
806.30	35.897
806.61	36.842
806.91	36.486
807.22	44.737
807.52	40.909
807.83	20.339
808.13	31.818
808.43	45.000
808.74	1.724
809.04	46.032
809.35	38.776
809.65	33.333
809.95	8.163
810.26	36.620
810.56	43.750
810.86	22.449
811.17	53.846
811.47	38.298
811.77	27.083
812.08	26.415
812.38	34.375
812.69	32.727
812.99	24.390
813.29	21.622
813.59	29.730
813.90	36.364
814.20	32.727
814.50	25.000
814.81	32.727
815.11	33.333
815.41	72.093
815.72	65.000
816.02	51.429
816.32	32.432
816.62	33.333
816.93	22.222
817.23	2.222
817.53	36.111
817.84	24.324
818.14	34.146
818.44	50.000
818.74	18.367
819.04	41.463
819.35	19.444
819.65	43.182
819.95	11.111
820.25	0.000
820.56	-9.524
820.86	2.778
821.16	-2.273
821.46	32.609
821.76	22.414
822.07	54.348
822.37	54.545
822.67	63.415
822.97	5.405
823.27	-5.714
823.57	48.276
823.88	29.412
824.18	52.778
824.48	17.143
824.78	23.810
825.08	-7.143
825.38	22.222
825.69	45.161
825.99	43.902
826.29	44.444
826.59	40.625
826.89	22.581
827.19	39.130
827.49	-2.778
827.79	39.130
828.09	22.581
828.39	12.500
828.70	15.625
829.00	10.345
829.30	35.135
829.60	-4.167
829.90	3.704
830.20	21.875
830.50	18.182
830.80	-29.412
831.10	18.182
831.40	5.882
831.70	38.462
832.00	9.091
832.30	26.471
832.60	56.757
832.90	-0.000
833.20	28.571
833.50	-50.000
833.80	15.789
834.10	4.167
834.40	13.636
834.70	0.000
835.00	20.000
835.30	20.833
835.60	14.286
835.90	4.762
836.20	32.000
836.50	4.167
836.80	-10.526
837.10	24.324
837.40	30.000
837.70	21.739
838.00	58.333
838.30	100.000
838.60	-180.000
838.90	-140.000
839.19	75.000
839.49	30.769
839.79	-10.526
840.09	-83.333
840.39	-60.000
840.69	45.455
840.99	28.571
841.29	8.333
841.59	23.077
841.88	6.667
842.18	7.143
842.48	-3.333
842.78	-142.857
843.08	-92.857
843.38	-175.000
843.68	-56.250
843.97	42.857
844.27	-155.556
844.57	-109.091
844.87	-106.667
845.17	18.182
845.47	433.333
845.76	-6.667
846.06	-16.667
846.36	-650.000
846.66	10.526
846.96	-27.273
847.25	-50.000
847.55	-55.556
847.85	-33.333
848.15	30.769
848.44	-216.667
848.74	50.000
849.04	-7.692
849.34	-100.000
849.63	-63.636
849.93	-107.143
850.23	55.000
850.53	12.500
850.82	27.778
851.12	40.000
851.42	23.529
851.71	0.000
852.01	76.471
852.31	15.385
852.61	450.000
852.90	52.941
853.20	20.000
853.50	-31.250
853.79	-85.714
854.09	50.000
854.39	0.000
854.68	-7.500
854.98	14.286
855.28	12.000
855.57	0.000
855.87	-8.333
856.17	-4.000
856.46	3.125
856.76	5.000
857.05	24.000
857.35	-75.000
857.65	-17.647
857.94	-33.333
858.24	-33.333
858.53	0.000
858.83	-136.364
859.13	-4.000
859.42	7.143
859.72	-175.000
860.01	0.000
860.31	-37.500
860.60	12.500
860.90	-150.000
861.20	-150.000
861.49	100.000
861.79	62.500
862.08	250.000
862.38	-108.333
862.67	271.429
862.97	75.000
863.26	-54.545
863.56	0.000
863.85	63.158
864.15	-5.882
864.44	-160.000
864.74	-60.000
865.03	-33.333
865.33	-42.857
865.62	121.429
865.92	15.789
866.21	0.000
866.51	-127.273
866.80	-188.889
867.10	-187.500
867.39	-6.250
867.69	-46.667
867.98	-80.000
868.27	11.765
868.57	0.000
868.86	550.000
869.16	-175.000
869.45	-114.286
869.75	300.000
870.04	60.000
870.33	-900.000
870.63	21.053
870.92	-25.000
871.22	-1300.000
871.51	-42.857
871.80	-88.889
872.10	-250.000
>>>>>End Processed Spectral Data<<<<<
