SpectraSuite Data File
++++++++++++++++++++++++++++++++++++
Date: Wed May 13 21:42:44 PDT 2015
User: schluterlab
Dark Spectrum Present: Yes
Reference Spectrum Present: Yes
Number of Sampled Component Spectra: 1
Spectrometers: USB2E3373
Integration Time (usec): 3000 (USB2E3373)
Spectra Averaged: 3 (USB2E3373)
Boxcar Smoothing: 0 (USB2E3373)
Correct for Electrical Dark: No (USB2E3373)
Strobe/Lamp Enabled: No (USB2E3373)
Correct for Detector Non-linearity: No (USB2E3373)
Correct for Stray Light: No (USB2E3373)
Number of Pixels in Processed Spectrum: 2048
>>>>>Begin Processed Spectral Data<<<<<
178.53	0.000
178.91	200.000
179.29	208.333
179.67	-550.000
180.04	-433.333
180.42	120.000
180.80	1600.000
181.18	266.667
181.56	-150.000
181.94	-200.000
182.31	-72.727
182.69	176.923
183.07	-80.000
183.45	283.333
183.83	166.667
184.20	128.571
184.58	-100.000
184.96	366.667
185.34	257.143
185.72	0.000
186.09	-1300.000
186.47	-240.000
186.85	100.000
187.23	-550.000
187.61	850.000
187.98	1700.000
188.36	-37.500
188.74	0.000
189.12	9.091
189.49	30.000
189.87	200.000
190.25	400.000
190.63	900.000
191.00	160.000
191.38	60.000
191.76	300.000
192.14	166.667
192.51	26.316
192.89	333.333
193.27	275.000
193.65	-180.000
194.02	200.000
194.40	140.000
194.78	-800.000
195.15	320.000
195.53	-120.000
195.91	-125.000
196.29	-233.333
196.66	0.000
197.04	250.000
197.42	0.000
197.79	20.000
198.17	-212.500
198.55	-166.667
198.92	125.000
199.30	-466.667
199.68	-40.000
200.05	550.000
200.43	100.000
200.81	-1100.000
201.18	-220.000
201.56	-116.667
201.94	525.000
202.31	30.435
202.69	-171.429
203.07	-266.667
203.44	-120.000
203.82	-200.000
204.19	-60.000
204.57	0.000
204.95	50.000
205.32	0.000
205.70	-750.000
206.08	-375.000
206.45	-216.667
206.83	625.000
207.20	-266.667
207.58	-110.000
207.96	-1300.000
208.33	-85.714
208.71	-1200.000
209.08	162.500
209.46	525.000
209.84	0.000
210.21	200.000
210.59	1100.000
210.96	140.000
211.34	1900.000
211.71	-800.000
212.09	-250.000
212.46	-10.000
212.84	-266.667
213.22	-100.000
213.59	-600.000
213.97	-550.000
214.34	-950.000
214.72	-53.846
215.09	175.000
215.47	122.222
215.84	850.000
216.22	-75.000
216.59	-500.000
216.97	600.000
217.34	155.556
217.72	0.000
218.09	166.667
218.47	-1000.000
218.84	-200.000
219.22	-187.500
219.59	-233.333
219.97	-150.000
220.34	50.000
220.72	-160.000
221.09	0.000
221.47	-83.333
221.84	-400.000
222.22	0.000
222.59	1000.000
222.97	-300.000
223.34	-16.667
223.72	-900.000
224.09	-450.000
224.46	-45.455
224.84	12.500
225.21	-185.714
225.59	-350.000
225.96	66.667
226.34	-70.000
226.71	14.286
227.08	500.000
227.46	-62.500
227.83	-200.000
228.21	-93.750
228.58	-350.000
228.95	-76.471
229.33	-37.500
229.70	-137.500
230.08	30.769
230.45	-162.500
230.82	-91.667
231.20	185.714
231.57	-500.000
231.95	700.000
232.32	-16.667
232.69	-58.824
233.07	-800.000
233.44	26.087
233.81	-900.000
234.19	29.167
234.56	-46.667
234.93	-6.667
235.31	52.632
235.68	-46.154
236.05	-7.692
236.43	-16.667
236.80	6.061
237.17	-40.000
237.55	-47.059
237.92	3.448
238.29	-7.407
238.67	-8.333
239.04	3.226
239.41	-12.766
239.79	10.638
240.16	-18.605
240.53	23.214
240.91	19.643
241.28	21.429
241.65	6.452
242.02	3.947
242.40	17.391
242.77	2.899
243.14	3.846
243.51	21.277
243.89	6.731
244.26	22.642
244.63	2.885
245.00	15.625
245.38	12.605
245.75	13.115
246.12	18.045
246.49	9.756
246.87	2.521
247.24	13.514
247.61	14.570
247.98	16.667
248.36	13.609
248.73	15.169
249.10	8.586
249.47	11.290
249.84	10.526
250.22	21.393
250.59	14.486
250.96	18.182
251.33	11.005
251.70	17.155
252.08	13.389
252.45	15.638
252.82	22.433
253.19	16.342
253.56	14.388
253.94	23.488
254.31	14.437
254.68	19.799
255.05	17.492
255.42	16.783
255.79	17.791
256.16	15.773
256.54	17.143
256.91	13.924
257.28	18.868
257.65	14.331
258.02	12.610
258.39	19.298
258.76	15.988
259.14	14.773
259.51	15.169
259.88	17.344
260.25	15.000
260.62	17.416
260.99	18.833
261.36	19.430
261.73	14.815
262.10	16.794
262.47	15.309
262.85	14.428
263.22	18.462
263.59	16.364
263.96	18.978
264.33	18.269
264.70	17.209
265.07	18.981
265.44	18.621
265.81	17.620
266.18	18.223
266.55	16.594
266.92	14.619
267.29	16.461
267.66	17.622
268.03	18.107
268.40	17.373
268.77	19.835
269.14	20.000
269.51	18.891
269.88	16.701
270.25	18.008
270.62	16.393
270.99	17.323
271.36	18.452
271.73	16.265
272.10	16.571
272.47	19.002
272.84	17.323
273.21	19.961
273.58	15.574
273.95	17.358
274.32	18.657
274.69	17.851
275.06	21.201
275.43	18.079
275.80	17.908
276.17	16.759
276.54	16.163
276.91	17.073
277.28	15.704
277.65	19.406
278.02	18.750
278.39	15.631
278.76	17.057
279.13	16.981
279.50	17.069
279.87	13.949
280.23	18.018
280.60	17.647
280.97	16.396
281.34	19.401
281.71	16.748
282.08	16.581
282.45	21.148
282.82	16.294
283.19	18.598
283.56	16.250
283.92	17.278
284.29	16.849
284.66	16.474
285.03	15.635
285.40	18.278
285.77	15.916
286.14	17.629
286.51	19.040
286.87	14.923
287.24	17.552
287.61	18.072
287.98	17.206
288.35	16.990
288.72	18.077
289.08	18.234
289.45	15.565
289.82	18.003
290.19	15.989
290.56	14.489
290.93	15.884
291.29	15.458
291.66	17.350
292.03	17.166
292.40	17.900
292.77	16.867
293.13	16.318
293.50	16.340
293.87	19.333
294.24	16.270
294.60	18.466
294.97	18.651
295.34	16.623
295.71	14.192
296.08	15.314
296.44	16.071
296.81	15.347
297.18	16.375
297.55	14.976
297.91	16.646
298.28	17.433
298.65	17.241
299.02	17.338
299.38	17.423
299.75	17.308
300.12	15.349
300.48	16.959
300.85	18.245
301.22	15.796
301.59	18.427
301.95	16.376
302.32	16.453
302.69	15.367
303.05	17.497
303.42	17.386
303.79	18.612
304.15	17.744
304.52	19.355
304.89	18.715
305.25	17.673
305.62	19.306
305.99	18.172
306.35	19.854
306.72	19.634
307.09	19.187
307.45	18.317
307.82	18.842
308.19	16.092
308.55	16.274
308.92	20.530
309.29	20.220
309.65	20.380
310.02	19.583
310.38	20.528
310.75	19.724
311.12	19.825
311.48	21.958
311.85	20.571
312.22	21.180
312.58	21.159
312.95	23.383
313.31	21.579
313.68	20.992
314.05	23.346
314.41	23.631
314.78	22.106
315.14	22.685
315.51	23.501
315.87	24.652
316.24	24.242
316.61	25.388
316.97	25.370
317.34	25.134
317.70	26.048
318.07	26.797
318.43	26.287
318.80	25.829
319.16	27.763
319.53	26.613
319.89	26.829
320.26	27.449
320.62	27.062
320.99	27.810
321.35	27.222
321.72	28.970
322.08	29.059
322.45	30.342
322.81	30.129
323.18	29.964
323.54	31.047
323.91	30.081
324.27	30.693
324.64	30.139
325.00	30.359
325.37	31.826
325.73	31.229
326.10	32.044
326.46	32.860
326.83	31.715
327.19	33.740
327.56	33.521
327.92	33.628
328.29	34.391
328.65	35.057
329.01	34.037
329.38	35.130
329.74	34.506
330.11	36.339
330.47	34.201
330.84	36.101
331.20	35.184
331.56	36.141
331.93	37.984
332.29	37.098
332.66	35.847
333.02	37.098
333.38	36.579
333.75	36.860
334.11	38.194
334.48	37.663
334.84	36.661
335.20	38.593
335.57	36.815
335.93	37.285
336.29	37.653
336.66	37.863
337.02	37.826
337.38	37.163
337.75	37.726
338.11	37.489
338.47	37.757
338.84	37.457
339.20	37.478
339.56	38.225
339.93	36.733
340.29	38.087
340.65	37.040
341.02	37.521
341.38	38.007
341.74	36.387
342.11	36.664
342.47	35.816
342.83	37.173
343.20	37.817
343.56	36.958
343.92	36.312
344.28	36.932
344.65	37.143
345.01	37.450
345.37	37.829
345.73	37.990
346.10	38.122
346.46	37.154
346.82	36.035
347.19	35.759
347.55	36.511
347.91	37.412
348.27	36.830
348.63	35.657
349.00	36.478
349.36	36.264
349.72	36.040
350.08	36.349
350.45	36.335
350.81	36.072
351.17	36.490
351.53	36.685
351.89	34.948
352.26	35.290
352.62	35.504
352.98	36.901
353.34	35.507
353.70	35.047
354.07	36.078
354.43	34.837
354.79	36.058
355.15	35.016
355.51	34.700
355.87	36.513
356.24	35.795
356.60	35.496
356.96	35.764
357.32	34.907
357.68	35.600
358.04	35.454
358.40	35.581
358.77	35.703
359.13	35.486
359.49	34.595
359.85	34.420
360.21	35.852
360.57	34.449
360.93	34.294
361.29	34.419
361.66	36.219
362.02	33.951
362.38	35.303
362.74	33.358
363.10	33.189
363.46	33.573
363.82	35.329
364.18	33.865
364.54	33.625
364.90	34.286
365.26	32.838
365.62	33.594
365.98	34.306
366.35	33.759
366.71	33.524
367.07	34.160
367.43	33.589
367.79	34.468
368.15	33.896
368.51	34.529
368.87	33.845
369.23	33.523
369.59	33.827
369.95	33.527
370.31	32.985
370.67	33.382
371.03	34.744
371.39	32.789
371.75	34.071
372.11	33.333
372.47	33.670
372.83	33.842
373.19	32.878
373.55	33.165
373.91	33.168
374.27	32.780
374.63	32.859
374.99	32.451
375.35	33.562
375.71	32.880
376.07	34.544
376.42	34.291
376.78	33.884
377.14	34.034
377.50	34.094
377.86	33.068
378.22	33.692
378.58	32.535
378.94	33.938
379.30	32.979
379.66	32.614
380.02	32.843
380.38	32.590
380.74	33.234
381.09	32.449
381.45	32.830
381.81	33.333
382.17	31.821
382.53	32.985
382.89	33.233
383.25	31.914
383.61	32.809
383.97	31.687
384.32	31.884
384.68	33.066
385.04	31.888
385.40	33.126
385.76	33.942
386.12	33.441
386.48	31.912
386.83	32.353
387.19	31.585
387.55	31.944
387.91	33.518
388.27	31.443
388.62	31.773
388.98	31.852
389.34	32.832
389.70	31.563
390.06	31.500
390.42	31.572
390.77	32.031
391.13	31.881
391.49	31.120
391.85	31.182
392.20	31.015
392.56	31.492
392.92	31.890
393.28	31.610
393.64	31.498
393.99	29.804
394.35	30.864
394.71	31.859
395.07	30.881
395.42	30.896
395.78	30.631
396.14	30.945
396.50	30.057
396.85	30.529
397.21	30.462
397.57	30.311
397.92	31.497
398.28	31.585
398.64	30.298
399.00	30.859
399.35	31.669
399.71	30.868
400.07	31.386
400.42	29.906
400.78	30.997
401.14	30.227
401.49	29.599
401.85	30.283
402.21	30.279
402.57	29.736
402.92	29.912
403.28	30.582
403.63	29.076
403.99	30.518
404.35	30.486
404.70	30.453
405.06	30.182
405.42	29.837
405.77	29.781
406.13	29.314
406.49	29.658
406.84	30.342
407.20	29.426
407.55	29.221
407.91	28.921
408.27	29.133
408.62	29.343
408.98	29.593
409.34	29.455
409.69	30.084
410.05	30.348
410.40	28.363
410.76	29.242
411.11	29.353
411.47	29.263
411.83	28.759
412.18	29.030
412.54	29.010
412.89	28.966
413.25	29.263
413.60	29.091
413.96	28.277
414.31	29.100
414.67	28.825
415.03	28.687
415.38	28.005
415.74	29.630
416.09	28.883
416.45	28.845
416.80	28.725
417.16	29.150
417.51	29.270
417.87	29.365
418.22	28.765
418.58	29.961
418.93	29.253
419.29	29.835
419.64	28.817
420.00	29.016
420.35	28.751
420.71	29.250
421.06	28.659
421.42	29.015
421.77	29.249
422.12	29.685
422.48	28.626
422.83	30.656
423.19	28.982
423.54	29.446
423.90	29.157
424.25	29.463
424.61	28.835
424.96	28.267
425.31	28.435
425.67	29.571
426.02	30.094
426.38	29.353
426.73	29.200
427.09	29.268
427.44	29.477
427.79	28.979
428.15	29.969
428.50	29.728
428.85	29.643
429.21	29.150
429.56	29.809
429.92	30.453
430.27	29.857
430.62	29.801
430.98	29.773
431.33	29.823
431.68	30.192
432.04	30.254
432.39	29.850
432.74	29.430
433.10	30.099
433.45	30.118
433.80	30.345
434.16	30.147
434.51	30.652
434.86	29.976
435.22	31.070
435.57	30.037
435.92	30.881
436.28	30.450
436.63	30.312
436.98	30.611
437.34	31.258
437.69	30.342
438.04	30.560
438.39	32.067
438.75	30.989
439.10	31.637
439.45	30.024
439.81	31.897
440.16	32.348
440.51	31.391
440.86	31.061
441.22	31.670
441.57	31.508
441.92	31.882
442.27	31.710
442.63	31.701
442.98	32.407
443.33	31.433
443.68	31.049
444.03	31.992
444.39	32.474
444.74	31.750
445.09	32.159
445.44	33.014
445.79	32.731
446.15	32.945
446.50	32.985
446.85	33.672
447.20	33.664
447.55	33.352
447.91	32.360
448.26	33.905
448.61	32.969
448.96	34.055
449.31	33.752
449.66	34.529
450.02	33.769
450.37	34.078
450.72	33.697
451.07	33.292
451.42	34.435
451.77	34.632
452.12	34.106
452.47	34.474
452.83	33.726
453.18	34.882
453.53	34.552
453.88	34.759
454.23	34.425
454.58	34.436
454.93	35.471
455.28	35.132
455.63	34.623
455.98	35.180
456.34	35.092
456.69	35.655
457.04	35.542
457.39	34.576
457.74	35.009
458.09	35.545
458.44	35.899
458.79	34.816
459.14	34.888
459.49	35.854
459.84	34.667
460.19	36.014
460.54	35.888
460.89	36.430
461.24	36.313
461.59	36.534
461.94	36.157
462.29	35.968
462.64	35.752
462.99	36.016
463.34	36.464
463.69	36.662
464.04	35.354
464.39	37.401
464.74	36.486
465.09	37.260
465.44	35.971
465.79	36.918
466.14	36.545
466.49	36.481
466.84	37.418
467.19	36.943
467.54	37.330
467.89	37.398
468.24	37.492
468.59	37.922
468.94	37.676
469.29	38.004
469.64	37.099
469.99	37.586
470.34	36.952
470.68	37.844
471.03	37.165
471.38	37.274
471.73	37.586
472.08	37.526
472.43	38.456
472.78	38.201
473.13	36.544
473.48	36.725
473.83	37.100
474.17	38.346
474.52	37.735
474.87	38.118
475.22	37.500
475.57	38.595
475.92	37.732
476.27	38.578
476.61	38.901
476.96	38.549
477.31	37.163
477.66	38.418
478.01	38.242
478.36	39.128
478.70	37.433
479.05	37.569
479.40	38.066
479.75	38.682
480.10	38.042
480.45	38.401
480.79	37.880
481.14	39.463
481.49	39.615
481.84	37.936
482.19	38.907
482.53	38.476
482.88	38.207
483.23	38.787
483.58	39.272
483.92	38.230
484.27	39.250
484.62	38.438
484.97	39.154
485.31	38.994
485.66	37.522
486.01	37.782
486.36	37.940
486.70	38.462
487.05	38.792
487.40	38.912
487.75	39.363
488.09	39.412
488.44	39.713
488.79	40.348
489.13	39.483
489.48	40.060
489.83	39.571
490.17	40.626
490.52	41.094
490.87	39.407
491.22	40.415
491.56	40.632
491.91	39.894
492.26	40.474
492.60	40.452
492.95	40.622
493.30	40.988
493.64	40.576
493.99	40.628
494.34	40.173
494.68	40.811
495.03	41.107
495.37	39.319
495.72	40.501
496.07	41.890
496.41	39.729
496.76	39.945
497.11	40.376
497.45	41.391
497.80	41.898
498.14	41.108
498.49	41.200
498.84	41.296
499.18	40.567
499.53	40.670
499.87	41.000
500.22	41.762
500.56	40.722
500.91	41.449
501.26	40.887
501.60	41.029
501.95	41.687
502.29	41.650
502.64	41.369
502.98	41.474
503.33	41.509
503.67	41.431
504.02	41.324
504.36	41.902
504.71	41.413
505.06	41.060
505.40	41.598
505.75	42.269
506.09	42.667
506.44	41.482
506.78	41.392
507.13	42.620
507.47	42.153
507.82	41.549
508.16	42.322
508.51	41.581
508.85	41.472
509.19	41.587
509.54	42.681
509.88	41.935
510.23	42.368
510.57	41.843
510.92	42.942
511.26	42.904
511.61	42.975
511.95	42.889
512.30	43.309
512.64	44.211
512.98	42.493
513.33	43.268
513.67	41.965
514.02	43.101
514.36	43.652
514.70	42.841
515.05	42.539
515.39	41.745
515.74	42.688
516.08	42.773
516.42	42.108
516.77	42.531
517.11	43.034
517.46	44.358
517.80	44.431
518.14	43.111
518.49	42.074
518.83	44.570
519.17	42.952
519.52	43.185
519.86	45.234
520.20	43.481
520.55	44.030
520.89	45.225
521.23	44.295
521.58	44.311
521.92	43.432
522.26	43.722
522.61	44.279
522.95	42.940
523.29	44.635
523.64	45.073
523.98	45.235
524.32	43.856
524.66	43.571
525.01	44.889
525.35	44.766
525.69	44.467
526.04	43.192
526.38	45.252
526.72	44.050
527.06	45.197
527.41	42.422
527.75	43.458
528.09	44.452
528.43	45.522
528.78	43.088
529.12	44.761
529.46	44.082
529.80	43.754
530.15	43.436
530.49	45.283
530.83	45.362
531.17	45.479
531.51	43.965
531.86	44.173
532.20	46.106
532.54	44.483
532.88	44.997
533.22	44.040
533.57	44.967
533.91	45.548
534.25	45.247
534.59	43.436
534.93	43.686
535.27	44.713
535.62	44.605
535.96	44.502
536.30	45.346
536.64	44.498
536.98	45.410
537.32	45.694
537.66	45.063
538.01	44.660
538.35	43.923
538.69	44.482
539.03	43.826
539.37	43.662
539.71	45.157
540.05	42.780
540.39	45.217
540.73	44.902
541.07	44.286
541.42	44.377
541.76	44.926
542.10	44.821
542.44	44.491
542.78	44.275
543.12	45.148
543.46	45.266
543.80	44.942
544.14	45.767
544.48	44.194
544.82	45.595
545.16	44.354
545.50	45.375
545.84	45.161
546.18	45.091
546.52	45.236
546.86	45.230
547.20	46.819
547.54	46.319
547.88	46.154
548.22	45.928
548.56	45.163
548.90	45.535
549.24	45.556
549.58	44.698
549.92	47.249
550.26	47.011
550.60	47.598
550.94	45.821
551.28	46.253
551.62	46.015
551.96	44.729
552.30	46.143
552.64	45.480
552.98	46.946
553.32	46.575
553.66	46.442
554.00	46.724
554.34	46.374
554.68	47.054
555.02	47.605
555.36	47.806
555.69	47.414
556.03	46.247
556.37	45.875
556.71	45.690
557.05	45.978
557.39	46.496
557.73	46.747
558.07	46.797
558.41	45.874
558.75	46.189
559.08	46.913
559.42	47.207
559.76	45.183
560.10	47.041
560.44	47.531
560.78	48.058
561.12	47.442
561.45	46.939
561.79	46.492
562.13	47.117
562.47	47.929
562.81	47.475
563.15	45.326
563.48	46.043
563.82	46.717
564.16	46.378
564.50	48.236
564.84	47.162
565.17	47.550
565.51	47.928
565.85	47.702
566.19	48.013
566.52	47.182
566.86	46.650
567.20	46.304
567.54	45.596
567.88	46.753
568.21	46.822
568.55	46.844
568.89	46.311
569.23	45.784
569.56	46.266
569.90	45.475
570.24	45.884
570.57	45.172
570.91	45.107
571.25	45.000
571.59	45.370
571.92	46.231
572.26	46.985
572.60	46.720
572.93	46.829
573.27	46.796
573.61	46.127
573.95	46.298
574.28	46.894
574.62	46.384
574.96	47.392
575.29	47.668
575.63	48.077
575.97	47.310
576.30	47.302
576.64	47.315
576.98	47.881
577.31	46.638
577.65	46.455
577.98	47.941
578.32	47.507
578.66	47.769
578.99	47.934
579.33	48.026
579.67	47.429
580.00	48.323
580.34	48.303
580.67	48.310
581.01	47.994
581.35	48.236
581.68	48.192
582.02	48.793
582.35	48.622
582.69	48.309
583.02	47.353
583.36	47.986
583.70	48.473
584.03	48.504
584.37	48.005
584.70	49.028
585.04	49.730
585.37	49.623
585.71	48.553
586.04	49.148
586.38	48.724
586.72	49.902
587.05	49.351
587.39	49.525
587.72	50.186
588.06	50.424
588.39	49.538
588.73	49.368
589.06	49.661
589.40	49.192
589.73	48.904
590.07	49.654
590.40	49.337
590.73	51.580
591.07	50.146
591.40	50.130
591.74	50.289
592.07	51.575
592.41	50.879
592.74	51.235
593.08	50.701
593.41	50.803
593.75	50.807
594.08	50.950
594.41	51.298
594.75	51.837
595.08	52.054
595.42	50.465
595.75	51.229
596.09	50.654
596.42	51.266
596.75	51.470
597.09	52.275
597.42	52.580
597.75	51.733
598.09	52.231
598.42	52.975
598.76	52.225
599.09	53.301
599.42	51.850
599.76	53.023
600.09	51.807
600.42	51.940
600.76	52.882
601.09	52.090
601.42	52.881
601.76	51.506
602.09	52.574
602.42	52.662
602.76	51.594
603.09	52.813
603.42	52.819
603.76	52.455
604.09	51.265
604.42	52.156
604.76	53.208
605.09	53.647
605.42	55.286
605.75	53.533
606.09	52.649
606.42	52.826
606.75	53.290
607.09	54.743
607.42	53.503
607.75	52.648
608.08	54.058
608.42	54.030
608.75	55.280
609.08	55.267
609.41	53.602
609.75	54.362
610.08	54.536
610.41	54.422
610.74	53.898
611.07	54.760
611.41	55.015
611.74	54.969
612.07	53.517
612.40	54.919
612.73	55.104
613.07	54.712
613.40	56.553
613.73	55.959
614.06	54.892
614.39	54.864
614.72	55.580
615.06	55.722
615.39	56.567
615.72	56.048
616.05	55.631
616.38	55.785
616.71	55.489
617.05	57.248
617.38	55.638
617.71	55.821
618.04	54.174
618.37	56.909
618.70	56.274
619.03	56.220
619.36	56.370
619.69	56.579
620.03	54.982
620.36	55.045
620.69	55.746
621.02	56.538
621.35	55.274
621.68	55.094
622.01	56.715
622.34	56.146
622.67	57.713
623.00	57.903
623.33	57.367
623.66	56.134
623.99	57.014
624.32	56.273
624.65	58.605
624.99	57.164
625.32	56.236
625.65	57.209
625.98	57.030
626.31	57.061
626.64	57.954
626.97	57.872
627.30	57.656
627.63	57.526
627.96	55.498
628.29	59.163
628.62	58.704
628.95	58.317
629.28	59.803
629.61	58.278
629.94	57.737
630.26	58.916
630.59	57.542
630.92	57.430
631.25	56.643
631.58	59.315
631.91	55.992
632.24	56.641
632.57	57.111
632.90	59.043
633.23	58.034
633.56	57.194
633.89	59.450
634.22	59.717
634.55	59.196
634.88	56.740
635.20	59.250
635.53	59.302
635.86	57.308
636.19	60.050
636.52	58.659
636.85	58.263
637.18	56.395
637.51	57.428
637.83	60.705
638.16	58.000
638.49	58.478
638.82	59.739
639.15	59.973
639.48	59.358
639.81	59.722
640.13	60.845
640.46	58.475
640.79	59.137
641.12	59.467
641.45	58.079
641.77	57.585
642.10	60.666
642.43	59.748
642.76	58.833
643.09	59.105
643.41	59.490
643.74	59.935
644.07	60.356
644.40	58.872
644.73	60.508
645.05	61.955
645.38	57.973
645.71	60.544
646.04	56.734
646.36	58.333
646.69	59.615
647.02	60.109
647.35	59.232
647.67	62.107
648.00	60.870
648.33	59.492
648.66	59.599
648.98	60.093
649.31	57.975
649.64	61.346
649.96	61.453
650.29	58.660
650.62	58.814
650.94	57.241
651.27	60.777
651.60	62.063
651.92	62.366
652.25	57.789
652.58	57.921
652.90	61.111
653.23	59.932
653.56	59.504
653.88	59.898
654.21	60.580
654.54	59.801
654.86	57.236
655.19	57.983
655.52	60.799
655.84	58.654
656.17	70.361
656.49	91.994
656.82	91.064
657.15	69.000
657.47	51.024
657.80	38.465
658.13	40.505
658.45	60.040
658.78	59.678
659.10	59.387
659.43	58.155
659.75	60.244
660.08	58.966
660.41	59.331
660.73	59.366
661.06	60.884
661.38	59.690
661.71	62.500
662.03	60.677
662.36	63.053
662.68	59.355
663.01	62.712
663.33	59.179
663.66	58.537
663.98	60.674
664.31	60.440
664.63	60.811
664.96	61.707
665.28	63.090
665.61	60.259
665.93	64.026
666.26	61.181
666.58	59.957
666.91	63.229
667.23	61.521
667.56	63.218
667.88	60.748
668.21	61.384
668.53	61.379
668.86	60.911
669.18	61.466
669.50	58.986
669.83	60.859
670.15	62.381
670.48	63.218
670.80	63.020
671.13	60.412
671.45	61.872
671.77	62.716
672.10	60.039
672.42	62.023
672.75	60.714
673.07	58.727
673.39	62.500
673.72	63.473
674.04	60.451
674.37	60.163
674.69	60.494
675.01	58.333
675.34	62.144
675.66	60.784
675.98	58.850
676.31	60.633
676.63	62.812
676.95	62.824
677.28	60.780
677.60	62.255
677.92	64.967
678.25	63.991
678.57	61.100
678.89	63.113
679.22	62.319
679.54	63.061
679.86	60.547
680.18	64.423
680.51	61.731
680.83	60.234
681.15	61.100
681.48	61.723
681.80	62.168
682.12	62.500
682.44	58.753
682.77	57.895
683.09	61.830
683.41	61.395
683.73	58.705
684.06	63.938
684.38	61.325
684.70	59.674
685.02	61.364
685.34	62.622
685.67	61.914
685.99	62.278
686.31	61.897
686.63	62.500
686.96	63.265
687.28	60.279
687.60	63.138
687.92	59.728
688.24	62.000
688.56	65.351
688.89	60.579
689.21	58.296
689.53	61.261
689.85	62.247
690.17	60.220
690.49	64.976
690.82	62.053
691.14	62.802
691.46	59.861
691.78	62.857
692.10	62.633
692.42	60.440
692.74	62.826
693.06	61.348
693.39	65.340
693.71	65.556
694.03	64.773
694.35	59.009
694.67	63.000
694.99	61.598
695.31	63.824
695.63	59.512
695.95	58.015
696.27	58.904
696.59	58.602
696.91	60.335
697.23	58.376
697.56	63.309
697.88	62.162
698.20	60.907
698.52	64.720
698.84	62.201
699.16	60.520
699.48	61.235
699.80	63.049
700.12	63.003
700.44	66.479
700.76	59.551
701.08	65.257
701.40	61.078
701.72	63.077
702.04	58.491
702.36	58.537
702.68	58.537
703.00	61.404
703.32	60.446
703.64	65.361
703.96	63.636
704.28	61.747
704.60	64.634
704.91	60.188
705.23	60.443
705.55	59.655
705.87	63.732
706.19	60.806
706.51	63.380
706.83	60.191
707.15	61.280
707.47	61.708
707.79	59.137
708.11	60.411
708.43	60.914
708.74	60.904
709.06	59.091
709.38	62.824
709.70	63.063
710.02	58.567
710.34	57.333
710.66	60.261
710.98	58.824
711.29	60.065
711.61	62.581
711.93	59.677
712.25	56.643
712.57	58.596
712.89	65.201
713.20	60.284
713.52	62.044
713.84	59.677
714.16	62.136
714.48	61.392
714.80	62.620
715.11	63.372
715.43	56.522
715.75	62.422
716.07	57.831
716.39	64.983
716.70	60.432
717.02	57.255
717.34	58.333
717.66	59.483
717.97	51.587
718.29	57.874
718.61	63.090
718.93	63.178
719.24	63.100
719.56	56.554
719.88	60.821
720.20	61.265
720.51	62.109
720.83	64.981
721.15	53.252
721.46	59.924
721.78	60.956
722.10	56.574
722.42	57.258
722.73	58.301
723.05	64.898
723.37	60.084
723.68	54.800
724.00	49.787
724.32	58.577
724.63	58.848
724.95	58.547
725.27	62.447
725.58	60.082
725.90	62.762
726.22	58.696
726.53	57.647
726.85	62.774
727.16	57.778
727.48	62.069
727.80	57.031
728.11	61.885
728.43	56.250
728.74	57.540
729.06	56.400
729.38	60.870
729.69	57.651
730.01	59.851
730.32	61.624
730.64	59.091
730.96	59.091
731.27	57.525
731.59	56.190
731.90	62.136
732.22	57.051
732.53	58.108
732.85	59.060
733.16	55.776
733.48	55.743
733.80	57.770
734.11	60.473
734.43	56.966
734.74	58.258
735.06	58.213
735.37	54.103
735.69	59.223
736.00	60.726
736.32	61.348
736.63	60.690
736.95	58.219
737.26	54.828
737.58	62.847
737.89	59.107
738.21	54.804
738.52	51.711
738.83	58.776
739.15	59.916
739.46	55.253
739.78	55.986
740.09	57.192
740.41	57.143
740.72	56.738
741.04	55.600
741.35	55.263
741.66	58.667
741.98	61.538
742.29	61.881
742.61	60.488
742.92	57.895
743.23	58.019
743.55	59.910
743.86	53.363
744.18	59.314
744.49	59.898
744.80	51.020
745.12	53.271
745.43	60.190
745.74	58.108
746.06	53.738
746.37	50.459
746.68	54.808
747.00	55.981
747.31	59.615
747.62	55.963
747.94	62.009
748.25	59.174
748.56	63.111
748.88	53.521
749.19	57.619
749.50	58.252
749.82	56.808
750.13	52.083
750.44	56.154
750.75	56.458
751.07	58.719
751.38	53.901
751.69	51.737
752.01	56.641
752.32	60.000
752.63	51.866
752.94	52.800
753.26	53.138
753.57	50.000
753.88	56.680
754.19	52.988
754.51	56.391
754.82	51.648
755.13	54.783
755.44	58.537
755.75	54.400
756.07	50.554
756.38	55.396
756.69	57.679
757.00	56.386
757.31	58.252
757.63	59.259
757.94	60.169
758.25	56.349
758.56	59.783
758.87	57.143
759.18	58.044
759.50	53.872
759.81	56.522
760.12	58.769
760.43	52.083
760.74	53.390
761.05	55.525
761.36	56.160
761.67	58.912
761.99	57.045
762.30	51.825
762.61	53.909
762.92	57.692
763.23	52.459
763.54	58.874
763.85	51.837
764.16	53.252
764.47	55.600
764.78	55.000
765.10	56.066
765.41	55.927
765.72	52.484
766.03	56.766
766.34	54.615
766.65	53.138
766.96	52.582
767.27	54.455
767.58	39.326
767.89	54.321
768.20	49.171
768.51	49.749
768.82	55.769
769.13	54.867
769.44	60.669
769.75	49.573
770.06	54.260
770.37	52.451
770.68	50.485
770.99	50.000
771.30	54.202
771.61	49.388
771.92	53.112
772.23	48.198
772.54	46.409
772.85	56.395
773.16	53.439
773.47	49.704
773.78	60.345
774.09	55.000
774.39	55.280
774.70	53.061
775.01	51.724
775.32	58.571
775.63	54.887
775.94	49.624
776.25	51.200
776.56	55.372
776.87	46.032
777.18	58.559
777.48	58.559
777.79	44.882
778.10	46.789
778.41	49.123
778.72	49.580
779.03	47.183
779.34	54.054
779.65	52.817
779.95	50.331
780.26	58.273
780.57	46.763
780.88	44.366
781.19	47.899
781.50	61.745
781.80	52.632
782.11	51.744
782.42	55.975
782.73	56.863
783.04	47.586
783.34	41.221
783.65	48.993
783.96	50.769
784.27	50.000
784.57	49.645
784.88	41.346
785.19	60.909
785.50	43.636
785.81	47.619
786.11	53.782
786.42	41.593
786.73	39.623
787.04	35.780
787.34	45.545
787.65	50.000
787.96	52.893
788.26	44.928
788.57	45.238
788.88	49.593
789.19	47.200
789.49	39.695
789.80	56.061
790.11	46.226
790.41	53.465
790.72	47.872
791.03	46.739
791.33	37.647
791.64	41.975
791.95	54.348
792.25	47.727
792.56	53.846
792.87	43.590
793.17	25.641
793.48	44.048
793.79	42.500
794.09	49.038
794.40	65.625
794.70	53.153
795.01	42.969
795.32	47.826
795.62	57.609
795.93	55.660
796.23	47.475
796.54	32.927
796.85	44.048
797.15	53.030
797.46	60.870
797.76	42.105
798.07	34.091
798.37	37.805
798.68	48.387
798.99	25.676
799.29	42.169
799.60	47.436
799.90	35.385
800.21	53.030
800.51	30.667
800.82	41.333
801.12	29.167
801.43	25.000
801.73	37.838
802.04	44.286
802.34	32.787
802.65	38.806
802.95	41.818
803.26	44.828
803.56	58.462
803.87	43.396
804.17	27.419
804.48	33.824
804.78	29.268
805.09	42.029
805.39	33.824
805.70	4.255
806.00	35.088
806.30	30.769
806.61	51.316
806.91	35.135
807.22	48.684
807.52	56.818
807.83	23.729
808.13	24.242
808.43	33.333
808.74	27.586
809.04	50.794
809.35	38.776
809.65	33.333
809.95	34.694
810.26	35.211
810.56	54.167
810.86	32.653
811.17	50.000
811.47	38.298
811.77	45.833
812.08	16.981
812.38	37.500
812.69	32.727
812.99	29.268
813.29	29.730
813.59	-5.405
813.90	18.182
814.20	43.636
814.50	26.667
814.81	52.727
815.11	33.333
815.41	55.814
815.72	27.500
816.02	54.286
816.32	54.054
816.62	47.917
816.93	31.111
817.23	13.333
817.53	19.444
817.84	18.919
818.14	21.951
818.44	34.000
818.74	30.612
819.04	39.024
819.35	25.000
819.65	25.000
819.95	11.111
820.25	45.455
820.56	19.048
820.86	22.222
821.16	25.000
821.46	23.913
821.76	10.345
822.07	34.783
822.37	48.485
822.67	43.902
822.97	21.622
823.27	34.286
823.57	41.379
823.88	2.941
824.18	36.111
824.48	31.429
824.78	0.000
825.08	39.286
825.38	11.111
825.69	38.710
825.99	34.146
826.29	48.148
826.59	3.125
826.89	16.129
827.19	43.478
827.49	2.778
827.79	-13.043
828.09	32.258
828.39	31.250
828.70	25.000
829.00	-17.241
829.30	24.324
829.60	20.833
829.90	29.630
830.20	31.250
830.50	27.273
830.80	0.000
831.10	4.545
831.40	-2.941
831.70	46.154
832.00	24.242
832.30	29.412
832.60	18.919
832.90	-600.000
833.20	7.143
833.50	-5.000
833.80	18.421
834.10	-37.500
834.40	-27.273
834.70	6.667
835.00	70.000
835.30	16.667
835.60	-9.524
835.90	-14.286
836.20	-12.000
836.50	-4.167
836.80	5.263
837.10	40.541
837.40	36.667
837.70	-13.043
838.00	62.500
838.30	5.263
838.60	-70.000
838.90	-190.000
839.19	8.333
839.49	23.077
839.79	10.526
840.09	-66.667
840.39	-40.000
840.69	-31.818
840.99	-4.762
841.29	12.500
841.59	-61.538
841.88	-33.333
842.18	-14.286
842.48	23.333
842.78	-328.571
843.08	-21.429
843.38	-87.500
843.68	0.000
843.97	50.000
844.27	-88.889
844.57	-36.364
844.87	-40.000
845.17	72.727
845.47	266.667
845.76	-13.333
846.06	41.667
846.36	-650.000
846.66	-47.368
846.96	-31.818
847.25	-72.222
847.55	0.000
847.85	-9.524
848.15	-7.692
848.44	16.667
848.74	-83.333
849.04	-92.308
849.34	-150.000
849.63	-9.091
849.93	-135.714
850.23	80.000
850.53	-150.000
850.82	-38.889
851.12	6.667
851.42	0.000
851.71	87.500
852.01	29.412
852.31	-38.462
852.61	250.000
852.90	23.529
853.20	20.000
853.50	-25.000
853.79	-35.714
854.09	-150.000
854.39	5.000
854.68	10.000
854.98	-19.048
855.28	-24.000
855.57	12.500
855.87	-12.500
856.17	4.000
856.46	9.375
856.76	5.000
857.05	44.000
857.35	16.667
857.65	-58.824
857.94	-33.333
858.24	-100.000
858.53	-5.000
858.83	-54.545
859.13	48.000
859.42	-21.429
859.72	-37.500
860.01	16.667
860.31	-75.000
860.60	6.250
860.90	-50.000
861.20	33.333
861.49	-6.667
861.79	-50.000
862.08	250.000
862.38	-75.000
862.67	242.857
862.97	200.000
863.26	-45.455
863.56	-81.818
863.85	47.368
864.15	-23.529
864.44	-280.000
864.74	-120.000
865.03	-133.333
865.33	0.000
865.62	85.714
865.92	42.105
866.21	0.000
866.51	-109.091
866.80	-44.444
867.10	-50.000
867.39	-50.000
867.69	-33.333
867.98	0.000
868.27	-29.412
868.57	0.000
868.86	850.000
869.16	-275.000
869.45	-242.857
869.75	-0.000
870.04	30.000
870.33	-1200.000
870.63	-36.842
870.92	-8.333
871.22	-400.000
871.51	-28.571
871.80	-188.889
872.10	-425.000
>>>>>End Processed Spectral Data<<<<<
