SpectraSuite Data File
++++++++++++++++++++++++++++++++++++
Date: Wed May 13 21:45:55 PDT 2015
User: schluterlab
Dark Spectrum Present: Yes
Reference Spectrum Present: Yes
Number of Sampled Component Spectra: 1
Spectrometers: USB2E3373
Integration Time (usec): 3000 (USB2E3373)
Spectra Averaged: 3 (USB2E3373)
Boxcar Smoothing: 0 (USB2E3373)
Correct for Electrical Dark: No (USB2E3373)
Strobe/Lamp Enabled: No (USB2E3373)
Correct for Detector Non-linearity: No (USB2E3373)
Correct for Stray Light: No (USB2E3373)
Number of Pixels in Processed Spectrum: 2048
>>>>>Begin Processed Spectral Data<<<<<
178.53	0.000
178.91	700.000
179.29	150.000
179.67	-950.000
180.04	-366.667
180.42	180.000
180.80	1200.000
181.18	316.667
181.56	-275.000
181.94	-50.000
182.31	9.091
182.69	115.385
183.07	-280.000
183.45	366.667
183.83	144.444
184.20	128.571
184.58	-166.667
184.96	200.000
185.34	200.000
185.72	0.000
186.09	-500.000
186.47	-260.000
186.85	60.000
187.23	-650.000
187.61	600.000
187.98	200.000
188.36	-100.000
188.74	0.000
189.12	-27.273
189.49	-10.000
189.87	133.333
190.25	240.000
190.63	200.000
191.00	-160.000
191.38	200.000
191.76	250.000
192.14	125.000
192.51	0.000
192.89	500.000
193.27	225.000
193.65	-400.000
194.02	72.727
194.40	160.000
194.78	-500.000
195.15	240.000
195.53	-160.000
195.91	-62.500
196.29	-300.000
196.66	0.000
197.04	150.000
197.42	-100.000
197.79	-70.000
198.17	-37.500
198.55	-300.000
198.92	175.000
199.30	-566.667
199.68	80.000
200.05	450.000
200.43	350.000
200.81	-800.000
201.18	0.000
201.56	-16.667
201.94	475.000
202.31	-8.696
202.69	-100.000
203.07	-300.000
203.44	-140.000
203.82	-200.000
204.19	-40.000
204.57	0.000
204.95	-133.333
205.32	0.000
205.70	-150.000
206.08	-325.000
206.45	116.667
206.83	525.000
207.20	-300.000
207.58	-20.000
207.96	-1500.000
208.33	0.000
208.71	-1400.000
209.08	187.500
209.46	450.000
209.84	0.000
210.21	90.000
210.59	2000.000
210.96	360.000
211.34	1400.000
211.71	-600.000
212.09	-83.333
212.46	-150.000
212.84	-166.667
213.22	-225.000
213.59	-600.000
213.97	-400.000
214.34	-250.000
214.72	30.769
215.09	237.500
215.47	322.222
215.84	900.000
216.22	-50.000
216.59	-750.000
216.97	433.333
217.34	144.444
217.72	0.000
218.09	133.333
218.47	-500.000
218.84	-71.429
219.22	-125.000
219.59	-433.333
219.97	-75.000
220.34	87.500
220.72	-160.000
221.09	0.000
221.47	-166.667
221.84	100.000
222.22	0.000
222.59	700.000
222.97	-166.667
223.34	-66.667
223.72	-1000.000
224.09	-400.000
224.46	-27.273
224.84	-12.500
225.21	-128.571
225.59	-350.000
225.96	-16.667
226.34	-50.000
226.71	-185.714
227.08	150.000
227.46	-137.500
227.83	-800.000
228.21	0.000
228.58	-300.000
228.95	0.000
229.33	43.750
229.70	-100.000
230.08	-15.385
230.45	-175.000
230.82	-100.000
231.20	185.714
231.57	-225.000
231.95	1200.000
232.32	16.667
232.69	-35.294
233.07	-1700.000
233.44	-21.739
233.81	-500.000
234.19	25.000
234.56	-46.667
234.93	0.000
235.31	-26.316
235.68	-107.692
236.05	-61.538
236.43	0.000
236.80	12.121
237.17	-93.333
237.55	-41.176
237.92	-48.276
238.29	-18.519
238.67	-11.111
239.04	-3.226
239.41	-25.532
239.79	10.638
240.16	0.000
240.53	10.714
240.91	1.786
241.28	3.571
241.65	-1.613
242.02	-2.632
242.40	5.797
242.77	-1.449
243.14	5.128
243.51	-3.191
243.89	4.808
244.26	14.151
244.63	0.000
245.00	1.042
245.38	7.563
245.75	6.557
246.12	9.774
246.49	-5.691
246.87	-5.042
247.24	12.838
247.61	3.311
247.98	5.128
248.36	4.142
248.73	4.494
249.10	7.071
249.47	5.914
249.84	7.368
250.22	7.960
250.59	5.607
250.96	10.455
251.33	0.000
251.70	11.297
252.08	10.042
252.45	11.523
252.82	10.646
253.19	9.728
253.56	8.633
253.94	14.947
254.31	6.690
254.68	10.403
255.05	10.561
255.42	9.091
255.79	10.123
256.16	8.833
256.54	7.619
256.91	5.063
257.28	8.805
257.65	6.051
258.02	7.038
258.39	7.602
258.76	7.849
259.14	10.511
259.51	7.584
259.88	10.569
260.25	11.111
260.62	10.112
260.99	11.141
261.36	13.212
261.73	8.395
262.10	11.450
262.47	8.148
262.85	7.463
263.22	9.231
263.59	8.312
263.96	9.002
264.33	6.971
264.70	9.070
265.07	9.491
265.44	12.414
265.81	9.611
266.18	8.884
266.55	10.044
266.92	9.534
267.29	10.288
267.66	9.342
268.03	13.169
268.40	8.686
268.77	10.331
269.14	10.816
269.51	13.758
269.88	8.350
270.25	9.958
270.62	7.582
270.99	8.858
271.36	7.540
271.73	8.835
272.10	10.095
272.47	9.405
272.84	10.433
273.21	10.763
273.58	8.402
273.95	9.434
274.32	10.075
274.69	10.018
275.06	10.424
275.43	9.605
275.80	12.234
276.17	10.129
276.54	8.526
276.91	11.324
277.28	7.581
277.65	8.217
278.02	10.893
278.39	8.703
278.76	10.702
279.13	8.748
279.50	7.759
279.87	7.609
280.23	9.910
280.60	8.997
280.97	11.364
281.34	12.303
281.71	8.780
282.08	9.915
282.45	10.164
282.82	9.744
283.19	10.976
283.56	10.625
283.92	11.162
284.29	9.984
284.66	9.555
285.03	9.283
285.40	10.574
285.77	10.811
286.14	9.271
286.51	11.094
286.87	8.615
287.24	9.587
287.61	10.090
287.98	11.324
288.35	9.240
288.72	11.334
289.08	10.826
289.45	9.985
289.82	9.682
290.19	12.202
290.56	10.227
290.93	9.392
291.29	9.166
291.66	10.519
292.03	9.809
292.40	11.440
292.77	10.576
293.13	10.600
293.50	9.412
293.87	9.867
294.24	10.582
294.60	10.403
294.97	12.302
295.34	10.026
295.71	9.593
296.08	9.293
296.44	10.204
296.81	10.840
297.18	9.375
297.55	12.146
297.91	10.932
298.28	11.138
298.65	11.823
299.02	10.134
299.38	9.939
299.75	11.659
300.12	10.465
300.48	9.357
300.85	12.818
301.22	11.266
301.59	11.854
301.95	11.266
302.32	13.069
302.69	10.395
303.05	10.299
303.42	12.500
303.79	10.410
304.15	11.939
304.52	12.903
304.89	12.846
305.25	11.965
305.62	13.449
305.99	12.514
306.35	14.107
306.72	13.530
307.09	13.764
307.45	12.886
307.82	13.789
308.19	12.853
308.55	12.897
308.92	14.637
309.29	14.515
309.65	14.885
310.02	15.507
310.38	15.650
310.75	15.286
311.12	15.160
311.48	14.045
311.85	16.240
312.22	16.248
312.58	15.266
312.95	16.318
313.31	16.253
313.68	15.840
314.05	16.541
314.41	17.387
314.78	17.932
315.14	16.759
315.51	18.744
315.87	17.887
316.24	19.559
316.61	19.635
316.97	18.333
317.34	18.449
317.70	20.607
318.07	19.787
318.43	21.048
318.80	19.546
319.16	19.540
319.53	19.444
319.89	21.319
320.26	21.165
320.62	22.521
320.99	22.384
321.35	21.890
321.72	21.848
322.08	23.155
322.45	25.254
322.81	23.752
323.18	24.508
323.54	24.639
323.91	26.197
324.27	25.833
324.64	24.739
325.00	26.159
325.37	26.451
325.73	26.852
326.10	26.577
326.46	26.756
326.83	27.265
327.19	28.049
327.56	29.089
327.92	28.640
328.29	29.883
328.65	30.500
329.01	29.024
329.38	30.783
329.74	29.700
330.11	30.027
330.47	29.340
330.84	30.325
331.20	30.316
331.56	31.250
331.93	31.008
332.29	31.364
332.66	30.508
333.02	32.233
333.38	31.842
333.75	32.253
334.11	31.250
334.48	31.037
334.84	31.537
335.20	31.904
335.57	31.680
335.93	31.787
336.29	31.874
336.66	32.137
337.02	32.000
337.38	31.070
337.75	32.041
338.11	32.707
338.47	31.336
338.84	31.443
339.20	31.834
339.56	33.020
339.93	33.621
340.29	33.305
340.65	32.763
341.02	33.278
341.38	33.024
341.74	32.185
342.11	31.874
342.47	32.050
342.83	31.944
343.20	33.080
343.56	33.197
343.92	32.413
344.28	32.955
344.65	33.143
345.01	32.930
345.37	33.635
345.73	34.232
346.10	32.905
346.46	33.089
346.82	32.986
347.19	32.832
347.55	34.168
347.91	33.905
348.27	34.306
348.63	34.696
349.00	34.277
349.36	33.909
349.72	34.493
350.08	32.995
350.45	34.456
350.81	34.351
351.17	34.026
351.53	34.093
351.89	33.042
352.26	33.359
352.62	34.341
352.98	35.543
353.34	34.863
353.70	34.579
354.07	34.902
354.43	35.070
354.79	35.256
355.15	34.860
355.51	35.308
355.87	36.513
356.24	35.313
356.60	35.184
356.96	34.996
357.32	34.985
357.68	36.593
358.04	36.230
358.40	35.039
358.77	36.009
359.13	36.654
359.49	34.292
359.85	35.406
360.21	35.466
360.57	36.122
360.93	36.950
361.29	36.417
361.66	36.674
362.02	36.175
362.38	36.189
362.74	35.606
363.10	36.732
363.46	35.879
363.82	36.881
364.18	36.258
364.54	36.834
364.90	36.376
365.26	36.235
365.62	36.435
365.98	36.299
366.35	37.872
366.71	36.305
367.07	37.137
367.43	36.794
367.79	36.275
368.15	37.412
368.51	36.850
368.87	37.893
369.23	36.370
369.59	36.786
369.95	37.663
370.31	36.890
370.67	38.088
371.03	37.936
371.39	38.041
371.75	37.714
372.11	37.892
372.47	37.058
372.83	36.893
373.19	37.050
373.55	38.367
373.91	37.058
374.27	37.690
374.63	37.340
374.99	37.674
375.35	38.562
375.71	36.821
376.07	38.314
376.42	38.570
376.78	38.705
377.14	38.237
377.50	37.419
377.86	37.517
378.22	37.295
378.58	37.327
378.94	38.812
379.30	38.164
379.66	37.423
380.02	38.358
380.38	37.831
380.74	38.314
381.09	38.058
381.45	38.815
381.81	37.954
382.17	38.122
382.53	38.215
382.89	39.023
383.25	37.407
383.61	38.983
383.97	37.937
384.32	38.437
384.68	38.248
385.04	36.714
385.40	38.543
385.76	38.200
386.12	38.928
386.48	38.433
386.83	38.173
387.19	38.433
387.55	38.013
387.91	38.868
388.27	38.656
388.62	38.702
388.98	38.548
389.34	38.158
389.70	38.095
390.06	39.375
390.42	38.273
390.77	38.117
391.13	36.742
391.49	37.065
391.85	38.019
392.20	37.093
392.56	38.540
392.92	38.034
393.28	38.466
393.64	37.492
393.99	37.882
394.35	36.543
394.71	37.949
395.07	36.792
395.42	37.051
395.78	36.873
396.14	37.540
396.50	36.906
396.85	38.368
397.21	36.642
397.57	36.522
397.92	36.228
398.28	37.281
398.64	36.612
399.00	35.379
399.35	37.457
399.71	35.760
400.07	36.446
400.42	36.552
400.78	37.462
401.14	36.113
401.49	37.328
401.85	35.504
402.21	35.666
402.57	36.174
402.92	37.860
403.28	36.148
403.63	36.268
403.99	36.084
404.35	35.474
404.70	35.106
405.06	35.349
405.42	36.055
405.77	35.541
406.13	34.914
406.49	35.051
406.84	35.958
407.20	35.346
407.55	35.649
407.91	33.885
408.27	34.061
408.62	35.114
408.98	34.155
409.34	34.963
409.69	34.568
410.05	34.826
410.40	32.988
410.76	34.356
411.11	33.769
411.47	34.307
411.83	32.689
412.18	33.501
412.54	33.271
412.89	33.354
413.25	32.802
413.60	34.169
413.96	33.084
414.31	34.279
414.67	31.492
415.03	32.070
415.38	33.355
415.74	33.268
416.09	33.377
416.45	32.878
416.80	32.953
417.16	34.345
417.51	33.825
417.87	33.862
418.22	32.256
418.58	32.786
418.93	33.019
419.29	33.597
419.64	32.570
420.00	33.524
420.35	33.652
420.71	33.090
421.06	32.903
421.42	32.908
421.77	33.237
422.12	33.181
422.48	33.097
422.83	33.018
423.19	32.145
423.54	33.392
423.90	33.254
424.25	33.391
424.61	33.087
424.96	33.294
425.31	31.576
425.67	32.099
426.02	32.803
426.38	32.898
426.73	31.460
427.09	31.582
427.44	32.883
427.79	31.770
428.15	31.927
428.50	32.749
428.85	32.595
429.21	31.851
429.56	32.094
429.92	32.639
430.27	33.078
430.62	32.424
430.98	32.258
431.33	30.951
431.68	31.683
432.04	31.268
432.39	32.275
432.74	31.760
433.10	31.319
433.45	30.651
433.80	32.184
434.16	31.294
434.51	32.228
434.86	32.038
435.22	31.862
435.57	30.774
435.92	31.665
436.28	30.511
436.63	30.716
436.98	31.786
437.34	31.685
437.69	30.519
438.04	30.673
438.39	31.631
438.75	31.168
439.10	31.174
439.45	32.143
439.81	31.342
440.16	32.058
440.51	31.034
440.86	31.476
441.22	31.325
441.57	30.965
441.92	30.430
442.27	31.115
442.63	30.463
442.98	30.903
443.33	30.248
443.68	30.153
444.03	31.396
444.39	31.334
444.74	29.542
445.09	29.626
445.44	30.873
445.79	30.924
446.15	31.059
446.50	29.846
446.85	31.053
447.20	31.208
447.55	31.058
447.91	30.393
448.26	30.646
448.61	31.185
448.96	30.638
449.31	30.668
449.66	30.827
450.02	30.131
450.37	29.847
450.72	30.253
451.07	29.906
451.42	30.006
451.77	30.858
452.12	30.006
452.47	30.665
452.83	29.894
453.18	30.617
453.53	29.950
453.88	29.398
454.23	28.925
454.58	29.228
454.93	29.570
455.28	31.278
455.63	29.382
455.98	30.067
456.34	29.752
456.69	29.649
457.04	28.669
457.39	29.826
457.74	29.683
458.09	30.095
458.44	29.553
458.79	29.929
459.14	28.596
459.49	29.268
459.84	29.087
460.19	29.352
460.54	29.684
460.89	29.054
461.24	29.038
461.59	29.106
461.94	28.951
462.29	29.841
462.64	27.902
462.99	28.907
463.34	28.453
463.69	29.704
464.04	28.331
464.39	28.676
464.74	28.440
465.09	29.572
465.44	29.517
465.79	29.442
466.14	28.791
466.49	29.560
466.84	29.528
467.19	28.408
467.54	28.775
467.89	28.410
468.24	28.580
468.59	28.362
468.94	26.628
469.29	28.090
469.64	28.522
469.99	28.483
470.34	27.175
470.68	27.509
471.03	27.574
471.38	28.303
471.73	27.984
472.08	27.216
472.43	28.100
472.78	28.262
473.13	27.045
473.48	26.484
473.83	27.495
474.17	27.474
474.52	27.379
474.87	26.779
475.22	27.597
475.57	27.050
475.92	26.881
476.27	27.622
476.61	27.180
476.96	28.041
477.31	26.915
477.66	27.514
478.01	25.989
478.36	26.485
478.70	27.497
479.05	27.969
479.40	26.469
479.75	26.939
480.10	27.078
480.45	26.287
480.79	27.277
481.14	26.596
481.49	26.838
481.84	25.589
482.19	26.957
482.53	26.714
482.88	26.798
483.23	25.505
483.58	26.087
483.92	25.875
484.27	25.801
484.62	25.166
484.97	26.338
485.31	26.186
485.66	26.187
486.01	26.880
486.36	26.769
486.70	26.637
487.05	27.147
487.40	26.984
487.75	27.189
488.09	26.400
488.44	26.288
488.79	26.646
489.13	25.646
489.48	24.711
489.83	25.368
490.17	24.557
490.52	26.227
490.87	24.942
491.22	24.682
491.56	25.347
491.91	24.628
492.26	24.662
492.60	24.579
492.95	25.899
493.30	25.145
493.64	24.604
493.99	25.121
494.34	25.193
494.68	24.916
495.03	24.802
495.37	24.623
495.72	25.013
496.07	24.647
496.41	24.567
496.76	24.817
497.11	24.131
497.45	24.416
497.80	25.795
498.14	23.728
498.49	23.550
498.84	24.190
499.18	24.490
499.53	23.929
499.87	23.387
500.22	24.540
500.56	24.824
500.91	24.447
501.26	24.286
501.60	23.824
501.95	24.245
502.29	23.981
502.64	25.024
502.98	24.470
503.33	24.088
503.67	24.830
504.02	23.775
504.36	23.279
504.71	23.425
505.06	24.249
505.40	23.866
505.75	24.364
506.09	23.556
506.44	23.740
506.78	24.073
507.13	24.220
507.47	22.800
507.82	23.339
508.16	23.536
508.51	23.347
508.85	23.328
509.19	23.757
509.54	23.378
509.88	23.172
510.23	22.263
510.57	22.722
510.92	23.222
511.26	23.212
511.61	22.558
511.95	23.043
512.30	22.654
512.64	22.701
512.98	22.216
513.33	22.479
513.67	22.033
514.02	22.976
514.36	22.303
514.70	22.979
515.05	21.884
515.39	22.642
515.74	21.610
516.08	21.416
516.42	21.544
516.77	21.324
517.11	21.517
517.46	22.689
517.80	22.639
518.14	21.433
518.49	21.941
518.83	22.017
519.17	21.988
519.52	21.773
519.86	21.615
520.20	20.861
520.55	22.015
520.89	21.695
521.23	22.564
521.58	21.365
521.92	20.993
522.26	20.885
522.61	21.202
522.95	21.503
523.29	21.397
523.64	21.615
523.98	21.283
524.32	20.668
524.66	21.169
525.01	21.953
525.35	20.869
525.69	21.935
526.04	21.433
526.38	21.734
526.72	20.842
527.06	21.341
527.41	20.781
527.75	19.893
528.09	21.171
528.43	21.370
528.78	21.318
529.12	22.380
529.46	20.537
529.80	21.165
530.15	20.914
530.49	21.698
530.83	21.327
531.17	21.164
531.51	20.229
531.86	20.732
532.20	20.606
532.54	20.414
532.88	21.307
533.22	20.067
533.57	20.662
533.91	22.000
534.25	20.638
534.59	19.434
534.93	20.599
535.27	20.127
535.62	20.855
535.96	21.210
536.30	21.077
536.64	20.437
536.98	20.042
537.32	19.858
537.66	21.932
538.01	19.972
538.35	20.028
538.69	20.401
539.03	19.732
539.37	19.651
539.71	19.782
540.05	18.893
540.39	20.028
540.73	19.902
541.07	19.320
541.42	20.404
541.76	19.959
542.10	20.244
542.44	19.681
542.78	19.847
543.12	20.755
543.46	19.972
543.80	20.163
544.14	20.922
544.48	18.381
544.82	20.377
545.16	19.337
545.50	20.054
545.84	18.583
546.18	19.916
546.52	19.478
546.86	18.869
547.20	19.157
547.54	18.942
547.88	20.310
548.22	19.935
548.56	19.813
548.90	19.418
549.24	20.208
549.58	18.719
549.92	19.809
550.26	20.812
550.60	19.595
550.94	19.179
551.28	19.228
551.62	18.872
551.96	18.814
552.30	17.758
552.64	18.715
552.98	18.892
553.32	19.250
553.66	18.855
554.00	19.006
554.34	18.462
554.68	18.345
555.02	18.263
555.36	18.986
555.69	18.500
556.03	18.227
556.37	18.563
556.71	18.150
557.05	18.376
557.39	19.292
557.73	19.213
558.07	17.935
558.41	19.076
558.75	19.169
559.08	18.364
559.42	18.332
559.76	18.654
560.10	17.525
560.44	19.234
560.78	17.986
561.12	18.360
561.45	18.503
561.79	18.501
562.13	18.706
562.47	18.643
562.81	17.460
563.15	17.847
563.48	17.619
563.82	18.057
564.16	18.145
564.50	19.064
564.84	18.919
565.17	19.603
565.51	18.048
565.85	18.721
566.19	18.278
566.52	18.545
566.86	18.015
567.20	19.059
567.54	19.113
567.88	17.917
568.21	18.957
568.55	18.675
568.89	18.245
569.23	18.790
569.56	18.648
569.90	19.325
570.24	18.628
570.57	19.720
570.91	19.574
571.25	18.854
571.59	19.363
571.92	19.331
572.26	19.364
572.60	19.926
572.93	18.775
573.27	18.949
573.61	19.896
573.95	19.196
574.28	19.825
574.62	19.477
574.96	19.685
575.29	19.734
575.63	19.073
575.97	19.457
576.30	19.053
576.64	19.151
576.98	19.173
577.31	19.674
577.65	19.306
577.98	19.574
578.32	19.371
578.66	19.422
578.99	19.484
579.33	18.866
579.67	19.425
580.00	19.130
580.34	18.832
580.67	19.353
581.01	19.216
581.35	19.453
581.68	19.118
582.02	19.604
582.35	19.533
582.69	19.362
583.02	19.089
583.36	19.364
583.70	19.323
584.03	19.520
584.37	18.798
584.70	19.148
585.04	19.038
585.37	18.955
585.71	19.272
586.04	19.298
586.38	18.574
586.72	18.769
587.05	19.205
587.39	18.952
587.72	19.468
588.06	18.878
588.39	19.088
588.73	18.833
589.06	18.590
589.40	18.507
589.73	17.858
590.07	18.702
590.40	18.781
590.73	18.314
591.07	17.593
591.40	17.609
591.74	18.097
592.07	18.804
592.41	17.546
592.74	18.403
593.08	18.462
593.41	19.011
593.75	18.056
594.08	18.238
594.41	18.099
594.75	18.141
595.08	18.335
595.42	17.144
595.75	18.655
596.09	18.399
596.42	17.892
596.75	17.946
597.09	18.744
597.42	18.035
597.75	17.644
598.09	17.851
598.42	18.166
598.76	17.464
599.09	18.527
599.42	18.127
599.76	18.137
600.09	17.884
600.42	18.004
600.76	17.923
601.09	17.363
601.42	18.032
601.76	17.490
602.09	17.714
602.42	18.118
602.76	17.366
603.09	18.111
603.42	18.033
603.76	17.264
604.09	18.103
604.42	17.246
604.76	17.547
605.09	17.127
605.42	18.084
605.75	17.559
606.09	17.591
606.42	17.997
606.75	17.965
607.09	17.420
607.42	17.075
607.75	16.674
608.08	17.809
608.42	17.432
608.75	17.200
609.08	16.659
609.41	17.536
609.75	16.490
610.08	17.258
610.41	17.298
610.74	17.565
611.07	17.285
611.41	17.298
611.74	17.547
612.07	17.405
612.40	17.784
612.73	17.014
613.07	16.297
613.40	17.401
613.73	16.739
614.06	17.358
614.39	16.064
614.72	17.490
615.06	16.222
615.39	16.336
615.72	16.145
616.05	16.723
616.38	16.266
616.71	16.557
617.05	17.445
617.38	16.143
617.71	15.625
618.04	16.758
618.37	16.909
618.70	16.688
619.03	16.357
619.36	16.085
619.69	14.839
620.03	15.477
620.36	15.379
620.69	15.346
621.02	15.462
621.35	15.617
621.68	14.751
622.01	14.887
622.34	15.781
622.67	16.680
623.00	16.489
623.33	16.156
623.66	14.944
623.99	17.254
624.32	15.114
624.65	16.617
624.99	15.209
625.32	16.953
625.65	15.581
625.98	15.166
626.31	15.265
626.64	15.047
626.97	15.138
627.30	14.200
627.63	14.187
627.96	14.286
628.29	15.721
628.62	16.925
628.95	14.830
629.28	14.384
629.61	15.120
629.94	14.700
630.26	15.271
630.59	15.085
630.92	13.454
631.25	14.624
631.58	15.310
631.91	13.256
632.24	13.282
632.57	14.444
632.90	13.769
633.23	12.710
633.56	13.429
633.89	13.517
634.22	16.019
634.55	14.373
634.88	12.990
635.20	14.375
635.53	13.566
635.86	12.949
636.19	14.516
636.52	13.049
636.85	13.510
637.18	12.546
637.51	14.482
637.83	13.708
638.16	13.467
638.49	12.817
638.82	12.288
639.15	13.963
639.48	14.171
639.81	12.917
640.13	13.944
640.46	14.831
640.79	12.806
641.12	10.799
641.45	12.809
641.77	10.015
642.10	12.557
642.43	12.421
642.76	12.303
643.09	13.898
643.41	13.397
643.74	10.662
644.07	12.460
644.40	13.267
644.73	13.390
645.05	12.565
645.38	9.967
645.71	12.925
646.04	12.795
646.36	11.458
646.69	12.413
647.02	10.929
647.35	11.883
647.67	11.830
648.00	11.594
648.33	15.085
648.66	11.185
648.98	13.820
649.31	12.423
649.64	12.207
649.96	12.006
650.29	10.131
650.62	13.344
650.94	12.759
651.27	12.544
651.60	12.063
651.92	12.366
652.25	13.735
652.58	13.036
652.90	12.121
653.23	10.696
653.56	11.405
653.88	11.945
654.21	10.580
654.54	11.628
654.86	11.220
655.19	11.905
655.52	16.183
655.84	15.919
656.17	19.482
656.49	26.359
656.82	26.026
657.15	19.302
657.47	14.033
657.80	10.590
658.13	11.116
658.45	16.116
658.78	15.205
659.10	15.400
659.43	14.760
659.75	14.963
660.08	14.000
660.41	12.779
660.73	11.433
661.06	11.395
661.38	12.791
661.71	10.041
662.03	13.108
662.36	9.735
662.68	10.753
663.01	13.559
663.33	13.175
663.66	8.869
663.98	11.461
664.31	9.890
664.63	7.883
664.96	11.597
665.28	12.446
665.61	9.287
665.93	10.493
666.26	14.557
666.58	9.636
666.91	12.556
667.23	9.908
667.56	11.034
667.88	12.617
668.21	10.045
668.53	9.885
668.86	10.791
669.18	12.293
669.50	10.138
669.83	9.308
670.15	12.857
670.48	9.885
670.80	16.411
671.13	10.755
671.45	10.959
671.77	11.638
672.10	9.552
672.42	11.450
672.75	10.714
673.07	10.000
673.39	11.567
673.72	9.980
674.04	11.680
674.37	10.976
674.69	11.523
675.01	11.111
675.34	11.597
675.66	10.675
675.98	9.956
676.31	10.181
676.63	13.379
676.95	9.647
677.28	10.780
677.60	11.765
677.92	10.865
678.25	12.148
678.57	14.053
678.89	10.448
679.22	8.903
679.54	10.816
679.86	11.328
680.18	9.038
680.51	8.654
680.83	9.357
681.15	12.967
681.48	10.220
681.80	10.838
682.12	8.958
682.44	8.249
682.77	10.105
683.09	9.152
683.41	10.698
683.73	8.929
684.06	8.407
684.38	10.897
684.70	6.925
685.02	11.157
685.34	11.546
685.67	10.131
685.99	11.566
686.31	12.586
686.63	11.949
686.96	14.100
687.28	9.780
687.60	14.934
687.92	10.311
688.24	8.400
688.56	10.965
688.89	8.018
689.21	12.108
689.53	6.757
689.85	11.461
690.17	14.505
690.49	10.145
690.82	7.399
691.14	10.145
691.46	9.745
691.78	9.231
692.10	12.102
692.42	8.571
692.74	11.087
693.06	9.438
693.39	7.728
693.71	10.667
694.03	11.364
694.35	11.261
694.67	10.500
694.99	12.629
695.31	10.078
695.63	9.268
695.95	9.669
696.27	7.671
696.59	8.871
696.91	9.777
697.23	8.883
697.56	8.153
697.88	11.642
698.20	11.231
698.52	6.776
698.84	9.091
699.16	10.402
699.48	10.617
699.80	10.078
700.12	14.209
700.44	9.296
700.76	6.742
701.08	9.063
701.40	7.784
701.72	8.923
702.04	5.031
702.36	10.366
702.68	7.622
703.00	11.111
703.32	7.799
703.64	9.940
703.96	11.437
704.28	7.229
704.60	9.451
704.91	3.448
705.23	6.962
705.55	8.966
705.87	9.859
706.19	8.059
706.51	5.986
706.83	6.688
707.15	9.146
707.47	9.366
707.79	6.853
708.11	8.997
708.43	10.914
708.74	7.713
709.06	9.358
709.38	6.628
709.70	10.811
710.02	10.280
710.34	7.667
710.66	9.772
710.98	5.882
711.29	12.662
711.61	4.839
711.93	12.258
712.25	3.497
712.57	4.211
712.89	6.960
713.20	7.801
713.52	5.839
713.84	9.677
714.16	6.472
714.48	9.177
714.80	7.348
715.11	12.209
715.43	4.658
715.75	10.559
716.07	13.554
716.39	11.111
716.70	10.432
717.02	2.745
717.34	9.470
717.66	3.017
717.97	5.952
718.29	8.268
718.61	7.725
718.93	4.651
719.24	5.535
719.56	12.360
719.88	9.328
720.20	11.067
720.51	12.109
720.83	13.230
721.15	5.285
721.46	9.542
721.78	6.375
722.10	8.367
722.42	7.661
722.73	10.039
723.05	5.714
723.37	10.924
723.68	7.600
724.00	0.426
724.32	5.439
724.63	9.465
724.95	6.838
725.27	13.502
725.58	13.580
725.90	8.368
726.22	9.783
726.53	5.882
726.85	10.219
727.16	7.037
727.48	7.280
727.80	11.328
728.11	4.508
728.43	9.766
728.74	6.746
729.06	5.600
729.38	8.696
729.69	10.676
730.01	5.204
730.32	11.439
730.64	7.197
730.96	13.986
731.27	9.365
731.59	7.937
731.90	8.414
732.22	6.090
732.53	8.108
732.85	8.389
733.16	8.911
733.48	10.135
733.80	7.432
734.11	11.486
734.43	11.765
734.74	11.111
735.06	9.222
735.37	11.550
735.69	10.356
736.00	9.901
736.32	9.574
736.63	7.241
736.95	8.219
737.26	8.966
737.58	13.194
737.89	9.622
738.21	7.117
738.52	6.844
738.83	10.204
739.15	8.439
739.46	7.393
739.78	6.338
740.09	10.616
740.41	8.214
740.72	7.447
741.04	1.600
741.35	2.193
741.66	9.333
741.98	11.538
742.29	10.891
742.61	7.317
742.92	10.088
743.23	8.019
743.55	2.252
743.86	8.072
744.18	5.882
744.49	7.614
744.80	6.122
745.12	8.411
745.43	8.531
745.74	11.261
746.06	7.477
746.37	5.505
746.68	6.250
747.00	4.306
747.31	6.250
747.62	8.257
747.94	10.044
748.25	6.881
748.56	10.222
748.88	8.451
749.19	13.333
749.50	5.340
749.82	3.286
750.13	3.333
750.44	5.000
750.75	7.380
751.07	10.320
751.38	8.511
751.69	7.722
752.01	7.031
752.32	2.308
752.63	11.567
752.94	7.200
753.26	10.879
753.57	4.583
753.88	8.097
754.19	9.163
754.51	6.391
754.82	8.791
755.13	4.348
755.44	8.943
755.75	6.800
756.07	5.535
756.38	6.115
756.69	11.945
757.00	12.773
757.31	9.385
757.63	2.469
757.94	10.734
758.25	9.259
758.56	7.609
758.87	8.631
759.18	12.303
759.50	8.081
759.81	9.030
760.12	8.615
760.43	6.548
760.74	8.757
761.05	9.945
761.36	9.169
761.67	9.366
761.99	7.560
762.30	5.839
762.61	5.761
762.92	5.556
763.23	11.475
763.54	6.494
763.85	6.939
764.16	4.878
764.47	2.800
764.78	9.643
765.10	8.197
765.41	6.991
765.72	9.938
766.03	11.881
766.34	7.692
766.65	5.439
766.96	1.878
767.27	10.891
767.58	2.247
767.89	3.704
768.20	3.867
768.51	11.055
768.82	12.019
769.13	8.407
769.44	6.276
769.75	2.137
770.06	5.830
770.37	8.333
770.68	4.854
770.99	3.398
771.30	11.765
771.61	6.939
771.92	8.714
772.23	4.054
772.54	1.657
772.85	1.744
773.16	7.937
773.47	-1.183
773.78	12.069
774.09	4.375
774.39	5.590
774.70	7.483
775.01	4.138
775.32	5.000
775.63	11.278
775.94	-4.511
776.25	-4.000
776.56	-1.653
776.87	7.143
777.18	8.108
777.48	6.306
777.79	5.512
778.10	4.587
778.41	7.018
778.72	-4.202
779.03	1.408
779.34	9.459
779.65	-5.634
779.95	5.960
780.26	11.511
780.57	7.914
780.88	4.225
781.19	-5.042
781.50	8.725
781.80	8.187
782.11	4.070
782.42	6.918
782.73	8.497
783.04	12.414
783.34	1.527
783.65	-1.342
783.96	8.462
784.27	3.571
784.57	0.709
784.88	-8.654
785.19	20.000
785.50	11.818
785.81	0.000
786.11	3.361
786.42	3.540
786.73	8.491
787.04	-0.917
787.34	-13.861
787.65	-0.833
787.96	2.479
788.26	11.594
788.57	0.794
788.88	1.626
789.19	4.000
789.49	3.053
789.80	6.061
790.11	5.660
790.41	0.990
790.72	0.000
791.03	3.261
791.33	-1.176
791.64	1.235
791.95	-1.087
792.25	5.682
792.56	8.974
792.87	-6.410
793.17	-12.821
793.48	-7.143
793.79	-6.250
794.09	11.538
794.40	6.250
794.70	5.405
795.01	3.125
795.32	5.217
795.62	-8.696
795.93	4.717
796.23	11.111
796.54	-1.220
796.85	7.143
797.15	-13.636
797.46	-4.348
797.76	6.579
798.07	12.500
798.37	12.195
798.68	-11.290
798.99	-8.108
799.29	-1.205
799.60	3.846
799.90	1.538
800.21	10.606
800.51	-5.333
800.82	1.333
801.12	-27.083
801.43	-28.333
801.73	-10.811
802.04	8.571
802.34	-4.918
802.65	-10.448
802.95	-1.818
803.26	3.448
803.56	-1.538
803.87	-3.774
804.17	9.677
804.48	-10.294
804.78	-7.317
805.09	5.797
805.39	-19.118
805.70	-36.170
806.00	-5.263
806.30	6.410
806.61	-2.632
806.91	-12.162
807.22	-6.579
807.52	0.000
807.83	-27.119
808.13	-27.273
808.43	-1.667
808.74	-27.586
809.04	-6.349
809.35	-24.490
809.65	-10.000
809.95	-32.653
810.26	15.493
810.56	-12.500
810.86	0.000
811.17	15.385
811.47	-19.149
811.77	-4.167
812.08	-7.547
812.38	-46.875
812.69	-18.182
812.99	-4.878
813.29	-24.324
813.59	-18.919
813.90	-12.727
814.20	-9.091
814.50	-5.000
814.81	1.818
815.11	12.281
815.41	13.953
815.72	-27.500
816.02	-14.286
816.32	-51.351
816.62	4.167
816.93	2.222
817.23	-37.778
817.53	-27.778
817.84	-43.243
818.14	-21.951
818.44	12.000
818.74	-6.122
819.04	-14.634
819.35	-11.111
819.65	9.091
819.95	-116.667
820.25	-15.152
820.56	-14.286
820.86	-25.000
821.16	-9.091
821.46	-19.565
821.76	-13.793
822.07	4.348
822.37	-3.030
822.67	9.756
822.97	-8.108
823.27	-25.714
823.57	-3.448
823.88	-8.824
824.18	-11.111
824.48	-8.571
824.78	-38.095
825.08	3.571
825.38	40.741
825.69	-12.903
825.99	0.000
826.29	-11.111
826.59	-28.125
826.89	-29.032
827.19	-82.609
827.49	-25.000
827.79	-113.043
828.09	-12.903
828.39	0.000
828.70	-40.625
829.00	-27.586
829.30	18.919
829.60	-66.667
829.90	-18.519
830.20	-21.875
830.50	-9.091
830.80	-129.412
831.10	-31.818
831.40	-14.706
831.70	-23.077
832.00	-36.364
832.30	2.941
832.60	16.216
832.90	1900.000
833.20	-21.429
833.50	-50.000
833.80	-7.895
834.10	-37.500
834.40	-54.545
834.70	-26.667
835.00	-70.000
835.30	-25.000
835.60	-47.619
835.90	-14.286
836.20	-56.000
836.50	-12.500
836.80	-47.368
837.10	18.919
837.40	33.333
837.70	-17.391
838.00	-20.833
838.30	-36.842
838.60	-140.000
838.90	-200.000
839.19	-66.667
839.49	15.385
839.79	-15.789
840.09	-133.333
840.39	-110.000
840.69	-81.818
840.99	-14.286
841.29	-20.833
841.59	-46.154
841.88	-80.000
842.18	-42.857
842.48	6.667
842.78	-242.857
843.08	-78.571
843.38	-212.500
843.68	-31.250
843.97	57.143
844.27	-211.111
844.57	-100.000
844.87	-60.000
845.17	-13.636
845.47	533.333
845.76	-86.667
846.06	-75.000
846.36	-1150.000
846.66	0.000
846.96	-45.455
847.25	-5.556
847.55	-111.111
847.85	-71.429
848.15	15.385
848.44	-283.333
848.74	-33.333
849.04	-115.385
849.34	-350.000
849.63	-72.727
849.93	-128.571
850.23	-20.000
850.53	-200.000
850.82	-50.000
851.12	-40.000
851.42	-88.235
851.71	-137.500
852.01	17.647
852.31	-53.846
852.61	400.000
852.90	23.529
853.20	-6.667
853.50	-81.250
853.79	-135.714
854.09	-300.000
854.39	-40.000
854.68	-17.500
854.98	-42.857
855.28	-20.000
855.57	-33.333
855.87	-25.000
856.17	-12.000
856.46	3.125
856.76	-40.000
857.05	8.000
857.35	-83.333
857.65	-35.294
857.94	-183.333
858.24	-16.667
858.53	-20.000
858.83	-118.182
859.13	16.000
859.42	-107.143
859.72	-62.500
860.01	16.667
860.31	-275.000
860.60	-68.750
860.90	-133.333
861.20	-300.000
861.49	20.000
861.79	-43.750
862.08	200.000
862.38	-91.667
862.67	285.714
862.97	375.000
863.26	-90.909
863.56	-27.273
863.85	10.526
864.15	-17.647
864.44	-300.000
864.74	-60.000
865.03	-77.778
865.33	-35.714
865.62	135.714
865.92	-47.368
866.21	-22.222
866.51	-109.091
866.80	-22.222
867.10	-212.500
867.39	-37.500
867.69	-40.000
867.98	-10.000
868.27	-29.412
868.57	0.000
868.86	1000.000
869.16	-100.000
869.45	-228.571
869.75	700.000
870.04	-30.000
870.33	-700.000
870.63	-21.053
870.92	-116.667
871.22	-1700.000
871.51	-171.429
871.80	-233.333
872.10	-225.000
>>>>>End Processed Spectral Data<<<<<
