SpectraSuite Data File
++++++++++++++++++++++++++++++++++++
Date: Wed May 13 21:52:26 PDT 2015
User: schluterlab
Dark Spectrum Present: Yes
Reference Spectrum Present: Yes
Number of Sampled Component Spectra: 1
Spectrometers: USB2E3373
Integration Time (usec): 3000 (USB2E3373)
Spectra Averaged: 3 (USB2E3373)
Boxcar Smoothing: 0 (USB2E3373)
Correct for Electrical Dark: No (USB2E3373)
Strobe/Lamp Enabled: No (USB2E3373)
Correct for Detector Non-linearity: No (USB2E3373)
Correct for Stray Light: No (USB2E3373)
Number of Pixels in Processed Spectrum: 2048
>>>>>Begin Processed Spectral Data<<<<<
178.53	0.000
178.91	900.000
179.29	175.000
179.67	-750.000
180.04	-533.333
180.42	300.000
180.80	1500.000
181.18	433.333
181.56	-400.000
181.94	-325.000
182.31	18.182
182.69	161.538
183.07	0.000
183.45	300.000
183.83	177.778
184.20	285.714
184.58	0.000
184.96	433.333
185.34	242.857
185.72	0.000
186.09	-700.000
186.47	-280.000
186.85	260.000
187.23	-350.000
187.61	600.000
187.98	1800.000
188.36	-12.500
188.74	0.000
189.12	-90.909
189.49	-70.000
189.87	150.000
190.25	300.000
190.63	-100.000
191.00	-240.000
191.38	260.000
191.76	275.000
192.14	158.333
192.51	-57.895
192.89	1000.000
193.27	325.000
193.65	-340.000
194.02	245.455
194.40	270.000
194.78	-1400.000
195.15	260.000
195.53	-400.000
195.91	0.000
196.29	-233.333
196.66	0.000
197.04	550.000
197.42	-140.000
197.79	-80.000
198.17	-187.500
198.55	-433.333
198.92	325.000
199.30	-666.667
199.68	20.000
200.05	700.000
200.43	300.000
200.81	-1800.000
201.18	-240.000
201.56	-200.000
201.94	575.000
202.31	-8.696
202.69	-85.714
203.07	-500.000
203.44	-300.000
203.82	-400.000
204.19	-100.000
204.57	0.000
204.95	-166.667
205.32	0.000
205.70	-800.000
206.08	-350.000
206.45	-333.333
206.83	550.000
207.20	-400.000
207.58	-30.000
207.96	-2100.000
208.33	-242.857
208.71	-2100.000
209.08	300.000
209.46	550.000
209.84	0.000
210.21	210.000
210.59	2400.000
210.96	220.000
211.34	2100.000
211.71	-1500.000
212.09	-366.667
212.46	-170.000
212.84	-266.667
213.22	-25.000
213.59	-1000.000
213.97	-800.000
214.34	-50.000
214.72	30.769
215.09	212.500
215.47	144.444
215.84	1000.000
216.22	-250.000
216.59	-250.000
216.97	566.667
217.34	188.889
217.72	0.000
218.09	400.000
218.47	-1200.000
218.84	-200.000
219.22	-137.500
219.59	-633.333
219.97	-425.000
220.34	-200.000
220.72	-140.000
221.09	0.000
221.47	-316.667
221.84	-500.000
222.22	0.000
222.59	700.000
222.97	-433.333
223.34	-108.333
223.72	-2500.000
224.09	-650.000
224.46	-81.818
224.84	-125.000
225.21	-142.857
225.59	-400.000
225.96	-83.333
226.34	-90.000
226.71	-57.143
227.08	1000.000
227.46	-137.500
227.83	-500.000
228.21	-12.500
228.58	-525.000
228.95	-64.706
229.33	-25.000
229.70	-75.000
230.08	-100.000
230.45	-137.500
230.82	-75.000
231.20	242.857
231.57	-350.000
231.95	900.000
232.32	8.333
232.69	-41.176
233.07	-1300.000
233.44	17.391
233.81	-350.000
234.19	-16.667
234.56	-86.667
234.93	-26.667
235.31	-36.842
235.68	-69.231
236.05	-15.385
236.43	-72.222
236.80	9.091
237.17	-60.000
237.55	-100.000
237.92	-27.586
238.29	-59.259
238.67	-13.889
239.04	-29.032
239.41	-23.404
239.79	-8.511
240.16	2.326
240.53	-1.786
240.91	1.786
241.28	-1.786
241.65	8.065
242.02	1.316
242.40	0.000
242.77	-11.594
243.14	-7.692
243.51	6.383
243.89	4.808
244.26	28.302
244.63	-7.692
245.00	2.083
245.38	8.403
245.75	4.918
246.12	10.526
246.49	-8.130
246.87	-8.403
247.24	8.784
247.61	6.623
247.98	10.897
248.36	9.467
248.73	6.180
249.10	3.535
249.47	8.065
249.84	11.053
250.22	9.950
250.59	10.280
250.96	9.545
251.33	2.871
251.70	7.531
252.08	9.623
252.45	9.877
252.82	14.829
253.19	8.560
253.56	10.072
253.94	13.523
254.31	11.620
254.68	13.087
255.05	13.531
255.42	8.741
255.79	11.350
256.16	10.410
256.54	14.286
256.91	8.861
257.28	10.377
257.65	8.280
258.02	9.384
258.39	11.988
258.76	8.430
259.14	11.932
259.51	10.112
259.88	10.569
260.25	9.722
260.62	13.764
260.99	14.324
261.36	13.472
261.73	11.358
262.10	9.415
262.47	11.605
262.85	9.453
263.22	11.538
263.59	13.247
263.96	11.436
264.33	9.856
264.70	12.093
265.07	11.574
265.44	13.563
265.81	11.670
266.18	10.706
266.55	11.572
266.92	12.924
267.29	10.288
267.66	13.588
268.03	13.169
268.40	9.958
268.77	8.471
269.14	11.837
269.51	13.552
269.88	9.776
270.25	11.441
270.62	9.631
270.99	12.992
271.36	13.492
271.73	14.458
272.10	9.524
272.47	13.244
272.84	11.417
273.21	13.112
273.58	12.910
273.95	10.566
274.32	10.448
274.69	12.386
275.06	15.194
275.43	11.864
275.80	11.525
276.17	11.418
276.54	11.545
276.91	11.324
277.28	11.191
277.65	13.112
278.02	13.036
278.39	10.835
278.76	11.706
279.13	12.350
279.50	11.552
279.87	10.688
280.23	11.712
280.60	10.381
280.97	10.877
281.34	11.830
281.71	10.894
282.08	12.479
282.45	12.787
282.82	9.744
283.19	13.262
283.56	11.563
283.92	12.844
284.29	12.637
284.66	10.873
285.03	12.215
285.40	11.782
285.77	11.862
286.14	12.614
286.51	13.343
286.87	10.462
287.24	12.094
287.61	12.651
287.98	11.176
288.35	10.730
288.72	13.056
289.08	12.108
289.45	10.720
289.82	13.162
290.19	10.379
290.56	11.364
290.93	11.050
291.29	11.218
291.66	12.295
292.03	13.215
292.40	11.575
292.77	13.922
293.13	13.808
293.50	12.026
293.87	13.200
294.24	11.508
294.60	13.654
294.97	13.360
295.34	11.082
295.71	11.170
296.08	12.565
296.44	11.862
296.81	10.962
297.18	13.500
297.55	12.028
297.91	13.913
298.28	14.165
298.65	11.207
299.02	14.896
299.38	12.883
299.75	13.582
300.12	12.907
300.48	12.398
300.85	14.319
301.22	12.660
301.59	14.319
301.95	13.357
302.32	13.536
302.69	13.898
303.05	14.396
303.42	15.114
303.79	14.616
304.15	13.363
304.52	15.914
304.89	14.950
305.25	14.709
305.62	15.401
305.99	15.234
306.35	15.987
306.72	15.972
307.09	16.475
307.45	16.826
307.82	14.947
308.19	15.152
308.55	16.070
308.92	17.191
309.29	17.417
309.65	15.185
310.02	16.700
310.38	18.801
310.75	17.258
311.12	17.979
311.48	17.804
311.85	18.898
312.22	18.665
312.58	17.778
312.95	19.502
313.31	20.110
313.68	19.943
314.05	20.132
314.41	21.614
314.78	21.822
315.14	22.222
315.51	21.884
315.87	21.687
316.24	20.661
316.61	22.100
316.97	21.574
317.34	23.886
317.70	23.283
318.07	24.224
318.43	23.216
318.80	23.298
319.16	22.812
319.53	24.821
319.89	24.210
320.26	26.155
320.62	24.096
320.99	25.775
321.35	24.322
321.72	25.409
322.08	26.107
322.45	27.197
322.81	28.281
323.18	27.907
323.54	28.520
323.91	29.088
324.27	28.983
324.64	28.397
325.00	28.871
325.37	29.608
325.73	29.966
326.10	30.530
326.46	31.104
326.83	31.392
327.19	30.488
327.56	31.668
327.92	33.065
328.29	33.389
328.65	33.041
329.01	32.454
329.38	33.565
329.74	31.845
330.11	33.363
330.47	32.552
330.84	34.477
331.20	34.073
331.56	34.330
331.93	33.333
332.29	34.579
332.66	33.051
333.02	34.579
333.38	34.561
333.75	33.191
334.11	34.549
334.48	35.135
334.84	34.011
335.20	33.533
335.57	32.811
335.93	33.419
336.29	32.312
336.66	34.103
337.02	34.435
337.38	33.856
337.75	34.970
338.11	33.561
338.47	33.390
338.84	33.162
339.20	34.480
339.56	33.447
339.93	33.881
340.29	33.817
340.65	34.645
341.02	32.862
341.38	34.966
341.74	32.857
342.11	33.856
342.47	34.059
342.83	33.660
343.20	33.841
343.56	32.625
343.92	32.575
344.28	34.091
344.65	32.735
345.01	33.414
345.37	33.882
345.73	33.578
346.10	33.547
346.46	33.496
346.82	32.825
347.19	32.991
347.55	32.876
347.91	33.281
348.27	33.991
348.63	33.093
349.00	33.019
349.36	33.124
349.72	33.333
350.08	30.967
350.45	32.498
350.81	33.725
351.17	32.333
351.53	31.893
351.89	32.168
352.26	30.579
352.62	32.016
352.98	32.508
353.34	32.609
353.70	33.489
354.07	32.784
354.43	33.204
354.79	31.971
355.15	31.910
355.51	32.270
355.87	33.307
356.24	32.825
356.60	30.962
356.96	31.850
357.32	32.353
357.68	32.009
358.04	33.514
358.40	32.171
358.77	31.804
359.13	32.296
359.49	32.627
359.85	31.312
360.21	32.151
360.57	32.852
360.93	32.701
361.29	32.642
361.66	31.967
362.02	31.727
362.38	31.462
362.74	31.835
363.10	31.887
363.46	30.764
363.82	31.559
364.18	31.690
364.54	31.437
364.90	30.801
365.26	31.281
365.62	31.676
365.98	30.747
366.35	32.270
366.71	31.883
367.07	31.113
367.43	31.498
367.79	30.924
368.15	31.997
368.51	30.872
368.87	32.798
369.23	31.103
369.59	31.360
369.95	31.640
370.31	31.869
370.67	30.702
371.03	31.774
371.39	31.654
371.75	31.214
372.11	31.624
372.47	31.218
372.83	30.999
373.19	32.590
373.55	31.214
373.91	30.693
374.27	31.259
374.63	31.294
374.99	31.198
375.35	31.507
375.71	31.590
376.07	31.734
376.42	30.615
376.78	32.100
377.14	31.254
377.50	31.160
377.86	31.607
378.22	31.100
378.58	30.958
378.94	31.375
379.30	30.856
379.66	30.333
380.02	30.699
380.38	30.542
380.74	30.783
381.09	30.881
381.45	30.713
381.81	30.746
382.17	31.317
382.53	32.062
382.89	30.398
383.25	30.494
383.61	30.327
383.97	31.187
384.32	30.498
384.68	31.030
385.04	30.483
385.40	30.635
385.76	30.474
386.12	30.536
386.48	30.408
386.83	29.662
387.19	30.228
387.55	30.779
387.91	31.119
388.27	30.148
388.62	31.336
388.98	30.914
389.34	30.326
389.70	30.647
390.06	29.500
390.42	31.121
390.77	29.917
391.13	30.934
391.49	29.728
391.85	29.649
392.20	29.135
392.56	30.413
392.92	28.906
393.28	30.273
393.64	29.969
393.99	29.253
394.35	29.691
394.71	30.192
395.07	28.616
395.42	29.677
395.78	28.893
396.14	29.930
396.50	29.994
396.85	30.019
397.21	28.652
397.57	29.193
397.92	28.922
398.28	29.554
398.64	29.933
399.00	28.962
399.35	29.058
399.71	28.655
400.07	29.096
400.42	28.652
400.78	28.882
401.14	28.817
401.49	29.658
401.85	29.914
402.21	27.988
402.57	29.859
402.92	29.099
403.28	29.018
403.63	28.580
403.99	29.047
404.35	28.865
404.70	28.338
405.06	28.890
405.42	27.701
405.77	28.514
406.13	28.800
406.49	27.202
406.84	28.510
407.20	28.182
407.55	29.545
407.91	28.259
408.27	27.636
408.62	28.852
408.98	28.422
409.34	27.166
409.69	28.590
410.05	27.736
410.40	27.511
410.76	28.339
411.11	28.358
411.47	29.662
411.83	28.571
412.18	27.708
412.54	28.697
412.89	26.771
413.25	26.844
413.60	27.774
413.96	27.778
414.31	27.744
414.67	27.365
415.03	28.078
415.38	27.015
415.74	27.550
416.09	28.090
416.45	27.478
416.80	28.523
417.16	28.475
417.51	28.868
417.87	28.373
418.22	27.537
418.58	27.398
418.93	27.872
419.29	30.165
419.64	27.481
420.00	29.206
420.35	27.137
420.71	27.422
421.06	27.983
421.42	27.981
421.77	27.861
422.12	27.622
422.48	27.481
422.83	28.057
423.19	28.062
423.54	27.621
423.90	27.553
424.25	28.538
424.61	28.035
424.96	27.676
425.31	28.155
425.67	28.865
426.02	28.504
426.38	28.172
426.73	27.917
427.09	27.580
427.44	28.244
427.79	28.563
428.15	27.951
428.50	28.218
428.85	28.475
429.21	27.462
429.56	28.640
429.92	28.162
430.27	28.119
430.62	27.859
430.98	27.710
431.33	28.802
431.68	29.127
432.04	28.789
432.39	29.503
432.74	28.142
433.10	29.343
433.45	28.166
433.80	28.506
434.16	27.744
434.51	28.804
434.86	29.152
435.22	28.183
435.57	27.948
435.92	28.709
436.28	28.228
436.63	28.926
436.98	29.377
437.34	28.449
437.69	28.394
438.04	29.372
438.39	29.328
438.75	29.082
439.10	30.075
439.45	28.632
439.81	30.111
440.16	29.507
440.51	29.548
440.86	28.927
441.22	28.744
441.57	29.338
441.92	28.771
442.27	28.247
442.63	27.664
442.98	28.819
443.33	28.725
443.68	29.257
444.03	28.763
444.39	29.351
444.74	28.493
445.09	28.359
445.44	29.352
445.79	28.549
446.15	28.896
446.50	28.800
446.85	29.075
447.20	29.273
447.55	29.043
447.91	28.652
448.26	30.017
448.61	29.344
448.96	29.499
449.31	30.040
449.66	30.017
450.02	29.733
450.37	29.436
450.72	29.047
451.07	29.718
451.42	27.948
451.77	29.093
452.12	29.055
452.47	29.567
452.83	29.127
453.18	29.917
453.53	30.076
453.88	29.277
454.23	30.037
454.58	29.902
454.93	29.634
455.28	30.443
455.63	29.320
455.98	29.702
456.34	29.943
456.69	29.649
457.04	29.350
457.39	30.247
457.74	29.803
458.09	29.917
458.44	30.494
458.79	28.940
459.14	28.427
459.49	29.817
459.84	29.087
460.19	27.911
460.54	29.501
460.89	29.167
461.24	29.408
461.59	30.012
461.94	29.899
462.29	28.615
462.64	29.156
462.99	29.980
463.34	30.110
463.69	30.026
464.04	29.112
464.39	30.018
464.74	29.607
465.09	29.076
465.44	28.620
465.79	29.960
466.14	29.361
466.49	30.440
466.84	29.109
467.19	29.172
467.54	30.201
467.89	28.661
468.24	29.871
468.59	29.446
468.94	29.949
469.29	30.403
469.64	29.637
469.99	30.069
470.34	30.209
470.68	29.368
471.03	30.536
471.38	29.903
471.73	29.355
472.08	30.309
472.43	29.947
472.78	29.953
473.13	28.694
473.48	29.224
473.83	29.630
474.17	29.492
474.52	29.061
474.87	28.166
475.22	29.710
475.57	29.336
475.92	29.662
476.27	30.303
476.61	28.086
476.96	29.412
477.31	29.234
477.66	31.073
478.01	28.132
478.36	29.101
478.70	29.323
479.05	29.689
479.40	29.225
479.75	29.224
480.10	28.914
480.45	29.328
480.79	29.467
481.14	29.382
481.49	28.762
481.84	29.171
482.19	29.551
482.53	29.048
482.88	28.763
483.23	28.681
483.58	29.206
483.92	28.259
484.27	28.683
484.62	28.584
484.97	30.361
485.31	27.827
485.66	26.941
486.01	26.429
486.36	26.999
486.70	27.781
487.05	28.388
487.40	28.586
487.75	28.941
488.09	29.152
488.44	28.847
488.79	29.296
489.13	28.748
489.48	29.158
489.83	28.450
490.17	29.278
490.52	29.593
490.87	28.419
491.22	28.874
491.56	29.133
491.91	28.853
492.26	29.787
492.60	29.726
492.95	29.835
493.30	28.440
493.64	28.297
493.99	28.986
494.34	28.998
494.68	29.499
495.03	29.348
495.37	29.538
495.72	29.724
496.07	28.397
496.41	28.124
496.76	28.565
497.11	28.967
497.45	30.496
497.80	30.439
498.14	29.270
498.49	28.996
498.84	28.239
499.18	29.716
499.53	29.542
499.87	28.287
500.22	28.671
500.56	29.188
500.91	29.225
501.26	28.621
501.60	27.794
501.95	28.222
502.29	28.835
502.64	29.219
502.98	29.143
503.33	28.662
503.67	28.676
504.02	28.725
504.36	28.579
504.71	28.303
505.06	29.088
505.40	28.144
505.75	29.145
506.09	28.973
506.44	27.974
506.78	28.796
507.13	29.314
507.47	28.791
507.82	28.310
508.16	28.654
508.51	29.287
508.85	28.512
509.19	28.466
509.54	28.794
509.88	28.065
510.23	28.316
510.57	29.184
510.92	28.825
511.26	28.988
511.61	28.814
511.95	27.729
512.30	29.206
512.64	29.285
512.98	28.698
513.33	29.352
513.67	28.961
514.02	29.418
514.36	29.326
514.70	28.984
515.05	29.374
515.39	29.304
515.74	29.663
516.08	28.909
516.42	28.341
516.77	29.233
517.11	28.983
517.46	29.292
517.80	29.964
518.14	28.108
518.49	29.355
518.83	29.594
519.17	28.554
519.52	29.614
519.86	29.326
520.20	28.199
520.55	28.483
520.89	28.906
521.23	29.103
521.58	28.887
521.92	28.787
522.26	27.456
522.61	28.313
522.95	28.562
523.29	29.143
523.64	29.434
523.98	30.114
524.32	28.229
524.66	27.597
525.01	29.751
525.35	29.032
525.69	30.417
526.04	28.078
526.38	28.744
526.72	29.323
527.06	28.498
527.41	28.127
527.75	28.104
528.09	31.110
528.43	29.851
528.78	27.778
529.12	29.043
529.46	28.599
529.80	28.997
530.15	28.893
530.49	29.178
530.83	29.452
531.17	28.288
531.51	27.175
531.86	28.320
532.20	27.843
532.54	28.621
532.88	26.889
533.22	28.350
533.57	27.152
533.91	29.161
534.25	27.865
534.59	27.671
534.93	28.189
535.27	28.089
535.62	27.368
535.96	28.367
536.30	27.660
536.64	26.589
536.98	28.031
537.32	27.758
537.66	28.702
538.01	28.017
538.35	27.348
538.69	27.492
539.03	27.785
539.37	26.425
539.71	27.558
540.05	26.316
540.39	27.047
540.73	28.142
541.07	27.347
541.42	27.542
541.76	28.349
542.10	26.811
542.44	26.750
542.78	27.967
543.12	27.493
543.46	27.021
543.80	27.020
544.14	27.116
544.48	26.211
544.82	28.985
545.16	27.248
545.50	27.144
545.84	26.788
546.18	26.718
546.52	27.311
546.86	26.784
547.20	26.233
547.54	27.019
547.88	26.856
548.22	26.971
548.56	26.217
548.90	26.319
549.24	27.500
549.58	27.402
549.92	28.247
550.26	27.675
550.60	27.027
550.94	25.224
551.28	26.646
551.62	26.767
551.96	26.867
552.30	26.783
552.64	26.271
552.98	27.131
553.32	27.830
553.66	28.247
554.00	25.630
554.34	26.740
554.68	27.144
555.02	25.823
555.36	26.248
555.69	26.147
556.03	25.876
556.37	26.316
556.71	25.718
557.05	26.790
557.39	27.054
557.73	26.248
558.07	26.300
558.41	26.874
558.75	27.175
559.08	26.143
559.42	26.829
559.76	25.994
560.10	26.441
560.44	27.266
560.78	26.475
561.12	25.788
561.45	25.442
561.79	26.066
562.13	26.231
562.47	27.429
562.81	25.253
563.15	25.354
563.48	25.671
563.82	25.718
564.16	26.540
564.50	25.916
564.84	25.878
565.17	25.166
565.51	24.131
565.85	24.517
566.19	25.166
566.52	24.246
566.86	24.526
567.20	24.985
567.54	23.949
567.88	23.684
568.21	24.280
568.55	24.204
568.89	24.377
569.23	23.327
569.56	23.696
569.90	22.278
570.24	21.877
570.57	22.211
570.91	22.570
571.25	21.847
571.59	22.129
571.92	21.707
572.26	22.097
572.60	22.359
572.93	21.993
573.27	22.168
573.61	21.998
573.95	21.787
574.28	21.990
574.62	21.254
574.96	21.949
575.29	20.863
575.63	21.233
575.97	21.658
576.30	21.008
576.64	21.378
576.98	21.443
577.31	20.996
577.65	20.941
577.98	20.857
578.32	20.597
578.66	21.125
578.99	21.103
579.33	21.314
579.67	21.512
580.00	21.342
580.34	21.280
580.67	21.338
581.01	20.989
581.35	20.580
581.68	20.386
582.02	20.721
582.35	20.654
582.69	21.488
583.02	21.008
583.36	20.824
583.70	21.170
584.03	21.327
584.37	21.393
584.70	21.172
585.04	21.482
585.37	21.166
585.71	20.863
586.04	20.677
586.38	20.679
586.72	21.101
587.05	21.574
587.39	20.961
587.72	21.197
588.06	21.040
588.39	21.271
588.73	20.909
589.06	20.692
589.40	21.328
589.73	21.380
590.07	20.780
590.40	21.583
590.73	21.637
591.07	21.897
591.40	21.652
591.74	22.099
592.07	21.634
592.41	21.707
592.74	21.644
593.08	20.684
593.41	21.387
593.75	20.317
594.08	21.174
594.41	21.645
594.75	21.477
595.08	21.359
595.42	20.759
595.75	21.294
596.09	21.440
596.42	21.936
596.75	21.632
597.09	21.292
597.42	21.893
597.75	21.822
598.09	21.403
598.42	21.834
598.76	21.453
599.09	21.248
599.42	20.355
599.76	21.142
600.09	21.047
600.42	20.904
600.76	20.103
601.09	20.678
601.42	21.364
601.76	21.158
602.09	21.321
602.42	21.502
602.76	20.386
603.09	21.232
603.42	20.872
603.76	20.499
604.09	21.383
604.42	21.097
604.76	20.733
605.09	20.979
605.42	21.997
605.75	20.600
606.09	20.157
606.42	20.823
606.75	21.255
607.09	20.700
607.42	21.147
607.75	19.825
608.08	21.461
608.42	21.040
608.75	20.831
609.08	20.725
609.41	20.765
609.75	20.424
610.08	20.907
610.41	21.331
610.74	20.789
611.07	21.393
611.41	21.648
611.74	21.429
612.07	21.470
612.40	21.676
612.73	20.856
613.07	20.233
613.40	21.476
613.73	21.560
614.06	21.393
614.39	21.067
614.72	21.821
615.06	21.000
615.39	21.578
615.72	20.140
616.05	21.340
616.38	21.249
616.71	20.336
617.05	22.482
617.38	20.887
617.71	21.017
618.04	21.328
618.37	21.893
618.70	21.863
619.03	21.649
619.36	21.708
619.69	21.930
620.03	20.283
620.36	22.269
620.69	20.414
621.02	22.462
621.35	21.586
621.68	22.412
622.01	21.197
622.34	21.887
622.67	21.848
623.00	22.720
623.33	22.064
623.66	20.818
623.99	21.680
624.32	21.497
624.65	21.884
624.99	21.381
625.32	21.882
625.65	21.085
625.98	21.564
626.31	21.878
626.64	21.668
626.97	21.799
627.30	22.241
627.63	22.232
627.96	21.126
628.29	23.628
628.62	23.598
628.95	23.246
629.28	22.365
629.61	24.019
629.94	23.114
630.26	24.236
630.59	22.577
630.92	22.892
631.25	23.481
631.58	22.912
631.91	21.845
632.24	22.832
632.57	22.222
632.90	23.454
633.23	23.501
633.56	25.180
633.89	23.445
634.22	24.971
634.55	24.361
634.88	22.549
635.20	24.250
635.53	24.419
635.86	23.462
636.19	24.442
636.52	21.585
636.85	24.125
637.18	22.533
637.51	23.596
637.83	22.585
638.16	22.267
638.49	23.632
638.82	23.268
639.15	23.936
639.48	23.797
639.81	24.167
640.13	25.070
640.46	23.870
640.79	23.022
641.12	21.746
641.45	24.017
641.77	21.944
642.10	23.298
642.43	26.572
642.76	23.344
643.09	24.760
643.41	23.604
643.74	25.363
644.07	24.272
644.40	23.383
644.73	23.390
645.05	23.037
645.38	23.588
645.71	23.980
646.04	22.391
646.36	24.653
646.69	26.399
647.02	22.951
647.35	24.863
647.67	24.399
648.00	24.638
648.33	21.525
648.66	23.205
648.98	22.360
649.31	22.699
649.64	22.066
649.96	22.749
650.29	22.549
650.62	22.900
650.94	22.414
651.27	24.558
651.60	23.427
651.92	24.014
652.25	21.608
652.58	23.762
652.90	22.054
653.23	21.562
653.56	22.810
653.88	22.014
654.21	22.014
654.54	22.757
654.86	21.138
655.19	21.008
655.52	20.309
655.84	16.920
656.17	19.737
656.49	26.300
656.82	26.034
657.15	19.949
657.47	14.883
657.80	11.339
658.13	12.204
658.45	17.550
658.78	18.190
659.10	17.867
659.43	18.450
659.75	18.435
660.08	18.966
660.41	18.661
660.73	20.110
661.06	22.959
661.38	22.868
661.71	24.385
662.03	27.273
662.36	23.230
662.68	25.376
663.01	25.636
663.33	20.518
663.66	21.286
663.98	23.371
664.31	25.275
664.63	21.171
664.96	24.945
665.28	25.322
665.61	23.542
665.93	22.484
666.26	24.051
666.58	22.698
666.91	24.664
667.23	21.889
667.56	25.517
667.88	20.794
668.21	20.982
668.53	23.678
668.86	23.741
669.18	25.296
669.50	24.424
669.83	22.434
670.15	23.333
670.48	22.529
670.80	24.289
671.13	22.426
671.45	22.831
671.77	24.138
672.10	20.858
672.42	20.992
672.75	21.071
673.07	20.000
673.39	22.948
673.72	21.357
674.04	23.361
674.37	23.780
674.69	21.811
675.01	20.726
675.34	24.289
675.66	23.312
675.98	24.115
676.31	21.267
676.63	26.304
676.95	21.647
677.28	22.477
677.60	21.569
677.92	25.499
678.25	22.126
678.57	21.996
678.89	21.322
679.22	21.739
679.54	22.041
679.86	20.898
680.18	20.962
680.51	19.615
680.83	18.713
681.15	21.022
681.48	21.242
681.80	20.859
682.12	21.667
682.44	21.328
682.77	19.789
683.09	20.759
683.41	18.605
683.73	21.875
684.06	22.788
684.38	20.085
684.70	20.163
685.02	21.281
685.34	21.526
685.67	20.826
685.99	18.505
686.31	21.552
686.63	21.140
686.96	21.892
687.28	20.559
687.60	21.361
687.92	19.261
688.24	18.600
688.56	23.465
688.89	21.158
689.21	21.076
689.53	16.892
689.85	20.674
690.17	20.000
690.49	21.498
690.82	18.854
691.14	22.464
691.46	19.490
691.78	19.341
692.10	20.807
692.42	18.901
692.74	22.391
693.06	19.775
693.39	18.501
693.71	21.111
694.03	21.818
694.35	21.622
694.67	22.750
694.99	25.773
695.31	20.930
695.63	21.463
695.95	20.356
696.27	17.808
696.59	18.280
696.91	16.480
697.23	19.289
697.56	18.945
697.88	21.622
698.20	19.006
698.52	18.925
698.84	18.182
699.16	18.676
699.48	20.741
699.80	23.256
700.12	23.861
700.44	19.437
700.76	16.573
701.08	21.148
701.40	20.958
701.72	21.538
702.04	17.610
702.36	20.122
702.68	18.598
703.00	20.468
703.32	16.713
703.64	21.386
703.96	22.581
704.28	20.482
704.60	19.817
704.91	21.317
705.23	22.468
705.55	17.586
705.87	21.127
706.19	21.245
706.51	19.366
706.83	16.561
707.15	19.817
707.47	20.110
707.79	21.320
708.11	19.280
708.43	21.066
708.74	21.543
709.06	16.578
709.38	19.308
709.70	21.021
710.02	20.872
710.34	16.667
710.66	19.218
710.98	19.505
711.29	21.104
711.61	15.484
711.93	17.742
712.25	19.231
712.57	19.298
712.89	17.949
713.20	17.021
713.52	14.234
713.84	18.710
714.16	20.712
714.48	20.253
714.80	14.696
715.11	23.256
715.43	20.186
715.75	19.255
716.07	20.181
716.39	18.519
716.70	20.863
717.02	11.765
717.34	17.803
717.66	16.379
717.97	17.063
718.29	22.047
718.61	13.305
718.93	17.442
719.24	21.033
719.56	17.228
719.88	13.060
720.20	14.625
720.51	21.094
720.83	24.514
721.15	9.756
721.46	19.084
721.78	18.725
722.10	12.749
722.42	17.339
722.73	16.988
723.05	15.102
723.37	20.588
723.68	17.600
724.00	14.894
724.32	14.226
724.63	23.457
724.95	14.530
725.27	21.519
725.58	17.695
725.90	16.736
726.22	20.652
726.53	14.902
726.85	20.438
727.16	15.556
727.48	16.858
727.80	19.922
728.11	16.803
728.43	17.578
728.74	18.254
729.06	17.200
729.38	18.182
729.69	21.352
730.01	17.100
730.32	23.247
730.64	13.636
730.96	19.231
731.27	17.057
731.59	12.063
731.90	16.505
732.22	16.346
732.53	14.527
732.85	15.772
733.16	17.492
733.48	17.905
733.80	12.162
734.11	16.216
734.43	13.622
734.74	17.718
735.06	16.427
735.37	16.717
735.69	15.534
736.00	18.482
736.32	17.021
736.63	15.172
736.95	15.411
737.26	12.759
737.58	15.972
737.89	17.526
738.21	15.302
738.52	10.646
738.83	15.102
739.15	16.034
739.46	17.121
739.78	15.845
740.09	13.699
740.41	14.286
740.72	14.894
741.04	16.000
741.35	11.842
741.66	21.778
741.98	14.423
742.29	25.743
742.61	18.049
742.92	17.105
743.23	14.151
743.55	20.270
743.86	17.937
744.18	16.667
744.49	16.751
744.80	13.776
745.12	16.822
745.43	18.957
745.74	17.568
746.06	16.822
746.37	14.679
746.68	20.192
747.00	19.139
747.31	13.462
747.62	20.642
747.94	16.594
748.25	18.807
748.56	16.000
748.88	24.883
749.19	20.952
749.50	11.165
749.82	15.023
750.13	9.167
750.44	14.615
750.75	14.022
751.07	16.370
751.38	14.894
751.69	12.741
752.01	12.500
752.32	13.846
752.63	14.179
752.94	15.600
753.26	20.084
753.57	15.417
753.88	17.004
754.19	13.147
754.51	13.910
754.82	11.355
755.13	9.130
755.44	15.447
755.75	15.200
756.07	15.129
756.38	17.626
756.69	19.113
757.00	14.330
757.31	13.592
757.63	11.728
757.94	17.514
758.25	14.815
758.56	16.576
758.87	16.667
759.18	18.612
759.50	13.131
759.81	13.043
760.12	21.846
760.43	13.393
760.74	15.819
761.05	12.707
761.36	13.467
761.67	14.804
761.99	13.058
762.30	17.153
762.61	15.638
762.92	19.231
763.23	19.262
763.54	18.615
763.85	15.510
764.16	14.228
764.47	14.800
764.78	18.214
765.10	12.459
765.41	13.678
765.72	13.354
766.03	14.191
766.34	15.385
766.65	11.715
766.96	16.432
767.27	11.386
767.58	6.180
767.89	17.901
768.20	16.022
768.51	17.588
768.82	20.192
769.13	19.027
769.44	14.644
769.75	11.111
770.06	13.453
770.37	6.863
770.68	15.049
770.99	14.563
771.30	13.866
771.61	11.429
771.92	13.278
772.23	16.216
772.54	11.602
772.85	17.442
773.16	15.873
773.47	12.426
773.78	18.391
774.09	12.500
774.39	17.391
774.70	11.565
775.01	7.586
775.32	17.857
775.63	10.526
775.94	2.256
776.25	5.600
776.56	10.744
776.87	15.079
777.18	9.009
777.48	16.216
777.79	-0.787
778.10	9.174
778.41	7.018
778.72	9.244
779.03	10.563
779.34	10.811
779.65	10.563
779.95	12.583
780.26	5.755
780.57	20.144
780.88	13.380
781.19	6.723
781.50	14.765
781.80	14.620
782.11	10.465
782.42	16.352
782.73	15.686
783.04	8.966
783.34	9.924
783.65	6.711
783.96	6.923
784.27	10.714
784.57	6.383
784.88	6.731
785.19	16.364
785.50	12.727
785.81	7.619
786.11	12.605
786.42	10.619
786.73	6.604
787.04	6.422
787.34	11.881
787.65	5.833
787.96	9.917
788.26	7.971
788.57	10.317
788.88	15.447
789.19	9.600
789.49	5.344
789.80	19.697
790.11	2.830
790.41	18.812
790.72	2.128
791.03	5.435
791.33	-4.706
791.64	1.235
791.95	9.783
792.25	9.091
792.56	2.564
792.87	7.692
793.17	-5.128
793.48	-3.571
793.79	8.750
794.09	20.192
794.40	10.417
794.70	11.712
795.01	12.500
795.32	7.826
795.62	-9.783
795.93	6.604
796.23	-4.040
796.54	-7.317
796.85	9.524
797.15	-1.515
797.46	0.000
797.76	-2.632
798.07	4.545
798.37	0.000
798.68	-11.290
798.99	-6.757
799.29	7.229
799.60	12.821
799.90	-12.308
800.21	-7.576
800.51	-9.333
800.82	14.667
801.12	-37.500
801.43	-5.000
801.73	-9.459
802.04	11.429
802.34	0.000
802.65	7.463
802.95	0.000
803.26	18.966
803.56	15.385
803.87	1.887
804.17	9.677
804.48	-2.941
804.78	-24.390
805.09	2.899
805.39	-8.824
805.70	-25.532
806.00	-3.509
806.30	10.256
806.61	13.158
806.91	6.757
807.22	-6.579
807.52	3.409
807.83	-16.949
808.13	-16.667
808.43	-10.000
808.74	-36.207
809.04	-14.286
809.35	-2.041
809.65	-10.000
809.95	-30.612
810.26	8.451
810.56	-20.833
810.86	-14.286
811.17	25.000
811.47	-2.128
811.77	4.167
812.08	3.774
812.38	-37.500
812.69	-1.818
812.99	-7.317
813.29	-18.919
813.59	-32.432
813.90	9.091
814.20	9.091
814.50	5.000
814.81	-18.182
815.11	12.281
815.41	37.209
815.72	-27.500
816.02	-20.000
816.32	-21.622
816.62	10.417
816.93	-4.444
817.23	-33.333
817.53	-19.444
817.84	-35.135
818.14	-29.268
818.44	16.000
818.74	0.000
819.04	-12.195
819.35	-13.889
819.65	-4.545
819.95	-83.333
820.25	-18.182
820.56	-23.810
820.86	-16.667
821.16	-15.909
821.46	-39.130
821.76	-6.897
822.07	6.522
822.37	15.152
822.67	19.512
822.97	18.919
823.27	-31.429
823.57	-6.897
823.88	-17.647
824.18	8.333
824.48	-17.143
824.78	-52.381
825.08	-42.857
825.38	-29.630
825.69	9.677
825.99	-2.439
826.29	-62.963
826.59	3.125
826.89	-29.032
827.19	-56.522
827.49	-47.222
827.79	-52.174
828.09	-29.032
828.39	-20.833
828.70	0.000
829.00	-17.241
829.30	5.405
829.60	-62.500
829.90	0.000
830.20	-25.000
830.50	-27.273
830.80	-52.941
831.10	-27.273
831.40	-14.706
831.70	-3.846
832.00	-12.121
832.30	-14.706
832.60	5.405
832.90	1100.000
833.20	0.000
833.50	-120.000
833.80	-18.421
834.10	-33.333
834.40	-72.727
834.70	-53.333
835.00	-260.000
835.30	-66.667
835.60	-71.429
835.90	-47.619
836.20	-40.000
836.50	0.000
836.80	-78.947
837.10	0.000
837.40	6.667
837.70	-8.696
838.00	-20.833
838.30	-26.316
838.60	-80.000
838.90	-210.000
839.19	-108.333
839.49	-53.846
839.79	-36.842
840.09	-283.333
840.39	-180.000
840.69	-86.364
840.99	-19.048
841.29	-37.500
841.59	-107.692
841.88	-146.667
842.18	-114.286
842.48	-13.333
842.78	-214.286
843.08	-107.143
843.38	-37.500
843.68	-87.500
843.97	21.429
844.27	-133.333
844.57	-118.182
844.87	-60.000
845.17	-50.000
845.47	800.000
845.76	-80.000
846.06	-191.667
846.36	-1400.000
846.66	-68.421
846.96	-31.818
847.25	-105.556
847.55	-277.778
847.85	-90.476
848.15	-92.308
848.44	-333.333
848.74	-16.667
849.04	-115.385
849.34	-425.000
849.63	-54.545
849.93	-135.714
850.23	-55.000
850.53	-150.000
850.82	-72.222
851.12	-80.000
851.42	-76.471
851.71	-87.500
852.01	35.294
852.31	-92.308
852.61	950.000
852.90	0.000
853.20	-80.000
853.50	-25.000
853.79	-150.000
854.09	-475.000
854.39	-35.000
854.68	0.000
854.98	-14.286
855.28	-40.000
855.57	-29.167
855.87	-16.667
856.17	-48.000
856.46	-34.375
856.76	-25.000
857.05	-8.000
857.35	-125.000
857.65	-52.941
857.94	-141.667
858.24	-91.667
858.53	-55.000
858.83	-136.364
859.13	-20.000
859.42	-85.714
859.72	-225.000
860.01	-16.667
860.31	-300.000
860.60	-62.500
860.90	-133.333
861.20	-150.000
861.49	-26.667
861.79	-81.250
862.08	275.000
862.38	-200.000
862.67	342.857
862.97	550.000
863.26	-36.364
863.56	-72.727
863.85	-26.316
864.15	-23.529
864.44	-500.000
864.74	-140.000
865.03	-122.222
865.33	-14.286
865.62	228.571
865.92	-47.368
866.21	-61.111
866.51	-136.364
866.80	-188.889
867.10	-250.000
867.39	-18.750
867.69	-100.000
867.98	-50.000
868.27	-70.588
868.57	0.000
868.86	850.000
869.16	-275.000
869.45	-300.000
869.75	700.000
870.04	-130.000
870.33	-1300.000
870.63	-68.421
870.92	-100.000
871.22	-900.000
871.51	-314.286
871.80	-188.889
872.10	-300.000
>>>>>End Processed Spectral Data<<<<<
