SpectraSuite Data File
++++++++++++++++++++++++++++++++++++
Date: Wed May 13 16:17:26 PDT 2015
User: schluterlab
Dark Spectrum Present: Yes
Reference Spectrum Present: Yes
Number of Sampled Component Spectra: 1
Spectrometers: USB2E3373
Integration Time (usec): 3000 (USB2E3373)
Spectra Averaged: 3 (USB2E3373)
Boxcar Smoothing: 0 (USB2E3373)
Correct for Electrical Dark: No (USB2E3373)
Strobe/Lamp Enabled: No (USB2E3373)
Correct for Detector Non-linearity: No (USB2E3373)
Correct for Stray Light: No (USB2E3373)
Number of Pixels in Processed Spectrum: 2048
>>>>>Begin Processed Spectral Data<<<<<
178.53	0.000
178.91	-1025.000
179.29	-1025.000
179.67	-183.333
180.04	-1025.000
180.42	1850.000
180.80	700.000
181.18	-575.000
181.56	528.571
181.94	0.000
182.31	-457.143
182.69	1433.333
183.07	-437.500
183.45	-433.333
183.83	463.636
184.20	-320.000
184.58	2000.000
184.96	4300.000
185.34	-440.000
185.72	-550.000
186.09	-2050.000
186.47	1750.000
186.85	1950.000
187.23	4500.000
187.61	-1533.333
187.98	1150.000
188.36	463.636
188.74	445.455
189.12	-980.000
189.49	460.000
189.87	-4000.000
190.25	-975.000
190.63	321.429
191.00	284.615
191.38	733.333
191.76	-975.000
192.14	1125.000
192.51	487.500
192.89	583.333
193.27	412.500
193.65	-900.000
194.02	470.000
194.40	820.000
194.78	520.000
195.15	433.333
195.53	610.000
195.91	-1750.000
196.29	275.000
196.66	289.474
197.04	-200.000
197.42	0.000
197.79	460.000
198.17	-3500.000
198.55	514.286
198.92	575.000
199.30	720.000
199.68	0.000
200.05	261.111
200.43	700.000
200.81	3500.000
201.18	1333.333
201.56	-1066.667
201.94	355.556
202.31	400.000
202.69	325.000
203.07	420.000
203.44	0.000
203.82	1025.000
204.19	642.857
204.57	350.000
204.95	625.000
205.32	1500.000
205.70	336.364
206.08	328.571
206.45	2100.000
206.83	368.750
207.20	750.000
207.58	460.000
207.96	255.556
208.33	562.500
208.71	-483.333
209.08	700.000
209.46	511.111
209.84	454.545
210.21	-1166.667
210.59	1000.000
210.96	-287.500
211.34	2150.000
211.71	500.000
212.09	566.667
212.46	0.000
212.84	1500.000
213.22	1150.000
213.59	-3600.000
213.97	733.333
214.34	700.000
214.72	545.455
215.09	860.000
215.47	-1750.000
215.84	-2050.000
216.22	1433.333
216.59	364.286
216.97	1175.000
217.34	363.636
217.72	-566.667
218.09	0.000
218.47	-4100.000
218.84	611.111
219.22	671.429
219.59	1433.333
219.97	-500.000
220.34	900.000
220.72	-1466.667
221.09	350.000
221.47	1350.000
221.84	-800.000
222.22	0.000
222.59	1175.000
222.97	-2000.000
223.34	1060.000
223.72	261.538
224.09	840.000
224.46	1950.000
224.84	-4800.000
225.21	-560.000
225.59	-3200.000
225.96	500.000
226.34	240.000
226.71	2250.000
227.08	437.500
227.46	570.000
227.83	-950.000
228.21	-1650.000
228.58	400.000
228.95	-1850.000
229.33	-2150.000
229.70	1433.333
230.08	685.714
230.45	-600.000
230.82	341.667
231.20	766.667
231.57	442.857
231.95	375.000
232.32	204.545
232.69	345.455
233.07	471.429
233.44	276.923
233.81	-1600.000
234.19	215.789
234.56	391.667
234.93	233.333
235.31	336.364
235.68	315.385
236.05	300.000
236.43	139.394
236.80	226.316
237.17	3100.000
237.55	161.905
237.92	178.571
238.29	157.143
238.67	151.613
239.04	193.103
239.41	130.556
239.79	106.522
240.16	135.714
240.53	88.636
240.91	94.118
241.28	86.000
241.65	92.000
242.02	81.159
242.40	72.581
242.77	76.667
243.14	63.441
243.51	69.663
243.89	76.471
244.26	57.778
244.63	56.989
245.00	54.255
245.38	59.406
245.75	45.794
246.12	48.624
246.49	52.555
246.87	58.400
247.24	55.385
247.61	48.571
247.98	45.098
248.36	41.892
248.73	45.860
249.10	50.955
249.47	45.198
249.84	42.781
250.22	40.642
250.59	45.562
250.96	45.960
251.33	43.602
251.70	42.574
252.08	38.571
252.45	32.735
252.82	38.696
253.19	40.000
253.56	38.824
253.94	39.419
254.31	37.109
254.68	37.692
255.05	38.745
255.42	32.927
255.79	33.088
256.16	35.740
256.54	34.982
256.91	37.722
257.28	34.892
257.65	34.653
258.02	36.646
258.39	34.385
258.76	29.097
259.14	31.250
259.51	31.915
259.88	34.472
260.25	34.743
260.62	32.370
260.99	36.335
261.36	34.835
261.73	30.659
262.10	31.395
262.47	35.493
262.85	32.033
263.22	31.339
263.59	35.328
263.96	31.868
264.33	30.548
264.70	33.684
265.07	31.458
265.44	34.596
265.81	26.277
266.18	30.905
266.55	31.707
266.92	31.204
267.29	30.787
267.66	29.128
268.03	29.773
268.40	29.673
268.77	29.117
269.14	28.378
269.51	30.474
269.88	29.371
270.25	27.314
270.62	30.562
270.99	30.968
271.36	31.545
271.73	29.206
272.10	28.913
272.47	30.753
272.84	29.437
273.21	29.140
273.58	29.913
273.95	26.625
274.32	28.512
274.69	31.049
275.06	27.362
275.43	27.021
275.80	25.852
276.17	28.310
276.54	28.274
276.91	29.842
277.28	28.125
277.65	28.820
278.02	27.950
278.39	28.320
278.76	27.273
279.13	27.358
279.50	28.119
279.87	28.088
280.23	26.946
280.60	28.433
280.97	26.248
281.34	27.434
281.71	29.273
282.08	27.447
282.45	26.909
282.82	27.353
283.19	25.490
283.56	27.368
283.92	27.580
284.29	26.455
284.66	26.497
285.03	26.221
285.40	26.937
285.77	25.253
286.14	25.043
286.51	26.833
286.87	25.812
287.24	25.896
287.61	25.361
287.98	26.136
288.35	24.881
288.72	22.586
289.08	24.570
289.45	25.206
289.82	24.878
290.19	23.391
290.56	23.890
290.93	23.263
291.29	23.313
291.66	24.041
292.03	25.291
292.40	25.991
292.77	22.485
293.13	23.731
293.50	22.595
293.87	24.296
294.24	21.481
294.60	21.834
294.97	22.093
295.34	24.965
295.71	21.875
296.08	20.655
296.44	21.045
296.81	19.947
297.18	21.409
297.55	18.865
297.91	22.032
298.28	21.954
298.65	21.540
299.02	21.080
299.38	19.655
299.75	19.542
300.12	20.051
300.48	20.625
300.85	20.345
301.22	20.510
301.59	19.823
301.95	19.773
302.32	19.769
302.69	20.072
303.05	20.364
303.42	20.370
303.79	20.272
304.15	18.998
304.52	18.772
304.89	19.977
305.25	19.374
305.62	19.819
305.99	20.307
306.35	19.687
306.72	20.740
307.09	18.979
307.45	20.608
307.82	19.196
308.19	21.192
308.55	19.957
308.92	19.119
309.29	18.585
309.65	19.194
310.02	20.296
310.38	19.785
310.75	19.219
311.12	20.061
311.48	19.436
311.85	19.811
312.22	18.210
312.58	19.543
312.95	20.591
313.31	19.029
313.68	20.686
314.05	22.189
314.41	21.608
314.78	19.537
315.14	21.549
315.51	20.288
315.87	20.891
316.24	20.556
316.61	20.858
316.97	19.178
317.34	19.569
317.70	21.511
318.07	21.078
318.43	20.939
318.80	21.556
319.16	21.092
319.53	20.732
319.89	22.000
320.26	22.800
320.62	22.718
320.99	20.808
321.35	22.222
321.72	22.485
322.08	23.198
322.45	23.184
322.81	23.740
323.18	23.507
323.54	22.542
323.91	23.208
324.27	22.849
324.64	23.113
325.00	22.813
325.37	24.113
325.73	24.417
326.10	24.184
326.46	23.297
326.83	25.194
327.19	23.143
327.56	23.606
327.92	24.497
328.29	25.909
328.65	25.967
329.01	25.000
329.38	25.532
329.74	23.823
330.11	24.222
330.47	25.436
330.84	26.471
331.20	25.137
331.56	26.606
331.93	26.111
332.29	25.909
332.66	26.726
333.02	25.229
333.38	25.926
333.75	27.986
334.11	24.555
334.48	25.643
334.84	25.919
335.20	25.727
335.57	25.748
335.93	24.107
336.29	25.824
336.66	25.609
337.02	25.973
337.38	26.667
337.75	24.955
338.11	25.694
338.47	26.611
338.84	25.115
339.20	24.495
339.56	26.460
339.93	25.364
340.29	25.543
340.65	24.955
341.02	26.265
341.38	25.089
341.74	24.386
342.11	24.978
342.47	24.846
342.83	25.428
343.20	25.887
343.56	24.600
343.92	24.211
344.28	25.170
344.65	24.850
345.01	24.747
345.37	25.129
345.73	26.058
346.10	25.149
346.46	24.153
346.82	25.288
347.19	24.812
347.55	25.205
347.91	24.029
348.27	26.130
348.63	26.003
349.00	24.676
349.36	24.466
349.72	25.742
350.08	24.716
350.45	25.305
350.81	25.102
351.17	26.013
351.53	25.635
351.89	25.248
352.26	25.730
352.62	24.779
352.98	25.932
353.34	25.719
353.70	24.550
354.07	25.726
354.43	24.762
354.79	24.216
355.15	24.102
355.51	25.260
355.87	25.469
356.24	25.977
356.60	24.860
356.96	25.101
357.32	24.775
357.68	25.433
358.04	24.861
358.40	26.128
358.77	25.822
359.13	26.046
359.49	25.647
359.85	23.492
360.21	24.561
360.57	25.292
360.93	25.769
361.29	23.961
361.66	24.536
362.02	25.970
362.38	25.247
362.74	25.670
363.10	24.796
363.46	24.652
363.82	25.170
364.18	25.037
364.54	26.820
364.90	25.637
365.26	25.515
365.62	25.420
365.98	25.566
366.35	24.570
366.71	25.163
367.07	25.273
367.43	26.125
367.79	27.623
368.15	26.796
368.51	24.419
368.87	25.839
369.23	25.969
369.59	26.068
369.95	25.074
370.31	26.353
370.67	25.217
371.03	27.116
371.39	26.603
371.75	25.882
372.11	26.031
372.47	27.126
372.83	27.522
373.19	25.867
373.55	26.755
373.91	26.510
374.27	25.773
374.63	26.182
374.99	26.907
375.35	26.029
375.71	26.388
376.07	27.503
376.42	25.722
376.78	25.911
377.14	26.323
377.50	27.152
377.86	25.665
378.22	27.686
378.58	26.316
378.94	27.153
379.30	25.891
379.66	27.665
380.02	26.413
380.38	26.472
380.74	27.551
381.09	27.078
381.45	26.921
381.81	28.071
382.17	27.898
382.53	27.484
382.89	28.086
383.25	27.142
383.61	27.138
383.97	27.580
384.32	27.636
384.68	27.261
385.04	28.396
385.40	26.502
385.76	27.580
386.12	27.915
386.48	27.690
386.83	29.506
387.19	28.942
387.55	28.633
387.91	28.416
388.27	28.755
388.62	28.396
388.98	27.948
389.34	27.847
389.70	28.020
390.06	28.390
390.42	29.053
390.77	28.562
391.13	28.526
391.49	28.617
391.85	28.517
392.20	27.192
392.56	29.167
392.92	29.606
393.28	27.396
393.64	28.177
393.99	28.039
394.35	27.978
394.71	28.670
395.07	28.536
395.42	29.481
395.78	28.944
396.14	28.243
396.50	29.637
396.85	29.561
397.21	28.175
397.57	29.696
397.92	28.786
398.28	28.756
398.64	28.614
399.00	28.204
399.35	28.426
399.71	28.414
400.07	28.386
400.42	28.344
400.78	29.131
401.14	28.354
401.49	28.955
401.85	27.949
402.21	28.443
402.57	28.624
402.92	28.625
403.28	29.232
403.63	27.970
403.99	28.344
404.35	29.394
404.70	29.077
405.06	28.247
405.42	28.821
405.77	28.057
406.13	28.330
406.49	28.563
406.84	29.120
407.20	28.251
407.55	28.781
407.91	29.867
408.27	28.717
408.62	28.718
408.98	28.431
409.34	28.290
409.69	28.452
410.05	27.509
410.40	28.746
410.76	27.897
411.11	28.589
411.47	28.562
411.83	28.772
412.18	28.200
412.54	28.144
412.89	27.651
413.25	27.981
413.60	27.857
413.96	28.112
414.31	28.919
414.67	28.644
415.03	29.404
415.38	29.768
415.74	29.132
416.09	29.393
416.45	27.912
416.80	28.486
417.16	28.552
417.51	29.529
417.87	28.324
418.22	28.959
418.58	29.051
418.93	28.624
419.29	29.281
419.64	29.345
420.00	28.354
420.35	29.449
420.71	29.169
421.06	28.938
421.42	27.836
421.77	28.363
422.12	27.850
422.48	28.872
422.83	29.237
423.19	28.508
423.54	27.510
423.90	28.522
424.25	27.917
424.61	28.631
424.96	28.280
425.31	28.405
425.67	26.966
426.02	27.943
426.38	29.060
426.73	28.789
427.09	29.362
427.44	29.212
427.79	29.327
428.15	28.988
428.50	29.140
428.85	27.890
429.21	27.885
429.56	28.720
429.92	27.479
430.27	28.004
430.62	28.008
430.98	27.919
431.33	27.680
431.68	28.010
432.04	27.796
432.39	28.384
432.74	28.665
433.10	28.127
433.45	28.746
433.80	28.104
434.16	28.365
434.51	28.158
434.86	29.190
435.22	28.460
435.57	28.571
435.92	28.262
436.28	28.470
436.63	28.863
436.98	28.277
437.34	28.205
437.69	28.821
438.04	28.331
438.39	27.940
438.75	29.343
439.10	28.436
439.45	29.221
439.81	29.789
440.16	28.910
440.51	29.701
440.86	28.489
441.22	28.532
441.57	29.034
441.92	28.915
442.27	28.687
442.63	27.857
442.98	29.408
443.33	29.293
443.68	27.930
444.03	28.746
444.39	27.945
444.74	29.491
445.09	28.787
445.44	28.486
445.79	28.748
446.15	29.328
446.50	27.464
446.85	28.469
447.20	28.302
447.55	29.090
447.91	28.792
448.26	28.715
448.61	28.830
448.96	28.959
449.31	28.628
449.66	28.981
450.02	28.635
450.37	28.912
450.72	28.821
451.07	29.007
451.42	29.240
451.77	29.419
452.12	29.446
452.47	28.545
452.83	29.079
453.18	29.401
453.53	29.561
453.88	28.470
454.23	29.408
454.58	30.164
454.93	30.960
455.28	28.554
455.63	29.005
455.98	30.536
456.34	29.334
456.69	30.933
457.04	30.650
457.39	29.223
457.74	29.193
458.09	30.190
458.44	29.418
458.79	30.043
459.14	30.248
459.49	29.189
459.84	29.529
460.19	29.641
460.54	28.935
460.89	29.622
461.24	30.298
461.59	30.273
461.94	29.778
462.29	29.733
462.64	29.611
462.99	29.733
463.34	30.400
463.69	30.519
464.04	30.203
464.39	28.754
464.74	30.303
465.09	29.614
465.44	29.972
465.79	29.306
466.14	29.338
466.49	29.533
466.84	30.064
467.19	29.934
467.54	30.188
467.89	29.652
468.24	30.774
468.59	31.929
468.94	30.605
469.29	30.141
469.64	31.392
469.99	31.597
470.34	30.779
470.68	31.681
471.03	31.361
471.38	32.245
471.73	31.845
472.08	31.974
472.43	31.156
472.78	31.929
473.13	31.065
473.48	30.649
473.83	31.280
474.17	31.363
474.52	31.452
474.87	32.049
475.22	30.528
475.57	30.038
475.92	30.802
476.27	31.342
476.61	30.998
476.96	30.511
477.31	30.979
477.66	31.236
478.01	29.587
478.36	30.936
478.70	30.633
479.05	30.831
479.40	31.116
479.75	30.707
480.10	31.014
480.45	30.509
480.79	30.817
481.14	31.262
481.49	31.799
481.84	30.041
482.19	30.668
482.53	30.459
482.88	31.224
483.23	31.028
483.58	30.300
483.92	30.975
484.27	30.588
484.62	30.388
484.97	30.272
485.31	30.103
485.66	28.761
486.01	27.248
486.36	26.281
486.70	26.098
487.05	26.748
487.40	28.013
487.75	28.888
488.09	29.724
488.44	29.720
488.79	31.067
489.13	31.283
489.48	31.566
489.83	30.686
490.17	31.390
490.52	30.691
490.87	31.434
491.22	31.378
491.56	30.888
491.91	30.991
492.26	31.373
492.60	31.429
492.95	30.823
493.30	30.794
493.64	31.358
493.99	30.316
494.34	31.129
494.68	30.998
495.03	32.425
495.37	31.782
495.72	32.018
496.07	32.390
496.41	30.044
496.76	30.783
497.11	30.977
497.45	31.579
497.80	31.814
498.14	31.691
498.49	31.902
498.84	32.215
499.18	31.048
499.53	30.959
499.87	31.966
500.22	31.653
500.56	32.427
500.91	32.212
501.26	31.816
501.60	32.511
501.95	31.256
502.29	32.849
502.64	32.775
502.98	31.650
503.33	31.718
503.67	31.601
504.02	33.255
504.36	32.943
504.71	32.975
505.06	32.867
505.40	33.447
505.75	32.787
506.09	32.702
506.44	33.498
506.78	34.048
507.13	33.518
507.47	33.636
507.82	33.992
508.16	34.093
508.51	34.145
508.85	32.969
509.19	34.184
509.54	33.980
509.88	34.570
510.23	34.602
510.57	36.326
510.92	35.370
511.26	34.687
511.61	34.855
511.95	34.238
512.30	35.048
512.64	35.841
512.98	35.531
513.33	35.546
513.67	34.739
514.02	35.823
514.36	34.844
514.70	35.030
515.05	35.639
515.39	36.343
515.74	36.881
516.08	36.780
516.42	36.404
516.77	37.347
517.11	36.903
517.46	36.738
517.80	37.631
518.14	36.827
518.49	38.215
518.83	38.011
519.17	38.915
519.52	36.955
519.86	38.620
520.20	39.249
520.55	39.138
520.89	40.085
521.23	39.385
521.58	39.556
521.92	38.702
522.26	38.072
522.61	40.125
522.95	39.595
523.29	39.379
523.64	40.366
523.98	39.926
524.32	39.445
524.66	39.928
525.01	40.625
525.35	39.715
525.69	39.163
526.04	39.439
526.38	40.696
526.72	39.571
527.06	40.615
527.41	39.666
527.75	41.543
528.09	41.297
528.43	41.810
528.78	40.320
529.12	39.939
529.46	40.600
529.80	41.213
530.15	41.246
530.49	40.000
530.83	39.620
531.17	42.428
531.51	42.672
531.86	42.065
532.20	41.786
532.54	41.832
532.88	41.142
533.22	40.537
533.57	39.691
533.91	40.999
534.25	41.191
534.59	40.818
534.93	40.571
535.27	39.831
535.62	40.049
535.96	40.992
536.30	41.640
536.64	41.533
536.98	42.800
537.32	42.265
537.66	42.000
538.01	42.133
538.35	41.888
538.69	41.353
539.03	40.676
539.37	40.639
539.71	40.052
540.05	42.484
540.39	41.395
540.73	41.138
541.07	42.245
541.42	41.618
541.76	41.677
542.10	41.527
542.44	41.987
542.78	42.292
543.12	40.243
543.46	41.443
543.80	41.249
544.14	40.886
544.48	41.714
544.82	40.475
545.16	41.444
545.50	41.774
545.84	41.532
546.18	41.077
546.52	42.051
546.86	42.543
547.20	42.414
547.54	41.951
547.88	42.857
548.22	41.532
548.56	42.201
548.90	40.845
549.24	40.808
549.58	42.156
549.92	41.415
550.26	43.750
550.60	42.393
550.94	42.394
551.28	43.087
551.62	42.631
551.96	42.877
552.30	42.321
552.64	42.394
552.98	42.847
553.32	41.605
553.66	42.808
554.00	42.416
554.34	41.477
554.68	43.634
555.02	42.525
555.36	41.684
555.69	42.084
556.03	41.454
556.37	41.064
556.71	41.678
557.05	43.137
557.39	42.197
557.73	42.131
558.07	44.017
558.41	42.547
558.75	41.514
559.08	43.102
559.42	43.764
559.76	43.015
560.10	41.899
560.44	42.628
560.78	40.652
561.12	41.689
561.45	42.177
561.79	40.541
562.13	42.522
562.47	42.350
562.81	42.957
563.15	40.936
563.48	42.175
563.82	42.466
564.16	41.727
564.50	41.276
564.84	40.898
565.17	42.149
565.51	42.364
565.85	42.005
566.19	41.954
566.52	42.052
566.86	39.964
567.20	40.979
567.54	41.096
567.88	40.087
568.21	40.688
568.55	40.142
568.89	39.300
569.23	37.389
569.56	36.478
569.90	36.642
570.24	36.311
570.57	35.634
570.91	34.906
571.25	34.775
571.59	34.551
571.92	34.677
572.26	34.633
572.60	35.045
572.93	34.723
573.27	35.433
573.61	35.036
573.95	34.625
574.28	34.121
574.62	33.941
574.96	33.620
575.29	33.244
575.63	34.096
575.97	34.314
576.30	34.334
576.64	34.268
576.98	33.982
577.31	33.803
577.65	33.008
577.98	33.172
578.32	32.863
578.66	33.040
578.99	33.280
579.33	33.672
579.67	33.447
580.00	33.997
580.34	33.507
580.67	33.255
581.01	34.090
581.35	33.463
581.68	32.788
582.02	32.447
582.35	32.297
582.69	32.670
583.02	32.831
583.36	33.341
583.70	34.191
584.03	34.039
584.37	35.020
584.70	35.005
585.04	33.977
585.37	34.273
585.71	33.647
586.04	33.800
586.38	33.882
586.72	34.935
587.05	34.175
587.39	33.931
587.72	34.038
588.06	34.098
588.39	34.870
588.73	34.526
589.06	35.338
589.40	36.364
589.73	35.656
590.07	35.587
590.40	35.367
590.73	36.573
591.07	37.688
591.40	36.482
591.74	38.052
592.07	37.216
592.41	37.536
592.74	35.655
593.08	35.043
593.41	35.115
593.75	33.760
594.08	34.730
594.41	35.560
594.75	35.823
595.08	35.469
595.42	35.587
595.75	34.936
596.09	35.599
596.42	37.525
596.75	36.851
597.09	37.186
597.42	35.497
597.75	36.999
598.09	36.826
598.42	36.727
598.76	35.630
599.09	35.310
599.42	35.007
599.76	35.542
600.09	35.373
600.42	35.208
600.76	34.607
601.09	34.791
601.42	34.513
601.76	35.180
602.09	35.257
602.42	36.664
602.76	36.800
603.09	36.428
603.42	36.431
603.76	35.328
604.09	35.285
604.42	35.997
604.76	37.242
605.09	36.086
605.42	36.255
605.75	35.720
606.09	35.502
606.42	35.472
606.75	35.089
607.09	35.956
607.42	35.944
607.75	36.160
608.08	36.214
608.42	36.665
608.75	36.655
609.08	36.910
609.41	35.840
609.75	35.827
610.08	36.616
610.41	36.266
610.74	37.843
611.07	37.352
611.41	37.242
611.74	37.255
612.07	37.422
612.40	38.353
612.73	37.789
613.07	38.200
613.40	37.335
613.73	37.021
614.06	36.667
614.39	37.074
614.72	38.000
615.06	38.183
615.39	36.677
615.72	37.474
616.05	37.161
616.38	39.355
616.71	38.895
617.05	37.927
617.38	39.327
617.71	38.619
618.04	39.183
618.37	38.439
618.70	39.203
619.03	39.737
619.36	39.715
619.69	39.789
620.03	40.934
620.36	40.374
620.69	41.027
621.02	41.150
621.35	42.756
621.68	41.199
622.01	41.099
622.34	42.511
622.67	41.597
623.00	40.572
623.33	40.815
623.66	40.886
623.99	41.973
624.32	40.157
624.65	40.749
624.99	40.581
625.32	40.333
625.65	40.346
625.98	41.276
626.31	41.135
626.64	42.204
626.97	43.142
627.30	42.394
627.63	42.166
627.96	42.557
628.29	42.607
628.62	43.001
628.95	44.434
629.28	43.796
629.61	44.088
629.94	46.857
630.26	45.472
630.59	44.805
630.92	44.157
631.25	43.929
631.58	44.444
631.91	46.653
632.24	44.937
632.57	45.331
632.90	47.368
633.23	46.980
633.56	46.780
633.89	46.886
634.22	47.900
634.55	48.994
634.88	46.467
635.20	48.626
635.53	46.627
635.86	48.762
636.19	46.824
636.52	46.713
636.85	47.308
637.18	46.313
637.51	47.991
637.83	45.499
638.16	48.338
638.49	48.489
638.82	50.569
639.15	47.750
639.48	48.005
639.81	48.928
640.13	50.000
640.46	51.007
640.79	47.688
641.12	48.968
641.45	50.000
641.77	51.988
642.10	50.000
642.43	50.300
642.76	49.381
643.09	50.613
643.41	50.986
643.74	53.395
644.07	50.762
644.40	53.067
644.73	56.693
645.05	53.090
645.38	49.289
645.71	49.758
646.04	53.821
646.36	55.927
646.69	53.177
647.02	50.510
647.35	54.811
647.67	56.283
648.00	51.707
648.33	49.835
648.66	47.273
648.98	49.175
649.31	46.936
649.64	48.729
649.96	48.584
650.29	50.711
650.62	50.809
650.94	50.405
651.27	52.365
651.60	49.917
651.92	48.403
652.25	47.883
652.58	50.623
652.90	48.183
653.23	50.385
653.56	48.346
653.88	51.506
654.21	49.447
654.54	49.175
654.86	48.287
655.19	44.459
655.52	31.022
655.84	26.435
656.17	32.971
656.49	44.149
656.82	44.874
657.15	34.422
657.47	25.806
657.80	20.095
658.13	21.567
658.45	31.953
658.78	33.253
659.10	35.174
659.43	37.372
659.75	39.661
660.08	43.418
660.41	48.417
660.73	51.970
661.06	51.115
661.38	53.091
661.71	56.538
662.03	55.819
662.36	52.883
662.68	52.008
663.01	53.333
663.33	52.654
663.66	53.992
663.98	55.940
664.31	52.101
664.63	55.668
664.96	51.710
665.28	53.689
665.61	49.708
665.93	54.326
666.26	52.130
666.58	53.766
666.91	55.814
667.23	56.854
667.56	52.916
667.88	54.274
668.21	52.452
668.53	52.928
668.86	56.277
669.18	57.996
669.50	52.826
669.83	58.606
670.15	54.889
670.48	55.773
670.80	52.586
671.13	55.202
671.45	52.766
671.77	53.360
672.10	50.462
672.42	47.880
672.75	48.756
673.07	48.415
673.39	50.995
673.72	50.781
674.04	50.784
674.37	50.291
674.69	52.556
675.01	52.720
675.34	55.236
675.66	53.263
675.98	50.916
676.31	52.311
676.63	53.928
676.95	50.734
677.28	53.972
677.60	54.725
677.92	53.376
678.25	52.567
678.57	50.398
678.89	52.705
679.22	51.670
679.54	49.046
679.86	48.807
680.18	49.016
680.51	48.936
680.83	47.509
681.15	50.755
681.48	47.070
681.80	48.743
682.12	50.000
682.44	47.969
682.77	52.342
683.09	56.223
683.41	51.663
683.73	54.305
684.06	53.306
684.38	50.685
684.70	49.031
685.02	48.030
685.34	47.985
685.67	43.881
685.99	46.220
686.31	45.051
686.63	44.700
686.96	46.607
687.28	45.126
687.60	48.370
687.92	47.349
688.24	49.240
688.56	50.602
688.89	50.415
689.21	51.965
689.53	52.818
689.85	56.098
690.17	49.689
690.49	51.592
690.82	53.037
691.14	52.009
691.46	49.156
691.78	47.590
692.10	49.174
692.42	47.505
692.74	49.378
693.06	50.213
693.39	49.281
693.71	51.747
694.03	49.263
694.35	48.268
694.67	50.343
694.99	52.439
695.31	50.490
695.63	50.718
695.95	51.834
696.27	50.000
696.59	52.850
696.91	53.109
697.23	47.887
697.56	50.959
697.88	46.012
698.20	46.875
698.52	49.247
698.84	48.998
699.16	49.078
699.48	48.219
699.80	49.517
700.12	59.481
700.44	52.520
700.76	53.867
701.08	52.874
701.40	56.983
701.72	58.017
702.04	57.386
702.36	51.841
702.68	53.824
703.00	51.801
703.32	51.064
703.64	51.206
703.96	55.432
704.28	52.907
704.60	54.252
704.91	57.567
705.23	52.493
705.55	61.794
705.87	66.113
706.19	56.890
706.51	56.698
706.83	57.879
707.15	55.742
707.47	50.758
707.79	48.157
708.11	45.662
708.43	48.095
708.74	49.235
709.06	53.247
709.38	48.819
709.70	56.395
710.02	56.083
710.34	53.030
710.66	52.836
710.98	51.420
711.29	54.942
711.61	56.047
711.93	53.846
712.25	58.521
712.57	56.985
712.89	58.478
713.20	54.407
713.52	55.592
713.84	52.848
714.16	52.439
714.48	51.437
714.80	57.143
715.11	53.602
715.43	50.148
715.75	51.304
716.07	54.633
716.39	51.411
716.70	55.150
717.02	56.475
717.34	58.304
717.66	63.433
717.97	59.363
718.29	58.148
718.61	60.584
718.93	56.985
719.24	57.093
719.56	51.525
719.88	54.237
720.20	54.392
720.51	52.265
720.83	58.736
721.15	51.493
721.46	54.255
721.78	57.348
722.10	56.604
722.42	56.767
722.73	54.307
723.05	60.656
723.37	52.632
723.68	56.371
724.00	58.537
724.32	58.468
724.63	55.285
724.95	54.393
725.27	58.300
725.58	60.156
725.90	57.664
726.22	55.094
726.53	51.736
726.85	52.560
727.16	55.160
727.48	52.128
727.80	54.545
728.11	51.449
728.43	55.385
728.74	50.179
729.06	55.839
729.38	59.559
729.69	54.093
730.01	51.195
730.32	50.000
730.64	50.836
730.96	48.185
731.27	52.318
731.59	48.930
731.90	48.980
732.22	45.963
732.53	49.226
732.85	50.321
733.16	48.875
733.48	50.498
733.80	54.545
734.11	50.318
734.43	47.041
734.74	46.000
735.06	46.705
735.37	47.110
735.69	46.178
736.00	53.922
736.32	48.598
736.63	46.645
736.95	47.604
737.26	45.918
737.58	49.355
737.89	53.177
738.21	51.536
738.52	51.071
738.83	52.830
739.15	51.154
739.46	52.920
739.78	52.083
740.09	47.077
740.41	50.323
740.72	49.826
741.04	52.222
741.35	53.750
741.66	60.444
741.98	56.604
742.29	58.373
742.61	59.483
742.92	55.656
743.23	56.838
743.55	54.800
743.86	56.579
744.18	53.982
744.49	59.330
744.80	60.563
745.12	59.545
745.43	58.590
745.74	59.910
746.06	59.633
746.37	57.399
746.68	55.656
747.00	66.204
747.31	58.095
747.62	57.522
747.94	58.150
748.25	51.489
748.56	62.115
748.88	58.416
749.19	58.500
749.50	55.349
749.82	56.098
750.13	53.061
750.44	54.015
750.75	49.825
751.07	51.447
751.38	48.432
751.69	55.596
752.01	52.256
752.32	49.458
752.63	51.064
752.94	53.689
753.26	54.800
753.57	48.780
753.88	55.078
754.19	49.286
754.51	55.903
754.82	44.043
755.13	53.962
755.44	54.135
755.75	47.080
756.07	48.936
756.38	48.905
756.69	53.691
757.00	40.719
757.31	44.807
757.63	43.860
757.94	43.164
758.25	40.441
758.56	42.716
758.87	41.398
759.18	48.182
759.50	42.947
759.81	45.483
760.12	45.000
760.43	44.699
760.74	44.565
761.05	45.763
761.36	42.246
761.67	44.602
761.99	44.720
762.30	50.694
762.61	49.618
762.92	50.781
763.23	54.202
763.54	53.200
763.85	45.312
764.16	56.923
764.47	47.148
764.78	46.643
765.10	42.722
765.41	44.838
765.72	43.114
766.03	47.022
766.34	47.333
766.65	54.468
766.96	48.291
767.27	56.853
767.58	60.938
767.89	58.421
768.20	65.517
768.51	55.838
768.82	52.752
769.13	44.715
769.44	48.178
769.75	56.652
770.06	51.376
770.37	53.394
770.68	51.852
770.99	50.667
771.30	49.180
771.61	50.224
771.92	46.721
772.23	54.202
772.54	58.974
772.85	54.974
773.16	55.319
773.47	60.870
773.78	60.406
774.09	60.119
774.39	62.573
774.70	54.938
775.01	69.565
775.32	65.359
775.63	64.474
775.94	63.309
776.25	75.591
776.56	58.209
776.87	74.590
777.18	75.000
777.48	74.809
777.79	67.424
778.10	66.667
778.41	79.464
778.72	53.285
779.03	60.403
779.34	51.678
779.65	62.838
779.95	58.896
780.26	64.052
780.57	64.828
780.88	71.094
781.19	60.902
781.50	66.216
781.80	59.748
782.11	59.887
782.42	53.797
782.73	58.282
783.04	64.865
783.34	61.972
783.65	62.329
783.96	60.448
784.27	59.441
784.57	66.187
784.88	66.667
785.19	72.222
785.50	72.642
785.81	68.657
786.11	67.213
786.42	76.744
786.73	72.566
787.04	71.698
787.34	69.643
787.65	80.000
787.96	71.171
788.26	66.942
788.57	77.966
788.88	74.380
789.19	68.056
789.49	63.636
789.80	63.359
790.11	84.762
790.41	73.267
790.72	66.265
791.03	83.696
791.33	75.581
791.64	80.412
791.95	90.099
792.25	76.667
792.56	90.909
792.87	92.308
793.17	108.861
793.48	80.460
793.79	88.506
794.09	84.091
794.40	66.387
794.70	61.765
795.01	60.000
795.32	59.712
795.62	66.142
795.93	75.862
796.23	68.142
796.54	76.471
796.85	86.486
797.15	109.859
797.46	84.848
797.76	79.518
798.07	77.215
798.37	87.692
798.68	101.515
798.99	81.690
799.29	83.117
799.60	79.545
799.90	100.000
800.21	110.448
800.51	112.069
800.82	110.526
801.12	103.279
801.43	92.424
801.73	91.892
802.04	100.000
802.34	91.358
802.65	101.563
802.95	98.305
803.26	103.125
803.56	90.000
803.87	96.923
804.17	77.941
804.48	120.370
804.78	100.000
805.09	77.941
805.39	121.154
805.70	100.000
806.00	111.475
806.30	92.424
806.61	86.585
806.91	84.810
807.22	93.421
807.52	71.642
807.83	91.549
808.13	106.250
808.43	100.000
808.74	88.158
809.04	92.754
809.35	102.985
809.65	75.000
809.95	116.129
810.26	106.780
810.56	92.063
810.86	147.727
811.17	150.000
811.47	110.000
811.77	105.556
812.08	109.091
812.38	110.000
812.69	144.444
812.99	138.636
813.29	122.449
813.59	104.762
813.90	130.612
814.20	96.364
814.50	66.154
814.81	100.000
815.11	120.408
815.41	93.443
815.72	152.381
816.02	103.636
816.32	130.952
816.62	120.000
816.93	141.463
817.23	126.190
817.53	118.182
817.84	166.667
818.14	119.565
818.44	117.778
818.74	132.353
819.04	115.000
819.35	142.857
819.65	164.706
819.95	196.429
820.25	195.000
820.56	153.846
820.86	122.727
821.16	139.535
821.46	97.436
821.76	120.000
822.07	148.571
822.37	162.500
822.67	172.727
822.97	100.000
823.27	192.857
823.57	132.432
823.88	160.000
824.18	196.667
824.48	133.333
824.78	208.000
825.08	200.000
825.38	151.351
825.69	126.829
825.99	266.667
826.29	158.621
826.59	155.263
826.89	139.474
827.19	129.412
827.49	180.645
827.79	134.091
828.09	111.364
828.39	123.404
828.70	124.490
829.00	159.259
829.30	174.194
829.60	125.000
829.90	306.667
830.20	189.286
830.50	208.696
830.80	208.696
831.10	200.000
831.40	170.000
831.70	221.739
832.00	176.923
832.30	159.259
832.60	306.250
832.90	210.000
833.20	392.857
833.50	164.516
833.80	155.172
834.10	190.625
834.40	219.231
834.70	277.778
835.00	261.905
835.30	142.857
835.60	284.615
835.90	165.517
836.20	307.143
836.50	144.828
836.80	156.000
837.10	161.111
837.40	238.095
837.70	252.941
838.00	211.111
838.30	214.286
838.60	238.095
838.90	203.846
839.19	240.000
839.49	371.429
839.79	240.000
840.09	175.000
840.39	252.381
840.69	217.391
840.99	261.111
841.29	480.000
841.59	300.000
841.88	293.750
842.18	172.414
842.48	238.095
842.78	190.000
843.08	213.043
843.38	134.375
843.68	733.333
843.97	211.538
844.27	172.414
844.57	266.667
844.87	356.250
845.17	207.407
845.47	1533.333
845.76	322.222
846.06	264.706
846.36	450.000
846.66	364.286
846.96	287.500
847.25	381.818
847.55	409.091
847.85	226.087
848.15	470.000
848.44	292.857
848.74	238.889
849.04	294.118
849.34	420.000
849.63	236.842
849.93	418.182
850.23	960.000
850.53	364.286
850.82	2350.000
851.12	-3200.000
851.42	3000.000
851.71	225.000
852.01	-1066.667
852.31	241.667
852.61	1666.667
852.90	223.810
853.20	204.000
853.50	258.824
853.79	252.381
854.09	191.667
854.39	212.500
854.68	151.351
854.98	177.419
855.28	153.333
855.57	200.000
855.87	196.296
856.17	200.000
856.46	186.667
856.76	241.176
857.05	179.310
857.35	241.667
857.65	233.333
857.94	213.043
858.24	207.692
858.53	245.000
858.83	254.545
859.13	300.000
859.42	0.000
859.72	466.667
860.01	372.727
860.31	231.818
860.60	221.053
860.90	221.739
861.20	544.444
861.49	475.000
861.79	-4100.000
862.08	575.000
862.38	257.143
862.67	330.769
862.97	323.529
863.26	466.667
863.56	227.778
863.85	300.000
864.15	587.500
864.44	373.333
864.74	816.667
865.03	637.500
865.33	242.105
865.62	436.364
865.92	261.538
866.21	400.000
866.51	0.000
866.80	345.455
867.10	880.000
867.39	400.000
867.69	345.455
867.98	221.053
868.27	527.273
868.57	257.895
868.86	-3600.000
869.16	293.750
869.45	1950.000
869.75	-3900.000
870.04	308.333
870.33	500.000
870.63	900.000
870.92	1900.000
871.22	514.286
871.51	270.588
871.80	200.000
872.10	357.143
>>>>>End Processed Spectral Data<<<<<
