SpectraSuite Data File
++++++++++++++++++++++++++++++++++++
Date: Wed May 13 16:31:50 PDT 2015
User: schluterlab
Dark Spectrum Present: Yes
Reference Spectrum Present: Yes
Number of Sampled Component Spectra: 1
Spectrometers: USB2E3373
Integration Time (usec): 3000 (USB2E3373)
Spectra Averaged: 3 (USB2E3373)
Boxcar Smoothing: 0 (USB2E3373)
Correct for Electrical Dark: No (USB2E3373)
Strobe/Lamp Enabled: No (USB2E3373)
Correct for Detector Non-linearity: No (USB2E3373)
Correct for Stray Light: No (USB2E3373)
Number of Pixels in Processed Spectrum: 2048
>>>>>Begin Processed Spectral Data<<<<<
178.53	0.000
178.91	-1400.000
179.29	-1175.000
179.67	-144.444
180.04	-1175.000
180.42	2050.000
180.80	1000.000
181.18	-900.000
181.56	571.429
181.94	0.000
182.31	-742.857
182.69	1500.000
183.07	-512.500
183.45	-466.667
183.83	463.636
184.20	-380.000
184.58	2350.000
184.96	4800.000
185.34	-800.000
185.72	-550.000
186.09	-2400.000
186.47	2450.000
186.85	2550.000
187.23	3600.000
187.61	-1500.000
187.98	1275.000
188.36	500.000
188.74	490.909
189.12	-940.000
189.49	430.000
189.87	-4400.000
190.25	-800.000
190.63	378.571
191.00	353.846
191.38	950.000
191.76	-925.000
192.14	1350.000
192.51	450.000
192.89	916.667
193.27	562.500
193.65	-925.000
194.02	520.000
194.40	920.000
194.78	530.000
195.15	516.667
195.53	550.000
195.91	-1600.000
196.29	312.500
196.66	247.368
197.04	-340.000
197.42	0.000
197.79	590.000
198.17	-4100.000
198.55	714.286
198.92	625.000
199.30	920.000
199.68	0.000
200.05	344.444
200.43	814.286
200.81	3800.000
201.18	1900.000
201.56	-1066.667
201.94	533.333
202.31	600.000
202.69	400.000
203.07	530.000
203.44	0.000
203.82	1075.000
204.19	557.143
204.57	421.429
204.95	525.000
205.32	1333.333
205.70	481.818
206.08	328.571
206.45	2300.000
206.83	362.500
207.20	816.667
207.58	700.000
207.96	272.222
208.33	537.500
208.71	-700.000
209.08	671.429
209.46	611.111
209.84	463.636
210.21	-1333.333
210.59	1200.000
210.96	-437.500
211.34	2300.000
211.71	590.000
212.09	750.000
212.46	0.000
212.84	1333.333
213.22	1225.000
213.59	-4400.000
213.97	666.667
214.34	614.286
214.72	590.909
215.09	940.000
215.47	-1850.000
215.84	-2150.000
216.22	1666.667
216.59	342.857
216.97	1250.000
217.34	463.636
217.72	-533.333
218.09	0.000
218.47	-4800.000
218.84	600.000
219.22	742.857
219.59	1733.333
219.97	-571.429
220.34	640.000
220.72	-1700.000
221.09	442.857
221.47	1325.000
221.84	-633.333
222.22	0.000
222.59	1525.000
222.97	-2250.000
223.34	1000.000
223.72	300.000
224.09	1040.000
224.46	2250.000
224.84	-5100.000
225.21	-680.000
225.59	-4200.000
225.96	570.000
226.34	305.000
226.71	2250.000
227.08	650.000
227.46	560.000
227.83	-1025.000
228.21	-2400.000
228.58	577.778
228.95	-2050.000
229.33	-2100.000
229.70	1566.667
230.08	800.000
230.45	-880.000
230.82	458.333
231.20	716.667
231.57	428.571
231.95	491.667
232.32	231.818
232.69	318.182
233.07	614.286
233.44	315.385
233.81	-1566.667
234.19	268.421
234.56	375.000
234.93	308.333
235.31	400.000
235.68	315.385
236.05	264.286
236.43	142.424
236.80	210.526
237.17	3600.000
237.55	200.000
237.92	153.571
238.29	204.762
238.67	151.613
239.04	165.517
239.41	119.444
239.79	84.783
240.16	119.048
240.53	93.182
240.91	82.353
241.28	90.000
241.65	72.000
242.02	76.812
242.40	61.290
242.77	75.000
243.14	61.290
243.51	57.303
243.89	55.294
244.26	53.333
244.63	60.215
245.00	50.000
245.38	46.535
245.75	34.579
246.12	33.945
246.49	37.226
246.87	46.400
247.24	43.077
247.61	33.571
247.98	33.987
248.36	27.703
248.73	35.669
249.10	32.484
249.47	32.203
249.84	31.551
250.22	26.203
250.59	31.953
250.96	27.778
251.33	30.332
251.70	27.228
252.08	26.667
252.45	21.973
252.82	21.304
253.19	24.255
253.56	25.098
253.94	26.556
254.31	23.047
254.68	24.231
255.05	22.878
255.42	19.106
255.79	20.221
256.16	22.744
256.54	18.021
256.91	23.843
257.28	17.266
257.65	19.472
258.02	19.565
258.39	18.927
258.76	18.060
259.14	19.048
259.51	14.894
259.88	12.112
260.25	18.429
260.62	17.919
260.99	20.186
261.36	18.919
261.73	16.332
262.10	14.535
262.47	17.746
262.85	13.928
263.22	11.966
263.59	16.809
263.96	14.286
264.33	18.016
264.70	14.737
265.07	15.857
265.44	13.889
265.81	11.679
266.18	15.578
266.55	16.341
266.92	12.776
267.29	15.046
267.66	14.220
268.03	14.318
268.40	15.421
268.77	11.695
269.14	14.414
269.51	15.124
269.88	14.918
270.25	15.576
270.62	13.258
270.99	15.914
271.36	13.519
271.73	11.916
272.10	13.043
272.47	12.688
272.84	15.152
273.21	14.465
273.58	12.664
273.95	11.321
274.32	12.810
274.69	13.919
275.06	12.205
275.43	12.128
275.80	11.824
276.17	12.627
276.54	13.098
276.91	11.462
277.28	13.867
277.65	11.412
278.02	10.973
278.39	13.281
278.76	12.545
279.13	14.906
279.50	13.780
279.87	13.944
280.23	11.577
280.60	10.638
280.97	9.982
281.34	12.743
281.71	12.545
282.08	13.628
282.45	10.182
282.82	11.723
283.19	9.269
283.56	10.877
283.92	11.168
284.29	11.287
284.66	10.345
285.03	9.765
285.40	11.444
285.77	10.774
286.14	9.672
286.51	10.000
286.87	10.598
287.24	11.401
287.61	11.878
287.98	10.065
288.35	8.558
288.72	11.994
289.08	12.207
289.45	10.708
289.82	9.106
290.19	9.419
290.56	11.026
290.93	9.517
291.29	10.583
291.66	10.177
292.03	11.773
292.40	10.132
292.77	7.840
293.13	9.403
293.50	8.601
293.87	10.222
294.24	9.037
294.60	9.607
294.97	9.157
295.34	10.155
295.71	9.943
296.08	7.692
296.44	9.216
296.81	8.454
297.18	10.163
297.55	5.673
297.91	8.443
298.28	10.040
298.65	9.791
299.02	8.827
299.38	7.835
299.75	5.660
300.12	7.535
300.48	9.000
300.85	9.371
301.22	8.790
301.59	7.828
301.95	8.564
302.32	8.216
302.69	8.483
303.05	8.242
303.42	7.407
303.79	8.720
304.15	7.459
304.52	6.721
304.89	8.130
305.25	8.353
305.62	8.041
305.99	8.973
306.35	8.054
306.72	8.184
307.09	7.991
307.45	8.333
307.82	7.031
308.19	8.057
308.55	8.306
308.92	7.519
309.29	6.441
309.65	7.529
310.02	7.188
310.38	6.129
310.75	6.547
311.12	7.267
311.48	7.837
311.85	8.595
312.22	7.076
312.58	6.965
312.95	8.659
313.31	6.699
313.68	6.341
314.05	9.566
314.41	8.342
314.78	6.445
315.14	7.349
315.51	7.930
315.87	7.624
316.24	7.746
316.61	7.115
316.97	6.458
317.34	6.947
317.70	7.361
318.07	7.988
318.43	6.849
318.80	8.341
319.16	7.533
319.53	6.942
319.89	8.000
320.26	7.200
320.62	7.143
320.99	6.768
321.35	7.374
321.72	7.495
322.08	7.206
322.45	9.154
322.81	9.205
323.18	8.478
323.54	8.163
323.91	8.962
324.27	6.310
324.64	5.871
325.00	7.304
325.37	7.734
325.73	8.169
326.10	7.149
326.46	6.272
326.83	8.110
327.19	7.259
327.56	7.056
327.92	7.087
328.29	7.187
328.65	7.459
329.01	6.769
329.38	6.383
329.74	6.741
330.11	8.200
330.47	7.163
330.84	8.364
331.20	7.195
331.56	7.431
331.93	6.389
332.29	6.832
332.66	8.496
333.02	7.038
333.38	7.859
333.75	7.932
334.11	7.384
334.48	7.808
334.84	7.629
335.20	8.000
335.57	6.981
335.93	6.696
336.29	7.234
336.66	7.484
337.02	7.783
337.38	7.685
337.75	6.952
338.11	7.252
338.47	6.906
338.84	6.874
339.20	5.688
339.56	7.664
339.93	6.455
340.29	6.975
340.65	6.952
341.02	7.853
341.38	8.541
341.74	5.965
342.11	7.162
342.47	6.696
342.83	7.962
343.20	7.100
343.56	6.908
343.92	6.140
344.28	7.738
344.65	7.395
345.01	6.481
345.37	5.575
345.73	6.684
346.10	8.440
346.46	7.203
346.82	6.343
347.19	6.516
347.55	7.307
347.91	7.201
348.27	7.724
348.63	6.856
349.00	6.230
349.36	6.650
349.72	6.977
350.08	6.240
350.45	7.567
350.81	7.067
351.17	7.618
351.53	6.880
351.89	6.271
352.26	7.893
352.62	7.698
352.98	7.455
353.34	7.231
353.70	5.401
354.07	6.532
354.43	6.190
354.79	6.114
355.15	7.342
355.51	7.114
355.87	6.286
356.24	7.410
356.60	6.736
356.96	6.758
357.32	5.560
357.68	7.323
358.04	6.730
358.40	7.284
358.77	7.433
359.13	5.998
359.49	6.431
359.85	5.714
360.21	6.140
360.57	7.938
360.93	7.615
361.29	6.727
361.66	5.805
362.02	6.567
362.38	7.148
362.74	6.622
363.10	6.440
363.46	6.676
363.82	5.820
364.18	7.048
364.54	6.835
364.90	7.365
365.26	5.221
365.62	6.355
365.98	6.209
366.35	5.014
366.71	6.508
367.07	6.846
367.43	6.531
367.79	6.852
368.15	7.902
368.51	6.032
368.87	6.709
369.23	6.291
369.59	6.372
369.95	6.618
370.31	7.336
370.67	6.667
371.03	7.416
371.39	7.507
371.75	7.059
372.11	7.183
372.47	7.038
372.83	7.061
373.19	6.503
373.55	6.652
373.91	6.996
374.27	6.667
374.63	5.818
374.99	7.768
375.35	6.420
375.71	6.717
376.07	7.270
376.42	6.534
376.78	7.555
377.14	6.852
377.50	7.417
377.86	6.915
378.22	7.332
378.58	7.206
378.94	6.160
379.30	6.234
379.66	6.599
380.02	7.494
380.38	6.922
380.74	7.503
381.09	7.335
381.45	6.638
381.81	7.371
382.17	7.452
382.53	7.107
382.89	8.025
383.25	6.504
383.61	7.125
383.97	7.630
384.32	7.236
384.68	6.939
385.04	7.376
385.40	6.749
385.76	7.187
386.12	8.031
386.48	8.244
386.83	7.954
387.19	8.163
387.55	7.792
387.91	7.981
388.27	7.603
388.62	8.297
388.98	7.432
389.34	8.824
389.70	8.338
390.06	8.745
390.42	8.106
390.77	8.588
391.13	8.232
391.49	8.503
391.85	8.593
392.20	7.256
392.56	7.702
392.92	8.299
393.28	6.686
393.64	8.273
393.99	8.552
394.35	8.251
394.71	9.034
395.07	8.287
395.42	8.282
395.78	8.651
396.14	8.939
396.50	8.835
396.85	8.582
397.21	9.186
397.57	8.308
397.92	8.173
398.28	8.296
398.64	8.961
399.00	9.065
399.35	8.629
399.71	9.433
400.07	8.870
400.42	9.202
400.78	9.228
401.14	8.232
401.49	8.955
401.85	8.348
402.21	8.144
402.57	8.760
402.92	9.016
403.28	8.807
403.63	8.601
403.99	8.153
404.35	8.970
404.70	8.573
405.06	8.561
405.42	8.983
405.77	8.857
406.13	8.578
406.49	9.462
406.84	9.510
407.20	7.801
407.55	9.317
407.91	9.200
408.27	9.062
408.62	9.332
408.98	9.314
409.34	9.533
409.69	9.355
410.05	8.922
410.40	9.113
410.76	8.961
411.11	9.530
411.47	9.521
411.83	8.613
412.18	8.720
412.54	9.776
412.89	9.639
413.25	9.504
413.60	9.574
413.96	8.318
414.31	9.174
414.67	9.632
415.03	9.272
415.38	10.438
415.74	8.810
416.09	9.536
416.45	9.639
416.80	9.253
417.16	10.791
417.51	10.816
417.87	9.249
418.22	10.473
418.58	9.942
418.93	9.582
419.29	10.057
419.64	9.761
420.00	9.146
420.35	9.623
420.71	9.623
421.06	9.248
421.42	9.415
421.77	9.529
422.12	9.601
422.48	8.365
422.83	8.969
423.19	10.055
423.54	9.460
423.90	9.855
424.25	9.939
424.61	9.107
424.96	9.563
425.31	8.859
425.67	9.551
426.02	9.486
426.38	10.012
426.73	9.245
427.09	9.422
427.44	9.431
427.79	9.086
428.15	9.821
428.50	9.713
428.85	10.250
429.21	9.332
429.56	8.813
429.92	9.059
430.27	8.937
430.62	9.114
430.98	9.704
431.33	9.021
431.68	9.215
432.04	9.904
432.39	10.051
432.74	9.455
433.10	9.621
433.45	9.913
433.80	8.925
434.16	9.615
434.51	9.263
434.86	9.806
435.22	9.839
435.57	9.544
435.92	8.543
436.28	9.786
436.63	10.486
436.98	9.044
437.34	9.064
437.69	9.977
438.04	9.162
438.39	10.209
438.75	9.878
439.10	9.441
439.45	9.622
439.81	9.789
440.16	9.768
440.51	9.549
440.86	10.017
441.22	9.956
441.57	9.554
441.92	9.263
442.27	9.903
442.63	9.426
442.98	10.310
443.33	9.891
443.68	9.396
444.03	9.322
444.39	9.250
444.74	9.470
445.09	9.811
445.44	9.732
445.79	9.500
446.15	10.005
446.50	9.370
446.85	10.123
447.20	9.791
447.55	9.380
447.91	9.487
448.26	9.238
448.61	9.836
448.96	10.188
449.31	10.180
449.66	10.467
450.02	9.081
450.37	9.524
450.72	9.137
451.07	9.445
451.42	9.909
451.77	9.806
452.12	10.508
452.47	9.701
452.83	9.615
453.18	9.658
453.53	10.451
453.88	9.746
454.23	10.460
454.58	10.418
454.93	10.807
455.28	10.037
455.63	9.830
455.98	9.702
456.34	10.364
456.69	9.831
457.04	10.402
457.39	10.053
457.74	9.750
458.09	9.718
458.44	10.262
458.79	9.273
459.14	10.214
459.49	10.099
459.84	9.418
460.19	9.900
460.54	9.722
460.89	9.929
461.24	10.018
461.59	10.808
461.94	9.864
462.29	10.089
462.64	10.019
462.99	10.345
463.34	11.533
463.69	10.944
464.04	9.971
464.39	10.261
464.74	10.339
465.09	9.710
465.44	9.695
465.79	9.564
466.14	9.633
466.49	9.677
466.84	10.508
467.19	10.380
467.54	10.312
467.89	9.964
468.24	10.762
468.59	10.317
468.94	9.896
469.29	9.961
469.64	10.509
469.99	9.878
470.34	9.115
470.68	11.135
471.03	10.204
471.38	11.049
471.73	11.059
472.08	10.263
472.43	10.050
472.78	10.533
473.13	10.655
473.48	10.362
473.83	10.671
474.17	9.023
474.52	10.050
474.87	10.158
475.22	10.041
475.57	9.672
475.92	9.878
476.27	10.147
476.61	9.377
476.96	9.731
477.31	9.838
477.66	10.011
478.01	9.618
478.36	9.625
478.70	9.190
479.05	10.224
479.40	9.672
479.75	9.812
480.10	9.195
480.45	9.519
480.79	9.365
481.14	10.078
481.49	10.204
481.84	9.282
482.19	9.859
482.53	9.771
482.88	9.772
483.23	9.720
483.58	9.873
483.92	9.185
484.27	9.107
484.62	9.353
484.97	9.184
485.31	8.938
485.66	8.407
486.01	7.590
486.36	7.283
486.70	7.376
487.05	7.758
487.40	8.248
487.75	8.406
488.09	8.675
488.44	8.472
488.79	9.078
489.13	9.358
489.48	9.217
489.83	8.934
490.17	9.689
490.52	9.610
490.87	9.588
491.22	9.368
491.56	8.383
491.91	9.446
492.26	9.325
492.60	10.000
492.95	9.121
493.30	9.393
493.64	9.146
493.99	9.192
494.34	9.574
494.68	9.753
495.03	9.258
495.37	9.353
495.72	8.772
496.07	10.116
496.41	8.850
496.76	9.543
497.11	9.725
497.45	9.548
497.80	9.405
498.14	9.758
498.49	9.707
498.84	9.684
499.18	9.333
499.53	9.734
499.87	9.553
500.22	8.761
500.56	9.660
500.91	8.702
501.26	9.720
501.60	10.299
501.95	9.578
502.29	9.606
502.64	9.637
502.98	9.210
503.33	9.461
503.67	9.838
504.02	9.355
504.36	9.499
504.71	9.135
505.06	9.976
505.40	9.480
505.75	8.775
506.09	9.475
506.44	10.064
506.78	10.326
507.13	10.146
507.47	10.152
507.82	10.638
508.16	10.436
508.51	10.198
508.85	9.583
509.19	9.898
509.54	10.204
509.88	9.892
510.23	9.717
510.57	10.836
510.92	10.513
511.26	10.740
511.61	10.633
511.95	10.282
512.30	9.756
512.64	10.210
512.98	10.611
513.33	11.242
513.67	9.872
514.02	10.227
514.36	10.814
514.70	10.736
515.05	10.318
515.39	10.768
515.74	10.755
516.08	11.235
516.42	11.043
516.77	10.814
517.11	11.265
517.46	11.343
517.80	10.918
518.14	10.712
518.49	11.377
518.83	10.909
519.17	10.566
519.52	11.205
519.86	10.782
520.20	11.503
520.55	11.909
520.89	11.253
521.23	11.399
521.58	10.744
521.92	11.513
522.26	11.653
522.61	11.215
522.95	10.129
523.29	11.138
523.64	11.585
523.98	11.399
524.32	10.977
524.66	11.124
525.01	11.458
525.35	11.648
525.69	11.207
526.04	12.212
526.38	11.714
526.72	10.798
527.06	11.425
527.41	10.396
527.75	11.383
528.09	11.946
528.43	11.472
528.78	11.616
529.12	10.909
529.46	12.186
529.80	11.819
530.15	12.274
530.49	11.877
530.83	11.646
531.17	12.467
531.51	13.035
531.86	11.613
532.20	13.233
532.54	12.172
532.88	12.195
533.22	10.931
533.57	11.790
533.91	11.439
534.25	12.029
534.59	11.653
534.93	11.541
535.27	11.406
535.62	11.783
535.96	12.053
536.30	12.142
536.64	12.106
536.98	12.541
537.32	11.850
537.66	11.600
538.01	13.101
538.35	12.346
538.69	12.636
539.03	11.306
539.37	12.843
539.71	11.017
540.05	12.157
540.39	12.159
540.73	11.966
541.07	12.654
541.42	12.394
541.76	13.097
542.10	12.160
542.44	11.656
542.78	12.846
543.12	11.068
543.46	12.393
543.80	11.906
544.14	12.003
544.48	12.635
544.82	11.995
545.16	12.232
545.50	11.440
545.84	12.030
546.18	12.593
546.52	12.595
546.86	11.821
547.20	13.014
547.54	12.558
547.88	12.054
548.22	12.391
548.56	13.019
548.90	12.036
549.24	12.121
549.58	12.483
549.92	13.118
550.26	13.494
550.60	12.586
550.94	12.465
551.28	12.509
551.62	13.228
551.96	12.491
552.30	13.174
552.64	12.847
552.98	13.017
553.32	13.014
553.66	13.156
554.00	13.040
554.34	14.010
554.68	13.734
555.02	13.188
555.36	13.779
555.69	12.720
556.03	12.719
556.37	12.142
556.71	12.688
557.05	12.815
557.39	12.596
557.73	12.985
558.07	12.835
558.41	13.242
558.75	12.932
559.08	13.647
559.42	12.547
559.76	13.603
560.10	12.777
560.44	13.138
560.78	12.442
561.12	12.665
561.45	13.364
561.79	12.722
562.13	13.347
562.47	13.046
562.81	13.459
563.15	13.846
563.48	13.594
563.82	13.112
564.16	13.604
564.50	12.109
564.84	12.516
565.17	12.420
565.51	13.291
565.85	13.135
566.19	12.461
566.52	12.666
566.86	11.995
567.20	12.087
567.54	12.329
567.88	12.004
568.21	11.799
568.55	12.235
568.89	11.284
569.23	11.096
569.56	11.012
569.90	10.528
570.24	10.585
570.57	10.643
570.91	10.310
571.25	9.914
571.59	10.221
571.92	10.023
572.26	10.196
572.60	10.270
572.93	10.495
573.27	10.559
573.61	10.162
573.95	10.439
574.28	9.573
574.62	9.694
574.96	10.012
575.29	10.039
575.63	9.832
575.97	10.154
576.30	10.409
576.64	9.932
576.98	10.039
577.31	9.727
577.65	9.663
577.98	9.731
578.32	9.392
578.66	9.958
578.99	9.678
579.33	9.804
579.67	9.779
580.00	9.710
580.34	9.967
580.67	9.738
581.01	10.119
581.35	9.716
581.68	9.522
582.02	9.533
582.35	9.331
582.69	9.361
583.02	9.856
583.36	10.030
583.70	10.240
584.03	10.110
584.37	10.514
584.70	10.005
585.04	10.054
585.37	10.089
585.71	10.268
586.04	10.123
586.38	10.110
586.72	10.577
587.05	10.486
587.39	10.185
587.72	10.461
588.06	10.352
588.39	10.370
588.73	10.414
589.06	11.000
589.40	10.842
589.73	11.088
590.07	11.210
590.40	10.924
590.73	10.773
591.07	11.803
591.40	11.767
591.74	12.035
592.07	11.126
592.41	11.699
592.74	11.086
593.08	10.726
593.41	10.693
593.75	10.369
594.08	10.929
594.41	10.887
594.75	10.980
595.08	11.346
595.42	11.208
595.75	11.182
596.09	11.491
596.42	12.220
596.75	11.946
597.09	12.121
597.42	10.961
597.75	11.729
598.09	11.565
598.42	11.512
598.76	11.309
599.09	10.528
599.42	11.026
599.76	11.310
600.09	10.601
600.42	10.738
600.76	10.786
601.09	10.747
601.42	11.111
601.76	11.271
602.09	11.186
602.42	11.146
602.76	11.608
603.09	11.172
603.42	11.870
603.76	11.280
604.09	10.314
604.42	11.007
604.76	11.936
605.09	11.315
605.42	11.629
605.75	11.921
606.09	11.061
606.42	11.483
606.75	11.779
607.09	11.260
607.42	11.510
607.75	10.844
608.08	11.376
608.42	11.833
608.75	11.452
609.08	11.563
609.41	12.327
609.75	11.625
610.08	12.394
610.41	11.499
610.74	11.873
611.07	11.957
611.41	11.531
611.74	12.770
612.07	12.060
612.40	12.120
612.73	12.000
613.07	12.823
613.40	12.480
613.73	11.432
614.06	11.989
614.39	12.847
614.72	11.947
615.06	12.342
615.39	12.527
615.72	12.117
616.05	12.174
616.38	12.729
616.71	13.302
617.05	13.604
617.38	12.748
617.71	12.793
618.04	13.041
618.37	12.596
618.70	13.752
619.03	14.145
619.36	12.695
619.69	13.310
620.03	13.736
620.36	13.904
620.69	13.973
621.02	13.717
621.35	13.078
621.68	13.318
622.01	13.932
622.34	14.145
622.67	14.601
623.00	13.500
623.33	12.938
623.66	13.510
623.99	13.181
624.32	13.267
624.65	14.407
624.99	13.739
625.32	13.686
625.65	13.599
625.98	14.912
626.31	15.397
626.64	15.592
626.97	14.547
627.30	14.963
627.63	15.505
627.96	15.223
628.29	15.836
628.62	15.096
628.95	15.849
629.28	15.967
629.61	15.949
629.94	16.000
630.26	14.204
630.59	14.967
630.92	16.667
631.25	15.499
631.58	16.416
631.91	15.314
632.24	15.717
632.57	16.159
632.90	15.899
633.23	16.219
633.56	17.401
633.89	18.233
634.22	16.459
634.55	15.740
634.88	17.126
635.20	17.443
635.53	17.470
635.86	19.183
636.19	15.882
636.52	16.494
636.85	17.297
637.18	16.014
637.51	17.730
637.83	16.276
638.16	17.391
638.49	17.884
638.82	18.584
639.15	17.500
639.48	17.207
639.81	19.169
640.13	18.359
640.46	19.732
640.79	19.022
641.12	16.369
641.45	17.179
641.77	18.999
642.10	18.421
642.43	17.267
642.76	18.885
643.09	19.325
643.41	17.602
643.74	19.753
644.07	18.598
644.40	22.546
644.73	21.260
645.05	18.859
645.38	19.273
645.71	19.807
646.04	21.262
646.36	21.202
646.69	22.241
647.02	22.449
647.35	21.993
647.67	20.177
648.00	22.114
648.33	18.317
648.66	18.485
648.98	19.340
649.31	18.984
649.64	18.236
649.96	18.480
650.29	21.169
650.62	17.799
650.94	20.421
651.27	22.128
651.60	21.131
651.92	17.572
652.25	18.078
652.58	18.692
652.90	20.063
653.23	18.490
653.56	17.323
653.88	18.384
654.21	21.485
654.54	19.967
654.86	18.069
655.19	16.216
655.52	11.417
655.84	8.549
656.17	10.563
656.49	14.060
656.82	14.285
657.15	10.982
657.47	8.181
657.80	6.608
658.13	6.855
658.45	10.562
658.78	10.740
659.10	11.919
659.43	12.355
659.75	13.577
660.08	15.190
660.41	17.039
660.73	20.712
661.06	19.427
661.38	22.545
661.71	23.077
662.03	22.682
662.36	20.676
662.68	22.289
663.01	22.828
663.33	22.293
663.66	22.059
663.98	22.030
664.31	21.849
664.63	21.457
664.96	18.109
665.28	21.107
665.61	21.832
665.93	19.920
666.26	18.864
666.58	21.967
666.91	21.987
667.23	22.247
667.56	21.382
667.88	25.641
668.21	23.241
668.53	22.126
668.86	21.645
669.18	24.094
669.50	23.261
669.83	23.965
670.15	22.000
670.48	22.222
670.80	24.138
671.13	23.992
671.45	21.702
671.77	20.978
672.10	21.627
672.42	20.141
672.75	19.403
673.07	20.599
673.39	20.976
673.72	19.727
674.04	19.412
674.37	20.971
674.69	21.268
675.01	18.410
675.34	23.203
675.66	24.000
675.98	21.792
676.31	19.748
676.63	22.293
676.95	23.270
677.28	23.131
677.60	22.418
677.92	23.207
678.25	21.150
678.57	22.908
678.89	20.441
679.22	20.236
679.54	22.519
679.86	19.817
680.18	21.467
680.51	19.858
680.83	20.107
681.15	21.698
681.48	21.172
681.80	21.857
682.12	21.264
682.44	20.696
682.77	23.218
683.09	24.893
683.41	23.725
683.73	23.841
684.06	24.587
684.38	21.135
684.70	21.318
685.02	21.201
685.34	20.513
685.67	17.483
685.99	18.557
686.31	18.771
686.63	19.258
686.96	21.250
687.28	19.675
687.60	20.109
687.92	19.744
688.24	21.293
688.56	21.486
688.89	21.577
689.21	24.236
689.53	23.173
689.85	23.947
690.17	18.634
690.49	25.265
690.82	22.664
691.14	22.098
691.46	19.831
691.78	22.289
692.10	22.107
692.42	21.956
692.74	18.880
693.06	20.426
693.39	24.025
693.71	18.777
694.03	22.316
694.35	22.511
694.67	22.883
694.99	22.683
695.31	22.059
695.63	23.923
695.95	22.249
696.27	20.051
696.59	24.352
696.91	23.834
697.23	22.535
697.56	22.814
697.88	20.041
698.20	19.792
698.52	22.796
698.84	24.053
699.16	19.585
699.48	23.515
699.80	22.464
700.12	25.714
700.44	25.464
700.76	23.757
701.08	24.713
701.40	24.022
701.72	27.114
702.04	28.125
702.36	23.513
702.68	26.062
703.00	25.762
703.32	21.277
703.64	25.469
703.96	24.791
704.28	26.163
704.60	26.686
704.91	24.926
705.23	27.273
705.55	28.904
705.87	32.226
706.19	29.329
706.51	26.791
706.83	28.182
707.15	26.891
707.47	22.727
707.79	23.587
708.11	23.516
708.43	21.667
708.74	21.429
709.06	24.675
709.38	23.622
709.70	26.453
710.02	27.300
710.34	23.030
710.66	26.567
710.98	28.409
711.29	25.872
711.61	28.909
711.93	25.000
712.25	29.904
712.57	29.412
712.89	28.720
713.20	27.964
713.52	28.618
713.84	29.747
714.16	24.695
714.48	23.851
714.80	30.091
715.11	24.207
715.43	24.629
715.75	26.087
716.07	29.073
716.39	25.078
716.70	27.907
717.02	29.856
717.34	26.855
717.66	33.582
717.97	31.474
718.29	32.222
718.61	29.562
718.93	29.779
719.24	30.796
719.56	28.814
719.88	26.102
720.20	28.716
720.51	28.571
720.83	30.855
721.15	27.985
721.46	25.532
721.78	29.749
722.10	28.679
722.42	29.699
722.73	27.715
723.05	29.508
723.37	26.316
723.68	32.046
724.00	32.114
724.32	30.242
724.63	28.862
724.95	28.870
725.27	30.769
725.58	31.250
725.90	30.657
726.22	27.925
726.53	26.042
726.85	26.962
727.16	29.537
727.48	26.596
727.80	29.167
728.11	27.536
728.43	25.000
728.74	26.165
729.06	28.102
729.38	28.309
729.69	26.335
730.01	25.597
730.32	25.694
730.64	25.084
730.96	21.122
731.27	25.828
731.59	25.688
731.90	23.324
732.22	26.398
732.53	24.768
732.85	27.564
733.16	26.688
733.48	29.236
733.80	26.948
734.11	27.389
734.43	25.148
734.74	21.429
735.06	21.203
735.37	24.855
735.69	25.478
736.00	28.758
736.32	30.218
736.63	23.642
736.95	29.712
737.26	22.789
737.58	25.161
737.89	26.087
738.21	27.645
738.52	31.429
738.83	26.038
739.15	30.000
739.46	30.292
739.78	27.083
740.09	24.000
740.41	26.452
740.72	29.617
741.04	27.778
741.35	32.917
741.66	37.333
741.98	31.604
742.29	39.713
742.61	38.362
742.92	35.294
743.23	29.060
743.55	32.800
743.86	30.263
744.18	35.398
744.49	36.842
744.80	34.272
745.12	33.182
745.43	31.278
745.74	37.387
746.06	29.358
746.37	38.117
746.68	29.412
747.00	31.481
747.31	32.381
747.62	26.549
747.94	28.634
748.25	30.638
748.56	35.242
748.88	32.673
749.19	40.000
749.50	30.233
749.82	28.455
750.13	30.612
750.44	26.642
750.75	29.123
751.07	25.080
751.38	32.404
751.69	25.632
752.01	27.820
752.32	26.715
752.63	26.950
752.94	28.689
753.26	31.600
753.57	30.081
753.88	35.156
754.19	26.071
754.51	30.556
754.82	22.383
755.13	30.943
755.44	25.564
755.75	25.547
756.07	27.305
756.38	28.467
756.69	26.174
757.00	23.952
757.31	26.706
757.63	24.269
757.94	25.737
758.25	24.020
758.56	22.222
758.87	24.194
759.18	25.152
759.50	26.332
759.81	22.430
760.12	23.125
760.43	26.934
760.74	24.457
761.05	20.904
761.36	20.856
761.67	25.000
761.99	25.155
762.30	27.431
762.61	29.008
762.92	29.687
763.23	28.992
763.54	32.000
763.85	27.734
764.16	33.077
764.47	33.080
764.78	26.148
765.10	25.949
765.41	22.714
765.72	26.347
766.03	22.257
766.34	28.667
766.65	33.617
766.96	33.761
767.27	37.563
767.58	34.375
767.89	34.211
768.20	39.655
768.51	31.980
768.82	39.450
769.13	27.642
769.44	28.745
769.75	27.039
770.06	32.569
770.37	33.484
770.68	30.093
770.99	34.667
771.30	24.180
771.61	32.735
771.92	30.738
772.23	37.815
772.54	36.923
772.85	38.743
773.16	36.702
773.47	43.478
773.78	36.041
774.09	38.690
774.39	36.257
774.70	36.420
775.01	44.203
775.32	45.752
775.63	44.737
775.94	38.129
776.25	51.969
776.56	50.746
776.87	50.000
777.18	50.000
777.48	51.908
777.79	43.939
778.10	49.630
778.41	45.536
778.72	32.117
779.03	44.295
779.34	41.611
779.65	37.838
779.95	39.264
780.26	41.176
780.57	48.966
780.88	49.219
781.19	42.105
781.50	45.946
781.80	33.962
782.11	45.763
782.42	30.380
782.73	39.877
783.04	39.189
783.34	47.887
783.65	47.260
783.96	48.507
784.27	37.762
784.57	43.165
784.88	42.593
785.19	53.175
785.50	50.943
785.81	53.731
786.11	55.738
786.42	42.636
786.73	58.407
787.04	53.774
787.34	50.893
787.65	51.000
787.96	53.153
788.26	46.281
788.57	60.169
788.88	52.893
789.19	50.694
789.49	58.333
789.80	45.802
790.11	68.571
790.41	62.376
790.72	60.241
791.03	61.957
791.33	58.140
791.64	63.918
791.95	65.347
792.25	75.556
792.56	57.143
792.87	65.385
793.17	73.418
793.48	64.368
793.79	68.966
794.09	64.773
794.40	52.941
794.70	50.735
795.01	38.519
795.32	46.763
795.62	45.669
795.93	55.172
796.23	49.558
796.54	51.765
796.85	51.351
797.15	90.141
797.46	80.303
797.76	65.060
798.07	67.089
798.37	64.615
798.68	72.727
798.99	56.338
799.29	75.325
799.60	57.955
799.90	76.712
800.21	80.597
800.51	84.483
800.82	66.667
801.12	86.885
801.43	83.333
801.73	75.676
802.04	84.127
802.34	77.778
802.65	75.000
802.95	91.525
803.26	103.125
803.56	71.429
803.87	75.385
804.17	91.176
804.48	96.296
804.78	81.034
805.09	79.412
805.39	78.846
805.70	98.214
806.00	80.328
806.30	77.273
806.61	59.756
806.91	60.759
807.22	73.684
807.52	64.179
807.83	78.873
808.13	96.875
808.43	80.000
808.74	86.842
809.04	85.507
809.35	71.642
809.65	68.421
809.95	106.452
810.26	98.305
810.56	77.778
810.86	129.545
811.17	104.762
811.47	115.000
811.77	98.148
812.08	103.636
812.38	98.000
812.69	125.000
812.99	134.091
813.29	110.204
813.59	78.571
813.90	95.918
814.20	76.364
814.50	72.308
814.81	92.647
815.11	108.163
815.41	80.328
815.72	133.333
816.02	100.000
816.32	130.952
816.62	95.000
816.93	114.634
817.23	154.762
817.53	95.455
817.84	136.364
818.14	104.348
818.44	77.778
818.74	144.118
819.04	105.000
819.35	131.429
819.65	152.941
819.95	160.714
820.25	200.000
820.56	128.205
820.86	115.909
821.16	116.279
821.46	156.410
821.76	124.000
822.07	122.857
822.37	142.500
822.67	160.606
822.97	78.431
823.27	164.286
823.57	108.108
823.88	140.000
824.18	156.667
824.48	123.810
824.78	216.000
825.08	125.000
825.38	132.432
825.69	129.268
825.99	191.667
826.29	124.138
826.59	123.684
826.89	139.474
827.19	132.353
827.49	180.645
827.79	152.273
828.09	136.364
828.39	100.000
828.70	128.571
829.00	159.259
829.30	119.355
829.60	135.000
829.90	320.000
830.20	160.714
830.50	200.000
830.80	173.913
831.10	180.000
831.40	160.000
831.70	195.652
832.00	200.000
832.30	207.407
832.60	218.750
832.90	213.333
833.20	364.286
833.50	161.290
833.80	200.000
834.10	165.625
834.40	226.923
834.70	283.333
835.00	228.571
835.30	142.857
835.60	315.385
835.90	151.724
836.20	285.714
836.50	134.483
836.80	196.000
837.10	136.111
837.40	219.048
837.70	270.588
838.00	185.185
838.30	200.000
838.60	276.190
838.90	211.538
839.19	280.000
839.49	364.286
839.79	300.000
840.09	260.000
840.39	204.762
840.69	221.739
840.99	272.222
841.29	420.000
841.59	300.000
841.88	306.250
842.18	175.862
842.48	266.667
842.78	163.333
843.08	230.435
843.38	175.000
843.68	683.333
843.97	188.462
844.27	162.069
844.57	314.286
844.87	306.250
845.17	174.074
845.47	1300.000
845.76	288.889
846.06	270.588
846.36	450.000
846.66	350.000
846.96	218.750
847.25	345.455
847.55	454.545
847.85	239.130
848.15	460.000
848.44	328.571
848.74	244.444
849.04	264.706
849.34	590.000
849.63	194.737
849.93	400.000
850.23	880.000
850.53	371.429
850.82	2350.000
851.12	-4300.000
851.42	3500.000
851.71	275.000
852.01	-866.667
852.31	250.000
852.61	1366.667
852.90	247.619
853.20	220.000
853.50	311.765
853.79	247.619
854.09	225.000
854.39	281.250
854.68	151.351
854.98	167.742
855.28	133.333
855.57	203.448
855.87	185.185
856.17	173.684
856.46	240.000
856.76	252.941
857.05	203.448
857.35	212.500
857.65	313.333
857.94	204.348
858.24	215.385
858.53	235.000
858.83	222.727
859.13	320.000
859.42	0.000
859.72	600.000
860.01	463.636
860.31	222.727
860.60	278.947
860.90	213.043
861.20	511.111
861.49	508.333
861.79	-4000.000
862.08	600.000
862.38	295.238
862.67	307.692
862.97	282.353
863.26	600.000
863.56	277.778
863.85	458.333
864.15	575.000
864.44	353.333
864.74	800.000
865.03	575.000
865.33	284.211
865.62	409.091
865.92	461.538
866.21	300.000
866.51	0.000
866.80	400.000
867.10	820.000
867.39	384.615
867.69	363.636
867.98	257.895
868.27	545.455
868.57	289.474
868.86	-2800.000
869.16	275.000
869.45	1950.000
869.75	-2400.000
870.04	466.667
870.33	528.571
870.63	950.000
870.92	2200.000
871.22	685.714
871.51	276.471
871.80	219.048
872.10	321.429
>>>>>End Processed Spectral Data<<<<<
