SpectraSuite Data File
++++++++++++++++++++++++++++++++++++
Date: Wed May 13 16:46:29 PDT 2015
User: schluterlab
Dark Spectrum Present: Yes
Reference Spectrum Present: Yes
Number of Sampled Component Spectra: 1
Spectrometers: USB2E3373
Integration Time (usec): 3000 (USB2E3373)
Spectra Averaged: 3 (USB2E3373)
Boxcar Smoothing: 0 (USB2E3373)
Correct for Electrical Dark: No (USB2E3373)
Strobe/Lamp Enabled: No (USB2E3373)
Correct for Detector Non-linearity: No (USB2E3373)
Correct for Stray Light: No (USB2E3373)
Number of Pixels in Processed Spectrum: 2048
>>>>>Begin Processed Spectral Data<<<<<
178.53	0.000
178.91	-1525.000
179.29	-1275.000
179.67	-250.000
180.04	-1325.000
180.42	2450.000
180.80	980.000
181.18	-875.000
181.56	585.714
181.94	0.000
182.31	-642.857
182.69	1466.667
183.07	-612.500
183.45	-511.111
183.83	490.909
184.20	-420.000
184.58	2650.000
184.96	5200.000
185.34	-680.000
185.72	-587.500
186.09	-2450.000
186.47	2600.000
186.85	2000.000
187.23	4400.000
187.61	-1833.333
187.98	1225.000
188.36	572.727
188.74	545.455
189.12	-700.000
189.49	480.000
189.87	-4100.000
190.25	-875.000
190.63	421.429
191.00	430.769
191.38	783.333
191.76	-1050.000
192.14	1075.000
192.51	687.500
192.89	883.333
193.27	600.000
193.65	-1050.000
194.02	590.000
194.40	960.000
194.78	540.000
195.15	516.667
195.53	620.000
195.91	-2100.000
196.29	375.000
196.66	278.947
197.04	-340.000
197.42	0.000
197.79	580.000
198.17	-4200.000
198.55	642.857
198.92	637.500
199.30	780.000
199.68	0.000
200.05	327.778
200.43	771.429
200.81	5100.000
201.18	1566.667
201.56	-1566.667
201.94	511.111
202.31	588.889
202.69	408.333
203.07	510.000
203.44	0.000
203.82	1125.000
204.19	757.143
204.57	407.143
204.95	587.500
205.32	1300.000
205.70	463.636
206.08	364.286
206.45	2700.000
206.83	337.500
207.20	750.000
207.58	820.000
207.96	266.667
208.33	625.000
208.71	-650.000
209.08	600.000
209.46	633.333
209.84	500.000
210.21	-1466.667
210.59	1575.000
210.96	-475.000
211.34	2400.000
211.71	480.000
212.09	633.333
212.46	0.000
212.84	1533.333
213.22	1475.000
213.59	-5000.000
213.97	783.333
214.34	657.143
214.72	463.636
215.09	960.000
215.47	-2750.000
215.84	-2650.000
216.22	1866.667
216.59	442.857
216.97	1475.000
217.34	454.545
217.72	-500.000
218.09	0.000
218.47	-4500.000
218.84	577.778
219.22	614.286
219.59	1766.667
219.97	-628.571
220.34	1020.000
220.72	-1133.333
221.09	392.857
221.47	1450.000
221.84	-933.333
222.22	0.000
222.59	1300.000
222.97	-2100.000
223.34	1120.000
223.72	369.231
224.09	800.000
224.46	2300.000
224.84	-5100.000
225.21	-900.000
225.59	-4000.000
225.96	480.000
226.34	275.000
226.71	2650.000
227.08	562.500
227.46	450.000
227.83	-900.000
228.21	-2400.000
228.58	644.444
228.95	-2150.000
229.33	-2000.000
229.70	1400.000
230.08	814.286
230.45	-860.000
230.82	433.333
231.20	800.000
231.57	628.571
231.95	425.000
232.32	254.545
232.69	300.000
233.07	614.286
233.44	338.462
233.81	-1433.333
234.19	321.053
234.56	433.333
234.93	358.333
235.31	445.455
235.68	307.692
236.05	342.857
236.43	166.667
236.80	210.526
237.17	3900.000
237.55	219.048
237.92	189.286
238.29	219.048
238.67	167.742
239.04	179.310
239.41	136.111
239.79	113.043
240.16	111.905
240.53	111.364
240.91	105.882
241.28	88.000
241.65	110.000
242.02	76.812
242.40	82.258
242.77	65.000
243.14	69.892
243.51	61.798
243.89	49.412
244.26	53.333
244.63	48.387
245.00	37.234
245.38	39.604
245.75	41.121
246.12	29.358
246.49	43.796
246.87	46.400
247.24	46.923
247.61	35.714
247.98	30.065
248.36	27.027
248.73	31.210
249.10	31.847
249.47	28.814
249.84	29.412
250.22	31.551
250.59	30.178
250.96	26.263
251.33	31.754
251.70	29.703
252.08	25.714
252.45	25.112
252.82	21.739
253.19	27.660
253.56	21.961
253.94	22.822
254.31	21.875
254.68	22.692
255.05	21.402
255.42	23.984
255.79	22.426
256.16	27.076
256.54	16.254
256.91	22.776
257.28	16.187
257.65	17.162
258.02	17.081
258.39	17.035
258.76	17.726
259.14	18.155
259.51	16.413
259.88	13.354
260.25	17.523
260.62	14.451
260.99	15.217
261.36	20.120
261.73	14.040
262.10	12.500
262.47	17.465
262.85	14.206
263.22	13.675
263.59	15.385
263.96	15.385
264.33	19.060
264.70	16.842
265.07	16.624
265.44	13.889
265.81	12.409
266.18	13.317
266.55	14.634
266.92	13.514
267.29	15.046
267.66	11.468
268.03	12.955
268.40	12.850
268.77	12.649
269.14	13.063
269.51	14.898
269.88	15.152
270.25	13.318
270.62	12.584
270.99	13.978
271.36	13.305
271.73	11.449
272.10	11.957
272.47	12.688
272.84	13.420
273.21	14.046
273.58	10.699
273.95	11.950
274.32	12.397
274.69	11.349
275.06	10.827
275.43	12.979
275.80	10.421
276.17	10.794
276.54	12.682
276.91	10.870
277.28	10.352
277.65	12.573
278.02	12.215
278.39	10.937
278.76	11.636
279.13	10.755
279.50	11.359
279.87	10.159
280.23	11.377
280.60	10.058
280.97	11.091
281.34	11.858
281.71	11.636
282.08	11.516
282.45	11.091
282.82	10.124
283.19	8.734
283.56	10.526
283.92	11.506
284.29	10.758
284.66	9.982
285.03	11.031
285.40	9.507
285.77	10.943
286.14	10.190
286.51	12.833
286.87	10.427
287.24	10.586
287.61	10.433
287.98	11.526
288.35	10.143
288.72	10.903
289.08	10.016
289.45	7.908
289.82	9.431
290.19	10.832
290.56	9.188
290.93	8.459
291.29	10.276
291.66	10.029
292.03	11.773
292.40	10.426
292.77	9.320
293.13	8.806
293.50	10.204
293.87	10.519
294.24	8.296
294.60	7.132
294.97	8.430
295.34	9.309
295.71	10.653
296.08	9.117
296.44	8.941
296.81	7.794
297.18	10.434
297.55	7.916
297.91	8.575
298.28	9.237
298.65	9.008
299.02	9.486
299.38	8.367
299.75	7.682
300.12	9.068
300.48	8.500
300.85	8.631
301.22	8.025
301.59	8.333
301.95	9.194
302.32	7.831
302.69	8.722
303.05	7.879
303.42	6.914
303.79	8.947
304.15	7.226
304.52	7.879
304.89	7.317
305.25	8.701
305.62	10.193
305.99	8.501
306.35	8.277
306.72	9.865
307.09	9.434
307.45	10.135
307.82	9.375
308.19	9.161
308.55	9.061
308.92	8.163
309.29	7.392
309.65	8.165
310.02	8.562
310.38	8.495
310.75	8.342
311.12	8.905
311.48	9.195
311.85	8.805
312.22	8.325
312.58	8.004
312.95	8.765
313.31	9.029
313.68	8.524
314.05	10.947
314.41	8.844
314.78	9.466
315.14	9.136
315.51	8.342
315.87	9.307
316.24	10.129
316.61	9.162
316.97	9.295
317.34	8.219
317.70	10.229
318.07	9.817
318.43	9.589
318.80	10.216
319.16	10.075
319.53	9.287
319.89	9.905
320.26	11.100
320.62	10.119
320.99	11.717
321.35	9.798
321.72	11.396
322.08	11.649
322.45	11.144
322.81	10.950
323.18	11.175
323.54	10.482
323.91	10.472
324.27	10.899
324.64	9.506
325.00	10.821
325.37	11.192
325.73	11.490
326.10	11.209
326.46	11.380
326.83	12.252
327.19	10.760
327.56	10.889
327.92	10.499
328.29	11.446
328.65	10.589
329.01	10.650
329.38	11.008
329.74	11.173
330.11	11.687
330.47	12.580
330.84	13.051
331.20	11.293
331.56	11.743
331.93	11.389
332.29	11.979
332.66	11.947
333.02	11.609
333.38	12.014
333.75	12.299
334.11	11.477
334.48	12.067
334.84	11.765
335.20	11.364
335.57	11.333
335.93	10.357
336.29	10.989
336.66	11.271
337.02	10.136
337.38	11.574
337.75	12.032
338.11	10.743
338.47	11.234
338.84	11.091
339.20	9.725
339.56	12.682
339.93	10.182
340.29	11.051
340.65	10.695
341.02	12.129
341.38	10.943
341.74	10.702
342.11	10.568
342.47	10.485
342.83	11.815
343.20	11.255
343.56	11.036
343.92	10.614
344.28	10.629
344.65	11.178
345.01	9.848
345.37	9.605
345.73	11.252
346.10	10.827
346.46	10.593
346.82	10.791
347.19	10.359
347.55	11.166
347.91	11.650
348.27	11.422
348.63	10.368
349.00	10.599
349.36	11.166
349.72	9.944
350.08	10.940
350.45	10.822
350.81	10.561
351.17	11.183
351.53	10.647
351.89	10.726
352.26	11.918
352.62	11.949
352.98	11.345
353.34	10.764
353.70	9.493
354.07	11.210
354.43	10.556
354.79	10.459
355.15	11.253
355.51	11.910
355.87	9.796
356.24	11.075
356.60	11.708
356.96	11.344
357.32	11.120
357.68	10.630
358.04	11.718
358.40	11.560
358.77	11.581
359.13	10.734
359.49	11.137
359.85	10.159
360.21	11.563
360.57	12.296
360.93	11.538
361.29	10.658
361.66	10.759
362.02	10.970
362.38	11.863
362.74	10.714
363.10	10.437
363.46	11.005
363.82	9.751
364.18	11.674
364.54	12.184
364.90	12.181
365.26	11.176
365.62	11.249
365.98	10.446
366.35	11.175
366.71	11.786
367.07	10.998
367.43	10.885
367.79	11.991
368.15	12.356
368.51	11.628
368.87	11.420
369.23	11.704
369.59	12.165
369.95	10.294
370.31	12.108
370.67	12.174
371.03	12.734
371.39	12.609
371.75	12.132
372.11	11.309
372.47	13.050
372.83	12.464
373.19	11.705
373.55	11.530
373.91	13.255
374.27	12.646
374.63	12.291
374.99	11.723
375.35	11.235
375.71	12.063
376.07	12.894
376.42	12.448
376.78	12.392
377.14	11.940
377.50	12.649
377.86	12.301
378.22	12.516
378.58	11.090
378.94	12.759
379.30	11.896
379.66	12.881
380.02	12.408
380.38	12.386
380.74	13.806
381.09	12.836
381.45	13.337
381.81	13.391
382.17	13.694
382.53	12.893
382.89	13.889
383.25	11.882
383.61	13.507
383.97	14.009
384.32	13.537
384.68	13.135
385.04	13.706
385.40	13.498
385.76	14.005
386.12	13.601
386.48	14.223
386.83	14.368
387.19	14.719
387.55	13.420
387.91	13.785
388.27	13.427
388.62	14.136
388.98	13.575
389.34	14.768
389.70	14.286
390.06	15.019
390.42	14.332
390.77	14.377
391.13	13.784
391.49	15.228
391.85	14.449
392.20	13.249
392.56	14.773
392.92	13.949
393.28	13.609
393.64	14.269
393.99	14.539
394.35	14.330
394.71	14.617
395.07	14.143
395.42	13.844
395.78	14.567
396.14	14.773
396.50	15.351
396.85	15.512
397.21	15.105
397.57	14.631
397.92	14.663
398.28	13.901
398.64	14.217
399.00	14.158
399.35	13.931
399.71	14.236
400.07	14.548
400.42	14.847
400.78	14.596
401.14	14.085
401.49	14.090
401.85	14.277
402.21	13.952
402.57	13.572
402.92	14.313
403.28	14.366
403.63	14.171
403.99	14.459
404.35	13.515
404.70	14.329
405.06	14.269
405.42	14.910
405.77	13.714
406.13	13.770
406.49	14.429
406.84	14.471
407.20	13.948
407.55	14.359
407.91	14.333
408.27	14.422
408.62	14.028
408.98	14.032
409.34	13.961
409.69	14.000
410.05	13.879
410.40	13.884
410.76	13.978
411.11	14.656
411.47	14.313
411.83	13.684
412.18	14.409
412.54	14.819
412.89	14.337
413.25	14.522
413.60	14.083
413.96	13.600
414.31	14.216
414.67	14.322
415.03	14.238
415.38	14.948
415.74	14.662
416.09	15.023
416.45	14.257
416.80	15.003
417.16	15.483
417.51	15.461
417.87	14.130
418.22	14.132
418.58	14.719
418.93	15.295
419.29	14.640
419.64	14.547
420.00	14.634
420.35	14.435
420.71	14.704
421.06	14.678
421.42	14.503
421.77	15.022
422.12	14.486
422.48	13.438
422.83	14.502
423.19	14.586
423.54	14.045
423.90	14.725
424.25	14.685
424.61	14.583
424.96	15.160
425.31	14.286
425.67	13.764
426.02	14.343
426.38	14.591
426.73	14.336
427.09	14.590
427.44	14.549
427.79	14.491
428.15	14.821
428.50	14.921
428.85	15.554
429.21	13.584
429.56	14.256
429.92	13.538
430.27	14.300
430.62	13.978
430.98	13.908
431.33	13.608
431.68	14.555
432.04	14.643
432.39	14.106
432.74	15.021
433.10	14.997
433.45	14.694
433.80	13.692
434.16	13.568
434.51	15.000
434.86	14.595
435.22	15.008
435.57	15.076
435.92	14.687
436.28	14.472
436.63	15.618
436.98	14.482
437.34	15.027
437.69	14.994
438.04	14.896
438.39	14.806
438.75	15.805
439.10	14.525
439.45	14.876
439.81	14.864
440.16	14.342
440.51	14.938
440.86	15.750
441.22	14.461
441.57	14.915
441.92	15.097
442.27	14.909
442.63	14.903
442.98	14.930
443.33	14.728
443.68	14.455
444.03	14.788
444.39	13.437
444.74	15.097
445.09	14.501
445.44	14.325
445.79	14.300
446.15	15.352
446.50	14.540
446.85	14.132
447.20	14.482
447.55	14.629
447.91	14.396
448.26	14.747
448.61	14.867
448.96	14.950
449.31	14.679
449.66	14.631
450.02	14.039
450.37	14.966
450.72	14.664
451.07	14.199
451.42	14.529
451.77	15.443
452.12	15.242
452.47	14.739
452.83	15.443
453.18	15.037
453.53	15.213
453.88	14.944
454.23	15.242
454.58	15.566
454.93	16.275
455.28	15.025
455.63	15.716
455.98	15.833
456.34	15.389
456.69	15.529
457.04	14.180
457.39	14.845
457.74	15.322
458.09	14.894
458.44	15.051
458.79	14.805
459.14	15.406
459.49	14.711
459.84	14.571
460.19	14.909
460.54	15.104
460.89	15.140
461.24	15.118
461.59	15.921
461.94	15.043
462.29	15.074
462.64	15.890
462.99	15.290
463.34	16.400
463.69	14.697
464.04	15.652
464.39	15.536
464.74	14.557
465.09	15.259
465.44	14.737
465.79	15.268
466.14	14.669
466.49	14.627
466.84	15.762
467.19	15.389
467.54	15.187
467.89	15.186
468.24	15.939
468.59	15.995
468.94	15.333
469.29	15.231
469.64	15.797
469.99	15.562
470.34	15.390
470.68	15.230
471.03	15.170
471.38	16.887
471.73	15.456
472.08	15.263
472.43	14.950
472.78	15.076
473.13	15.597
473.48	15.605
473.83	15.183
474.17	14.997
474.52	14.578
474.87	15.528
475.22	15.786
475.57	15.153
475.92	14.657
476.27	14.994
476.61	15.885
476.96	14.843
477.31	14.704
477.66	15.098
478.01	15.003
478.36	14.807
478.70	14.382
479.05	14.803
479.40	14.227
479.75	14.997
480.10	14.612
480.45	13.708
480.79	14.047
481.14	14.384
481.49	14.808
481.84	14.678
482.19	13.721
482.53	14.771
482.88	14.611
483.23	14.907
483.58	14.786
483.92	14.808
484.27	13.856
484.62	14.224
484.97	13.717
485.31	13.973
485.66	12.561
486.01	12.049
486.36	11.296
486.70	11.457
487.05	12.066
487.40	12.538
487.75	12.432
488.09	13.194
488.44	13.309
488.79	13.671
489.13	13.751
489.48	14.070
489.83	13.638
490.17	14.555
490.52	13.906
490.87	14.111
491.22	14.370
491.56	13.759
491.91	14.286
492.26	13.505
492.60	14.378
492.95	14.312
493.30	13.832
493.64	14.466
493.99	13.742
494.34	14.477
494.68	14.332
495.03	14.521
495.37	14.332
495.72	14.084
496.07	14.060
496.41	13.982
496.76	14.424
497.11	14.138
497.45	14.346
497.80	13.724
498.14	14.300
498.49	14.098
498.84	14.525
499.18	14.619
499.53	14.198
499.87	14.259
500.22	13.990
500.56	15.097
500.91	14.904
501.26	14.130
501.60	13.669
501.95	13.566
502.29	14.386
502.64	14.292
502.98	13.932
503.33	14.671
503.67	14.664
504.02	13.985
504.36	14.693
504.71	14.167
505.06	14.361
505.40	14.633
505.75	14.176
506.09	14.140
506.44	14.356
506.78	14.759
507.13	14.437
507.47	14.848
507.82	14.792
508.16	14.944
508.51	14.916
508.85	14.697
509.19	14.694
509.54	15.459
509.88	15.095
510.23	14.499
510.57	15.583
510.92	14.707
511.26	14.851
511.61	15.456
511.95	14.823
512.30	15.058
512.64	14.777
512.98	15.916
513.33	14.989
513.67	15.101
514.02	14.989
514.36	15.838
514.70	15.163
515.05	15.114
515.39	15.648
515.74	15.541
516.08	15.595
516.42	15.871
516.77	16.611
517.11	16.038
517.46	15.576
517.80	17.364
518.14	15.055
518.49	16.278
518.83	16.250
519.17	15.589
519.52	15.903
519.86	16.030
520.20	16.358
520.55	16.517
520.89	17.153
521.23	16.647
521.58	16.627
521.92	16.840
522.26	16.229
522.61	15.888
522.95	16.513
523.29	15.277
523.64	16.707
523.98	16.266
524.32	16.647
524.66	16.236
525.01	16.422
525.35	16.914
525.69	16.133
526.04	16.511
526.38	16.656
526.72	16.258
527.06	16.447
527.41	15.470
527.75	16.913
528.09	16.635
528.43	17.400
528.78	17.271
529.12	16.727
529.46	16.901
529.80	16.522
530.15	17.196
530.49	16.554
530.83	16.962
531.17	17.493
531.51	17.445
531.86	17.290
532.20	17.080
532.54	17.745
532.88	16.752
533.22	15.928
533.57	16.975
533.91	17.279
534.25	16.525
534.59	17.084
534.93	16.657
535.27	16.174
535.62	17.216
535.96	17.640
536.30	16.720
536.64	17.708
536.98	16.457
537.32	17.117
537.66	16.400
538.01	17.512
538.35	17.130
538.69	17.613
539.03	16.959
539.37	15.911
539.71	15.360
540.05	15.948
540.39	16.877
540.73	16.041
541.07	17.326
541.42	16.569
541.76	17.419
542.10	17.012
542.44	17.285
542.78	17.721
543.12	16.315
543.46	17.115
543.80	16.786
544.14	15.597
544.48	16.698
544.82	15.715
545.16	15.940
545.50	15.874
545.84	16.868
546.18	16.633
546.52	16.655
546.86	17.182
547.20	16.993
547.54	16.299
547.88	17.538
548.22	16.625
548.56	16.101
548.90	16.133
549.24	15.623
549.58	17.599
549.92	16.827
550.26	16.832
550.60	16.736
550.94	16.549
551.28	15.801
551.62	16.822
551.96	16.070
552.30	17.065
552.64	16.836
552.98	16.610
553.32	17.127
553.66	16.905
554.00	16.541
554.34	17.184
554.68	17.597
555.02	17.489
555.36	16.701
555.69	15.426
556.03	15.814
556.37	16.508
556.71	16.985
557.05	16.947
557.39	17.355
557.73	16.937
558.07	16.026
558.41	16.715
558.75	16.826
559.08	16.555
559.42	16.629
559.76	16.765
560.10	15.703
560.44	16.282
560.78	15.103
561.12	15.897
561.45	16.819
561.79	15.425
562.13	16.566
562.47	16.257
562.81	16.527
563.15	16.522
563.48	17.109
563.82	15.851
564.16	15.958
564.50	14.974
564.84	15.866
565.17	15.766
565.51	16.358
565.85	15.736
566.19	15.466
566.52	15.959
566.86	15.491
567.20	15.684
567.54	15.468
567.88	14.883
568.21	15.926
568.55	14.459
568.89	14.932
569.23	14.528
569.56	14.211
569.90	13.962
570.24	13.886
570.57	13.669
570.91	13.542
571.25	13.218
571.59	13.137
571.92	13.134
572.26	13.027
572.60	13.754
572.93	13.193
573.27	13.132
573.61	13.345
573.95	12.894
574.28	12.513
574.62	12.658
574.96	12.736
575.29	12.803
575.63	12.779
575.97	12.913
576.30	13.091
576.64	12.712
576.98	12.615
577.31	12.384
577.65	12.313
577.98	12.224
578.32	11.894
578.66	12.243
578.99	12.760
579.33	12.781
579.67	12.746
580.00	12.899
580.34	12.909
580.67	12.668
581.01	12.885
581.35	12.211
581.68	12.237
582.02	11.824
582.35	11.790
582.69	12.261
583.02	12.346
583.36	12.267
583.70	12.862
584.03	13.036
584.37	13.096
584.70	13.062
585.04	13.381
585.37	12.954
585.71	12.782
586.04	12.998
586.38	12.513
586.72	13.146
587.05	12.605
587.39	12.665
587.72	13.115
588.06	12.940
588.39	12.675
588.73	13.171
589.06	13.400
589.40	13.199
589.73	13.481
590.07	13.772
590.40	13.518
590.73	14.130
591.07	14.245
591.40	14.804
591.74	14.935
592.07	14.267
592.41	14.345
592.74	13.221
593.08	12.925
593.41	13.002
593.75	12.992
594.08	13.443
594.41	13.397
594.75	13.346
595.08	13.350
595.42	13.800
595.75	13.426
596.09	13.857
596.42	14.263
596.75	14.141
597.09	14.199
597.42	13.449
597.75	13.368
598.09	13.739
598.42	13.832
598.76	13.093
599.09	13.303
599.42	12.773
599.76	13.067
600.09	13.297
600.42	13.294
600.76	13.071
601.09	12.641
601.42	13.394
601.76	13.548
602.09	13.241
602.42	13.615
602.76	13.906
603.09	13.651
603.42	13.745
603.76	13.529
604.09	13.339
604.42	13.168
604.76	13.834
605.09	13.630
605.42	13.638
605.75	13.866
606.09	13.054
606.42	13.895
606.75	13.521
607.09	14.023
607.42	13.864
607.75	13.165
608.08	13.200
608.42	14.209
608.75	13.210
609.08	13.737
609.41	14.612
609.75	13.816
610.08	14.750
610.41	13.641
610.74	14.096
611.07	14.229
611.41	14.671
611.74	14.228
612.07	13.923
612.40	14.795
612.73	13.632
613.07	13.955
613.40	14.481
613.73	13.791
614.06	14.570
614.39	14.473
614.72	14.684
615.06	14.128
615.39	14.066
615.72	14.366
616.05	14.195
616.38	14.508
616.71	14.192
617.05	15.077
617.38	14.853
617.71	14.535
618.04	15.445
618.37	15.080
618.70	15.557
619.03	15.526
619.36	15.207
619.69	15.423
620.03	15.385
620.36	15.374
620.69	16.027
621.02	16.224
621.35	15.192
621.68	16.589
622.01	15.867
622.34	16.490
622.67	15.437
623.00	15.407
623.33	15.297
623.66	15.726
623.99	15.758
624.32	15.835
624.65	15.607
624.99	14.306
625.32	15.351
625.65	16.078
625.98	15.757
626.31	16.252
626.64	17.224
626.97	17.290
627.30	17.789
627.63	17.227
627.96	15.980
628.29	17.410
628.62	17.109
628.95	17.642
629.28	17.245
629.61	18.240
629.94	18.571
630.26	16.873
630.59	16.969
630.92	17.337
631.25	17.769
631.58	17.718
631.91	17.140
632.24	17.089
632.57	18.048
632.90	18.421
633.23	17.562
633.56	18.757
633.89	18.233
634.22	17.707
634.55	19.172
634.88	17.126
635.20	16.965
635.53	18.554
635.86	18.193
636.19	18.235
636.52	18.224
636.85	18.442
637.18	17.512
637.51	18.913
637.83	16.153
638.16	19.182
638.49	18.892
638.82	18.963
639.15	19.125
639.48	20.200
639.81	17.560
640.13	19.271
640.46	18.389
640.79	17.834
641.12	18.569
641.45	18.855
641.77	19.440
642.10	19.006
642.43	20.721
642.76	19.350
643.09	21.166
643.41	19.423
643.74	21.296
644.07	18.445
644.40	22.546
644.73	20.787
645.05	22.504
645.38	21.011
645.71	20.934
646.04	21.761
646.36	20.367
646.69	22.074
647.02	20.748
647.35	21.649
647.67	21.062
648.00	19.675
648.33	19.967
648.66	18.636
648.98	20.840
649.31	19.731
649.64	18.834
649.96	18.778
650.29	19.747
650.62	19.579
650.94	20.908
651.27	22.128
651.60	21.631
651.92	20.927
652.25	20.033
652.58	19.470
652.90	19.905
653.23	18.028
653.56	19.528
653.88	19.493
654.21	21.169
654.54	20.627
654.86	19.938
655.19	18.784
655.52	12.433
655.84	9.362
656.17	11.463
656.49	15.723
656.82	16.398
657.15	12.754
657.47	9.615
657.80	7.770
658.13	8.019
658.45	12.595
658.78	13.024
659.10	13.927
659.43	14.568
659.75	15.409
660.08	16.899
660.41	20.019
660.73	21.093
661.06	19.108
661.38	23.636
661.71	23.269
662.03	23.866
662.36	22.068
662.68	20.482
663.01	22.828
663.33	23.567
663.66	24.580
663.98	22.462
664.31	21.218
664.63	22.874
664.96	20.322
665.28	23.566
665.61	21.248
665.93	23.340
666.26	22.110
666.58	21.130
666.91	24.524
667.23	23.820
667.56	22.246
667.88	24.573
668.21	22.388
668.53	23.427
668.86	22.727
669.18	25.160
669.50	24.130
669.83	25.708
670.15	23.333
670.48	20.915
670.80	21.983
671.13	24.416
671.45	19.574
671.77	21.792
672.10	21.072
672.42	22.261
672.75	20.398
673.07	19.014
673.39	22.604
673.72	20.703
674.04	22.745
674.37	23.107
674.69	21.063
675.01	21.339
675.34	24.435
675.66	24.421
675.98	25.662
676.31	24.580
676.63	23.355
676.95	22.851
677.28	21.729
677.60	22.418
677.92	23.840
678.25	24.025
678.57	21.912
678.89	22.244
679.22	20.629
679.54	21.947
679.86	21.284
680.18	20.036
680.51	21.631
680.83	21.530
681.15	23.962
681.48	23.629
681.80	20.503
682.12	19.923
682.44	21.083
682.77	21.792
683.09	23.391
683.41	25.499
683.73	23.400
684.06	22.934
684.38	23.679
684.70	22.287
685.02	21.013
685.34	23.443
685.67	19.231
685.99	20.103
686.31	19.795
686.63	18.375
686.96	19.464
687.28	22.022
687.60	20.109
687.92	21.024
688.24	21.293
688.56	24.096
688.89	22.614
689.21	23.144
689.53	23.591
689.85	23.725
690.17	21.739
690.49	23.992
690.82	22.897
691.14	20.982
691.46	21.519
691.78	22.892
692.10	21.281
692.42	21.756
692.74	23.651
693.06	21.064
693.39	22.382
693.71	21.179
694.03	22.526
694.35	22.727
694.67	21.739
694.99	24.390
695.31	23.039
695.63	22.488
695.95	23.961
696.27	24.365
696.59	24.093
696.91	24.611
697.23	21.362
697.56	21.535
697.88	18.814
698.20	21.250
698.52	24.516
698.84	24.053
699.16	20.737
699.48	23.278
699.80	25.362
700.12	26.234
700.44	25.995
700.76	26.796
701.08	25.287
701.40	25.140
701.72	27.114
702.04	31.250
702.36	23.796
702.68	28.612
703.00	23.269
703.32	24.202
703.64	25.201
703.96	23.955
704.28	26.453
704.60	31.378
704.91	25.816
705.23	26.393
705.55	27.575
705.87	33.223
706.19	24.735
706.51	29.283
706.83	29.697
707.15	26.331
707.47	24.242
707.79	24.324
708.11	24.201
708.43	22.857
708.74	23.214
709.06	23.377
709.38	26.509
709.70	27.616
710.02	25.816
710.34	26.667
710.66	26.866
710.98	26.136
711.29	26.453
711.61	29.499
711.93	30.128
712.25	30.225
712.57	29.044
712.89	29.412
713.20	27.660
713.52	28.947
713.84	29.114
714.16	26.524
714.48	25.287
714.80	28.267
715.11	24.207
715.43	25.816
715.75	26.377
716.07	23.323
716.39	27.586
716.70	25.914
717.02	33.813
717.34	30.742
717.66	30.597
717.97	33.865
718.29	29.259
718.61	34.672
718.93	30.515
719.24	26.298
719.56	28.475
719.88	32.542
720.20	30.743
720.51	32.753
720.83	33.829
721.15	24.254
721.46	26.596
721.78	30.108
722.10	29.434
722.42	32.331
722.73	31.835
723.05	32.377
723.37	29.555
723.68	31.660
724.00	30.081
724.32	30.645
724.63	28.862
724.95	30.544
725.27	30.364
725.58	31.250
725.90	34.307
726.22	31.321
726.53	28.819
726.85	30.717
727.16	30.961
727.48	27.660
727.80	30.682
728.11	26.449
728.43	25.000
728.74	27.599
729.06	30.292
729.38	32.353
729.69	31.673
730.01	29.010
730.32	24.306
730.64	29.097
730.96	23.762
731.27	28.808
731.59	27.523
731.90	23.907
732.22	27.329
732.53	24.149
732.85	27.244
733.16	29.260
733.48	27.575
733.80	25.325
734.11	25.796
734.43	25.444
734.74	24.286
735.06	23.782
735.37	27.168
735.69	26.752
736.00	27.451
736.32	28.972
736.63	25.879
736.95	26.837
737.26	24.150
737.58	25.484
737.89	27.090
738.21	27.645
738.52	31.071
738.83	26.792
739.15	26.923
739.46	28.832
739.78	26.389
740.09	28.615
740.41	28.065
740.72	26.829
741.04	27.037
741.35	27.917
741.66	32.444
741.98	28.302
742.29	34.450
742.61	35.776
742.92	30.769
743.23	31.197
743.55	33.600
743.86	34.649
744.18	37.168
744.49	42.584
744.80	36.150
745.12	35.455
745.43	33.480
745.74	41.892
746.06	35.780
746.37	34.081
746.68	32.127
747.00	36.111
747.31	33.810
747.62	33.628
747.94	32.599
748.25	31.489
748.56	37.445
748.88	32.178
749.19	40.000
749.50	33.023
749.82	26.016
750.13	33.061
750.44	28.102
750.75	29.825
751.07	31.190
751.38	29.965
751.69	29.603
752.01	31.955
752.32	25.632
752.63	31.560
752.94	25.410
753.26	31.600
753.57	28.455
753.88	33.203
754.19	27.857
754.51	30.208
754.82	28.520
755.13	27.170
755.44	26.316
755.75	25.547
756.07	30.851
756.38	22.993
756.69	29.195
757.00	26.946
757.31	23.739
757.63	24.269
757.94	21.984
758.25	22.794
758.56	20.741
758.87	21.774
759.18	26.061
759.50	26.019
759.81	23.988
760.12	24.375
760.43	25.501
760.74	25.272
761.05	24.859
761.36	21.123
761.67	26.705
761.99	27.329
762.30	26.736
762.61	27.099
762.92	28.906
763.23	27.311
763.54	31.200
763.85	27.344
764.16	33.462
764.47	30.038
764.78	27.562
765.10	24.684
765.41	26.844
765.72	26.347
766.03	22.884
766.34	26.000
766.65	33.617
766.96	32.051
767.27	34.010
767.58	40.104
767.89	38.947
768.20	50.575
768.51	34.010
768.82	30.275
769.13	26.829
769.44	33.198
769.75	27.468
770.06	30.734
770.37	34.389
770.68	32.407
770.99	32.444
771.30	27.459
771.61	33.184
771.92	31.148
772.23	33.613
772.54	30.256
772.85	41.361
773.16	35.106
773.47	35.870
773.78	33.503
774.09	35.714
774.39	46.199
774.70	35.802
775.01	43.478
775.32	43.791
775.63	42.763
775.94	44.604
776.25	53.543
776.56	49.254
776.87	46.721
777.18	46.875
777.48	51.145
777.79	49.242
778.10	54.815
778.41	48.214
778.72	39.416
779.03	44.966
779.34	48.322
779.65	42.568
779.95	33.742
780.26	43.791
780.57	44.138
780.88	51.562
781.19	46.617
781.50	46.622
781.80	45.912
782.11	36.723
782.42	31.013
782.73	41.104
783.04	46.622
783.34	52.113
783.65	50.000
783.96	48.507
784.27	49.650
784.57	40.288
784.88	43.519
785.19	57.143
785.50	51.887
785.81	55.224
786.11	51.639
786.42	57.364
786.73	46.903
787.04	61.321
787.34	59.821
787.65	56.000
787.96	61.261
788.26	53.719
788.57	53.390
788.88	54.545
789.19	49.306
789.49	57.576
789.80	53.435
790.11	66.667
790.41	56.436
790.72	67.470
791.03	57.609
791.33	65.116
791.64	58.763
791.95	66.337
792.25	81.111
792.56	70.130
792.87	88.462
793.17	83.544
793.48	67.816
793.79	63.218
794.09	65.909
794.40	51.261
794.70	61.029
795.01	42.222
795.32	48.201
795.62	48.819
795.93	52.586
796.23	57.522
796.54	61.176
796.85	67.568
797.15	94.366
797.46	84.848
797.76	71.084
798.07	58.228
798.37	80.000
798.68	71.212
798.99	69.014
799.29	68.831
799.60	62.500
799.90	76.712
800.21	86.567
800.51	96.552
800.82	96.491
801.12	100.000
801.43	80.303
801.73	66.216
802.04	88.889
802.34	79.012
802.65	79.687
802.95	88.136
803.26	92.188
803.56	58.571
803.87	75.385
804.17	91.176
804.48	100.000
804.78	98.276
805.09	95.588
805.39	84.615
805.70	83.929
806.00	91.803
806.30	74.242
806.61	73.171
806.91	70.886
807.22	68.421
807.52	64.179
807.83	87.324
808.13	93.750
808.43	91.667
808.74	75.000
809.04	86.957
809.35	88.060
809.65	67.105
809.95	95.161
810.26	89.831
810.56	100.000
810.86	131.818
811.17	140.476
811.47	96.667
811.77	92.593
812.08	112.727
812.38	108.000
812.69	147.222
812.99	122.727
813.29	118.367
813.59	104.762
813.90	132.653
814.20	101.818
814.50	87.692
814.81	92.647
815.11	104.082
815.41	96.721
815.72	121.429
816.02	101.818
816.32	102.381
816.62	105.000
816.93	117.073
817.23	116.667
817.53	115.909
817.84	139.394
818.14	136.957
818.44	122.222
818.74	161.765
819.04	125.000
819.35	140.000
819.65	138.235
819.95	146.429
820.25	215.000
820.56	135.897
820.86	129.545
821.16	118.605
821.46	153.846
821.76	144.000
822.07	108.571
822.37	140.000
822.67	136.364
822.97	115.686
823.27	196.429
823.57	162.162
823.88	145.000
824.18	176.667
824.48	126.190
824.78	212.000
825.08	166.667
825.38	151.351
825.69	134.146
825.99	183.333
826.29	144.828
826.59	144.737
826.89	136.842
827.19	150.000
827.49	170.968
827.79	129.545
828.09	106.818
828.39	129.787
828.70	114.286
829.00	137.037
829.30	148.387
829.60	135.000
829.90	346.667
830.20	175.000
830.50	200.000
830.80	208.696
831.10	163.333
831.40	146.667
831.70	186.957
832.00	226.923
832.30	188.889
832.60	256.250
832.90	216.667
833.20	357.143
833.50	177.419
833.80	168.966
834.10	153.125
834.40	219.231
834.70	238.889
835.00	300.000
835.30	160.000
835.60	307.692
835.90	200.000
836.20	307.143
836.50	196.552
836.80	140.000
837.10	158.333
837.40	280.952
837.70	294.118
838.00	196.296
838.30	209.524
838.60	252.381
838.90	219.231
839.19	190.000
839.49	357.143
839.79	255.000
840.09	280.000
840.39	271.429
840.69	195.652
840.99	316.667
841.29	470.000
841.59	283.333
841.88	312.500
842.18	179.310
842.48	209.524
842.78	206.667
843.08	252.174
843.38	143.750
843.68	750.000
843.97	226.923
844.27	158.621
844.57	285.714
844.87	362.500
845.17	196.296
845.47	1633.333
845.76	411.111
846.06	329.412
846.36	600.000
846.66	335.714
846.96	206.250
847.25	418.182
847.55	336.364
847.85	204.348
848.15	500.000
848.44	371.429
848.74	261.111
849.04	264.706
849.34	440.000
849.63	257.895
849.93	390.909
850.23	700.000
850.53	464.286
850.82	2200.000
851.12	-3500.000
851.42	4400.000
851.71	285.000
852.01	-966.667
852.31	275.000
852.61	1700.000
852.90	257.143
853.20	236.000
853.50	264.706
853.79	238.095
854.09	191.667
854.39	250.000
854.68	143.243
854.98	183.871
855.28	176.667
855.57	175.862
855.87	188.889
856.17	263.158
856.46	246.667
856.76	264.706
857.05	193.103
857.35	191.667
857.65	266.667
857.94	239.130
858.24	200.000
858.53	305.000
858.83	245.455
859.13	400.000
859.42	0.000
859.72	533.333
860.01	445.455
860.31	245.455
860.60	315.789
860.90	195.652
861.20	566.667
861.49	458.333
861.79	-4100.000
862.08	575.000
862.38	266.667
862.67	253.846
862.97	364.706
863.26	544.444
863.56	283.333
863.85	358.333
864.15	462.500
864.44	313.333
864.74	700.000
865.03	687.500
865.33	273.684
865.62	372.727
865.92	346.154
866.21	400.000
866.51	0.000
866.80	445.455
867.10	940.000
867.39	507.692
867.69	381.818
867.98	242.105
868.27	390.909
868.57	321.053
868.86	-3700.000
869.16	337.500
869.45	2400.000
869.75	-2900.000
870.04	450.000
870.33	614.286
870.63	925.000
870.92	2450.000
871.22	685.714
871.51	358.824
871.80	219.048
872.10	328.571
>>>>>End Processed Spectral Data<<<<<
