SpectraSuite Data File
++++++++++++++++++++++++++++++++++++
Date: Wed May 13 16:13:25 PDT 2015
User: schluterlab
Dark Spectrum Present: Yes
Reference Spectrum Present: Yes
Number of Sampled Component Spectra: 1
Spectrometers: USB2E3373
Integration Time (usec): 3000 (USB2E3373)
Spectra Averaged: 3 (USB2E3373)
Boxcar Smoothing: 0 (USB2E3373)
Correct for Electrical Dark: No (USB2E3373)
Strobe/Lamp Enabled: No (USB2E3373)
Correct for Detector Non-linearity: No (USB2E3373)
Correct for Stray Light: No (USB2E3373)
Number of Pixels in Processed Spectrum: 2048
>>>>>Begin Processed Spectral Data<<<<<
178.53	0.000
178.91	-975.000
179.29	-875.000
179.67	-144.444
180.04	-675.000
180.42	2000.000
180.80	900.000
181.18	-825.000
181.56	685.714
181.94	0.000
182.31	-428.571
182.69	1100.000
183.07	-437.500
183.45	-388.889
183.83	427.273
184.20	-280.000
184.58	1800.000
184.96	4500.000
185.34	-520.000
185.72	-400.000
186.09	-2050.000
186.47	2200.000
186.85	1850.000
187.23	2800.000
187.61	-1200.000
187.98	925.000
188.36	463.636
188.74	409.091
189.12	-540.000
189.49	540.000
189.87	-3200.000
190.25	-825.000
190.63	385.714
191.00	292.308
191.38	700.000
191.76	-825.000
192.14	1275.000
192.51	487.500
192.89	750.000
193.27	375.000
193.65	-925.000
194.02	480.000
194.40	640.000
194.78	390.000
195.15	441.667
195.53	510.000
195.91	-1900.000
196.29	275.000
196.66	226.316
197.04	-260.000
197.42	0.000
197.79	430.000
198.17	-3500.000
198.55	357.143
198.92	662.500
199.30	820.000
199.68	0.000
200.05	300.000
200.43	614.286
200.81	3300.000
201.18	1333.333
201.56	-1300.000
201.94	411.111
202.31	522.222
202.69	341.667
203.07	460.000
203.44	0.000
203.82	950.000
204.19	685.714
204.57	407.143
204.95	437.500
205.32	1233.333
205.70	372.727
206.08	371.429
206.45	1950.000
206.83	256.250
207.20	800.000
207.58	680.000
207.96	283.333
208.33	525.000
208.71	-633.333
209.08	685.714
209.46	455.556
209.84	400.000
210.21	-1200.000
210.59	1050.000
210.96	-262.500
211.34	1850.000
211.71	450.000
212.09	650.000
212.46	0.000
212.84	1100.000
213.22	975.000
213.59	-4000.000
213.97	816.667
214.34	557.143
214.72	472.727
215.09	680.000
215.47	-1950.000
215.84	-1850.000
216.22	1400.000
216.59	228.571
216.97	925.000
217.34	272.727
217.72	-600.000
218.09	0.000
218.47	-4100.000
218.84	377.778
219.22	614.286
219.59	1166.667
219.97	-285.714
220.34	640.000
220.72	-1166.667
221.09	257.143
221.47	975.000
221.84	-666.667
222.22	0.000
222.59	775.000
222.97	-1850.000
223.34	880.000
223.72	346.154
224.09	800.000
224.46	1450.000
224.84	-3100.000
225.21	-880.000
225.59	-4800.000
225.96	570.000
226.34	265.000
226.71	2000.000
227.08	462.500
227.46	400.000
227.83	-700.000
228.21	-1450.000
228.58	477.778
228.95	-1500.000
229.33	-1600.000
229.70	966.667
230.08	600.000
230.45	-600.000
230.82	316.667
231.20	683.333
231.57	400.000
231.95	441.667
232.32	181.818
232.69	281.818
233.07	457.143
233.44	323.077
233.81	-1233.333
234.19	231.579
234.56	383.333
234.93	291.667
235.31	409.091
235.68	292.308
236.05	257.143
236.43	163.636
236.80	194.737
237.17	4400.000
237.55	171.429
237.92	178.571
238.29	204.762
238.67	148.387
239.04	186.207
239.41	152.778
239.79	100.000
240.16	123.810
240.53	138.636
240.91	103.922
241.28	112.000
241.65	106.000
242.02	88.406
242.40	88.710
242.77	101.667
243.14	69.892
243.51	75.281
243.89	70.588
244.26	70.000
244.63	62.366
245.00	58.511
245.38	67.327
245.75	61.682
246.12	51.376
246.49	64.964
246.87	63.200
247.24	70.769
247.61	60.000
247.98	56.863
248.36	56.757
248.73	52.866
249.10	54.777
249.47	59.322
249.84	56.684
250.22	50.802
250.59	57.988
250.96	51.515
251.33	48.815
251.70	49.010
252.08	51.429
252.45	47.085
252.82	46.957
253.19	50.213
253.56	44.706
253.94	50.622
254.31	46.875
254.68	49.231
255.05	46.863
255.42	47.154
255.79	50.368
256.16	46.931
256.54	43.110
256.91	45.907
257.28	40.647
257.65	42.574
258.02	42.547
258.39	41.325
258.76	45.485
259.14	44.345
259.51	41.337
259.88	39.441
260.25	41.088
260.62	39.595
260.99	42.547
261.36	43.844
261.73	42.120
262.10	38.663
262.47	41.127
262.85	37.604
263.22	38.746
263.59	45.584
263.96	40.110
264.33	39.164
264.70	39.211
265.07	43.223
265.44	40.657
265.81	38.200
266.18	37.688
266.55	40.244
266.92	37.592
267.29	40.972
267.66	39.450
268.03	40.455
268.40	37.617
268.77	40.095
269.14	37.838
269.51	39.955
269.88	38.928
270.25	42.212
270.62	39.326
270.99	41.505
271.36	37.554
271.73	37.850
272.10	37.609
272.47	38.925
272.84	37.879
273.21	38.784
273.58	37.336
273.95	36.478
274.32	34.917
274.69	38.758
275.06	37.402
275.43	37.660
275.80	35.471
276.17	38.289
276.54	39.085
276.91	36.364
277.28	37.305
277.65	34.816
278.02	36.232
278.39	38.281
278.76	37.091
279.13	35.472
279.50	35.940
279.87	35.657
280.23	35.928
280.60	36.944
280.97	36.229
281.34	36.991
281.71	35.273
282.08	37.236
282.45	33.091
282.82	38.899
283.19	32.977
283.56	35.789
283.92	34.518
284.29	33.510
284.66	34.483
285.03	34.901
285.40	34.859
285.77	36.700
286.14	33.161
286.51	36.000
286.87	34.188
287.24	36.156
287.61	33.066
287.98	32.468
288.35	32.171
288.72	33.489
289.08	32.707
289.45	31.960
289.82	33.171
290.19	31.397
290.56	31.087
290.93	29.607
291.29	30.675
291.66	30.973
292.03	33.430
292.40	33.186
292.77	27.515
293.13	30.597
293.50	32.799
293.87	30.370
294.24	29.926
294.60	29.549
294.97	29.506
295.34	28.209
295.71	31.818
296.08	28.063
296.44	28.336
296.81	27.609
297.18	29.539
297.55	24.934
297.91	27.309
298.28	28.916
298.65	28.460
299.02	27.404
299.38	26.029
299.75	23.854
300.12	26.437
300.48	26.000
300.85	25.894
301.22	25.223
301.59	25.884
301.95	26.952
302.32	24.904
302.69	26.762
303.05	24.485
303.42	26.543
303.79	26.048
304.15	24.942
304.52	24.565
304.89	25.203
305.25	25.522
305.62	25.028
305.99	26.800
306.35	26.510
306.72	26.121
307.09	25.749
307.45	25.901
307.82	23.772
308.19	24.945
308.55	25.782
308.92	25.027
309.29	23.337
309.65	24.708
310.02	24.313
310.38	24.301
310.75	26.294
311.12	25.589
311.48	24.556
311.85	26.310
312.22	24.454
312.58	23.493
312.95	25.554
313.31	23.883
313.68	24.740
314.05	26.824
314.41	25.528
314.78	24.975
315.14	23.932
315.51	26.365
315.87	25.941
316.24	24.826
316.61	24.951
316.97	24.755
317.34	25.049
317.70	25.621
318.07	25.217
318.43	25.538
318.80	26.804
319.16	26.460
319.53	24.578
319.89	25.429
320.26	25.300
320.62	24.802
320.99	25.960
321.35	26.667
321.72	25.565
322.08	26.259
322.45	27.861
322.81	26.744
323.18	27.457
323.54	26.902
323.91	26.887
324.27	27.533
324.64	26.468
325.00	26.060
325.37	27.571
325.73	26.840
326.10	26.920
326.46	26.075
326.83	27.696
327.19	26.302
327.56	26.307
327.92	27.384
328.29	27.595
328.65	28.269
329.01	27.076
329.38	25.532
329.74	28.624
330.11	27.992
330.47	27.181
330.84	28.217
331.20	26.412
331.56	28.257
331.93	26.481
332.29	26.974
332.66	27.611
333.02	27.697
333.38	27.462
333.75	27.540
334.11	27.491
334.48	26.708
334.84	27.482
335.20	27.091
335.57	27.017
335.93	25.625
336.29	26.282
336.66	27.051
337.02	26.516
337.38	26.944
337.75	26.738
338.11	26.679
338.47	27.256
338.84	27.956
339.20	26.697
339.56	29.015
339.93	27.091
340.29	27.083
340.65	27.362
341.02	26.527
341.38	26.779
341.74	26.491
342.11	26.550
342.47	28.194
342.83	26.455
343.20	28.398
343.56	26.285
343.92	26.842
344.28	26.616
344.65	28.289
345.01	26.431
345.37	25.986
345.73	26.227
346.10	27.366
346.46	26.695
346.82	27.183
347.19	27.235
347.55	27.340
347.91	27.265
348.27	27.362
348.63	26.672
349.00	26.861
349.36	27.340
349.72	27.185
350.08	25.932
350.45	27.014
350.81	26.807
351.17	26.499
351.53	26.618
351.89	25.908
352.26	27.151
352.62	26.464
352.98	26.499
353.34	26.952
353.70	25.859
354.07	25.806
354.43	26.111
354.79	25.342
355.15	26.257
355.51	27.098
355.87	25.796
356.24	26.303
356.60	25.421
356.96	25.583
357.32	26.002
357.68	26.535
358.04	24.703
358.40	26.366
358.77	26.291
359.13	25.967
359.49	25.647
359.85	25.873
360.21	25.758
360.57	26.381
360.93	26.385
361.29	25.850
361.66	26.703
362.02	26.642
362.38	26.388
362.74	25.967
363.10	25.685
363.46	25.385
363.82	26.455
364.18	26.725
364.54	27.043
364.90	26.983
365.26	26.618
365.62	26.808
365.98	26.004
366.35	26.218
366.71	26.609
367.07	26.074
367.43	27.068
367.79	27.338
368.15	27.514
368.51	25.145
368.87	26.909
369.23	26.701
369.59	26.792
369.95	25.147
370.31	26.496
370.67	27.029
371.03	27.266
371.39	26.895
371.75	26.324
372.11	26.671
372.47	27.566
372.83	27.450
373.19	26.228
373.55	26.829
373.91	27.982
374.27	26.804
374.63	26.255
374.99	27.401
375.35	26.378
375.71	26.525
376.07	27.709
376.42	27.648
376.78	28.098
377.14	26.934
377.50	28.742
377.86	27.128
378.22	27.813
378.58	26.754
378.94	26.461
379.30	27.545
379.66	28.934
380.02	27.027
380.38	27.201
380.74	27.491
381.09	28.423
381.45	27.781
381.81	28.563
382.17	27.771
382.53	27.925
382.89	28.086
383.25	28.018
383.61	28.439
383.97	28.268
384.32	28.821
384.68	27.881
385.04	29.133
385.40	27.616
385.76	28.256
386.12	27.526
386.48	29.452
386.83	27.903
387.19	29.808
387.55	28.262
387.91	29.202
388.27	29.001
388.62	29.502
388.98	28.686
389.34	29.036
389.70	29.123
390.06	29.975
390.42	28.599
390.77	29.644
391.13	29.228
391.49	30.013
391.85	29.535
392.20	29.590
392.56	29.356
392.92	29.194
393.28	28.166
393.64	29.436
393.99	29.627
394.35	29.404
394.71	29.548
395.07	28.972
395.42	29.110
395.78	29.326
396.14	28.554
396.50	30.890
396.85	30.197
397.21	30.025
397.57	30.192
397.92	29.087
398.28	28.868
398.64	29.630
399.00	29.491
399.35	29.667
399.71	30.382
400.07	30.101
400.42	29.387
400.78	30.881
401.14	29.939
401.49	30.209
401.85	29.159
402.21	28.922
402.57	29.611
402.92	30.391
403.28	29.731
403.63	29.270
403.99	29.490
404.35	30.000
404.70	30.276
405.06	29.761
405.42	29.507
405.77	29.657
406.13	28.837
406.49	29.627
406.84	29.947
407.20	29.196
407.55	30.313
407.91	30.533
408.27	28.781
408.62	29.741
408.98	30.331
409.34	30.320
409.69	30.323
410.05	29.368
410.40	30.459
410.76	29.869
411.11	29.433
411.47	28.882
411.83	30.666
412.18	28.881
412.54	31.071
412.89	30.783
413.25	29.929
413.60	30.142
413.96	29.205
414.31	29.344
414.67	30.355
415.03	29.536
415.38	30.155
415.74	31.190
416.09	30.438
416.45	30.254
416.80	30.007
417.16	31.166
417.51	30.922
417.87	29.672
418.22	30.789
418.58	29.438
418.93	30.528
419.29	29.663
419.64	30.793
420.00	30.427
420.35	30.435
420.71	31.680
421.06	30.012
421.42	29.825
421.77	30.605
422.12	30.601
422.48	29.466
422.83	30.810
423.19	29.779
423.54	29.658
423.90	31.014
424.25	30.318
424.61	29.940
424.96	30.612
425.31	29.900
425.67	29.045
426.02	30.171
426.38	31.258
426.73	30.895
427.09	30.334
427.44	30.592
427.79	31.167
428.15	30.774
428.50	29.257
428.85	32.002
429.21	30.922
429.56	30.482
429.92	29.794
430.27	30.785
430.62	30.415
430.98	31.448
431.33	30.670
431.68	30.733
432.04	30.245
432.39	31.239
432.74	31.119
433.10	31.975
433.45	31.603
433.80	31.042
434.16	30.929
434.51	30.842
434.86	31.870
435.22	30.850
435.57	31.368
435.92	31.656
436.28	32.384
436.63	31.291
436.98	31.311
437.34	31.544
437.69	31.797
438.04	32.265
438.39	31.164
438.75	32.946
439.10	32.179
439.45	31.877
439.81	31.843
440.16	31.338
440.51	32.045
440.86	31.963
441.22	31.813
441.57	32.484
441.92	31.627
442.27	31.862
442.63	30.753
442.98	32.394
443.33	32.283
443.68	31.802
444.03	32.113
444.39	31.061
444.74	32.468
445.09	32.507
445.44	31.329
445.79	31.618
446.15	32.292
446.50	32.310
446.85	31.860
447.20	32.075
447.55	31.602
447.91	31.771
448.26	32.387
448.61	32.222
448.96	32.115
449.31	32.790
449.66	31.795
450.02	33.148
450.37	31.689
450.72	32.713
451.07	32.054
451.42	32.280
451.77	32.942
452.12	32.852
452.47	33.396
452.83	31.993
453.18	33.191
453.53	33.086
453.88	31.837
454.23	32.696
454.58	33.374
454.93	33.948
455.28	32.918
455.63	33.070
455.98	34.405
456.34	33.920
456.69	32.749
457.04	34.675
457.39	33.314
457.74	33.082
458.09	34.330
458.44	32.497
458.79	31.996
459.14	32.788
459.49	34.151
459.84	33.573
460.19	32.528
460.54	32.350
460.89	33.571
461.24	33.333
461.59	33.759
461.94	33.539
462.29	34.125
462.64	34.333
462.99	33.182
463.34	33.400
463.69	33.458
464.04	33.507
464.39	33.623
464.74	32.620
465.09	32.992
465.44	32.632
465.79	32.662
466.14	32.841
466.49	33.426
466.84	33.742
467.19	32.529
467.54	33.312
467.89	33.493
468.24	33.508
468.59	34.310
468.94	32.987
469.29	33.612
469.64	34.605
469.99	34.574
470.34	34.148
470.68	35.417
471.03	33.810
471.38	34.746
471.73	35.043
472.08	35.066
472.43	34.108
472.78	33.970
473.13	34.531
473.48	33.833
473.83	34.878
474.17	33.914
474.52	34.801
474.87	33.625
475.22	33.778
475.57	34.175
475.92	34.519
476.27	33.878
476.61	34.859
476.96	33.260
477.31	33.438
477.66	34.792
478.01	33.821
478.36	34.691
478.70	34.372
479.05	35.250
479.40	35.005
479.75	34.520
480.10	33.847
480.45	33.555
480.79	33.063
481.14	33.904
481.49	33.745
481.84	33.471
482.19	34.621
482.53	33.394
482.88	34.155
483.23	34.252
483.58	34.440
483.92	34.958
484.27	33.246
484.62	34.310
484.97	33.859
485.31	34.075
485.66	32.325
486.01	31.411
486.36	30.229
486.70	30.070
487.05	30.830
487.40	31.742
487.75	32.229
488.09	33.060
488.44	33.522
488.79	34.503
489.13	34.759
489.48	34.502
489.83	34.096
490.17	34.678
490.52	33.658
490.87	34.555
491.22	34.470
491.56	32.938
491.91	34.248
492.26	34.313
492.60	33.871
492.95	33.536
493.30	34.439
493.64	33.831
493.99	34.076
494.34	33.904
494.68	34.524
495.03	34.445
495.37	33.737
495.72	34.259
496.07	35.731
496.41	33.717
496.76	34.916
497.11	35.164
497.45	35.445
497.80	34.549
498.14	34.638
498.49	34.878
498.84	34.276
499.18	35.238
499.53	34.615
499.87	34.716
500.22	34.432
500.56	35.777
500.91	34.615
501.26	34.329
501.60	35.880
501.95	33.685
502.29	35.661
502.64	34.870
502.98	34.549
503.33	34.963
503.67	34.292
504.02	35.921
504.36	35.049
504.71	35.467
505.06	35.181
505.40	34.808
505.75	35.149
506.09	35.083
506.44	35.866
506.78	34.925
507.13	35.790
507.47	35.707
507.82	36.272
508.16	35.613
508.51	35.566
508.85	35.998
509.19	35.153
509.54	35.612
509.88	36.373
510.23	36.401
510.57	36.945
510.92	36.976
511.26	35.457
511.61	36.515
511.95	35.177
512.30	36.426
512.64	35.948
512.98	36.120
513.33	36.884
513.67	35.539
514.02	37.121
514.36	37.193
514.70	36.469
515.05	36.977
515.39	36.904
515.74	37.218
516.08	36.557
516.42	36.959
516.77	37.625
517.11	37.236
517.46	37.246
517.80	37.340
518.14	36.711
518.49	37.981
518.83	35.795
519.17	38.048
519.52	37.125
519.86	37.650
520.20	37.630
520.55	38.779
520.89	37.774
521.23	38.661
521.58	37.095
521.92	39.069
522.26	37.645
522.61	39.065
522.95	37.753
523.29	37.918
523.64	38.293
523.98	38.694
524.32	37.274
524.66	38.364
525.01	37.868
525.35	38.290
525.69	37.685
526.04	38.255
526.38	38.560
526.72	37.791
527.06	38.732
527.41	37.067
527.75	39.421
528.09	39.627
528.43	38.305
528.78	38.353
529.12	38.909
529.46	37.967
529.80	38.614
530.15	39.252
530.49	37.846
530.83	38.608
531.17	39.752
531.51	40.272
531.86	39.677
532.20	39.961
532.54	39.270
532.88	39.666
533.22	39.038
533.57	38.704
533.91	38.110
534.25	38.761
534.59	38.926
534.93	38.013
535.27	38.021
535.62	39.194
535.96	38.983
536.30	37.889
536.64	39.214
536.98	39.084
537.32	38.776
537.66	40.333
538.01	39.105
538.35	40.013
538.69	39.183
539.03	37.557
539.37	37.508
539.71	38.496
540.05	38.627
540.39	39.468
540.73	38.486
541.07	38.741
541.42	38.748
541.76	39.290
542.10	37.646
542.44	38.609
542.78	39.196
543.12	37.748
543.46	39.475
543.80	39.297
544.14	37.612
544.48	39.175
544.82	38.294
545.16	38.712
545.50	38.432
545.84	39.449
546.18	39.327
546.52	40.193
546.86	40.069
547.20	39.245
547.54	39.546
547.88	39.732
548.22	37.983
548.56	39.623
548.90	38.284
549.24	38.519
549.58	38.745
549.92	39.766
550.26	40.270
550.60	38.658
550.94	40.493
551.28	38.552
551.62	40.187
551.96	40.421
552.30	39.386
552.64	38.472
552.98	39.186
553.32	38.908
553.66	40.627
554.00	39.190
554.34	38.716
554.68	41.345
555.02	40.480
555.36	39.875
555.69	38.769
556.03	39.300
556.37	39.973
556.71	38.199
557.05	39.846
557.39	39.748
557.73	39.379
558.07	40.029
558.41	40.376
558.75	40.044
559.08	40.567
559.42	39.758
559.76	39.338
560.10	38.901
560.44	39.064
560.78	38.124
561.12	39.512
561.45	38.853
561.79	37.574
562.13	37.894
562.47	38.661
562.81	40.377
563.15	38.060
563.48	38.793
563.82	39.465
564.16	38.718
564.50	38.411
564.84	38.559
565.17	37.902
565.51	39.042
565.85	38.388
566.19	37.445
566.52	38.315
566.86	38.457
567.20	38.267
567.54	38.299
567.88	36.773
568.21	38.360
568.55	36.350
568.89	36.527
569.23	36.364
569.56	35.020
569.90	34.755
570.24	34.769
570.57	33.764
570.91	33.516
571.25	34.311
571.59	33.932
571.92	34.015
572.26	34.027
572.60	34.505
572.93	33.553
573.27	33.895
573.61	33.613
573.95	33.979
574.28	33.116
574.62	33.358
574.96	32.019
575.29	32.711
575.63	32.495
575.97	33.090
576.30	33.643
576.64	32.752
576.98	32.742
577.31	32.948
577.65	33.094
577.98	32.589
578.32	31.414
578.66	31.992
578.99	33.189
579.33	33.019
579.67	32.814
580.00	32.822
580.34	32.914
580.67	32.829
581.01	32.921
581.35	32.686
581.68	32.416
582.02	31.415
582.35	31.682
582.69	31.742
583.02	31.994
583.36	33.110
583.70	32.917
584.03	33.386
584.37	34.282
584.70	33.908
585.04	32.950
585.37	31.943
585.71	33.083
586.04	32.592
586.38	33.098
586.72	33.140
587.05	32.491
587.39	32.850
587.72	32.698
588.06	33.164
588.39	32.977
588.73	33.382
589.06	34.403
589.40	34.512
589.73	34.706
590.07	34.484
590.40	33.942
590.73	34.660
591.07	35.206
591.40	34.627
591.74	36.061
592.07	34.119
592.41	35.180
592.74	34.457
593.08	33.145
593.41	32.901
593.75	32.448
594.08	32.652
594.41	34.146
594.75	34.048
595.08	33.071
595.42	33.835
595.75	33.155
596.09	34.022
596.42	35.128
596.75	34.951
597.09	34.892
597.42	34.528
597.75	34.584
598.09	34.043
598.42	33.591
598.76	33.968
599.09	33.295
599.42	32.533
599.76	33.895
600.09	33.515
600.42	32.980
600.76	33.000
601.09	33.333
601.42	33.638
601.76	33.624
602.09	34.348
602.42	33.718
602.76	33.454
603.09	34.028
603.42	33.463
603.76	33.194
604.09	33.191
604.42	33.469
604.76	33.952
605.09	34.251
605.42	33.989
605.75	34.313
606.09	34.323
606.42	33.265
606.75	33.513
607.09	33.654
607.42	33.504
607.75	32.996
608.08	33.261
608.42	33.797
608.75	33.408
609.08	33.950
609.41	33.603
609.75	33.778
610.08	35.438
610.41	34.032
610.74	33.728
611.07	34.832
611.41	34.347
611.74	35.093
612.07	34.627
612.40	34.627
612.73	34.158
613.07	34.429
613.40	35.334
613.73	33.928
614.06	34.946
614.39	33.875
614.72	34.579
615.06	33.456
615.39	33.174
615.72	34.100
616.05	33.121
616.38	34.742
616.71	34.857
617.05	34.806
617.38	35.358
617.71	34.715
618.04	35.998
618.37	34.358
618.70	36.403
619.03	34.803
619.36	35.777
619.69	35.845
620.03	35.852
620.36	36.564
620.69	35.616
621.02	35.177
621.35	35.082
621.68	35.280
622.01	36.455
622.34	37.746
622.67	37.490
623.00	35.583
623.33	35.525
623.66	35.740
623.99	36.009
624.32	35.235
624.65	35.311
624.99	36.331
625.32	35.626
625.65	36.138
625.98	36.203
626.31	36.470
626.64	37.878
626.97	36.492
627.30	36.908
627.63	37.490
627.96	37.931
628.29	36.658
628.62	37.786
628.95	39.245
629.28	38.230
629.61	39.597
629.94	38.000
630.26	38.513
630.59	36.988
630.92	37.261
631.25	39.092
631.58	38.338
631.91	37.525
632.24	37.975
632.57	38.405
632.90	38.706
633.23	39.150
633.56	39.096
633.89	39.071
634.22	39.728
634.55	41.302
634.88	38.563
635.20	39.068
635.53	40.000
635.86	40.099
636.19	38.118
636.52	39.100
636.85	38.832
637.18	36.636
637.51	40.898
637.83	36.991
638.16	39.770
638.49	39.421
638.82	39.444
639.15	39.625
639.48	40.524
639.81	40.080
640.13	40.365
640.46	40.805
640.79	39.894
641.12	39.477
641.45	38.966
641.77	40.795
642.10	42.982
642.43	40.090
642.76	43.189
643.09	42.025
643.41	42.185
643.74	41.358
644.07	41.311
644.40	41.104
644.73	41.890
645.05	43.582
645.38	40.442
645.71	39.936
646.04	42.359
646.36	45.242
646.69	42.475
647.02	41.497
647.35	42.268
647.67	44.602
648.00	43.089
648.33	41.089
648.66	41.061
648.98	41.379
649.31	39.462
649.64	39.761
649.96	40.537
650.29	38.073
650.62	38.188
650.94	41.005
651.27	40.878
651.60	43.261
651.92	40.735
652.25	40.391
652.58	38.941
652.90	41.232
653.23	39.908
653.56	40.472
653.88	40.571
654.21	40.916
654.54	40.594
654.86	39.564
655.19	36.757
655.52	28.930
655.84	24.668
656.17	31.145
656.49	42.223
656.82	42.633
657.15	32.649
657.47	24.711
657.80	19.306
658.13	20.435
658.45	30.718
658.78	32.264
659.10	33.325
659.43	35.534
659.75	37.695
660.08	40.316
660.41	42.737
660.73	43.202
661.06	42.516
661.38	42.545
661.71	43.077
662.03	43.195
662.36	38.767
662.68	42.570
663.01	42.222
663.33	40.764
663.66	45.588
663.98	41.469
664.31	42.647
664.63	41.903
664.96	38.028
665.28	42.008
665.61	41.715
665.93	40.644
666.26	41.379
666.58	41.004
666.91	43.975
667.23	43.820
667.56	43.629
667.88	42.949
668.21	43.284
668.53	42.299
668.86	43.074
669.18	42.644
669.50	42.609
669.83	42.919
670.15	43.111
670.48	40.959
670.80	42.026
671.13	42.463
671.45	41.064
671.77	44.603
672.10	40.111
672.42	40.106
672.75	36.816
673.07	40.317
673.39	38.336
673.72	41.211
674.04	40.392
674.37	39.223
674.69	40.286
675.01	38.912
675.34	42.916
675.66	42.947
675.98	42.566
676.31	42.227
676.63	40.127
676.95	41.090
677.28	42.056
677.60	43.516
677.92	41.350
678.25	39.836
678.57	41.833
678.89	42.886
679.22	38.310
679.54	40.840
679.86	39.633
680.18	36.494
680.51	38.475
680.83	40.569
681.15	38.491
681.48	40.643
681.80	41.199
682.12	38.506
682.44	36.557
682.77	37.678
683.09	46.137
683.41	40.133
683.73	43.929
684.06	41.736
684.38	38.356
684.70	39.729
685.02	38.649
685.34	36.813
685.67	36.888
685.99	36.598
686.31	39.590
686.63	34.982
686.96	35.000
687.28	37.726
687.60	37.681
687.92	38.574
688.24	38.973
688.56	39.759
688.89	41.494
689.21	41.266
689.53	40.919
689.85	39.911
690.17	38.509
690.49	39.278
690.82	41.355
691.14	38.839
691.46	36.287
691.78	38.554
692.10	41.322
692.42	39.321
692.74	37.344
693.06	38.936
693.39	40.452
693.71	39.738
694.03	40.211
694.35	39.610
694.67	38.215
694.99	42.683
695.31	37.990
695.63	39.234
695.95	45.721
696.27	41.371
696.59	39.637
696.91	39.637
697.23	36.150
697.56	38.806
697.88	34.765
698.20	35.833
698.52	39.140
698.84	38.530
699.16	37.558
699.48	40.380
699.80	38.889
700.12	44.935
700.44	44.562
700.76	42.818
701.08	47.701
701.40	43.855
701.72	44.315
702.04	45.170
702.36	39.093
702.68	43.059
703.00	40.997
703.32	39.096
703.64	40.483
703.96	41.783
704.28	42.442
704.60	42.229
704.91	41.246
705.23	42.522
705.55	42.525
705.87	46.844
706.19	43.463
706.51	44.237
706.83	43.636
707.15	43.417
707.47	40.657
707.79	39.558
708.11	39.269
708.43	39.762
708.74	38.010
709.06	37.143
709.38	40.945
709.70	41.860
710.02	43.620
710.34	41.515
710.66	44.776
710.98	42.898
711.29	42.151
711.61	46.018
711.93	40.064
712.25	45.659
712.57	44.853
712.89	44.637
713.20	42.249
713.52	42.763
713.84	41.456
714.16	40.854
714.48	39.943
714.80	42.249
715.11	40.634
715.43	36.202
715.75	40.870
716.07	43.131
716.39	40.125
716.70	43.189
717.02	43.525
717.34	46.290
717.66	44.030
717.97	49.801
718.29	42.222
718.61	43.066
718.93	44.853
719.24	40.830
719.56	42.712
719.88	34.915
720.20	45.270
720.51	44.251
720.83	45.353
721.15	45.896
721.46	43.972
721.78	45.878
722.10	43.019
722.42	44.737
722.73	42.322
723.05	43.443
723.37	42.105
723.68	47.104
724.00	40.650
724.32	47.581
724.63	41.463
724.95	47.280
725.27	46.154
725.58	44.531
725.90	45.255
726.22	41.509
726.53	41.667
726.85	41.297
727.16	41.281
727.48	42.908
727.80	42.424
728.11	39.130
728.43	43.077
728.74	40.860
729.06	44.891
729.38	44.118
729.69	44.128
730.01	44.027
730.32	39.236
730.64	42.809
730.96	35.974
731.27	44.040
731.59	37.615
731.90	38.484
732.22	39.130
732.53	37.152
732.85	38.141
733.16	38.907
733.48	42.193
733.80	38.636
734.11	39.172
734.43	40.237
734.74	34.571
735.06	36.390
735.37	38.728
735.69	39.490
736.00	41.830
736.32	40.187
736.63	34.505
736.95	41.853
737.26	33.333
737.58	39.677
737.89	39.465
738.21	39.590
738.52	42.857
738.83	41.132
739.15	35.769
739.46	41.241
739.78	39.236
740.09	40.615
740.41	39.355
740.72	38.328
741.04	45.185
741.35	41.250
741.66	48.000
741.98	45.755
742.29	48.325
742.61	50.431
742.92	41.176
743.23	43.162
743.55	46.000
743.86	46.930
744.18	46.460
744.49	46.411
744.80	48.357
745.12	47.727
745.43	43.612
745.74	49.550
746.06	42.661
746.37	41.256
746.68	43.439
747.00	40.741
747.31	46.667
747.62	41.150
747.94	42.291
748.25	38.723
748.56	50.661
748.88	47.030
749.19	50.000
749.50	42.326
749.82	39.024
750.13	39.592
750.44	36.496
750.75	39.649
751.07	42.122
751.38	41.812
751.69	40.433
752.01	40.977
752.32	38.267
752.63	42.199
752.94	36.475
753.26	43.600
753.57	41.057
753.88	43.359
754.19	39.286
754.51	42.361
754.82	35.018
755.13	40.755
755.44	40.602
755.75	36.496
756.07	40.426
756.38	36.496
756.69	39.933
757.00	36.527
757.31	38.279
757.63	38.012
757.94	35.389
758.25	37.010
758.56	33.333
758.87	35.753
759.18	35.152
759.50	34.483
759.81	37.383
760.12	35.625
760.43	38.968
760.74	33.696
761.05	35.028
761.36	36.631
761.67	36.932
761.99	37.888
762.30	40.972
762.61	38.550
762.92	41.016
763.23	40.756
763.54	44.000
763.85	39.062
764.16	38.462
764.47	38.783
764.78	37.456
765.10	32.911
765.41	36.283
765.72	38.623
766.03	37.304
766.34	34.333
766.65	42.128
766.96	41.880
767.27	51.777
767.58	51.042
767.89	47.368
768.20	45.402
768.51	45.685
768.82	46.789
769.13	42.276
769.44	40.891
769.75	41.202
770.06	46.330
770.37	41.176
770.68	42.593
770.99	39.111
771.30	37.705
771.61	45.291
771.92	39.344
772.23	42.017
772.54	41.026
772.85	49.738
773.16	47.872
773.47	52.717
773.78	45.178
774.09	51.190
774.39	43.860
774.70	45.679
775.01	60.145
775.32	52.288
775.63	53.947
775.94	48.201
776.25	58.268
776.56	50.000
776.87	52.459
777.18	51.563
777.48	58.015
777.79	50.000
778.10	50.370
778.41	59.821
778.72	51.095
779.03	53.020
779.34	44.295
779.65	53.378
779.95	50.920
780.26	53.595
780.57	51.724
780.88	58.594
781.19	42.857
781.50	54.730
781.80	44.025
782.11	53.672
782.42	43.671
782.73	44.785
783.04	51.351
783.34	53.521
783.65	58.219
783.96	55.970
784.27	59.441
784.57	48.921
784.88	44.444
785.19	58.730
785.50	69.811
785.81	56.716
786.11	61.475
786.42	57.364
786.73	60.177
787.04	55.660
787.34	56.250
787.65	62.000
787.96	62.162
788.26	52.066
788.57	59.322
788.88	66.116
789.19	52.083
789.49	55.303
789.80	52.672
790.11	76.190
790.41	61.386
790.72	74.699
791.03	73.913
791.33	68.605
791.64	78.351
791.95	61.386
792.25	77.778
792.56	68.831
792.87	87.179
793.17	82.278
793.48	66.667
793.79	67.816
794.09	62.500
794.40	52.101
794.70	63.235
795.01	46.667
795.32	47.482
795.62	51.969
795.93	62.931
796.23	59.292
796.54	76.471
796.85	70.270
797.15	87.324
797.46	75.758
797.76	74.699
798.07	65.823
798.37	72.308
798.68	78.788
798.99	71.831
799.29	66.234
799.60	77.273
799.90	73.973
800.21	85.075
800.51	91.379
800.82	94.737
801.12	85.246
801.43	93.939
801.73	71.622
802.04	90.476
802.34	83.951
802.65	76.563
802.95	108.475
803.26	95.312
803.56	71.429
803.87	70.769
804.17	89.706
804.48	96.296
804.78	79.310
805.09	80.882
805.39	86.538
805.70	89.286
806.00	83.607
806.30	57.576
806.61	63.415
806.91	56.962
807.22	73.684
807.52	68.657
807.83	91.549
808.13	73.438
808.43	90.000
808.74	61.842
809.04	91.304
809.35	77.612
809.65	77.632
809.95	103.226
810.26	84.746
810.56	84.127
810.86	102.273
811.17	104.762
811.47	91.667
811.77	88.889
812.08	100.000
812.38	108.000
812.69	105.556
812.99	134.091
813.29	91.837
813.59	78.571
813.90	108.163
814.20	105.455
814.50	70.769
814.81	89.706
815.11	106.122
815.41	90.164
815.72	97.619
816.02	98.182
816.32	104.762
816.62	92.500
816.93	97.561
817.23	116.667
817.53	104.545
817.84	172.727
818.14	113.043
818.44	111.111
818.74	158.824
819.04	115.000
819.35	145.714
819.65	164.706
819.95	167.857
820.25	210.000
820.56	120.513
820.86	113.636
821.16	123.256
821.46	105.128
821.76	104.000
822.07	125.714
822.37	137.500
822.67	145.455
822.97	78.431
823.27	160.714
823.57	121.622
823.88	150.000
824.18	146.667
824.48	138.095
824.78	144.000
825.08	158.333
825.38	137.838
825.69	119.512
825.99	170.833
826.29	134.483
826.59	144.737
826.89	121.053
827.19	147.059
827.49	132.258
827.79	113.636
828.09	104.545
828.39	95.745
828.70	110.204
829.00	122.222
829.30	125.806
829.60	115.000
829.90	333.333
830.20	185.714
830.50	182.609
830.80	191.304
831.10	176.667
831.40	143.333
831.70	121.739
832.00	173.077
832.30	155.556
832.60	318.750
832.90	193.333
833.20	250.000
833.50	145.161
833.80	131.034
834.10	175.000
834.40	192.308
834.70	188.889
835.00	266.667
835.30	128.571
835.60	223.077
835.90	168.966
836.20	221.429
836.50	141.379
836.80	188.000
837.10	119.444
837.40	223.810
837.70	200.000
838.00	155.556
838.30	147.619
838.60	228.571
838.90	169.231
839.19	235.000
839.49	328.571
839.79	270.000
840.09	230.000
840.39	219.048
840.69	200.000
840.99	233.333
841.29	280.000
841.59	216.667
841.88	331.250
842.18	131.034
842.48	190.476
842.78	156.667
843.08	200.000
843.38	137.500
843.68	616.667
843.97	196.154
844.27	144.828
844.57	242.857
844.87	281.250
845.17	200.000
845.47	1133.333
845.76	266.667
846.06	235.294
846.36	487.500
846.66	250.000
846.96	218.750
847.25	381.818
847.55	218.182
847.85	208.696
848.15	330.000
848.44	300.000
848.74	211.111
849.04	211.765
849.34	470.000
849.63	210.526
849.93	354.545
850.23	740.000
850.53	307.143
850.82	2000.000
851.12	-4100.000
851.42	3300.000
851.71	220.000
852.01	-1133.333
852.31	200.000
852.61	1433.333
852.90	247.619
853.20	196.000
853.50	188.235
853.79	223.810
854.09	154.167
854.39	218.750
854.68	137.838
854.98	109.677
855.28	140.000
855.57	165.517
855.87	159.259
856.17	189.474
856.46	213.333
856.76	229.412
857.05	168.966
857.35	187.500
857.65	266.667
857.94	165.217
858.24	138.462
858.53	225.000
858.83	172.727
859.13	286.667
859.42	0.000
859.72	477.778
860.01	381.818
860.31	245.455
860.60	221.053
860.90	178.261
861.20	377.778
861.49	383.333
861.79	-4500.000
862.08	475.000
862.38	247.619
862.67	215.385
862.97	270.588
863.26	288.889
863.56	150.000
863.85	291.667
864.15	462.500
864.44	320.000
864.74	716.667
865.03	437.500
865.33	242.105
865.62	409.091
865.92	392.308
866.21	266.667
866.51	0.000
866.80	363.636
867.10	960.000
867.39	276.923
867.69	263.636
867.98	189.474
868.27	345.455
868.57	210.526
868.86	-3500.000
869.16	256.250
869.45	1350.000
869.75	-3000.000
870.04	325.000
870.33	571.429
870.63	875.000
870.92	1800.000
871.22	600.000
871.51	252.941
871.80	195.238
872.10	214.286
>>>>>End Processed Spectral Data<<<<<
