SpectraSuite Data File
++++++++++++++++++++++++++++++++++++
Date: Wed May 13 16:05:51 PDT 2015
User: schluterlab
Dark Spectrum Present: Yes
Reference Spectrum Present: Yes
Number of Sampled Component Spectra: 1
Spectrometers: USB2E3373
Integration Time (usec): 3000 (USB2E3373)
Spectra Averaged: 3 (USB2E3373)
Boxcar Smoothing: 0 (USB2E3373)
Correct for Electrical Dark: No (USB2E3373)
Strobe/Lamp Enabled: No (USB2E3373)
Correct for Detector Non-linearity: No (USB2E3373)
Correct for Stray Light: No (USB2E3373)
Number of Pixels in Processed Spectrum: 2048
>>>>>Begin Processed Spectral Data<<<<<
178.53	0.000
178.91	-750.000
179.29	-850.000
179.67	-122.222
180.04	-775.000
180.42	1600.000
180.80	720.000
181.18	-350.000
181.56	442.857
181.94	0.000
182.31	-300.000
182.69	766.667
183.07	-350.000
183.45	-322.222
183.83	272.727
184.20	-160.000
184.58	1400.000
184.96	4100.000
185.34	-420.000
185.72	-325.000
186.09	-950.000
186.47	1400.000
186.85	1350.000
187.23	4100.000
187.61	-900.000
187.98	725.000
188.36	372.727
188.74	281.818
189.12	-380.000
189.49	350.000
189.87	-2600.000
190.25	-1000.000
190.63	300.000
191.00	276.923
191.38	466.667
191.76	-525.000
192.14	825.000
192.51	275.000
192.89	566.667
193.27	312.500
193.65	-500.000
194.02	360.000
194.40	600.000
194.78	200.000
195.15	366.667
195.53	340.000
195.91	-900.000
196.29	231.250
196.66	163.158
197.04	-230.000
197.42	0.000
197.79	380.000
198.17	-2000.000
198.55	428.571
198.92	437.500
199.30	520.000
199.68	0.000
200.05	150.000
200.43	557.143
200.81	2900.000
201.18	966.667
201.56	-833.333
201.94	288.889
202.31	300.000
202.69	216.667
203.07	390.000
203.44	0.000
203.82	825.000
204.19	414.286
204.57	250.000
204.95	437.500
205.32	1033.333
205.70	218.182
206.08	278.571
206.45	1700.000
206.83	250.000
207.20	550.000
207.58	360.000
207.96	233.333
208.33	375.000
208.71	-383.333
209.08	314.286
209.46	366.667
209.84	263.636
210.21	-866.667
210.59	775.000
210.96	-162.500
211.34	1700.000
211.71	360.000
212.09	400.000
212.46	0.000
212.84	1000.000
213.22	750.000
213.59	-2500.000
213.97	433.333
214.34	557.143
214.72	400.000
215.09	560.000
215.47	-1000.000
215.84	-1700.000
216.22	833.333
216.59	185.714
216.97	400.000
217.34	200.000
217.72	-416.667
218.09	0.000
218.47	-2300.000
218.84	366.667
219.22	442.857
219.59	933.333
219.97	-385.714
220.34	700.000
220.72	-833.333
221.09	207.143
221.47	975.000
221.84	-416.667
222.22	0.000
222.59	750.000
222.97	-1500.000
223.34	640.000
223.72	276.923
224.09	680.000
224.46	850.000
224.84	-2600.000
225.21	-580.000
225.59	-2700.000
225.96	460.000
226.34	205.000
226.71	1500.000
227.08	375.000
227.46	270.000
227.83	-575.000
228.21	-1100.000
228.58	388.889
228.95	-1300.000
229.33	-1100.000
229.70	966.667
230.08	528.571
230.45	-520.000
230.82	266.667
231.20	416.667
231.57	400.000
231.95	308.333
232.32	195.455
232.69	190.909
233.07	414.286
233.44	176.923
233.81	-666.667
234.19	173.684
234.56	300.000
234.93	258.333
235.31	236.364
235.68	100.000
236.05	200.000
236.43	103.030
236.80	168.421
237.17	2100.000
237.55	133.333
237.92	110.714
238.29	119.048
238.67	96.774
239.04	134.483
239.41	72.222
239.79	65.217
240.16	78.571
240.53	81.818
240.91	54.902
241.28	48.000
241.65	72.000
242.02	57.971
242.40	43.548
242.77	56.667
243.14	52.688
243.51	51.685
243.89	31.765
244.26	31.111
244.63	43.011
245.00	30.851
245.38	34.653
245.75	33.645
246.12	24.771
246.49	39.416
246.87	40.000
247.24	40.769
247.61	30.000
247.98	32.026
248.36	25.676
248.73	28.662
249.10	29.299
249.47	22.034
249.84	32.620
250.22	26.738
250.59	24.260
250.96	26.768
251.33	27.014
251.70	24.257
252.08	21.905
252.45	22.422
252.82	20.435
253.19	20.000
253.56	22.745
253.94	26.556
254.31	21.094
254.68	21.154
255.05	19.926
255.42	16.260
255.79	21.324
256.16	22.383
256.54	20.848
256.91	19.929
257.28	19.065
257.65	21.782
258.02	19.255
258.39	19.558
258.76	16.388
259.14	19.643
259.51	18.845
259.88	17.702
260.25	19.335
260.62	17.341
260.99	17.702
261.36	19.520
261.73	16.619
262.10	15.116
262.47	18.028
262.85	19.220
263.22	10.826
263.59	16.524
263.96	17.857
264.33	15.927
264.70	15.263
265.07	17.647
265.44	16.414
265.81	14.842
266.18	17.588
266.55	16.829
266.92	19.410
267.29	16.898
267.66	14.908
268.03	16.818
268.40	14.953
268.77	14.320
269.14	15.541
269.51	14.898
269.88	17.716
270.25	16.027
270.62	16.854
270.99	18.495
271.36	15.021
271.73	12.617
272.10	15.000
272.47	14.839
272.84	15.584
273.21	16.352
273.58	13.319
273.95	13.417
274.32	13.017
274.69	14.989
275.06	12.402
275.43	12.766
275.80	13.427
276.17	14.257
276.54	17.256
276.91	13.834
277.28	14.453
277.65	14.120
278.02	14.907
278.39	16.406
278.76	14.909
279.13	15.094
279.50	14.898
279.87	15.139
280.23	13.174
280.60	14.894
280.97	14.603
281.34	15.575
281.71	16.909
282.08	14.203
282.45	12.182
282.82	15.453
283.19	12.656
283.56	12.982
283.92	14.552
284.29	13.051
284.66	12.704
285.03	12.839
285.40	10.915
285.77	13.973
286.14	14.853
286.51	14.500
286.87	14.359
287.24	14.495
287.61	13.965
287.98	13.474
288.35	14.105
288.72	13.863
289.08	13.459
289.45	12.685
289.82	13.171
290.19	12.402
290.56	13.936
290.93	11.782
291.29	13.497
291.66	12.389
292.03	15.552
292.40	14.244
292.77	12.130
293.13	12.985
293.50	12.245
293.87	12.593
294.24	10.370
294.60	11.499
294.97	13.808
295.34	14.104
295.71	12.216
296.08	12.821
296.44	11.967
296.81	11.229
297.18	14.634
297.55	11.346
297.91	12.929
298.28	12.985
298.65	12.663
299.02	13.439
299.38	12.616
299.75	11.321
300.12	11.239
300.48	11.625
300.85	12.454
301.22	12.102
301.59	12.374
301.95	12.972
302.32	12.965
302.69	13.381
303.05	12.970
303.42	12.346
303.79	12.797
304.15	12.238
304.52	11.587
304.89	13.821
305.25	14.269
305.62	14.383
305.99	12.751
306.35	14.094
306.72	13.677
307.09	12.542
307.45	14.302
307.82	11.942
308.19	14.238
308.55	14.995
308.92	12.997
309.29	13.833
309.65	13.892
310.02	14.905
310.38	15.914
310.75	14.256
311.12	15.967
311.48	15.569
311.85	15.409
312.22	15.921
312.58	15.281
312.95	17.212
313.31	15.825
313.68	16.632
314.05	18.639
314.41	17.789
314.78	16.616
315.14	16.485
315.51	16.890
315.87	18.416
316.24	17.478
316.61	16.667
316.97	17.710
317.34	17.319
317.70	18.642
318.07	18.768
318.43	19.374
318.80	20.244
319.16	19.680
319.53	19.700
319.89	20.476
320.26	20.100
320.62	20.337
320.99	21.414
321.35	20.505
321.72	22.895
322.08	21.915
322.45	22.886
322.81	24.128
323.18	22.640
323.54	23.284
323.91	24.340
324.27	23.327
324.64	24.231
325.00	24.436
325.37	26.752
325.73	26.122
326.10	27.273
326.46	26.523
326.83	29.163
327.19	28.266
327.56	28.746
327.92	28.346
328.29	29.015
328.65	29.190
329.01	30.596
329.38	29.140
329.74	31.671
330.11	29.972
330.47	31.313
330.84	30.147
331.20	30.783
331.56	32.569
331.93	30.926
332.29	30.967
332.66	31.681
333.02	30.896
333.38	32.249
333.75	31.996
334.11	30.694
334.48	31.588
334.84	31.250
335.20	32.636
335.57	31.641
335.93	30.268
336.29	32.875
336.66	32.552
337.02	31.403
337.38	32.130
337.75	31.907
338.11	32.856
338.47	31.584
338.84	32.447
339.20	32.752
339.56	33.394
339.93	32.000
340.29	32.246
340.65	32.620
341.02	32.810
341.38	32.740
341.74	32.895
342.11	33.799
342.47	33.040
342.83	33.305
343.20	32.987
343.56	32.013
343.92	33.860
344.28	34.014
344.65	33.362
345.01	32.744
345.37	32.504
345.73	33.164
346.10	33.248
346.46	34.407
346.82	33.278
347.19	32.665
347.55	34.565
347.91	33.738
348.27	34.840
348.63	33.946
349.00	33.576
349.36	34.565
349.72	34.403
350.08	34.684
350.45	34.337
350.81	34.444
351.17	34.036
351.53	34.070
351.89	33.993
352.26	33.860
352.62	35.204
352.98	33.712
353.34	36.237
353.70	34.697
354.07	35.242
354.43	33.571
354.79	34.755
355.15	34.557
355.51	34.532
355.87	36.082
356.24	35.016
356.60	35.445
356.96	35.318
357.32	35.895
357.68	35.197
358.04	36.105
358.40	35.629
358.77	36.072
359.13	35.517
359.49	35.294
359.85	33.492
360.21	36.603
360.57	36.265
360.93	37.308
361.29	36.130
361.66	34.907
362.02	36.194
362.38	37.186
362.74	37.277
363.10	34.863
363.46	36.977
363.82	35.525
364.18	37.078
364.54	36.999
364.90	36.756
365.26	36.176
365.62	37.692
365.98	36.888
366.35	35.673
366.71	36.949
367.07	38.092
367.43	37.663
367.79	38.187
368.15	38.721
368.51	37.064
368.87	38.116
369.23	37.674
369.59	39.030
369.95	38.676
370.31	37.821
370.67	37.826
371.03	39.251
371.39	38.265
371.75	39.926
372.11	37.696
372.47	40.103
372.83	39.481
373.19	37.572
373.55	39.024
373.91	40.133
374.27	38.351
374.63	39.491
374.99	39.407
375.35	39.637
375.71	38.588
376.07	40.535
376.42	39.340
376.78	39.960
377.14	39.417
377.50	40.728
377.86	39.827
378.22	39.823
378.58	39.662
378.94	40.226
379.30	39.949
379.66	41.497
380.02	40.602
380.38	39.526
380.74	40.216
381.09	40.526
381.45	41.610
381.81	41.093
382.17	40.701
382.53	40.692
382.89	42.099
383.25	41.588
383.61	42.255
383.97	41.276
384.32	41.298
384.68	41.202
385.04	42.225
385.40	41.610
385.76	42.629
386.12	42.811
386.48	41.850
386.83	41.950
387.19	42.795
387.55	43.476
387.91	42.684
388.27	42.060
388.62	43.393
388.98	42.383
389.34	42.991
389.70	43.409
390.06	42.839
390.42	42.996
390.77	43.575
391.13	43.586
391.49	43.718
391.85	43.603
392.20	41.830
392.56	43.308
392.92	43.378
393.28	43.491
393.64	43.885
393.99	42.639
394.35	43.672
394.71	43.287
395.07	41.620
395.42	43.820
395.78	42.621
396.14	43.575
396.50	43.421
396.85	44.628
397.21	42.602
397.57	42.839
397.92	43.329
398.28	42.489
398.64	43.070
399.00	43.201
399.35	42.865
399.71	43.345
400.07	43.820
400.42	43.681
400.78	42.823
401.14	43.354
401.49	43.522
401.85	43.073
402.21	42.515
402.57	43.553
402.92	43.758
403.28	44.097
403.63	43.379
403.99	43.248
404.35	43.576
404.70	43.285
405.06	42.632
405.42	43.793
405.77	43.543
406.13	42.269
406.49	43.820
406.84	42.469
407.20	42.435
407.55	43.204
407.91	43.867
408.27	44.097
408.62	42.565
408.98	43.015
409.34	43.419
409.69	44.903
410.05	42.751
410.40	43.914
410.76	42.772
411.11	43.064
411.47	42.173
411.83	43.250
412.18	42.424
412.54	43.711
412.89	42.831
413.25	42.326
413.60	42.804
413.96	43.230
414.31	43.196
414.67	43.726
415.03	42.517
415.38	42.784
415.74	42.958
416.09	43.958
416.45	42.102
416.80	42.763
417.16	43.231
417.51	42.269
417.87	42.068
418.22	42.082
418.58	44.158
418.93	43.305
419.29	43.221
419.64	43.892
420.00	42.927
420.35	42.841
420.71	43.993
421.06	42.780
421.42	42.749
421.77	42.265
422.12	42.953
422.48	41.554
422.83	43.157
423.19	43.425
423.54	42.716
423.90	43.710
424.25	42.323
424.61	43.810
424.96	43.790
425.31	43.189
425.67	42.079
426.02	43.543
426.38	43.895
426.73	43.008
427.09	44.195
427.44	43.531
427.79	42.726
428.15	43.393
428.50	43.827
428.85	43.564
429.21	43.622
429.56	43.494
429.92	42.728
430.27	43.446
430.62	42.396
430.98	42.916
431.33	43.299
431.68	43.717
432.04	42.599
432.39	43.746
432.74	44.464
433.10	44.652
433.45	44.840
433.80	44.180
434.16	43.857
434.51	43.526
434.86	42.303
435.22	43.691
435.57	44.681
435.92	45.114
436.28	44.662
436.63	44.757
436.98	43.904
437.34	45.319
437.69	44.574
438.04	44.969
438.39	43.701
438.75	45.613
439.10	45.140
439.45	44.628
439.81	45.317
440.16	44.325
440.51	44.757
440.86	44.876
441.22	44.271
441.57	45.807
441.92	45.957
442.27	45.156
442.63	44.813
442.98	45.915
443.33	44.402
443.68	44.605
444.03	45.974
444.39	44.012
444.74	45.617
445.09	44.852
445.44	44.943
445.79	44.879
446.15	45.209
446.50	45.127
446.85	45.581
447.20	44.518
447.55	44.500
447.91	45.008
448.26	44.797
448.61	45.393
448.96	45.404
449.31	46.232
449.66	45.301
450.02	45.515
450.37	45.522
450.72	45.742
451.07	45.277
451.42	45.228
451.77	45.390
452.12	45.323
452.47	45.647
452.83	46.096
453.18	45.416
453.53	47.001
453.88	45.777
454.23	46.204
454.58	46.396
454.93	47.552
455.28	45.574
455.63	46.117
455.98	47.024
456.34	46.734
456.69	47.026
457.04	47.678
457.39	45.237
457.74	45.908
458.09	46.176
458.44	46.123
458.79	45.336
459.14	47.009
459.49	45.826
459.84	45.042
460.19	45.669
460.54	44.387
460.89	46.517
461.24	45.598
461.59	46.426
461.94	46.547
462.29	46.469
462.64	44.990
462.99	44.958
463.34	47.400
463.69	46.654
464.04	45.971
464.39	45.333
464.74	45.870
465.09	45.115
465.44	44.598
465.79	45.694
466.14	44.937
466.49	45.050
466.84	44.950
467.19	46.228
467.54	47.062
467.89	45.498
468.24	45.433
468.59	46.154
468.94	46.182
469.29	45.630
469.64	46.586
469.99	47.970
470.34	46.433
470.68	47.989
471.03	46.259
471.38	48.158
471.73	45.436
472.08	47.829
472.43	45.477
472.78	46.412
473.13	46.919
473.48	47.004
473.83	47.317
474.17	45.426
474.52	47.333
474.87	46.877
475.22	46.721
475.57	46.319
475.92	45.088
476.27	45.603
476.61	45.008
476.96	45.959
477.31	46.363
477.66	46.499
478.01	45.374
478.36	46.113
478.70	45.794
479.05	46.592
479.40	45.957
479.75	46.772
480.10	46.322
480.45	44.979
480.79	45.342
481.14	46.086
481.49	45.230
481.84	46.228
482.19	46.070
482.53	45.917
482.88	45.416
483.23	45.607
483.58	46.224
483.92	46.673
484.27	44.793
484.62	44.871
484.97	45.171
485.31	46.062
485.66	44.469
486.01	42.612
486.36	41.057
486.70	40.099
487.05	41.114
487.40	42.160
487.75	42.634
488.09	44.222
488.44	44.229
488.79	45.316
489.13	45.684
489.48	45.922
489.83	44.929
490.17	46.339
490.52	45.306
490.87	45.138
491.22	45.339
491.56	44.282
491.91	45.882
492.26	45.981
492.60	45.714
492.95	44.902
493.30	45.187
493.64	46.104
493.99	45.543
494.34	46.068
494.68	46.245
495.03	46.852
495.37	45.416
495.72	46.296
496.07	46.682
496.41	45.398
496.76	45.163
497.11	45.205
497.45	46.111
497.80	44.914
498.14	46.812
498.49	46.585
498.84	46.405
499.18	45.571
499.53	45.869
499.87	45.294
500.22	46.114
500.56	46.990
500.91	45.529
501.26	46.278
501.60	46.559
501.95	45.509
502.29	47.188
502.64	46.043
502.98	46.283
503.33	45.201
503.67	45.754
504.02	45.884
504.36	46.093
504.71	45.725
505.06	44.964
505.40	46.864
505.75	46.287
506.09	46.599
506.44	46.818
506.78	47.053
507.13	47.855
507.47	47.121
507.82	47.264
508.16	48.126
508.51	47.387
508.85	47.071
509.19	47.857
509.54	47.092
509.88	47.501
510.23	46.581
510.57	48.142
510.92	47.851
511.26	47.071
511.61	47.666
511.95	46.816
512.30	47.932
512.64	47.125
512.98	48.285
513.33	47.966
513.67	47.012
514.02	47.619
514.36	48.061
514.70	49.087
515.05	47.630
515.39	48.626
515.74	48.142
516.08	49.525
516.42	48.890
516.77	50.111
517.11	49.057
517.46	49.210
517.80	50.058
518.14	48.929
518.49	50.350
518.83	50.000
519.17	49.827
519.52	49.349
519.86	49.515
520.20	49.595
520.55	50.928
520.89	51.277
521.23	50.663
521.58	50.480
521.92	51.990
522.26	48.688
522.61	50.654
522.95	50.706
523.29	51.248
523.64	50.549
523.98	51.386
524.32	50.060
524.66	51.233
525.01	50.735
525.35	50.310
525.69	49.569
526.04	50.280
526.38	50.031
526.72	50.368
527.06	51.099
527.41	48.515
527.75	52.605
528.09	51.830
528.43	50.797
528.78	51.199
529.12	48.848
529.46	50.704
529.80	49.814
530.15	50.841
530.49	48.985
530.83	49.747
531.17	52.285
531.51	51.881
531.86	50.258
532.20	51.630
532.54	51.570
532.88	51.284
533.22	49.844
533.57	50.062
533.91	49.729
534.25	49.028
534.59	50.336
534.93	48.899
535.27	49.608
535.62	49.695
535.96	50.785
536.30	49.587
536.64	49.775
536.98	51.161
537.32	49.572
537.66	50.467
538.01	51.547
538.35	50.485
538.69	50.415
539.03	50.422
539.37	49.649
539.71	48.866
540.05	49.869
540.39	49.502
540.73	49.159
541.07	51.265
541.42	49.902
541.76	50.516
542.10	49.935
542.44	49.338
542.78	50.066
543.12	47.857
543.46	49.967
543.80	49.772
544.14	49.551
544.48	50.349
544.82	49.326
545.16	49.902
545.50	50.450
545.84	49.798
546.18	50.909
546.52	51.136
546.86	49.759
547.20	51.719
547.54	49.432
547.88	50.702
548.22	49.253
548.56	49.371
548.90	49.872
549.24	50.303
549.58	50.341
549.92	50.206
550.26	50.781
550.60	48.893
550.94	50.493
551.28	50.037
551.62	51.689
551.96	50.386
552.30	51.672
552.64	50.507
552.98	50.576
553.32	49.629
553.66	49.421
554.00	51.201
554.34	49.965
554.68	51.001
555.02	50.353
555.36	50.104
555.69	50.474
556.03	50.740
556.37	49.864
556.71	49.181
557.05	49.440
557.39	50.385
557.73	50.529
558.07	51.849
558.41	51.085
558.75	51.947
559.08	51.603
559.42	51.323
559.76	50.515
560.10	49.964
560.44	50.175
560.78	51.297
561.12	49.472
561.45	51.239
561.79	47.989
562.13	50.637
562.47	50.478
562.81	51.325
563.15	50.702
563.48	50.066
563.82	49.967
564.16	50.164
564.50	50.130
564.84	49.494
565.17	49.099
565.51	50.160
565.85	49.619
566.19	49.468
566.52	49.398
566.86	48.342
567.20	49.587
567.54	49.543
567.88	48.126
568.21	47.407
568.55	47.371
568.89	46.839
569.23	46.257
569.56	45.344
569.90	45.283
570.24	45.246
570.57	45.087
570.91	42.889
571.25	43.298
571.59	43.387
571.92	43.289
572.26	44.079
572.60	43.063
572.93	43.418
573.27	43.833
573.61	43.439
573.95	43.902
574.28	41.985
574.62	43.076
574.96	42.318
575.29	42.313
575.63	42.886
575.97	42.541
576.30	42.167
576.64	43.012
576.98	43.072
577.31	43.230
577.65	42.693
577.98	42.139
578.32	41.481
578.66	41.887
578.99	42.228
579.33	42.145
579.67	42.180
580.00	43.251
580.34	43.094
580.67	43.110
581.01	43.175
581.35	43.035
581.68	42.961
582.02	41.298
582.35	42.080
582.69	41.690
583.02	42.185
583.36	43.463
583.70	43.207
584.03	43.783
584.37	44.717
584.70	43.887
585.04	43.004
585.37	43.173
585.71	42.975
586.04	42.112
586.38	43.626
586.72	43.993
587.05	43.331
587.39	43.061
587.72	44.087
588.06	43.837
588.39	43.539
588.73	44.295
589.06	44.656
589.40	44.074
589.73	44.808
590.07	45.872
590.40	44.538
590.73	45.511
591.07	46.072
591.40	46.267
591.74	47.316
592.07	45.768
592.41	45.639
592.74	45.019
593.08	45.636
593.41	44.258
593.75	42.879
594.08	44.083
594.41	44.008
594.75	45.397
595.08	45.455
595.42	44.413
595.75	45.442
596.09	45.362
596.42	45.737
596.75	45.927
597.09	46.320
597.42	46.037
597.75	46.701
598.09	45.652
598.42	45.533
598.76	46.007
599.09	44.698
599.42	44.687
599.76	44.876
600.09	44.627
600.42	44.814
600.76	44.214
601.09	44.772
601.42	44.406
601.76	44.934
602.09	45.217
602.42	46.417
602.76	46.554
603.09	46.223
603.42	46.271
603.76	45.312
604.09	45.483
604.42	45.944
604.76	46.057
605.09	45.260
605.42	46.088
605.75	45.695
606.09	45.222
606.42	45.607
606.75	45.541
607.09	45.668
607.42	45.186
607.75	45.401
608.08	45.593
608.42	45.944
608.75	45.446
609.08	45.143
609.41	45.835
609.75	46.832
610.08	47.691
610.41	46.089
610.74	44.939
611.07	46.789
611.41	47.007
611.74	47.511
612.07	46.325
612.40	46.957
612.73	47.684
613.07	48.276
613.40	47.920
613.73	45.831
614.06	45.968
614.39	48.191
614.72	47.316
615.06	47.637
615.39	47.187
615.72	47.495
616.05	47.847
616.38	46.971
616.71	47.684
617.05	48.351
617.38	48.346
617.71	48.108
618.04	48.317
618.37	47.842
618.70	49.160
619.03	49.079
619.36	48.405
619.69	49.577
620.03	49.863
620.36	49.532
620.69	50.685
621.02	50.369
621.35	49.726
621.68	48.754
622.01	50.232
622.34	48.790
622.67	50.570
623.00	50.330
623.33	49.464
623.66	50.679
623.99	49.926
624.32	49.501
624.65	49.294
624.99	49.929
625.32	50.036
625.65	49.887
625.98	50.884
626.31	52.566
626.64	51.184
626.97	53.117
627.30	51.787
627.63	51.846
627.96	51.388
628.29	52.843
628.62	52.333
628.95	53.302
629.28	51.734
629.61	53.162
629.94	53.333
630.26	53.289
630.59	53.289
630.92	50.670
631.25	52.912
631.58	52.052
631.91	52.231
632.24	52.004
632.57	53.200
632.90	55.482
633.23	54.027
633.56	57.062
633.89	55.379
634.22	54.484
634.55	57.870
634.88	54.132
635.20	56.272
635.53	56.506
635.86	57.797
636.19	54.824
636.52	56.171
636.85	53.265
637.18	52.535
637.51	54.965
637.83	52.651
638.16	57.033
638.49	55.290
638.82	57.016
639.15	56.250
639.48	56.110
639.81	57.373
640.13	55.859
640.46	56.107
640.79	55.746
641.12	52.820
641.45	57.402
641.77	60.236
642.10	57.164
642.43	57.958
642.76	58.978
643.09	58.129
643.41	57.815
643.74	57.099
644.07	57.774
644.40	60.123
644.73	56.535
645.05	58.954
645.38	57.188
645.71	59.742
646.04	59.302
646.36	60.434
646.69	61.204
647.02	60.204
647.35	59.622
647.67	59.823
648.00	57.398
648.33	58.251
648.66	56.061
648.98	57.721
649.31	55.755
649.64	57.549
649.96	54.098
650.29	57.346
650.62	55.987
650.94	57.861
651.27	59.628
651.60	56.905
651.92	57.029
652.25	56.678
652.58	56.854
652.90	56.872
653.23	55.316
653.56	57.323
653.88	58.320
654.21	54.660
654.54	56.931
654.86	56.386
655.19	52.973
655.52	40.466
655.84	37.460
656.17	46.531
656.49	61.756
656.82	61.916
657.15	46.642
657.47	34.377
657.80	27.263
658.13	28.390
658.45	42.496
658.78	43.554
659.10	44.741
659.43	47.311
659.75	49.218
660.08	52.278
660.41	56.425
660.73	58.577
661.06	60.510
661.38	60.182
661.71	60.000
662.03	61.538
662.36	58.847
662.68	61.446
663.01	61.818
663.33	61.571
663.66	62.185
663.98	60.259
664.31	58.824
664.63	58.097
664.96	57.344
665.28	60.246
665.61	57.505
665.93	58.753
666.26	59.838
666.58	58.159
666.91	61.734
667.23	60.899
667.56	57.451
667.88	60.256
668.21	60.341
668.53	60.087
668.86	56.277
669.18	57.356
669.50	59.348
669.83	61.874
670.15	62.667
670.48	59.913
670.80	62.284
671.13	61.146
671.45	57.660
671.77	58.045
672.10	55.453
672.42	54.417
672.75	53.566
673.07	54.930
673.39	56.962
673.72	57.812
674.04	56.275
674.37	54.175
674.69	56.851
675.01	56.067
675.34	56.879
675.66	58.526
675.98	57.434
676.31	57.563
676.63	58.811
676.95	57.442
677.28	61.916
677.60	57.582
677.92	60.549
678.25	56.879
678.57	60.159
678.89	60.321
679.22	54.224
679.54	57.634
679.86	56.330
680.18	55.993
680.51	56.915
680.83	52.313
681.15	53.962
681.48	57.089
681.80	53.965
682.12	55.556
682.44	52.031
682.77	58.452
683.09	58.584
683.41	56.319
683.73	56.291
684.06	56.818
684.38	56.164
684.70	53.295
685.02	56.473
685.34	54.762
685.67	53.846
685.99	54.296
686.31	53.584
686.63	54.064
686.96	51.786
687.28	52.888
687.60	52.174
687.92	54.662
688.24	51.521
688.56	56.024
688.89	58.299
689.21	57.860
689.53	54.697
689.85	57.428
690.17	54.451
690.49	57.749
690.82	60.981
691.14	55.580
691.46	52.954
691.78	54.016
692.10	58.264
692.42	55.289
692.74	54.979
693.06	55.106
693.39	55.441
693.71	55.895
694.03	53.263
694.35	54.762
694.67	55.378
694.99	58.780
695.31	56.618
695.63	56.459
695.95	60.391
696.27	53.807
696.59	60.881
696.91	56.477
697.23	56.573
697.56	53.731
697.88	51.738
698.20	53.333
698.52	53.548
698.84	53.452
699.16	53.917
699.48	54.394
699.80	57.488
700.12	60.779
700.44	61.538
700.76	60.773
701.08	57.759
701.40	57.821
701.72	60.350
702.04	60.227
702.36	54.958
702.68	60.057
703.00	58.449
703.32	53.723
703.64	54.692
703.96	59.331
704.28	57.849
704.60	58.358
704.91	60.831
705.23	57.771
705.55	61.794
705.87	61.794
706.19	62.191
706.51	59.190
706.83	59.091
707.15	57.143
707.47	55.808
707.79	54.054
708.11	51.598
708.43	53.333
708.74	53.571
709.06	57.662
709.38	57.743
709.70	56.977
710.02	59.347
710.34	56.970
710.66	55.821
710.98	55.398
711.29	57.267
711.61	60.177
711.93	56.731
712.25	63.666
712.57	62.868
712.89	60.208
713.20	58.055
713.52	62.171
713.84	57.911
714.16	53.963
714.48	56.034
714.80	59.574
715.11	54.755
715.43	57.864
715.75	56.812
716.07	57.827
716.39	55.799
716.70	57.143
717.02	63.309
717.34	60.777
717.66	63.433
717.97	65.737
718.29	58.148
718.61	62.044
718.93	62.500
719.24	59.862
719.56	54.237
719.88	60.339
720.20	57.770
720.51	59.930
720.83	61.338
721.15	55.597
721.46	54.610
721.78	61.649
722.10	61.509
722.42	63.534
722.73	63.670
723.05	56.557
723.37	59.109
723.68	57.143
724.00	61.789
724.32	59.274
724.63	59.756
724.95	60.251
725.27	60.324
725.58	60.938
725.90	54.745
726.22	56.604
726.53	56.250
726.85	54.266
727.16	56.228
727.48	52.128
727.80	53.788
728.11	55.797
728.43	56.923
728.74	54.480
729.06	59.489
729.38	60.294
729.69	51.601
730.01	54.266
730.32	55.903
730.64	55.518
730.96	54.125
731.27	55.629
731.59	52.905
731.90	50.729
732.22	54.037
732.53	52.322
732.85	55.128
733.16	50.161
733.48	53.156
733.80	55.519
734.11	52.866
734.43	55.917
734.74	50.000
735.06	52.149
735.37	58.960
735.69	49.682
736.00	57.190
736.32	50.467
736.63	49.840
736.95	50.160
737.26	47.619
737.58	52.903
737.89	52.508
738.21	54.266
738.52	51.786
738.83	50.189
739.15	52.308
739.46	52.920
739.78	54.514
740.09	53.231
740.41	51.290
740.72	51.568
741.04	55.556
741.35	58.333
741.66	57.778
741.98	56.604
742.29	62.201
742.61	59.914
742.92	55.656
743.23	56.838
743.55	52.400
743.86	55.702
744.18	60.177
744.49	58.852
744.80	62.911
745.12	61.818
745.43	56.388
745.74	59.459
746.06	55.505
746.37	62.780
746.68	57.014
747.00	55.093
747.31	63.333
747.62	53.540
747.94	60.352
748.25	57.021
748.56	59.471
748.88	58.911
749.19	60.000
749.50	61.860
749.82	55.285
750.13	53.469
750.44	53.650
750.75	55.789
751.07	53.698
751.38	52.265
751.69	54.874
752.01	53.008
752.32	50.181
752.63	50.000
752.94	55.328
753.26	61.200
753.57	58.130
753.88	55.078
754.19	52.500
754.51	55.556
754.82	49.097
755.13	54.340
755.44	52.632
755.75	54.380
756.07	50.355
756.38	53.650
756.69	53.020
757.00	46.707
757.31	46.884
757.63	44.737
757.94	45.040
758.25	45.588
758.56	43.704
758.87	49.731
759.18	49.394
759.50	47.022
759.81	49.533
760.12	45.625
760.43	46.418
760.74	46.739
761.05	48.305
761.36	43.850
761.67	49.148
761.99	47.205
762.30	50.694
762.61	48.855
762.92	50.391
763.23	52.941
763.54	53.600
763.85	48.047
764.16	55.769
764.47	53.612
764.78	48.410
765.10	39.873
765.41	45.723
765.72	48.503
766.03	45.455
766.34	46.333
766.65	58.298
766.96	50.855
767.27	62.437
767.58	60.417
767.89	56.842
768.20	54.598
768.51	55.330
768.82	51.835
769.13	47.561
769.44	45.344
769.75	47.210
770.06	46.330
770.37	52.489
770.68	54.167
770.99	52.000
771.30	48.361
771.61	53.812
771.92	54.508
772.23	53.782
772.54	53.846
772.85	56.545
773.16	55.851
773.47	56.522
773.78	56.345
774.09	56.548
774.39	57.310
774.70	55.556
775.01	60.870
775.32	60.784
775.63	63.816
775.94	64.029
776.25	62.205
776.56	61.194
776.87	68.852
777.18	58.594
777.48	70.229
777.79	57.576
778.10	58.519
778.41	57.143
778.72	56.934
779.03	58.389
779.34	58.389
779.65	64.189
779.95	58.896
780.26	58.824
780.57	61.379
780.88	69.531
781.19	61.654
781.50	58.784
781.80	59.119
782.11	58.192
782.42	60.127
782.73	55.215
783.04	61.486
783.34	59.859
783.65	68.493
783.96	62.687
784.27	55.245
784.57	48.201
784.88	63.889
785.19	65.079
785.50	58.491
785.81	68.657
786.11	70.492
786.42	64.341
786.73	67.257
787.04	70.755
787.34	69.643
787.65	77.000
787.96	70.270
788.26	66.116
788.57	59.322
788.88	61.157
789.19	63.194
789.49	64.394
789.80	61.832
790.11	73.333
790.41	75.248
790.72	78.313
791.03	69.565
791.33	69.767
791.64	64.948
791.95	73.267
792.25	81.111
792.56	68.831
792.87	74.359
793.17	91.139
793.48	72.414
793.79	72.414
794.09	72.727
794.40	58.824
794.70	64.706
795.01	57.778
795.32	62.590
795.62	61.417
795.93	60.345
796.23	60.177
796.54	77.647
796.85	67.568
797.15	88.732
797.46	81.818
797.76	80.723
798.07	77.215
798.37	80.000
798.68	80.303
798.99	76.056
799.29	90.909
799.60	62.500
799.90	78.082
800.21	88.060
800.51	74.138
800.82	92.982
801.12	73.770
801.43	81.818
801.73	68.919
802.04	80.952
802.34	65.432
802.65	82.813
802.95	86.441
803.26	112.500
803.56	67.143
803.87	70.769
804.17	85.294
804.48	100.000
804.78	91.379
805.09	73.529
805.39	84.615
805.70	87.500
806.00	91.803
806.30	69.697
806.61	71.951
806.91	83.544
807.22	81.579
807.52	71.642
807.83	78.873
808.13	100.000
808.43	71.667
808.74	67.105
809.04	75.362
809.35	95.522
809.65	78.947
809.95	109.677
810.26	93.220
810.56	88.889
810.86	125.000
811.17	85.714
811.47	105.000
811.77	72.222
812.08	107.273
812.38	96.000
812.69	130.556
812.99	127.273
813.29	85.714
813.59	73.810
813.90	106.122
814.20	85.455
814.50	75.385
814.81	95.588
815.11	102.041
815.41	81.967
815.72	109.524
816.02	87.273
816.32	90.476
816.62	110.000
816.93	102.439
817.23	102.381
817.53	93.182
817.84	142.424
818.14	115.217
818.44	117.778
818.74	129.412
819.04	102.500
819.35	125.714
819.65	158.824
819.95	150.000
820.25	165.000
820.56	112.821
820.86	86.364
821.16	134.884
821.46	110.256
821.76	100.000
822.07	125.714
822.37	130.000
822.67	115.152
822.97	101.961
823.27	160.714
823.57	127.027
823.88	117.500
824.18	136.667
824.48	90.476
824.78	164.000
825.08	154.167
825.38	132.432
825.69	100.000
825.99	158.333
826.29	113.793
826.59	121.053
826.89	115.789
827.19	129.412
827.49	148.387
827.79	122.727
828.09	97.727
828.39	87.234
828.70	87.755
829.00	118.519
829.30	112.903
829.60	80.000
829.90	146.667
830.20	121.429
830.50	130.435
830.80	143.478
831.10	140.000
831.40	96.667
831.70	147.826
832.00	165.385
832.30	140.741
832.60	206.250
832.90	150.000
833.20	242.857
833.50	138.710
833.80	117.241
834.10	140.625
834.40	146.154
834.70	183.333
835.00	280.952
835.30	108.571
835.60	184.615
835.90	151.724
836.20	228.571
836.50	155.172
836.80	120.000
837.10	113.889
837.40	180.952
837.70	247.059
838.00	162.963
838.30	161.905
838.60	214.286
838.90	130.769
839.19	185.000
839.49	264.286
839.79	205.000
840.09	175.000
840.39	161.905
840.69	208.696
840.99	194.444
841.29	340.000
841.59	108.333
841.88	181.250
842.18	113.793
842.48	157.143
842.78	143.333
843.08	178.261
843.38	125.000
843.68	533.333
843.97	142.308
844.27	144.828
844.57	233.333
844.87	225.000
845.17	133.333
845.47	966.667
845.76	244.444
846.06	164.706
846.36	275.000
846.66	257.143
846.96	193.750
847.25	281.818
847.55	245.455
847.85	160.870
848.15	310.000
848.44	221.429
848.74	144.444
849.04	182.353
849.34	410.000
849.63	194.737
849.93	281.818
850.23	380.000
850.53	228.571
850.82	1050.000
851.12	-1900.000
851.42	2500.000
851.71	175.000
852.01	-633.333
852.31	154.167
852.61	1166.667
852.90	195.238
853.20	168.000
853.50	205.882
853.79	157.143
854.09	183.333
854.39	162.500
854.68	110.811
854.98	138.710
855.28	116.667
855.57	131.034
855.87	155.556
856.17	200.000
856.46	126.667
856.76	241.176
857.05	134.483
857.35	162.500
857.65	213.333
857.94	121.739
858.24	150.000
858.53	200.000
858.83	145.455
859.13	240.000
859.42	0.000
859.72	366.667
860.01	272.727
860.31	136.364
860.60	184.211
860.90	165.217
861.20	177.778
861.49	316.667
861.79	-2900.000
862.08	400.000
862.38	142.857
862.67	176.923
862.97	211.765
863.26	255.556
863.56	188.889
863.85	316.667
864.15	375.000
864.44	240.000
864.74	583.333
865.03	450.000
865.33	152.632
865.62	263.636
865.92	276.923
866.21	133.333
866.51	0.000
866.80	281.818
867.10	760.000
867.39	338.462
867.69	236.364
867.98	178.947
868.27	272.727
868.57	152.632
868.86	-2900.000
869.16	268.750
869.45	1500.000
869.75	-2800.000
870.04	300.000
870.33	314.286
870.63	550.000
870.92	1700.000
871.22	457.143
871.51	211.765
871.80	123.810
872.10	235.714
>>>>>End Processed Spectral Data<<<<<
