SpectraSuite Data File
++++++++++++++++++++++++++++++++++++
Date: Wed May 13 16:01:51 PDT 2015
User: schluterlab
Dark Spectrum Present: Yes
Reference Spectrum Present: Yes
Number of Sampled Component Spectra: 1
Spectrometers: USB2E3373
Integration Time (usec): 3000 (USB2E3373)
Spectra Averaged: 3 (USB2E3373)
Boxcar Smoothing: 0 (USB2E3373)
Correct for Electrical Dark: No (USB2E3373)
Strobe/Lamp Enabled: No (USB2E3373)
Correct for Detector Non-linearity: No (USB2E3373)
Correct for Stray Light: No (USB2E3373)
Number of Pixels in Processed Spectrum: 2048
>>>>>Begin Processed Spectral Data<<<<<
178.53	0.000
178.91	-525.000
179.29	-625.000
179.67	-77.778
180.04	-450.000
180.42	1100.000
180.80	580.000
181.18	-125.000
181.56	185.714
181.94	0.000
182.31	-142.857
182.69	766.667
183.07	-162.500
183.45	-177.778
183.83	190.909
184.20	-110.000
184.58	1100.000
184.96	2600.000
185.34	-160.000
185.72	-62.500
186.09	-650.000
186.47	1300.000
186.85	350.000
187.23	1200.000
187.61	-866.667
187.98	275.000
188.36	263.636
188.74	281.818
189.12	-340.000
189.49	180.000
189.87	-2700.000
190.25	-675.000
190.63	178.571
191.00	107.692
191.38	466.667
191.76	-525.000
192.14	400.000
192.51	187.500
192.89	350.000
193.27	112.500
193.65	-600.000
194.02	210.000
194.40	380.000
194.78	170.000
195.15	208.333
195.53	300.000
195.91	-450.000
196.29	168.750
196.66	100.000
197.04	-50.000
197.42	0.000
197.79	190.000
198.17	-1100.000
198.55	271.429
198.92	275.000
199.30	180.000
199.68	0.000
200.05	133.333
200.43	257.143
200.81	1300.000
201.18	333.333
201.56	-466.667
201.94	166.667
202.31	255.556
202.69	166.667
203.07	240.000
203.44	0.000
203.82	250.000
204.19	242.857
204.57	221.429
204.95	300.000
205.32	566.667
205.70	309.091
206.08	71.429
206.45	1350.000
206.83	150.000
207.20	416.667
207.58	80.000
207.96	127.778
208.33	325.000
208.71	-266.667
209.08	385.714
209.46	200.000
209.84	154.545
210.21	-700.000
210.59	650.000
210.96	-62.500
211.34	950.000
211.71	170.000
212.09	133.333
212.46	0.000
212.84	633.333
213.22	400.000
213.59	-2300.000
213.97	283.333
214.34	285.714
214.72	300.000
215.09	420.000
215.47	-500.000
215.84	-1050.000
216.22	366.667
216.59	135.714
216.97	450.000
217.34	145.455
217.72	-183.333
218.09	0.000
218.47	-2200.000
218.84	300.000
219.22	285.714
219.59	500.000
219.97	-271.429
220.34	260.000
220.72	-766.667
221.09	157.143
221.47	675.000
221.84	-416.667
222.22	0.000
222.59	375.000
222.97	-1300.000
223.34	480.000
223.72	223.077
224.09	420.000
224.46	650.000
224.84	-1700.000
225.21	-540.000
225.59	-1700.000
225.96	350.000
226.34	145.000
226.71	700.000
227.08	150.000
227.46	240.000
227.83	-125.000
228.21	-500.000
228.58	344.444
228.95	-450.000
229.33	-700.000
229.70	666.667
230.08	214.286
230.45	-180.000
230.82	200.000
231.20	433.333
231.57	214.286
231.95	166.667
232.32	131.818
232.69	218.182
233.07	200.000
233.44	130.769
233.81	-400.000
234.19	168.421
234.56	250.000
234.93	216.667
235.31	236.364
235.68	169.231
236.05	185.714
236.43	84.848
236.80	94.737
237.17	1900.000
237.55	114.286
237.92	135.714
238.29	109.524
238.67	80.645
239.04	134.483
239.41	100.000
239.79	63.043
240.16	85.714
240.53	95.455
240.91	60.784
241.28	54.000
241.65	68.000
242.02	66.667
242.40	77.419
242.77	73.333
243.14	56.989
243.51	62.921
243.89	57.647
244.26	53.333
244.63	55.914
245.00	63.830
245.38	52.475
245.75	58.879
246.12	45.872
246.49	55.474
246.87	68.800
247.24	53.846
247.61	50.714
247.98	45.752
248.36	50.676
248.73	50.318
249.10	66.879
249.47	50.282
249.84	50.802
250.22	49.733
250.59	50.888
250.96	46.970
251.33	48.341
251.70	48.515
252.08	45.238
252.45	42.601
252.82	51.304
253.19	53.617
253.56	46.667
253.94	50.207
254.31	48.047
254.68	46.923
255.05	51.292
255.42	50.813
255.79	48.162
256.16	46.209
256.54	47.703
256.91	48.043
257.28	44.604
257.65	46.535
258.02	49.379
258.39	47.003
258.76	48.495
259.14	47.917
259.51	46.809
259.88	43.478
260.25	46.526
260.62	44.509
260.99	50.932
261.36	46.847
261.73	50.430
262.10	46.512
262.47	44.789
262.85	44.568
263.22	42.165
263.59	46.439
263.96	46.154
264.33	44.648
264.70	47.632
265.07	45.269
265.44	45.707
265.81	41.606
266.18	44.221
266.55	45.122
266.92	45.946
267.29	48.148
267.66	45.183
268.03	46.818
268.40	43.925
268.77	43.675
269.14	42.793
269.51	44.921
269.88	43.357
270.25	44.921
270.62	42.022
270.99	42.581
271.36	45.708
271.73	43.458
272.10	43.913
272.47	46.022
272.84	42.641
273.21	45.283
273.58	41.485
273.95	42.348
274.32	44.628
274.69	44.540
275.06	44.882
275.43	42.766
275.80	41.683
276.17	41.344
276.54	41.996
276.91	45.257
277.28	41.016
277.65	44.101
278.02	45.135
278.39	42.773
278.76	42.000
279.13	42.830
279.50	42.086
279.87	44.024
280.23	43.313
280.60	41.973
280.97	41.405
281.34	44.248
281.71	42.000
282.08	43.762
282.45	40.545
282.82	39.254
283.19	40.107
283.56	42.105
283.92	40.609
284.29	42.328
284.66	38.475
285.03	40.145
285.40	41.901
285.77	41.751
286.14	39.206
286.51	42.333
286.87	40.684
287.24	41.042
287.61	42.055
287.98	40.584
288.35	40.254
288.72	38.162
289.08	38.185
289.45	39.374
289.82	39.187
290.19	36.892
290.56	36.600
290.93	36.103
291.29	37.883
291.66	35.693
292.03	35.901
292.40	37.739
292.77	36.982
293.13	35.075
293.50	36.443
293.87	34.667
294.24	33.481
294.60	34.934
294.97	33.285
295.34	35.120
295.71	35.227
296.08	33.761
296.44	31.087
296.81	32.893
297.18	34.282
297.55	31.926
297.91	34.037
298.28	35.074
298.65	31.723
299.02	33.333
299.38	32.802
299.75	32.749
300.12	32.822
300.48	31.375
300.85	29.100
301.22	32.739
301.59	31.061
301.95	31.108
302.32	31.836
302.69	29.391
303.05	29.818
303.42	29.259
303.79	30.351
304.15	29.604
304.52	30.012
304.89	30.081
305.25	28.770
305.62	29.898
305.99	30.342
306.35	30.872
306.72	29.821
307.09	29.523
307.45	32.207
307.82	28.460
308.19	29.029
308.55	30.313
308.92	29.431
309.29	29.461
309.65	28.526
310.02	27.061
310.38	29.677
310.75	29.145
311.12	29.580
311.48	28.422
311.85	29.036
312.22	28.824
312.58	28.274
312.95	30.201
313.31	26.699
313.68	29.314
314.05	30.671
314.41	31.156
314.78	28.701
315.14	27.507
315.51	29.042
315.87	29.406
316.24	29.990
316.61	27.875
316.97	27.104
317.34	27.691
317.70	28.585
318.07	28.489
318.43	28.963
318.80	30.178
319.16	28.249
319.53	27.111
319.89	28.571
320.26	29.100
320.62	27.679
320.99	27.879
321.35	27.980
321.72	28.337
322.08	29.121
322.45	29.353
322.81	29.457
323.18	29.769
323.54	28.293
323.91	29.057
324.27	28.203
324.64	28.984
325.00	28.404
325.37	28.753
325.73	29.443
326.10	27.096
326.46	27.419
326.83	27.696
327.19	27.669
327.56	27.787
327.92	27.472
328.29	27.950
328.65	27.164
329.01	26.715
329.38	27.567
329.74	27.424
330.11	27.333
330.47	27.548
330.84	28.033
331.20	27.413
331.56	26.697
331.93	27.500
332.29	27.684
332.66	26.637
333.02	28.702
333.38	27.552
333.75	26.649
334.11	27.491
334.48	26.264
334.84	26.838
335.20	26.182
335.57	27.017
335.93	25.357
336.29	26.374
336.66	27.953
337.02	25.701
337.38	26.944
337.75	25.223
338.11	25.604
338.47	26.611
338.84	26.764
339.20	25.872
339.56	27.737
339.93	24.545
340.29	25.906
340.65	25.490
341.02	26.091
341.38	24.822
341.74	25.614
342.11	25.939
342.47	25.903
342.83	25.428
343.20	26.840
343.56	24.937
343.92	25.175
344.28	25.000
344.65	25.795
345.01	25.168
345.37	24.185
345.73	26.058
346.10	25.575
346.46	25.593
346.82	25.206
347.19	25.230
347.55	24.713
347.91	25.081
348.27	26.212
348.63	25.502
349.00	24.353
349.36	25.534
349.72	24.459
350.08	23.663
350.45	25.142
350.81	24.858
351.17	24.716
351.53	25.307
351.89	25.248
352.26	25.178
352.62	24.298
352.98	23.825
353.34	24.733
353.70	24.304
354.07	24.516
354.43	23.730
354.79	23.733
355.15	23.224
355.51	25.260
355.87	24.816
356.24	25.081
356.60	24.058
356.96	23.652
357.32	25.102
357.68	23.937
358.04	24.466
358.40	24.149
358.77	22.613
359.13	23.362
359.49	24.000
359.85	23.254
360.21	23.126
360.57	24.669
360.93	24.846
361.29	23.734
361.66	23.297
362.02	23.731
362.38	24.259
362.74	24.256
363.10	23.834
363.46	23.991
363.82	24.187
364.18	23.642
364.54	24.963
364.90	23.796
365.26	25.147
365.62	24.836
365.98	23.229
366.35	23.496
366.71	24.223
367.07	24.035
367.43	24.456
367.79	25.196
368.15	23.635
368.51	23.474
368.87	24.697
369.23	24.287
369.59	24.403
369.95	24.265
370.31	24.217
370.67	22.681
371.03	22.846
371.39	24.490
371.75	24.044
372.11	23.115
372.47	24.267
372.83	25.504
373.19	23.699
373.55	24.095
373.91	24.595
374.27	23.162
374.63	22.982
374.99	24.223
375.35	23.726
375.71	22.961
376.07	23.594
376.42	24.347
376.78	24.321
377.14	23.541
377.50	24.437
377.86	23.803
378.22	24.652
378.58	22.870
378.94	23.570
379.30	23.601
379.66	24.746
380.02	23.956
380.38	23.437
380.74	23.289
381.09	23.961
381.45	24.831
381.81	24.324
382.17	24.459
382.53	24.088
382.89	24.568
383.25	23.577
383.61	24.473
383.97	24.203
384.32	23.269
384.68	23.358
385.04	24.585
385.40	23.096
385.76	24.017
386.12	24.158
386.48	23.726
386.83	23.669
387.19	25.665
387.55	24.737
387.91	23.337
388.27	23.973
388.62	24.954
388.98	23.219
389.34	24.343
389.70	23.912
390.06	24.208
390.42	23.800
390.77	23.346
391.13	23.995
391.49	23.541
391.85	23.934
392.20	23.028
392.56	23.169
392.92	24.367
393.28	22.899
393.64	23.921
393.99	23.824
394.35	24.132
394.71	24.843
395.07	23.925
395.42	24.166
395.78	24.237
396.14	24.333
396.50	23.935
396.85	23.713
397.21	23.428
397.57	23.869
397.92	24.159
398.28	23.318
398.64	23.955
399.00	24.231
399.35	23.181
399.71	23.553
400.07	23.714
400.42	24.110
400.78	23.945
401.14	23.537
401.49	23.463
401.85	23.109
402.21	22.874
402.57	22.394
402.92	23.707
403.28	23.673
403.63	24.072
403.99	23.567
404.35	23.212
404.70	24.161
405.06	23.063
405.42	23.394
405.77	22.971
406.13	22.235
406.49	24.660
406.84	23.568
407.20	23.463
407.55	22.336
407.91	23.200
408.27	22.527
408.62	22.577
408.98	23.346
409.34	24.108
409.69	23.161
410.05	22.986
410.40	23.609
410.76	23.118
411.11	23.221
411.47	23.259
411.83	22.969
412.18	23.129
412.54	23.973
412.89	23.675
413.25	23.200
413.60	22.854
413.96	23.133
414.31	22.843
414.67	23.131
415.03	23.179
415.38	23.518
415.74	23.794
416.09	23.383
416.45	23.293
416.80	22.472
417.16	23.056
417.51	23.955
417.87	22.736
418.22	22.965
418.58	23.628
418.93	23.342
419.29	23.552
419.64	24.055
420.00	22.805
420.35	23.362
420.71	23.491
421.06	22.255
421.42	23.509
421.77	23.150
422.12	21.954
422.48	22.342
422.83	23.471
423.19	23.370
423.54	23.506
423.90	23.826
424.25	22.557
424.61	23.631
424.96	22.915
425.31	22.757
425.67	22.921
426.02	23.429
426.38	23.199
426.73	22.879
427.09	23.161
427.44	22.887
427.79	21.967
428.15	23.452
428.50	23.464
428.85	22.884
429.21	22.860
429.56	22.551
429.92	22.999
430.27	23.486
430.62	22.529
430.98	22.989
431.33	22.165
431.68	23.351
432.04	23.376
432.39	23.015
432.74	22.920
433.10	23.430
433.45	23.265
433.80	22.506
434.16	22.863
434.51	22.947
434.86	23.147
435.22	23.235
435.57	23.404
435.92	22.352
436.28	22.657
436.63	23.124
436.98	22.896
437.34	23.196
437.69	23.046
438.04	23.159
438.39	22.866
438.75	23.359
439.10	23.128
439.45	22.786
439.81	23.142
440.16	22.756
440.51	23.960
440.86	23.972
441.22	22.747
441.57	23.089
441.92	23.746
442.27	23.520
442.63	22.749
442.98	23.493
443.33	23.261
443.68	23.542
444.03	23.572
444.39	22.687
444.74	23.918
445.09	22.102
445.44	22.307
445.79	23.256
446.15	23.399
446.50	23.102
446.85	22.970
447.20	22.794
447.55	22.669
447.91	22.228
448.26	23.205
448.61	22.894
448.96	23.533
449.31	22.553
449.66	23.016
450.02	22.953
450.37	22.562
450.72	23.068
451.07	22.669
451.42	22.675
451.77	23.136
452.12	22.113
452.47	23.694
452.83	23.193
453.18	23.105
453.53	23.191
453.88	22.563
454.23	23.491
454.58	23.137
454.93	24.158
455.28	22.631
455.63	23.119
455.98	23.155
456.34	23.116
456.69	22.730
457.04	23.715
457.39	23.144
457.74	23.273
458.09	23.577
458.44	22.520
458.79	22.343
459.14	23.533
459.49	23.117
459.84	22.770
460.19	23.689
460.54	22.454
460.89	23.807
461.24	23.254
461.59	23.533
461.94	21.825
462.29	23.620
462.64	23.357
462.99	22.121
463.34	24.133
463.69	22.326
464.04	23.536
464.39	22.609
464.74	22.282
465.09	23.281
465.44	22.770
465.79	22.092
466.14	22.660
466.49	22.914
466.84	23.001
467.19	23.235
467.54	22.938
467.89	22.329
468.24	23.153
468.59	24.298
468.94	23.213
469.29	23.393
469.64	22.959
469.99	22.395
470.34	22.919
470.68	23.276
471.03	22.449
471.38	23.697
471.73	22.785
472.08	23.289
472.43	22.362
472.78	23.634
473.13	23.299
473.48	23.596
473.83	23.476
474.17	22.775
474.52	23.325
474.87	24.168
475.22	23.331
475.57	21.816
475.92	24.004
476.27	23.506
476.61	21.842
476.96	23.419
477.31	22.187
477.66	22.867
478.01	22.635
478.36	23.162
478.70	22.741
479.05	22.204
479.40	22.825
479.75	22.725
480.10	22.565
480.45	22.846
480.79	21.835
481.14	22.945
481.49	23.208
481.84	23.045
482.19	22.535
482.53	22.661
482.88	22.522
483.23	23.084
483.58	22.293
483.92	22.821
484.27	22.614
484.62	22.241
484.97	22.467
485.31	22.808
485.66	22.714
486.01	21.850
486.36	21.012
486.70	20.974
487.05	21.245
487.40	21.502
487.75	21.961
488.09	22.202
488.44	21.948
488.79	21.953
489.13	22.613
489.48	22.716
489.83	22.184
490.17	22.841
490.52	22.453
490.87	22.614
491.22	22.601
491.56	21.777
491.91	22.894
492.26	22.967
492.60	22.857
492.95	21.843
493.30	22.103
493.64	22.538
493.99	22.609
494.34	22.525
494.68	22.985
495.03	23.120
495.37	22.196
495.72	22.661
496.07	23.016
496.41	22.345
496.76	22.647
497.11	22.422
497.45	22.124
497.80	22.409
498.14	22.512
498.49	22.244
498.84	22.675
499.18	23.190
499.53	22.697
499.87	22.181
500.22	22.280
500.56	23.107
500.91	22.356
501.26	22.902
501.60	22.449
501.95	22.181
502.29	22.727
502.64	22.253
502.98	22.113
503.33	22.486
503.67	22.831
504.02	22.498
504.36	22.274
504.71	22.863
505.06	22.458
505.40	22.946
505.75	22.469
506.09	22.886
506.44	22.842
506.78	23.332
507.13	22.665
507.47	22.727
507.82	22.948
508.16	22.087
508.51	23.440
508.85	23.138
509.19	22.041
509.54	22.398
509.88	22.360
510.23	22.776
510.57	23.117
510.92	23.200
511.26	23.433
511.61	22.925
511.95	21.764
512.30	22.694
512.64	22.139
512.98	23.526
513.33	23.233
513.67	22.785
514.02	22.186
514.36	23.539
514.70	23.132
515.05	22.197
515.39	23.219
515.74	22.297
516.08	23.644
516.42	23.030
516.77	24.080
517.11	22.531
517.46	23.194
517.80	24.158
518.14	21.946
518.49	23.337
518.83	23.011
519.17	23.441
519.52	23.316
519.86	23.560
520.20	23.237
520.55	23.160
520.89	24.696
521.23	24.125
521.58	24.250
521.92	23.393
522.26	23.002
522.61	23.863
522.95	23.818
523.29	23.433
523.64	24.817
523.98	23.413
524.32	23.160
524.66	24.654
525.01	23.346
525.35	22.986
525.69	23.276
526.04	23.489
526.38	23.246
526.72	23.497
527.06	23.792
527.41	22.092
527.75	23.473
528.09	23.250
528.43	23.837
528.78	24.401
529.12	22.909
529.46	24.066
529.80	22.958
530.15	24.673
530.49	23.015
530.83	23.924
531.17	24.608
531.51	24.125
531.86	23.032
532.20	24.120
532.54	23.062
532.88	22.978
533.22	23.111
533.57	22.716
533.91	22.938
534.25	23.390
534.59	23.307
534.93	23.260
535.27	23.355
535.62	23.504
535.96	23.603
536.30	22.886
536.64	23.825
536.98	23.424
537.32	22.844
537.66	23.267
538.01	23.568
538.35	23.465
538.69	24.059
539.03	23.132
539.37	22.684
539.71	21.841
540.05	23.137
540.39	23.522
540.73	23.415
541.07	23.686
541.42	23.614
541.76	24.774
542.10	23.415
542.44	22.715
542.78	23.188
543.12	22.137
543.46	23.279
543.80	23.162
544.14	22.401
544.48	23.619
544.82	22.835
545.16	23.487
545.50	21.594
545.84	23.656
546.18	23.165
546.52	22.780
546.86	22.474
547.20	22.724
547.54	24.048
547.88	23.278
548.22	22.105
548.56	23.208
548.90	22.279
549.24	22.626
549.58	22.783
549.92	23.832
550.26	22.727
550.60	22.822
550.94	23.592
551.28	21.946
551.62	23.293
551.96	23.860
552.30	22.457
552.64	23.665
552.98	23.186
553.32	23.061
553.66	22.972
554.00	24.434
554.34	23.257
554.68	23.820
555.02	22.849
555.36	23.104
555.69	23.004
556.03	22.678
556.37	23.261
556.71	22.988
557.05	22.899
557.39	23.583
557.73	22.583
558.07	24.873
558.41	22.721
558.75	23.806
559.08	24.609
559.42	23.658
559.76	24.118
560.10	22.627
560.44	23.340
560.78	22.621
561.12	23.087
561.45	23.012
561.79	23.467
562.13	23.139
562.47	23.292
562.81	23.570
563.15	23.010
563.48	22.679
563.82	23.288
564.16	23.414
564.50	21.680
564.84	22.819
565.17	22.523
565.51	23.642
565.85	23.287
566.19	22.417
566.52	23.749
566.86	22.725
567.20	22.877
567.54	21.918
567.88	22.433
568.21	22.275
568.55	22.700
568.89	22.568
569.23	22.282
569.56	21.700
569.90	21.849
570.24	21.564
570.57	21.523
570.91	21.138
571.25	21.340
571.59	21.797
571.92	21.256
572.26	21.433
572.60	21.081
572.93	21.199
573.27	21.857
573.61	21.636
573.95	21.990
574.28	21.533
574.62	21.307
574.96	20.956
575.29	21.072
575.63	21.164
575.97	21.114
576.30	21.402
576.64	21.633
576.98	21.293
577.31	21.372
577.65	21.346
577.98	21.492
578.32	20.214
578.66	21.048
578.99	21.570
579.33	21.254
579.67	20.992
580.00	21.721
580.34	21.049
580.67	21.272
581.01	21.655
581.35	21.477
581.68	21.034
582.02	21.043
582.35	20.940
582.69	21.376
583.02	21.364
583.36	21.213
583.70	21.828
584.03	22.048
584.37	22.187
584.70	22.022
585.04	21.233
585.37	21.738
585.71	21.358
586.04	21.479
586.38	21.578
586.72	21.817
587.05	21.733
587.39	21.161
587.72	21.412
588.06	21.478
588.39	21.481
588.73	21.062
589.06	22.343
589.40	21.953
589.73	21.894
590.07	22.349
590.40	21.301
590.73	21.585
591.07	22.711
591.40	22.269
591.74	22.511
592.07	22.469
592.41	22.489
592.74	21.873
593.08	22.385
593.41	22.082
593.75	21.018
594.08	21.824
594.41	21.315
594.75	22.070
595.08	21.546
595.42	22.312
595.75	21.688
596.09	22.456
596.42	22.593
596.75	21.992
597.09	22.208
597.42	21.164
597.75	21.647
598.09	22.609
598.42	22.466
598.76	21.565
599.09	21.931
599.42	21.215
599.76	21.486
600.09	21.202
600.42	21.256
600.76	21.821
601.09	21.494
601.42	21.575
601.76	21.518
602.09	22.213
602.42	22.094
602.76	22.692
603.09	22.109
603.42	22.491
603.76	21.723
604.09	22.102
604.42	21.851
604.76	22.480
605.09	21.713
605.42	21.804
605.75	22.185
606.09	21.269
606.42	21.823
606.75	21.319
607.09	22.478
607.42	22.422
607.75	21.392
608.08	21.754
608.42	22.008
608.75	22.137
609.08	22.063
609.41	21.418
609.75	21.629
610.08	22.243
610.41	22.160
610.74	22.422
611.07	21.690
611.41	21.394
611.74	22.172
612.07	23.033
612.40	22.246
612.73	22.421
613.07	21.606
613.40	22.380
613.73	21.342
614.06	21.774
614.39	22.077
614.72	22.211
615.06	22.426
615.39	21.497
615.72	21.677
616.05	21.372
616.38	21.401
616.71	22.743
617.05	22.379
617.38	22.730
617.71	22.583
618.04	23.077
618.37	20.934
618.70	21.842
619.03	22.566
619.36	23.693
619.69	21.901
620.03	22.390
620.36	22.727
620.69	23.014
621.02	23.378
621.35	22.240
621.68	22.741
622.01	23.375
622.34	22.466
622.67	22.357
623.00	22.010
623.33	22.445
623.66	22.731
623.99	22.165
624.32	22.753
624.65	22.740
624.99	22.380
625.32	21.868
625.65	22.314
625.98	23.597
626.31	22.551
626.64	23.184
626.97	23.275
627.30	23.358
627.63	22.559
627.96	23.129
628.29	23.097
628.62	22.507
628.95	23.113
629.28	23.449
629.61	23.465
629.94	24.095
630.26	21.735
630.59	23.451
630.92	21.743
631.25	23.198
631.58	22.322
631.91	22.414
632.24	22.152
632.57	23.924
632.90	23.575
633.23	22.036
633.56	23.616
633.89	24.349
634.22	23.269
634.55	23.787
634.88	23.593
635.20	25.090
635.53	23.133
635.86	23.886
636.19	23.059
636.52	23.529
636.85	23.711
637.18	22.926
637.51	23.877
637.83	21.332
638.16	23.402
638.49	22.544
638.82	26.169
639.15	24.375
639.48	23.441
639.81	23.995
640.13	24.219
640.46	21.879
640.79	22.985
641.12	24.072
641.45	24.162
641.77	24.890
642.10	23.684
642.43	23.423
642.76	22.910
643.09	25.307
643.41	24.431
643.74	24.537
644.07	24.543
644.40	25.767
644.73	23.937
645.05	24.406
645.38	22.117
645.71	23.188
646.04	24.419
646.36	25.042
646.69	25.585
647.02	24.320
647.35	25.430
647.67	24.425
648.00	25.041
648.33	23.267
648.66	22.576
648.98	24.138
649.31	22.571
649.64	24.365
649.96	24.292
650.29	22.749
650.62	22.654
650.94	24.473
651.27	26.182
651.60	24.293
651.92	25.719
652.25	23.453
652.58	23.988
652.90	25.118
653.23	23.575
653.56	24.252
653.88	23.930
654.21	23.223
654.54	22.937
654.86	23.209
655.19	23.919
655.52	20.323
655.84	19.213
656.17	24.480
656.49	32.745
656.82	33.161
657.15	24.830
657.47	18.551
657.80	14.352
658.13	14.820
658.45	22.321
658.78	22.227
659.10	22.410
659.43	22.941
659.75	23.135
660.08	24.747
660.41	25.419
660.73	25.540
661.06	24.682
661.38	24.909
661.71	25.192
662.03	26.036
662.36	22.266
662.68	25.100
663.01	25.657
663.33	25.478
663.66	24.790
663.98	25.918
664.31	24.160
664.63	23.887
664.96	22.334
665.28	25.615
665.61	22.807
665.93	22.334
666.26	24.138
666.58	24.059
666.91	25.581
667.23	23.371
667.56	21.814
667.88	27.350
668.21	24.733
668.53	23.210
668.86	23.377
669.18	26.226
669.50	26.304
669.83	26.144
670.15	24.222
670.48	24.183
670.80	25.216
671.13	24.841
671.45	25.532
671.77	25.458
672.10	24.399
672.42	22.615
672.75	24.710
673.07	23.592
673.39	24.231
673.72	23.828
674.04	24.706
674.37	24.272
674.69	26.176
675.01	22.176
675.34	24.846
675.66	26.526
675.98	22.607
676.31	27.311
676.63	26.539
676.95	23.480
677.28	22.897
677.60	22.637
677.92	25.949
678.25	21.766
678.57	24.303
678.89	24.649
679.22	25.147
679.54	24.237
679.86	24.954
680.18	23.792
680.51	24.113
680.83	22.954
681.15	25.660
681.48	24.386
681.80	25.532
682.12	22.797
682.44	22.437
682.77	25.255
683.09	24.678
683.41	25.721
683.73	24.503
684.06	25.413
684.38	23.483
684.70	26.163
685.02	23.452
685.34	24.176
685.67	21.678
685.99	21.821
686.31	24.573
686.63	22.261
686.96	23.750
687.28	22.744
687.60	20.652
687.92	25.594
688.24	25.095
688.56	24.297
688.89	26.141
689.21	22.926
689.53	25.678
689.85	24.390
690.17	22.567
690.49	28.450
690.82	25.000
691.14	22.768
691.46	23.840
691.78	23.896
692.10	25.620
692.42	23.952
692.74	23.237
693.06	24.681
693.39	24.230
693.71	23.362
694.03	24.421
694.35	24.242
694.67	22.883
694.99	27.805
695.31	23.284
695.63	26.077
695.95	24.939
696.27	20.305
696.59	23.575
696.91	23.575
697.23	22.300
697.56	25.800
697.88	23.722
698.20	26.042
698.52	25.376
698.84	25.835
699.16	23.733
699.48	23.753
699.80	23.430
700.12	28.312
700.44	26.525
700.76	25.414
701.08	24.138
701.40	25.140
701.72	27.697
702.04	30.114
702.36	22.663
702.68	24.363
703.00	23.546
703.32	22.340
703.64	24.665
703.96	25.070
704.28	24.419
704.60	26.686
704.91	27.300
705.23	25.220
705.55	24.585
705.87	25.581
706.19	24.735
706.51	22.741
706.83	24.545
707.15	25.490
707.47	23.232
707.79	26.044
708.11	23.516
708.43	23.095
708.74	24.235
709.06	26.494
709.38	27.559
709.70	24.128
710.02	27.003
710.34	23.939
710.66	28.060
710.98	23.011
711.29	23.547
711.61	28.024
711.93	24.038
712.25	27.653
712.57	23.162
712.89	28.720
713.20	25.836
713.52	28.947
713.84	27.215
714.16	24.390
714.48	25.000
714.80	26.140
715.11	27.378
715.43	26.706
715.75	24.058
716.07	23.003
716.39	26.019
716.70	24.585
717.02	25.899
717.34	22.261
717.66	29.104
717.97	28.685
718.29	22.963
718.61	24.818
718.93	28.676
719.24	23.875
719.56	21.356
719.88	26.102
720.20	25.676
720.51	27.526
720.83	30.483
721.15	22.761
721.46	22.340
721.78	28.315
722.10	25.283
722.42	30.451
722.73	29.213
723.05	25.820
723.37	27.935
723.68	26.641
724.00	25.203
724.32	22.581
724.63	27.236
724.95	20.502
725.27	25.101
725.58	27.734
725.90	29.927
726.22	26.038
726.53	27.083
726.85	26.621
727.16	24.911
727.48	24.113
727.80	22.727
728.11	23.913
728.43	23.462
728.74	31.541
729.06	26.277
729.38	29.779
729.69	25.623
730.01	24.915
730.32	26.042
730.64	25.753
730.96	27.393
731.27	29.801
731.59	25.688
731.90	25.656
732.22	25.776
732.53	24.458
732.85	26.923
733.16	20.579
733.48	26.246
733.80	26.299
734.11	26.433
734.43	26.036
734.74	24.857
735.06	23.782
735.37	27.168
735.69	25.159
736.00	24.183
736.32	24.922
736.63	23.962
736.95	25.240
737.26	21.088
737.58	20.000
737.89	26.087
738.21	27.645
738.52	25.000
738.83	23.774
739.15	23.462
739.46	27.372
739.78	21.875
740.09	27.385
740.41	25.806
740.72	25.087
741.04	25.556
741.35	21.250
741.66	30.667
741.98	25.472
742.29	25.837
742.61	37.069
742.92	24.887
743.23	24.359
743.55	28.800
743.86	25.000
744.18	31.416
744.49	25.359
744.80	28.638
745.12	29.545
745.43	24.229
745.74	33.333
746.06	30.275
746.37	24.664
746.68	22.624
747.00	26.389
747.31	26.667
747.62	23.451
747.94	23.789
748.25	23.404
748.56	26.872
748.88	24.752
749.19	31.000
749.50	25.581
749.82	23.577
750.13	23.673
750.44	27.007
750.75	26.316
751.07	27.974
751.38	29.268
751.69	22.383
752.01	26.316
752.32	22.744
752.63	26.950
752.94	27.459
753.26	28.400
753.57	19.919
753.88	28.125
754.19	21.786
754.51	27.431
754.82	23.105
755.13	24.528
755.44	25.564
755.75	23.723
756.07	21.986
756.38	23.723
756.69	27.181
757.00	21.856
757.31	22.552
757.63	25.439
757.94	23.861
758.25	23.039
758.56	25.185
758.87	23.656
759.18	26.364
759.50	17.868
759.81	22.430
760.12	20.938
760.43	27.221
760.74	24.457
761.05	25.141
761.36	22.460
761.67	26.136
761.99	27.019
762.30	26.042
762.61	26.336
762.92	26.562
763.23	28.151
763.54	24.000
763.85	31.250
764.16	32.692
764.47	25.095
764.78	24.028
765.10	21.835
765.41	26.844
765.72	25.749
766.03	23.197
766.34	25.333
766.65	29.362
766.96	25.214
767.27	25.888
767.58	29.167
767.89	34.211
768.20	24.713
768.51	25.888
768.82	34.404
769.13	23.171
769.44	26.721
769.75	25.751
770.06	25.229
770.37	28.054
770.68	33.796
770.99	29.778
771.30	22.541
771.61	25.561
771.92	26.230
772.23	28.992
772.54	24.103
772.85	27.749
773.16	29.255
773.47	24.457
773.78	30.964
774.09	30.357
774.39	32.749
774.70	24.074
775.01	29.710
775.32	29.412
775.63	32.895
775.94	25.899
776.25	34.646
776.56	28.358
776.87	21.311
777.18	35.156
777.48	36.641
777.79	30.303
778.10	37.037
778.41	30.357
778.72	33.577
779.03	28.188
779.34	32.886
779.65	29.054
779.95	23.926
780.26	27.451
780.57	33.103
780.88	39.844
781.19	29.323
781.50	35.811
781.80	29.560
782.11	29.944
782.42	25.949
782.73	33.129
783.04	27.703
783.34	29.577
783.65	37.671
783.96	34.328
784.27	23.077
784.57	25.180
784.88	22.222
785.19	36.508
785.50	30.189
785.81	44.030
786.11	35.246
786.42	34.109
786.73	31.858
787.04	40.566
787.34	39.286
787.65	40.000
787.96	35.135
788.26	28.099
788.57	33.051
788.88	42.975
789.19	31.250
789.49	32.576
789.80	34.351
790.11	45.714
790.41	37.624
790.72	30.120
791.03	31.522
791.33	36.047
791.64	40.206
791.95	29.703
792.25	36.667
792.56	41.558
792.87	53.846
793.17	56.962
793.48	56.322
793.79	42.529
794.09	31.818
794.40	36.975
794.70	33.824
795.01	31.111
795.32	28.058
795.62	38.583
795.93	31.897
796.23	24.779
796.54	36.471
796.85	25.676
797.15	43.662
797.46	53.030
797.76	50.602
798.07	41.772
798.37	40.000
798.68	30.303
798.99	23.944
799.29	28.571
799.60	31.818
799.90	50.685
800.21	47.761
800.51	51.724
800.82	57.895
801.12	42.623
801.43	46.970
801.73	37.838
802.04	46.032
802.34	53.086
802.65	40.625
802.95	55.932
803.26	62.500
803.56	38.571
803.87	24.615
804.17	39.706
804.48	59.259
804.78	37.931
805.09	36.765
805.39	59.615
805.70	60.714
806.00	60.656
806.30	40.909
806.61	50.000
806.91	27.848
807.22	36.842
807.52	26.866
807.83	47.887
808.13	56.250
808.43	35.000
808.74	32.895
809.04	47.826
809.35	58.209
809.65	48.684
809.95	58.065
810.26	42.373
810.56	41.270
810.86	50.000
811.17	40.476
811.47	53.333
811.77	44.444
812.08	61.818
812.38	58.000
812.69	50.000
812.99	65.909
813.29	48.980
813.59	64.286
813.90	51.020
814.20	63.636
814.50	52.308
814.81	51.471
815.11	51.020
815.41	36.066
815.72	64.286
816.02	52.727
816.32	40.476
816.62	52.500
816.93	41.463
817.23	61.905
817.53	54.545
817.84	72.727
818.14	60.870
818.44	44.444
818.74	44.118
819.04	37.500
819.35	85.714
819.65	91.176
819.95	32.143
820.25	20.000
820.56	66.667
820.86	84.091
821.16	74.419
821.46	69.231
821.76	76.000
822.07	60.000
822.37	65.000
822.67	75.758
822.97	54.902
823.27	78.571
823.57	59.459
823.88	60.000
824.18	90.000
824.48	47.619
824.78	68.000
825.08	66.667
825.38	48.649
825.69	60.976
825.99	125.000
826.29	51.724
826.59	86.842
826.89	76.316
827.19	76.471
827.49	90.323
827.79	79.545
828.09	63.636
828.39	40.426
828.70	59.184
829.00	51.852
829.30	35.484
829.60	60.000
829.90	113.333
830.20	96.429
830.50	30.435
830.80	69.565
831.10	83.333
831.40	83.333
831.70	78.261
832.00	100.000
832.30	44.444
832.60	100.000
832.90	86.667
833.20	164.286
833.50	87.097
833.80	37.931
834.10	100.000
834.40	96.154
834.70	122.222
835.00	152.381
835.30	54.286
835.60	61.538
835.90	103.448
836.20	92.857
836.50	89.655
836.80	56.000
837.10	86.111
837.40	100.000
837.70	76.471
838.00	92.593
838.30	109.524
838.60	152.381
838.90	123.077
839.19	95.000
839.49	214.286
839.79	130.000
840.09	115.000
840.39	61.905
840.69	121.739
840.99	155.556
841.29	170.000
841.59	50.000
841.88	143.750
842.18	75.862
842.48	133.333
842.78	80.000
843.08	91.304
843.38	71.875
843.68	300.000
843.97	92.308
844.27	86.207
844.57	147.619
844.87	162.500
845.17	74.074
845.47	333.333
845.76	111.111
846.06	76.471
846.36	12.500
846.66	121.429
846.96	75.000
847.25	163.636
847.55	63.636
847.85	143.478
848.15	190.000
848.44	185.714
848.74	122.222
849.04	35.294
849.34	190.000
849.63	68.421
849.93	200.000
850.23	300.000
850.53	157.143
850.82	400.000
851.12	-1700.000
851.42	1500.000
851.71	80.000
852.01	-233.333
852.31	150.000
852.61	366.667
852.90	133.333
853.20	56.000
853.50	82.353
853.79	95.238
854.09	50.000
854.39	93.750
854.68	81.081
854.98	70.968
855.28	63.333
855.57	103.448
855.87	92.593
856.17	110.526
856.46	6.667
856.76	70.588
857.05	82.759
857.35	58.333
857.65	120.000
857.94	113.043
858.24	103.846
858.53	100.000
858.83	118.182
859.13	120.000
859.42	0.000
859.72	166.667
860.01	109.091
860.31	100.000
860.60	163.158
860.90	91.304
861.20	144.444
861.49	183.333
861.79	-1300.000
862.08	212.500
862.38	138.095
862.67	76.923
862.97	147.059
863.26	155.556
863.56	116.667
863.85	141.667
864.15	175.000
864.44	100.000
864.74	250.000
865.03	312.500
865.33	115.789
865.62	100.000
865.92	100.000
866.21	100.000
866.51	0.000
866.80	163.636
867.10	440.000
867.39	192.308
867.69	172.727
867.98	36.842
868.27	127.273
868.57	100.000
868.86	-1200.000
869.16	112.500
869.45	250.000
869.75	-300.000
870.04	158.333
870.33	185.714
870.63	400.000
870.92	1050.000
871.22	357.143
871.51	100.000
871.80	85.714
872.10	92.857
>>>>>End Processed Spectral Data<<<<<
