SpectraSuite Data File
++++++++++++++++++++++++++++++++++++
Date: Wed May 13 16:00:04 PDT 2015
User: schluterlab
Dark Spectrum Present: Yes
Reference Spectrum Present: Yes
Number of Sampled Component Spectra: 1
Spectrometers: USB2E3373
Integration Time (usec): 3000 (USB2E3373)
Spectra Averaged: 3 (USB2E3373)
Boxcar Smoothing: 0 (USB2E3373)
Correct for Electrical Dark: No (USB2E3373)
Strobe/Lamp Enabled: No (USB2E3373)
Correct for Detector Non-linearity: No (USB2E3373)
Correct for Stray Light: No (USB2E3373)
Number of Pixels in Processed Spectrum: 2048
>>>>>Begin Processed Spectral Data<<<<<
178.53	0.000
178.91	-200.000
179.29	-275.000
179.67	-61.111
180.04	-375.000
180.42	150.000
180.80	360.000
181.18	-300.000
181.56	42.857
181.94	0.000
182.31	-71.429
182.69	400.000
183.07	-125.000
183.45	-88.889
183.83	72.727
184.20	-40.000
184.58	750.000
184.96	1600.000
185.34	-260.000
185.72	-87.500
186.09	-450.000
186.47	850.000
186.85	400.000
187.23	800.000
187.61	-633.333
187.98	375.000
188.36	218.182
188.74	154.545
189.12	-40.000
189.49	140.000
189.87	-1300.000
190.25	-250.000
190.63	164.286
191.00	115.385
191.38	300.000
191.76	-175.000
192.14	575.000
192.51	262.500
192.89	400.000
193.27	87.500
193.65	-500.000
194.02	130.000
194.40	120.000
194.78	140.000
195.15	241.667
195.53	350.000
195.91	-900.000
196.29	156.250
196.66	121.053
197.04	90.000
197.42	0.000
197.79	160.000
198.17	-500.000
198.55	142.857
198.92	287.500
199.30	160.000
199.68	0.000
200.05	161.111
200.43	314.286
200.81	300.000
201.18	300.000
201.56	-366.667
201.94	188.889
202.31	288.889
202.69	166.667
203.07	250.000
203.44	0.000
203.82	400.000
204.19	200.000
204.57	157.143
204.95	200.000
205.32	266.667
205.70	163.636
206.08	142.857
206.45	550.000
206.83	106.250
207.20	250.000
207.58	120.000
207.96	105.556
208.33	337.500
208.71	-166.667
209.08	285.714
209.46	233.333
209.84	100.000
210.21	-200.000
210.59	375.000
210.96	-75.000
211.34	850.000
211.71	200.000
212.09	250.000
212.46	0.000
212.84	233.333
213.22	375.000
213.59	-400.000
213.97	166.667
214.34	214.286
214.72	209.091
215.09	100.000
215.47	-850.000
215.84	-650.000
216.22	500.000
216.59	135.714
216.97	450.000
217.34	218.182
217.72	-83.333
218.09	0.000
218.47	-1200.000
218.84	288.889
219.22	271.429
219.59	500.000
219.97	-128.571
220.34	160.000
220.72	-233.333
221.09	85.714
221.47	500.000
221.84	-200.000
222.22	0.000
222.59	400.000
222.97	-300.000
223.34	260.000
223.72	161.538
224.09	360.000
224.46	300.000
224.84	-1000.000
225.21	-200.000
225.59	-600.000
225.96	180.000
226.34	115.000
226.71	1200.000
227.08	187.500
227.46	60.000
227.83	-200.000
228.21	-250.000
228.58	200.000
228.95	-850.000
229.33	-500.000
229.70	500.000
230.08	257.143
230.45	-120.000
230.82	175.000
231.20	133.333
231.57	157.143
231.95	150.000
232.32	77.273
232.69	172.727
233.07	228.571
233.44	69.231
233.81	-333.333
234.19	78.947
234.56	150.000
234.93	183.333
235.31	163.636
235.68	38.462
236.05	50.000
236.43	66.667
236.80	52.632
237.17	600.000
237.55	80.952
237.92	78.571
238.29	85.714
238.67	48.387
239.04	106.897
239.41	44.444
239.79	41.304
240.16	76.190
240.53	75.000
240.91	33.333
241.28	48.000
241.65	40.000
242.02	52.174
242.40	32.258
242.77	41.667
243.14	35.484
243.51	46.067
243.89	27.059
244.26	35.556
244.63	30.108
245.00	40.426
245.38	37.624
245.75	39.252
246.12	27.523
246.49	36.496
246.87	36.000
247.24	34.615
247.61	31.429
247.98	34.641
248.36	22.297
248.73	33.121
249.10	35.032
249.47	32.203
249.84	34.225
250.22	35.829
250.59	28.402
250.96	26.768
251.33	33.649
251.70	32.178
252.08	27.143
252.45	28.251
252.82	29.565
253.19	34.043
253.56	30.588
253.94	29.876
254.31	33.203
254.68	33.077
255.05	29.889
255.42	31.707
255.79	31.618
256.16	28.520
256.54	25.795
256.91	31.673
257.28	20.863
257.65	28.383
258.02	29.193
258.39	28.076
258.76	26.421
259.14	29.167
259.51	27.964
259.88	24.224
260.25	27.190
260.62	24.566
260.99	29.503
261.36	26.727
261.73	28.367
262.10	28.779
262.47	30.986
262.85	23.398
263.22	25.926
263.59	29.345
263.96	28.571
264.33	27.415
264.70	28.158
265.07	27.366
265.44	25.253
265.81	25.304
266.18	26.382
266.55	27.805
266.92	29.975
267.29	25.926
267.66	24.312
268.03	27.955
268.40	25.701
268.77	25.298
269.14	23.649
269.51	27.088
269.88	25.641
270.25	25.056
270.62	22.921
270.99	29.247
271.36	25.322
271.73	24.065
272.10	23.043
272.47	27.742
272.84	28.788
273.21	26.625
273.58	25.328
273.95	26.205
274.32	24.380
274.69	29.122
275.06	24.606
275.43	25.532
275.80	27.455
276.17	25.458
276.54	25.364
276.91	25.889
277.28	24.805
277.65	26.499
278.02	25.466
278.39	25.000
278.76	25.636
279.13	25.283
279.50	24.209
279.87	25.299
280.23	27.944
280.60	24.565
280.97	22.551
281.34	24.425
281.71	24.909
282.08	23.608
282.45	23.273
282.82	24.334
283.19	22.995
283.56	25.614
283.92	24.873
284.29	21.693
284.66	24.682
285.03	22.242
285.40	24.472
285.77	22.222
286.14	23.489
286.51	23.500
286.87	23.590
287.24	24.430
287.61	24.077
287.98	24.188
288.35	24.564
288.72	22.274
289.08	25.352
289.45	22.405
289.82	23.089
290.19	20.094
290.56	22.052
290.93	19.789
291.29	20.552
291.66	22.271
292.03	22.820
292.40	23.642
292.77	20.414
293.13	21.343
293.50	21.429
293.87	19.852
294.24	20.000
294.60	19.942
294.97	20.494
295.34	22.144
295.71	21.875
296.08	22.222
296.44	21.596
296.81	21.136
297.18	21.951
297.55	19.129
297.91	20.580
298.28	22.088
298.65	22.063
299.02	22.661
299.38	22.178
299.75	19.677
300.12	19.668
300.48	20.125
300.85	21.085
301.22	19.236
301.59	19.444
301.95	21.537
302.32	22.080
302.69	19.713
303.05	19.879
303.42	19.753
303.79	21.518
304.15	19.930
304.52	21.553
304.89	20.557
305.25	21.462
305.62	21.857
305.99	22.550
306.35	21.029
306.72	21.749
307.09	20.755
307.45	22.072
307.82	20.089
308.19	22.517
308.55	22.977
308.92	21.267
309.29	21.014
309.65	22.269
310.02	22.410
310.38	24.624
310.75	22.809
311.12	23.234
311.48	23.615
311.85	24.214
312.22	24.246
312.58	23.597
312.95	24.710
313.31	23.883
313.68	24.428
314.05	25.641
314.41	26.231
314.78	25.780
315.14	25.819
315.51	27.600
315.87	26.733
316.24	26.415
316.61	25.926
316.97	27.593
317.34	27.202
317.70	29.446
318.07	30.318
318.43	29.746
318.80	28.866
319.16	29.755
319.53	29.644
319.89	30.476
320.26	32.700
320.62	29.861
320.99	32.121
321.35	31.010
321.72	32.444
322.08	33.366
322.45	35.323
322.81	33.527
323.18	35.356
323.54	35.622
323.91	36.321
324.27	37.094
324.64	37.558
325.00	36.339
325.37	40.491
325.73	41.562
326.10	41.218
326.46	41.577
326.83	43.227
327.19	43.723
327.56	45.035
327.92	45.232
328.29	46.140
328.65	46.869
329.01	48.375
329.38	47.734
329.74	48.846
330.11	48.351
330.47	48.944
330.84	50.551
331.20	50.364
331.56	49.358
331.93	50.463
332.29	49.601
332.66	51.062
333.02	51.828
333.38	51.942
333.75	50.891
334.11	51.335
334.48	52.174
334.84	51.195
335.20	51.909
335.57	51.224
335.93	48.661
336.29	52.930
336.66	52.480
337.02	50.860
337.38	53.241
337.75	51.604
338.11	51.835
338.47	52.026
338.84	53.529
339.20	52.477
339.56	52.828
339.93	51.273
340.29	50.634
340.65	51.604
341.02	53.141
341.38	53.025
341.74	51.491
342.11	52.751
342.47	52.775
342.83	53.082
343.20	53.420
343.56	49.874
343.92	53.246
344.28	52.041
344.65	52.966
345.01	51.684
345.37	51.801
345.73	51.438
346.10	52.685
346.46	51.356
346.82	51.812
347.19	50.710
347.55	51.642
347.91	53.479
348.27	51.438
348.63	51.087
349.00	51.052
349.36	54.105
349.72	51.644
350.08	50.729
350.45	51.424
350.81	50.853
351.17	51.945
351.53	51.679
351.89	52.310
352.26	52.486
352.62	52.446
352.98	51.459
353.34	52.095
353.70	52.046
354.07	51.048
354.43	51.349
354.79	50.684
355.15	51.237
355.51	51.639
355.87	53.061
356.24	51.873
356.60	52.125
356.96	51.488
357.32	55.110
357.68	52.677
358.04	50.594
358.40	52.098
358.77	51.878
359.13	51.855
359.49	52.627
359.85	51.587
360.21	52.552
360.57	53.230
360.93	52.308
361.29	52.532
361.66	51.858
362.02	53.134
362.38	53.612
362.74	52.827
363.10	51.887
363.46	51.431
363.82	53.288
364.18	52.570
364.54	54.903
364.90	53.541
365.26	54.412
365.62	54.638
365.98	53.616
366.35	52.794
366.71	53.724
367.07	53.824
367.43	53.701
367.79	54.390
368.15	54.957
368.51	54.433
368.87	55.675
369.23	54.353
369.59	54.743
369.95	54.338
370.31	54.202
370.67	53.913
371.03	55.356
371.39	54.227
371.75	55.221
372.11	54.552
372.47	54.399
372.83	55.476
373.19	53.396
373.55	55.728
373.91	55.376
374.27	53.746
374.63	54.982
374.99	56.497
375.35	54.990
375.71	55.106
376.07	55.350
376.42	55.708
376.78	56.395
377.14	54.817
377.50	55.430
377.86	55.120
378.22	56.700
378.58	54.637
378.94	56.128
379.30	57.443
379.66	57.170
380.02	57.125
380.38	56.102
380.74	57.503
381.09	56.235
381.45	58.758
381.81	56.450
382.17	57.006
382.53	57.673
382.89	57.407
383.25	56.973
383.61	58.055
383.97	57.098
384.32	57.330
384.68	56.939
385.04	57.837
385.40	57.895
385.76	57.678
386.12	59.132
386.48	58.087
386.83	59.333
387.19	58.813
387.55	58.874
387.91	58.162
388.27	57.449
388.62	60.295
388.98	58.231
389.34	59.825
389.70	58.185
390.06	59.569
390.42	58.366
390.77	58.461
391.13	60.753
391.49	58.756
391.85	58.180
392.20	58.297
392.56	58.712
392.92	58.799
393.28	58.047
393.64	58.094
393.99	57.605
394.35	59.057
394.71	58.908
395.07	57.757
395.42	58.591
395.78	59.160
396.14	58.163
396.50	59.336
396.85	59.377
397.21	58.200
397.57	59.020
397.92	59.736
398.28	56.839
398.64	57.467
399.00	57.806
399.35	57.812
399.71	57.986
400.07	58.723
400.42	58.650
400.78	58.625
401.14	58.354
401.49	58.687
401.85	57.653
402.21	57.425
402.57	58.667
402.92	58.953
403.28	58.713
403.63	58.354
403.99	58.790
404.35	58.424
404.70	58.933
405.06	57.426
405.42	58.453
405.77	57.029
406.13	57.280
406.49	57.244
406.84	57.472
407.20	57.624
407.55	57.179
407.91	58.067
408.27	58.009
408.62	56.291
408.98	57.598
409.34	57.995
409.69	57.806
410.05	57.621
410.40	58.165
410.76	56.691
411.11	57.238
411.47	56.358
411.83	58.277
412.18	57.081
412.54	57.161
412.89	55.964
413.25	56.907
413.60	57.566
413.96	56.163
414.31	57.047
414.67	57.288
415.03	57.152
415.38	57.216
415.74	57.235
416.09	58.393
416.45	58.367
416.80	58.295
417.16	57.976
417.51	57.930
417.87	56.647
418.22	58.170
418.58	56.682
418.93	58.354
419.29	57.925
419.64	57.997
420.00	56.585
420.35	55.884
420.71	57.741
421.06	57.697
421.42	57.018
421.77	57.904
422.12	58.226
422.48	58.662
422.83	58.125
423.19	57.569
423.54	57.458
423.90	58.435
424.25	59.129
424.61	57.857
424.96	59.708
425.31	57.641
425.67	56.854
426.02	56.686
426.38	60.195
426.73	58.397
427.09	58.116
427.44	57.389
427.79	59.057
428.15	58.393
428.50	58.865
428.85	60.429
429.21	58.255
429.56	58.994
429.92	58.379
430.27	57.398
430.62	58.884
430.98	59.367
431.33	57.990
431.68	59.058
432.04	58.520
432.39	59.166
432.74	59.306
433.10	58.744
433.45	59.359
433.80	59.922
434.16	58.814
434.51	58.737
434.86	59.521
435.22	60.089
435.57	60.608
435.92	58.982
436.28	61.151
436.63	59.216
436.98	59.989
437.34	61.300
437.69	60.560
438.04	60.090
438.39	59.164
438.75	60.314
439.10	61.341
439.45	60.449
439.81	60.363
440.16	59.458
440.51	60.516
440.86	60.046
441.22	60.790
441.57	59.926
441.92	61.464
442.27	61.464
442.63	59.663
442.98	61.014
443.33	61.141
443.68	60.093
444.03	60.957
444.39	60.467
444.74	60.444
445.09	61.024
445.44	61.181
445.79	60.069
446.15	60.349
446.50	60.312
446.85	60.946
447.20	61.193
447.55	61.418
447.91	61.004
448.26	59.878
448.61	60.712
448.96	62.735
449.31	61.642
449.66	61.283
450.02	60.334
450.37	61.111
450.72	60.575
451.07	60.146
451.42	61.033
451.77	61.069
452.12	61.316
452.47	60.759
452.83	61.772
453.18	61.125
453.53	62.771
453.88	61.075
454.23	61.088
454.58	62.205
454.93	63.001
455.28	60.599
455.63	62.136
455.98	62.143
456.34	60.804
456.69	62.179
457.04	64.025
457.39	61.192
457.74	61.405
458.09	60.667
458.44	61.859
458.79	60.249
459.14	63.262
459.49	61.996
459.84	62.216
460.19	61.520
460.54	60.185
460.89	62.205
461.24	61.566
461.59	61.592
461.94	61.159
462.29	62.255
462.64	61.200
462.99	60.833
463.34	61.667
463.69	61.351
464.04	61.507
464.39	59.942
464.74	61.973
465.09	62.002
465.44	60.055
465.79	61.298
466.14	61.303
466.49	60.734
466.84	60.479
467.19	61.195
467.54	62.125
467.89	60.804
468.24	60.326
468.59	61.355
468.94	60.232
469.29	61.375
469.64	60.910
469.99	62.179
470.34	61.823
470.68	62.931
471.03	61.565
471.38	61.987
471.73	60.893
472.08	61.579
472.43	61.621
472.78	60.961
473.13	60.205
473.48	62.047
473.83	61.890
474.17	61.419
474.52	60.918
474.87	61.529
475.22	60.708
475.57	59.753
475.92	59.851
476.27	61.330
476.61	59.459
476.96	60.473
477.31	60.283
477.66	61.926
478.01	59.592
478.36	61.343
478.70	60.384
479.05	60.969
479.40	60.901
479.75	60.244
480.10	59.642
480.45	60.114
480.79	60.535
481.14	61.057
481.49	61.177
481.84	61.134
482.19	61.109
482.53	60.229
482.88	60.400
483.23	60.234
483.58	59.873
483.92	61.293
484.27	59.521
484.62	60.474
484.97	59.953
485.31	60.822
485.66	60.693
486.01	59.801
486.36	58.895
486.70	58.144
487.05	58.705
487.40	59.295
487.75	58.762
488.09	59.964
488.44	59.540
488.79	60.108
489.13	60.390
489.48	59.910
489.83	59.603
490.17	60.105
490.52	60.806
490.87	59.023
491.22	59.936
491.56	58.770
491.91	60.354
492.26	58.337
492.60	58.940
492.95	58.653
493.30	58.832
493.64	60.896
493.99	58.867
494.34	59.898
494.68	58.791
495.03	59.633
495.37	58.632
495.72	60.721
496.07	59.907
496.41	57.876
496.76	58.575
497.11	58.802
497.45	59.106
497.80	59.261
498.14	58.889
498.49	59.512
498.84	57.814
499.18	60.143
499.53	59.687
499.87	59.226
500.22	59.067
500.56	60.291
500.91	58.462
501.26	59.080
501.60	60.228
501.95	58.341
502.29	59.653
502.64	59.451
502.98	59.794
503.33	58.501
503.67	58.794
504.02	58.840
504.36	58.727
504.71	58.280
505.06	58.024
505.40	58.289
505.75	57.618
506.09	59.086
506.44	59.645
506.78	59.377
507.13	59.717
507.47	59.848
507.82	59.220
508.16	59.473
508.51	60.426
508.85	58.590
509.19	59.388
509.54	57.296
509.88	58.269
510.23	59.434
510.57	61.042
510.92	59.451
511.26	58.684
511.61	59.388
511.95	58.455
512.30	57.900
512.64	58.893
512.98	60.450
513.33	59.047
513.67	57.631
514.02	59.091
514.36	59.312
514.70	58.716
515.05	58.450
515.39	58.441
515.74	58.277
516.08	59.586
516.42	58.380
516.77	58.640
517.11	58.657
517.46	59.481
517.80	60.685
518.14	59.525
518.49	58.751
518.83	58.523
519.17	58.834
519.52	58.291
519.86	58.813
520.20	59.942
520.55	59.007
520.89	59.611
521.23	59.590
521.58	58.703
521.92	58.788
522.26	57.413
522.61	59.564
522.95	57.152
523.29	57.943
523.64	58.963
523.98	59.766
524.32	57.539
524.66	59.170
525.01	59.007
525.35	58.488
525.69	57.635
526.04	58.754
526.38	58.389
526.72	56.933
527.06	59.196
527.41	56.312
527.75	60.193
528.09	58.960
528.43	57.935
528.78	58.758
529.12	57.818
529.46	59.094
529.80	58.106
530.15	58.442
530.49	57.969
530.83	58.418
531.17	58.290
531.51	59.468
531.86	59.419
532.20	58.996
532.54	58.424
532.88	58.023
533.22	56.215
533.57	57.037
533.91	57.255
534.25	57.776
534.59	58.023
534.93	56.752
535.27	57.031
535.62	58.669
535.96	57.188
536.30	57.216
536.64	57.244
536.98	59.456
537.32	56.485
537.66	57.733
538.01	57.011
538.35	56.820
538.69	57.498
539.03	56.595
539.37	57.316
539.71	55.476
540.05	57.451
540.39	57.874
540.73	56.274
541.07	57.171
541.42	57.991
541.76	57.548
542.10	56.727
542.44	58.079
542.78	57.115
543.12	55.918
543.46	56.590
543.80	57.775
544.14	57.125
544.48	57.143
544.82	57.665
545.16	57.840
545.50	56.941
545.84	56.519
546.18	56.970
546.52	57.261
546.86	57.938
547.20	55.968
547.54	56.446
547.88	57.079
548.22	55.915
548.56	57.421
548.90	55.762
549.24	56.162
549.58	56.071
549.92	56.868
550.26	57.315
550.60	57.400
550.94	56.408
551.28	55.962
551.62	57.513
551.96	56.702
552.30	55.973
552.64	55.105
552.98	57.763
553.32	55.496
553.66	56.851
554.00	57.584
554.34	55.349
554.68	59.156
555.02	57.969
555.36	56.855
555.69	54.263
556.03	55.922
556.37	55.252
556.71	54.843
557.05	55.952
557.39	55.283
557.73	56.740
558.07	57.360
558.41	54.631
558.75	56.503
559.08	57.047
559.42	56.538
559.76	56.471
560.10	56.817
560.44	55.276
560.78	56.021
561.12	54.156
561.45	55.411
561.79	55.175
562.13	55.265
562.47	55.396
562.81	54.184
563.15	54.515
563.48	56.631
563.82	55.577
564.16	54.938
564.50	55.339
564.84	54.298
565.17	55.212
565.51	56.038
565.85	55.266
566.19	54.352
566.52	55.098
566.86	54.069
567.20	55.483
567.54	55.023
567.88	54.481
568.21	53.386
568.55	53.943
568.89	55.788
569.23	54.011
569.56	53.603
569.90	54.189
570.24	54.180
570.57	53.587
570.91	52.359
571.25	52.656
571.59	53.049
571.92	53.168
572.26	52.629
572.60	52.553
572.93	53.013
573.27	52.854
573.61	53.099
573.95	53.075
574.28	52.538
574.62	52.187
574.96	52.067
575.29	52.304
575.63	52.617
575.97	52.200
576.30	52.284
576.64	51.655
576.98	51.750
577.31	52.287
577.65	52.313
577.98	52.312
578.32	51.529
578.66	51.488
578.99	51.472
579.33	51.561
579.67	51.666
580.00	52.338
580.34	52.610
580.67	51.808
581.01	52.755
581.35	52.322
581.68	52.111
582.02	51.408
582.35	52.188
582.69	51.563
583.02	51.412
583.36	51.879
583.70	52.323
584.03	52.090
584.37	51.963
584.70	52.560
585.04	51.639
585.37	51.305
585.71	52.138
586.04	51.099
586.38	52.168
586.72	52.306
587.05	50.666
587.39	51.425
587.72	51.662
588.06	51.361
588.39	51.193
588.73	51.305
589.06	52.228
589.40	52.222
589.73	52.482
590.07	51.708
590.40	51.882
590.73	52.147
591.07	52.666
591.40	51.582
591.74	52.165
592.07	52.094
592.41	51.674
592.74	50.412
593.08	52.532
593.41	51.629
593.75	50.937
594.08	51.492
594.41	50.937
594.75	51.386
595.08	50.931
595.42	51.524
595.75	51.638
596.09	51.220
596.42	51.395
596.75	51.667
597.09	51.385
597.42	49.831
597.75	51.100
598.09	51.652
598.42	50.644
598.76	50.953
599.09	50.817
599.42	50.473
599.76	50.952
600.09	50.710
600.42	50.511
600.76	50.393
601.09	50.856
601.42	50.571
601.76	49.981
602.09	50.158
602.42	50.279
602.76	51.552
603.09	50.747
603.42	51.581
603.76	50.191
604.09	50.407
604.42	49.857
604.76	50.021
605.09	51.420
605.42	49.850
605.75	51.159
606.09	50.102
606.42	51.124
606.75	49.523
607.09	49.602
607.42	50.749
607.75	49.494
608.08	49.587
608.42	50.829
608.75	49.279
609.08	50.046
609.41	50.738
609.75	50.119
610.08	50.000
610.41	50.512
610.74	50.378
611.07	50.543
611.41	49.755
611.74	51.031
612.07	50.466
612.40	51.417
612.73	50.895
613.07	51.293
613.40	49.868
613.73	49.712
614.06	49.946
614.39	49.974
614.72	48.579
615.06	49.895
615.39	49.735
615.72	50.971
616.05	48.751
616.38	50.028
616.71	51.010
617.05	50.177
617.38	50.511
617.71	50.090
618.04	50.361
618.37	49.497
618.70	50.778
619.03	50.000
619.36	48.608
619.69	51.127
620.03	50.893
620.36	49.198
620.69	50.548
621.02	49.853
621.35	49.804
621.68	49.688
622.01	48.994
622.34	50.756
622.67	50.646
623.00	49.817
623.33	49.607
623.66	51.179
623.99	50.736
624.32	49.429
624.65	50.636
624.99	48.300
625.32	50.109
625.65	49.512
625.98	50.500
626.31	49.067
626.64	50.204
626.97	49.875
627.30	48.961
627.63	49.467
627.96	49.537
628.29	49.694
628.62	50.869
628.95	49.623
629.28	47.628
629.61	48.854
629.94	51.048
630.26	50.810
630.59	49.190
630.92	48.372
631.25	48.766
631.58	47.247
631.91	48.377
632.24	48.523
632.57	46.905
632.90	49.013
633.23	48.210
633.56	49.831
633.89	51.529
634.22	49.262
634.55	49.941
634.88	48.623
635.20	49.582
635.53	49.277
635.86	51.238
636.19	46.706
636.52	50.173
636.85	49.026
637.18	48.618
637.51	50.709
637.83	46.609
638.16	51.662
638.49	48.741
638.82	50.442
639.15	48.250
639.48	49.127
639.81	49.330
640.13	47.917
640.46	48.322
640.79	48.481
641.12	47.318
641.45	48.464
641.77	53.903
642.10	47.661
642.43	47.447
642.76	48.607
643.09	48.773
643.41	50.228
643.74	49.846
644.07	50.457
644.40	48.620
644.73	50.394
645.05	50.079
645.38	46.603
645.71	45.894
646.04	51.163
646.36	51.586
646.69	50.000
647.02	48.980
647.35	50.172
647.67	49.204
648.00	47.480
648.33	49.505
648.66	45.303
648.98	48.126
649.31	47.534
649.64	48.430
649.96	48.435
650.29	49.131
650.62	48.058
650.94	47.488
651.27	50.507
651.60	50.416
651.92	48.722
652.25	47.557
652.58	49.065
652.90	49.131
653.23	46.071
653.56	48.346
653.88	47.385
654.21	49.605
654.54	47.360
654.86	46.729
655.19	46.486
655.52	43.455
655.84	42.953
656.17	53.137
656.49	71.056
656.82	70.234
657.15	52.451
657.47	39.274
657.80	29.986
658.13	31.300
658.45	45.916
658.78	45.860
659.10	46.406
659.43	47.107
659.75	47.834
660.08	48.734
660.41	49.348
660.73	47.776
661.06	48.885
661.38	49.273
661.71	50.577
662.03	48.323
662.36	44.930
662.68	49.799
663.01	45.051
663.33	47.558
663.66	46.008
663.98	48.596
664.31	46.639
664.63	43.927
664.96	48.290
665.28	49.590
665.61	46.394
665.93	45.473
666.26	47.262
666.58	47.908
666.91	49.683
667.23	47.640
667.56	43.844
667.88	47.009
668.21	45.842
668.53	45.336
668.86	45.238
669.18	48.188
669.50	48.261
669.83	49.237
670.15	48.889
670.48	46.841
670.80	46.983
671.13	47.134
671.45	43.191
671.77	47.454
672.10	47.135
672.42	44.876
672.75	43.781
673.07	46.479
673.39	45.389
673.72	46.875
674.04	46.275
674.37	45.049
674.69	45.808
675.01	47.280
675.34	46.201
675.66	46.737
675.98	45.214
676.31	47.479
676.63	46.709
676.95	45.912
677.28	48.832
677.60	45.934
677.92	48.523
678.25	46.407
678.57	47.211
678.89	46.092
679.22	47.348
679.54	45.420
679.86	44.954
680.18	45.259
680.51	45.745
680.83	45.907
681.15	46.604
681.48	46.314
681.80	46.809
682.12	47.318
682.44	44.874
682.77	47.047
683.09	49.571
683.41	48.337
683.73	44.371
684.06	45.868
684.38	45.401
684.70	46.512
685.02	46.341
685.34	43.956
685.67	41.434
685.99	45.017
686.31	45.051
686.63	44.523
686.96	43.750
687.28	41.697
687.60	42.391
687.92	44.059
688.24	43.726
688.56	43.976
688.89	46.680
689.21	47.598
689.53	45.094
689.85	47.894
690.17	43.478
690.49	44.374
690.82	46.495
691.14	42.411
691.46	44.515
691.78	43.373
692.10	46.488
692.42	43.713
692.74	41.286
693.06	43.191
693.39	43.943
693.71	43.886
694.03	45.474
694.35	43.723
694.67	41.190
694.99	46.829
695.31	43.137
695.63	43.062
695.95	45.232
696.27	44.416
696.59	43.523
696.91	42.228
697.23	41.080
697.56	44.563
697.88	41.104
698.20	41.875
698.52	47.097
698.84	43.207
699.16	43.779
699.48	45.131
699.80	45.652
700.12	48.571
700.44	46.154
700.76	43.094
701.08	46.552
701.40	41.620
701.72	48.397
702.04	51.705
702.36	42.493
702.68	45.326
703.00	43.490
703.32	41.755
703.64	44.236
703.96	46.797
704.28	45.058
704.60	42.815
704.91	45.104
705.23	44.575
705.55	44.518
705.87	49.169
706.19	43.816
706.51	44.237
706.83	43.939
707.15	44.258
707.47	44.192
707.79	41.769
708.11	40.868
708.43	44.048
708.74	40.051
709.06	44.675
709.38	43.832
709.70	42.733
710.02	42.433
710.34	45.152
710.66	41.493
710.98	44.034
711.29	42.733
711.61	45.723
711.93	42.308
712.25	42.444
712.57	44.853
712.89	42.907
713.20	41.945
713.52	43.421
713.84	43.671
714.16	42.683
714.48	42.529
714.80	45.593
715.11	45.533
715.43	43.323
715.75	42.609
716.07	44.728
716.39	46.708
716.70	45.515
717.02	43.885
717.34	41.343
717.66	44.030
717.97	50.199
718.29	44.074
718.61	43.066
718.93	40.809
719.24	41.869
719.56	39.322
719.88	43.729
720.20	43.581
720.51	43.902
720.83	46.097
721.15	43.284
721.46	44.681
721.78	43.728
722.10	51.321
722.42	45.113
722.73	43.071
723.05	45.082
723.37	42.510
723.68	45.174
724.00	47.561
724.32	39.919
724.63	42.276
724.95	41.423
725.27	44.130
725.58	42.578
725.90	40.146
726.22	42.642
726.53	42.014
726.85	45.392
727.16	41.993
727.48	39.362
727.80	45.833
728.11	41.667
728.43	45.000
728.74	41.219
729.06	42.336
729.38	41.176
729.69	40.925
730.01	39.932
730.32	39.583
730.64	39.799
730.96	39.934
731.27	41.060
731.59	40.061
731.90	41.691
732.22	45.342
732.53	38.700
732.85	39.423
733.16	39.550
733.48	41.860
733.80	39.286
734.11	46.497
734.43	42.012
734.74	36.571
735.06	36.103
735.37	45.376
735.69	40.446
736.00	47.059
736.32	41.121
736.63	36.741
736.95	42.492
737.26	35.374
737.58	40.645
737.89	42.475
738.21	40.614
738.52	42.143
738.83	41.887
739.15	39.231
739.46	43.431
739.78	41.319
740.09	37.846
740.41	41.290
740.72	41.115
741.04	41.852
741.35	36.250
741.66	47.111
741.98	34.906
742.29	42.584
742.61	41.379
742.92	38.462
743.23	41.880
743.55	46.400
743.86	42.544
744.18	45.133
744.49	44.976
744.80	44.131
745.12	45.455
745.43	42.731
745.74	41.892
746.06	40.826
746.37	43.498
746.68	42.534
747.00	43.519
747.31	43.810
747.62	36.283
747.94	37.885
748.25	44.681
748.56	43.172
748.88	40.594
749.19	48.000
749.50	40.000
749.82	40.650
750.13	40.408
750.44	42.336
750.75	44.561
751.07	42.122
751.38	41.463
751.69	42.599
752.01	37.594
752.32	42.238
752.63	40.780
752.94	37.295
753.26	40.400
753.57	40.650
753.88	43.750
754.19	37.857
754.51	39.583
754.82	36.101
755.13	38.491
755.44	37.218
755.75	37.956
756.07	43.262
756.38	38.321
756.69	40.268
757.00	35.329
757.31	40.356
757.63	38.012
757.94	36.997
758.25	35.784
758.56	38.519
758.87	35.753
759.18	41.515
759.50	36.050
759.81	37.383
760.12	35.625
760.43	38.968
760.74	37.772
761.05	39.266
761.36	40.107
761.67	43.182
761.99	36.025
762.30	37.847
762.61	38.550
762.92	37.500
763.23	41.597
763.54	42.400
763.85	39.844
764.16	39.615
764.47	40.304
764.78	37.809
765.10	37.025
765.41	36.578
765.72	38.323
766.03	35.737
766.34	36.000
766.65	42.979
766.96	38.462
767.27	41.117
767.58	41.146
767.89	41.053
768.20	36.782
768.51	40.609
768.82	38.991
769.13	40.244
769.44	33.198
769.75	39.914
770.06	38.991
770.37	39.819
770.68	43.056
770.99	36.000
771.30	35.656
771.61	43.498
771.92	39.344
772.23	48.319
772.54	40.513
772.85	39.267
773.16	42.021
773.47	42.935
773.78	44.162
774.09	35.714
774.39	40.936
774.70	33.951
775.01	44.203
775.32	44.444
775.63	46.053
775.94	38.849
776.25	44.094
776.56	42.537
776.87	37.705
777.18	50.000
777.48	53.435
777.79	35.606
778.10	40.000
778.41	44.643
778.72	39.416
779.03	42.953
779.34	43.624
779.65	37.838
779.95	41.104
780.26	44.444
780.57	37.931
780.88	46.875
781.19	45.865
781.50	45.270
781.80	47.170
782.11	41.243
782.42	39.241
782.73	35.583
783.04	47.297
783.34	47.183
783.65	45.205
783.96	42.537
784.27	42.657
784.57	38.129
784.88	31.481
785.19	46.032
785.50	47.170
785.81	44.776
786.11	40.984
786.42	46.512
786.73	43.363
787.04	47.170
787.34	41.071
787.65	52.000
787.96	47.748
788.26	51.240
788.57	48.305
788.88	50.413
789.19	45.139
789.49	43.939
789.80	38.168
790.11	51.429
790.41	48.515
790.72	51.807
791.03	41.304
791.33	44.186
791.64	44.330
791.95	56.436
792.25	46.667
792.56	41.558
792.87	56.410
793.17	68.354
793.48	55.172
793.79	49.425
794.09	43.182
794.40	45.378
794.70	49.265
795.01	40.741
795.32	41.007
795.62	43.307
795.93	43.103
796.23	44.248
796.54	50.588
796.85	40.541
797.15	54.930
797.46	31.818
797.76	59.036
798.07	45.570
798.37	50.769
798.68	50.000
798.99	23.944
799.29	40.260
799.60	40.909
799.90	43.836
800.21	53.731
800.51	48.276
800.82	70.175
801.12	65.574
801.43	57.576
801.73	41.892
802.04	49.206
802.34	51.852
802.65	35.938
802.95	67.797
803.26	57.812
803.56	42.857
803.87	44.615
804.17	51.471
804.48	55.556
804.78	48.276
805.09	54.412
805.39	50.000
805.70	42.857
806.00	59.016
806.30	45.455
806.61	48.780
806.91	45.570
807.22	44.737
807.52	41.791
807.83	40.845
808.13	45.313
808.43	45.000
808.74	35.526
809.04	50.725
809.35	68.657
809.65	39.474
809.95	54.839
810.26	54.237
810.56	61.905
810.86	34.091
811.17	54.762
811.47	51.667
811.77	59.259
812.08	49.091
812.38	42.000
812.69	52.778
812.99	63.636
813.29	67.347
813.59	50.000
813.90	83.673
814.20	43.636
814.50	55.385
814.81	58.824
815.11	57.143
815.41	70.492
815.72	64.286
816.02	56.364
816.32	50.000
816.62	55.000
816.93	60.976
817.23	78.571
817.53	52.273
817.84	33.333
818.14	65.217
818.44	60.000
818.74	67.647
819.04	45.000
819.35	62.857
819.65	61.765
819.95	64.286
820.25	40.000
820.56	82.051
820.86	63.636
821.16	60.465
821.46	46.154
821.76	56.000
822.07	71.429
822.37	95.000
822.67	54.545
822.97	35.294
823.27	75.000
823.57	45.946
823.88	75.000
824.18	63.333
824.48	52.381
824.78	72.000
825.08	62.500
825.38	64.865
825.69	53.659
825.99	120.833
826.29	48.276
826.59	73.684
826.89	44.737
827.19	52.941
827.49	83.871
827.79	63.636
828.09	36.364
828.39	53.191
828.70	65.306
829.00	33.333
829.30	64.516
829.60	57.500
829.90	133.333
830.20	75.000
830.50	17.391
830.80	121.739
831.10	86.667
831.40	50.000
831.70	34.783
832.00	65.385
832.30	48.148
832.60	112.500
832.90	83.333
833.20	121.429
833.50	48.387
833.80	68.966
834.10	93.750
834.40	80.769
834.70	83.333
835.00	138.095
835.30	74.286
835.60	76.923
835.90	86.207
836.20	21.429
836.50	82.759
836.80	84.000
837.10	61.111
837.40	80.952
837.70	88.235
838.00	122.222
838.30	33.333
838.60	138.095
838.90	96.154
839.19	115.000
839.49	128.571
839.79	125.000
840.09	100.000
840.39	109.524
840.69	65.217
840.99	72.222
841.29	130.000
841.59	58.333
841.88	87.500
842.18	72.414
842.48	100.000
842.78	80.000
843.08	56.522
843.38	46.875
843.68	166.667
843.97	103.846
844.27	62.069
844.57	114.286
844.87	181.250
845.17	100.000
845.47	333.333
845.76	77.778
846.06	82.353
846.36	50.000
846.66	107.143
846.96	56.250
847.25	100.000
847.55	81.818
847.85	95.652
848.15	90.000
848.44	92.857
848.74	100.000
849.04	100.000
849.34	80.000
849.63	94.737
849.93	190.909
850.23	260.000
850.53	164.286
850.82	450.000
851.12	-200.000
851.42	600.000
851.71	80.000
852.01	-266.667
852.31	83.333
852.61	400.000
852.90	61.905
853.20	56.000
853.50	117.647
853.79	109.524
854.09	79.167
854.39	100.000
854.68	70.270
854.98	67.742
855.28	63.333
855.57	117.241
855.87	111.111
856.17	78.947
856.46	86.667
856.76	158.824
857.05	48.276
857.35	66.667
857.65	100.000
857.94	86.957
858.24	53.846
858.53	130.000
858.83	31.818
859.13	106.667
859.42	0.000
859.72	277.778
860.01	100.000
860.31	86.364
860.60	105.263
860.90	82.609
861.20	122.222
861.49	225.000
861.79	-800.000
862.08	212.500
862.38	119.048
862.67	7.692
862.97	147.059
863.26	166.667
863.56	-5.556
863.85	108.333
864.15	212.500
864.44	146.667
864.74	166.667
865.03	262.500
865.33	100.000
865.62	127.273
865.92	200.000
866.21	41.667
866.51	0.000
866.80	136.364
867.10	640.000
867.39	107.692
867.69	100.000
867.98	63.158
868.27	154.545
868.57	115.789
868.86	-800.000
869.16	93.750
869.45	-50.000
869.75	100.000
870.04	83.333
870.33	128.571
870.63	225.000
870.92	600.000
871.22	314.286
871.51	129.412
871.80	57.143
872.10	157.143
>>>>>End Processed Spectral Data<<<<<
