SpectraSuite Data File
++++++++++++++++++++++++++++++++++++
Date: Wed May 13 16:30:56 PDT 2015
User: schluterlab
Dark Spectrum Present: Yes
Reference Spectrum Present: Yes
Number of Sampled Component Spectra: 1
Spectrometers: USB2E3373
Integration Time (usec): 3000 (USB2E3373)
Spectra Averaged: 3 (USB2E3373)
Boxcar Smoothing: 0 (USB2E3373)
Correct for Electrical Dark: No (USB2E3373)
Strobe/Lamp Enabled: No (USB2E3373)
Correct for Detector Non-linearity: No (USB2E3373)
Correct for Stray Light: No (USB2E3373)
Number of Pixels in Processed Spectrum: 2048
>>>>>Begin Processed Spectral Data<<<<<
178.53	0.000
178.91	-1025.000
179.29	-1125.000
179.67	-205.556
180.04	-1075.000
180.42	1850.000
180.80	1060.000
181.18	-1075.000
181.56	628.571
181.94	0.000
182.31	-514.286
182.69	1733.333
183.07	-462.500
183.45	-455.556
183.83	463.636
184.20	-400.000
184.58	2550.000
184.96	5200.000
185.34	-720.000
185.72	-650.000
186.09	-2100.000
186.47	2600.000
186.85	2550.000
187.23	4600.000
187.61	-1400.000
187.98	1325.000
188.36	436.364
188.74	481.818
189.12	-740.000
189.49	530.000
189.87	-3500.000
190.25	-1125.000
190.63	392.857
191.00	461.538
191.38	816.667
191.76	-825.000
192.14	1200.000
192.51	600.000
192.89	966.667
193.27	587.500
193.65	-1025.000
194.02	430.000
194.40	760.000
194.78	510.000
195.15	616.667
195.53	510.000
195.91	-2000.000
196.29	287.500
196.66	315.789
197.04	-330.000
197.42	0.000
197.79	590.000
198.17	-5200.000
198.55	657.143
198.92	700.000
199.30	800.000
199.68	0.000
200.05	294.444
200.43	685.714
200.81	3700.000
201.18	1566.667
201.56	-1333.333
201.94	444.444
202.31	566.667
202.69	391.667
203.07	570.000
203.44	0.000
203.82	1300.000
204.19	671.429
204.57	364.286
204.95	600.000
205.32	1200.000
205.70	527.273
206.08	335.714
206.45	2700.000
206.83	337.500
207.20	783.333
207.58	640.000
207.96	311.111
208.33	737.500
208.71	-783.333
209.08	671.429
209.46	566.667
209.84	445.455
210.21	-1333.333
210.59	1275.000
210.96	-400.000
211.34	2500.000
211.71	550.000
212.09	533.333
212.46	0.000
212.84	1533.333
213.22	1225.000
213.59	-4500.000
213.97	900.000
214.34	642.857
214.72	554.545
215.09	920.000
215.47	-1750.000
215.84	-1650.000
216.22	1500.000
216.59	321.429
216.97	1075.000
217.34	427.273
217.72	-716.667
218.09	0.000
218.47	-4500.000
218.84	544.444
219.22	642.857
219.59	1400.000
219.97	-500.000
220.34	660.000
220.72	-1533.333
221.09	400.000
221.47	1500.000
221.84	-850.000
222.22	0.000
222.59	1225.000
222.97	-2300.000
223.34	840.000
223.72	392.308
224.09	940.000
224.46	2400.000
224.84	-3400.000
225.21	-840.000
225.59	-4400.000
225.96	530.000
226.34	295.000
226.71	2750.000
227.08	525.000
227.46	440.000
227.83	-1100.000
228.21	-2250.000
228.58	600.000
228.95	-1850.000
229.33	-2400.000
229.70	1833.333
230.08	642.857
230.45	-720.000
230.82	358.333
231.20	716.667
231.57	585.714
231.95	466.667
232.32	231.818
232.69	272.727
233.07	557.143
233.44	346.154
233.81	-1300.000
234.19	321.053
234.56	366.667
234.93	341.667
235.31	409.091
235.68	376.923
236.05	321.429
236.43	175.758
236.80	194.737
237.17	4000.000
237.55	219.048
237.92	200.000
238.29	228.571
238.67	135.484
239.04	175.862
239.41	94.444
239.79	86.957
240.16	111.905
240.53	104.545
240.91	88.235
241.28	74.000
241.65	70.000
242.02	88.406
242.40	75.806
242.77	73.333
243.14	55.914
243.51	64.045
243.89	50.588
244.26	42.222
244.63	50.538
245.00	44.681
245.38	44.554
245.75	23.364
246.12	29.358
246.49	42.336
246.87	44.000
247.24	40.769
247.61	32.857
247.98	35.948
248.36	29.054
248.73	33.758
249.10	29.299
249.47	31.638
249.84	27.273
250.22	26.203
250.59	19.527
250.96	27.778
251.33	24.645
251.70	29.208
252.08	20.000
252.45	21.525
252.82	23.913
253.19	19.149
253.56	20.392
253.94	22.407
254.31	17.578
254.68	23.462
255.05	19.557
255.42	15.854
255.79	15.441
256.16	18.412
256.54	16.254
256.91	16.370
257.28	12.590
257.65	16.502
258.02	15.839
258.39	17.666
258.76	15.385
259.14	16.667
259.51	13.678
259.88	13.665
260.25	16.012
260.62	15.896
260.99	13.043
261.36	15.916
261.73	15.186
262.10	11.919
262.47	15.775
262.85	13.649
263.22	11.111
263.59	15.385
263.96	13.462
264.33	14.099
264.70	12.632
265.07	13.299
265.44	12.626
265.81	11.922
266.18	12.814
266.55	11.951
266.92	12.039
267.29	12.037
267.66	12.385
268.03	9.773
268.40	12.150
268.77	11.217
269.14	10.586
269.51	10.609
269.88	9.324
270.25	10.384
270.62	9.663
270.99	12.043
271.36	14.807
271.73	8.879
272.10	10.435
272.47	10.968
272.84	11.039
273.21	12.579
273.58	10.480
273.95	9.015
274.32	11.364
274.69	11.135
275.06	9.252
275.43	11.489
275.80	9.218
276.17	9.165
276.54	10.603
276.91	9.486
277.28	9.180
277.65	9.865
278.02	5.797
278.39	11.328
278.76	10.727
279.13	10.189
279.50	8.752
279.87	9.761
280.23	8.184
280.60	7.737
280.97	8.688
281.34	10.265
281.71	11.273
282.08	10.173
282.45	9.636
282.82	8.348
283.19	6.952
283.56	9.825
283.92	9.983
284.29	8.995
284.66	8.530
285.03	8.318
285.40	7.923
285.77	8.754
286.14	9.326
286.51	9.833
286.87	10.256
287.24	9.446
287.61	8.828
287.98	9.416
288.35	8.082
288.72	9.502
289.08	9.390
289.45	9.720
289.82	7.805
290.19	7.378
290.56	9.342
290.93	8.006
291.29	7.209
291.66	8.997
292.03	10.320
292.40	11.307
292.77	6.953
293.13	9.104
293.50	9.621
293.87	7.704
294.24	7.556
294.60	7.278
294.97	10.174
295.34	8.463
295.71	9.943
296.08	6.838
296.44	8.116
296.81	9.115
297.18	8.672
297.55	7.256
297.91	8.443
298.28	8.969
298.65	9.399
299.02	8.959
299.38	8.367
299.75	7.143
300.12	7.918
300.48	8.000
300.85	9.741
301.22	8.790
301.59	8.586
301.95	8.438
302.32	8.472
302.69	9.916
303.05	9.091
303.42	9.012
303.79	10.193
304.15	8.858
304.52	8.459
304.89	9.292
305.25	9.629
305.62	12.118
305.99	10.744
306.35	11.074
306.72	10.538
307.09	11.765
307.45	12.162
307.82	9.487
308.19	13.245
308.55	12.298
308.92	12.245
309.29	11.721
309.65	11.559
310.02	12.791
310.38	12.366
310.75	12.460
311.12	13.306
311.48	13.689
311.85	12.893
312.22	14.568
312.58	14.033
312.95	14.678
313.31	13.786
313.68	15.281
314.05	17.554
314.41	15.678
314.78	16.012
315.14	16.286
315.51	17.508
315.87	17.030
316.24	18.272
316.61	17.836
316.97	17.319
317.34	18.493
317.70	19.790
318.07	19.538
318.43	20.157
318.80	19.306
319.16	20.056
319.53	18.856
319.89	19.905
320.26	23.000
320.62	22.222
320.99	22.525
321.35	23.131
321.72	22.998
322.08	26.456
322.45	25.274
322.81	26.647
323.18	26.975
323.54	27.273
323.91	27.830
324.27	28.011
324.64	28.145
325.00	29.125
325.37	30.755
325.73	32.047
326.10	32.657
326.46	31.810
326.83	32.959
327.19	33.988
327.56	34.669
327.92	35.083
328.29	36.114
328.65	36.832
329.01	35.199
329.38	36.540
329.74	36.842
330.11	37.700
330.47	39.027
330.84	37.776
331.20	37.614
331.56	38.899
331.93	38.333
332.29	38.066
332.66	39.292
333.02	40.311
333.38	39.386
333.75	40.018
334.11	40.214
334.48	39.663
334.84	40.441
335.20	40.364
335.57	38.894
335.93	37.679
336.29	39.927
336.66	40.667
337.02	37.557
337.38	39.722
337.75	39.483
338.11	39.391
338.47	40.700
338.84	40.605
339.20	40.092
339.56	40.785
339.93	40.455
340.29	39.040
340.65	39.840
341.02	39.965
341.38	39.769
341.74	39.298
342.11	38.865
342.47	41.145
342.83	39.212
343.20	39.307
343.56	39.427
343.92	40.175
344.28	39.711
344.65	40.327
345.01	38.552
345.37	40.137
345.73	39.425
346.10	39.812
346.46	38.898
346.82	39.786
347.19	38.095
347.55	39.655
347.91	39.644
348.27	39.195
348.63	39.298
349.00	39.725
349.36	40.148
349.72	39.695
350.08	37.844
350.45	40.114
350.81	38.668
351.17	40.113
351.53	39.230
351.89	37.624
352.26	40.253
352.62	39.134
352.98	38.574
353.34	39.852
353.70	40.180
354.07	37.984
354.43	37.937
354.79	38.777
355.15	38.627
355.51	40.128
355.87	40.735
356.24	39.414
356.60	39.294
356.96	40.386
357.32	39.411
357.68	40.000
358.04	39.984
358.40	39.667
358.77	38.889
359.13	38.832
359.49	39.765
359.85	38.968
360.21	39.474
360.57	41.167
360.93	39.308
361.29	39.758
361.66	37.693
362.02	39.478
362.38	40.304
362.74	39.955
363.10	40.563
363.46	39.178
363.82	39.305
364.18	39.060
364.54	39.896
364.90	39.802
365.26	39.706
365.62	39.007
365.98	38.860
366.35	39.685
366.71	39.262
367.07	38.747
367.43	41.292
367.79	40.971
368.15	41.164
368.51	40.189
368.87	39.400
369.23	40.746
369.59	41.057
369.95	39.559
370.31	40.598
370.67	39.928
371.03	40.075
371.39	40.379
371.75	41.029
372.11	39.474
372.47	41.349
372.83	41.931
373.19	40.679
373.55	40.650
373.91	41.826
374.27	39.794
374.63	42.109
374.99	41.525
375.35	40.823
375.71	40.850
376.07	41.564
376.42	41.197
376.78	42.213
377.14	42.266
377.50	43.179
377.86	41.223
378.22	41.593
378.58	40.038
378.94	41.609
379.30	41.603
379.66	41.942
380.02	41.032
380.38	42.441
380.74	42.137
381.09	41.748
381.45	43.393
381.81	42.936
382.17	43.822
382.53	42.390
382.89	43.395
383.25	43.027
383.61	43.556
383.97	42.652
384.32	42.358
384.68	42.751
385.04	42.594
385.40	42.477
385.76	42.998
386.12	44.624
386.48	42.920
386.83	44.131
387.19	44.403
387.55	43.970
387.91	43.168
388.27	44.329
388.62	44.683
388.98	42.076
389.34	45.432
389.70	43.470
390.06	43.663
390.42	44.034
390.77	43.575
391.13	43.778
391.49	44.036
391.85	44.112
392.20	43.155
392.56	42.803
392.92	43.143
393.28	43.254
393.64	43.405
393.99	42.578
394.35	44.293
394.71	43.162
395.07	43.427
395.42	44.747
395.78	43.893
396.14	43.637
396.50	44.987
396.85	43.293
397.21	42.170
397.57	42.963
397.92	44.291
398.28	42.321
398.64	43.728
399.00	42.306
399.35	43.147
399.71	42.419
400.07	43.525
400.42	43.804
400.78	43.727
401.14	42.439
401.49	43.701
401.85	43.860
402.21	42.395
402.57	42.628
402.92	44.136
403.28	43.660
403.63	43.688
403.99	42.739
404.35	42.970
404.70	43.885
405.06	41.642
405.42	43.855
405.77	42.686
406.13	41.817
406.49	43.051
406.84	42.823
407.20	42.080
407.55	42.246
407.91	43.933
408.27	43.076
408.62	42.625
408.98	42.341
409.34	42.804
409.69	42.516
410.05	42.193
410.40	41.713
410.76	42.413
411.11	41.496
411.47	41.214
411.83	41.784
412.18	41.991
412.54	43.711
412.89	41.867
413.25	41.972
413.60	41.384
413.96	41.044
414.31	42.649
414.67	42.142
415.03	41.656
415.38	41.881
415.74	41.158
416.09	42.391
416.45	42.102
416.80	42.829
417.16	42.359
417.51	42.336
417.87	41.490
418.22	43.281
418.58	42.092
418.93	41.155
419.29	41.566
419.64	41.940
420.00	41.890
420.35	41.043
420.71	42.797
421.06	41.587
421.42	42.164
421.77	41.928
422.12	41.494
422.48	41.069
422.83	42.400
423.19	41.050
423.54	41.846
423.90	41.797
424.25	41.485
424.61	40.476
424.96	42.449
425.31	40.975
425.67	41.292
426.02	41.543
426.38	42.430
426.73	42.305
427.09	42.128
427.44	41.806
427.79	42.438
428.15	41.845
428.50	41.486
428.85	42.193
429.21	41.193
429.56	41.369
429.92	40.866
430.27	41.460
430.62	41.219
430.98	41.360
431.33	40.464
431.68	41.623
432.04	39.350
432.39	41.005
432.74	42.250
433.10	42.162
433.45	42.216
433.80	40.798
434.16	41.987
434.51	40.526
434.86	41.790
435.22	41.968
435.57	42.432
435.92	41.779
436.28	42.230
436.63	42.053
436.98	41.442
437.34	42.695
437.69	42.299
438.04	41.934
438.39	42.149
438.75	42.069
439.10	41.788
439.45	41.854
439.81	40.906
440.16	40.824
440.51	42.355
440.86	42.096
441.22	40.823
441.57	42.463
441.92	42.221
442.27	41.173
442.63	40.758
442.98	42.761
443.33	41.848
443.68	41.869
444.03	41.288
444.39	40.166
444.74	42.587
445.09	41.563
445.44	41.389
445.79	42.058
446.15	41.186
446.50	40.980
446.85	41.572
447.20	41.458
447.55	41.876
447.91	40.816
448.26	41.458
448.61	41.436
448.96	41.750
449.31	42.520
449.66	41.024
450.02	41.337
450.37	41.213
450.72	41.399
451.07	41.682
451.42	40.547
451.77	42.924
452.12	40.300
452.47	41.231
452.83	41.667
453.18	39.853
453.53	41.126
453.88	41.937
454.23	42.319
454.58	41.793
454.93	42.975
455.28	40.524
455.63	41.687
455.98	41.726
456.34	41.960
456.69	41.766
457.04	42.353
457.39	41.788
457.74	40.801
458.09	41.748
458.44	42.018
458.79	40.347
459.14	41.422
459.49	40.747
459.84	40.942
460.19	40.365
460.54	39.931
460.89	41.470
461.24	41.651
461.59	41.604
461.94	41.060
462.29	41.187
462.64	39.885
462.99	40.338
463.34	40.800
463.69	41.026
464.04	40.812
464.39	40.058
464.74	41.176
465.09	41.074
465.44	40.942
465.79	40.996
466.14	40.394
466.49	39.822
466.84	40.689
467.19	40.736
467.54	40.500
467.89	38.715
468.24	40.430
468.59	40.659
468.94	40.257
469.29	40.424
469.64	40.830
469.99	40.798
470.34	40.753
470.68	41.020
471.03	40.680
471.38	41.348
471.73	39.973
472.08	41.184
472.43	40.264
472.78	40.158
473.13	40.116
473.48	40.200
473.83	40.793
474.17	41.008
474.52	40.199
474.87	39.930
475.22	40.511
475.57	40.032
475.92	39.087
476.27	39.290
476.61	39.493
476.96	39.032
477.31	39.665
477.66	39.606
478.01	38.630
478.36	40.508
478.70	38.266
479.05	38.126
479.40	39.816
479.75	40.061
480.10	38.867
480.45	38.791
480.79	38.175
481.14	39.677
481.49	39.820
481.84	38.637
482.19	38.937
482.53	38.028
482.88	38.762
483.23	38.879
483.58	38.444
483.92	38.097
484.27	38.257
484.62	38.060
484.97	37.998
485.31	38.870
485.66	37.758
486.01	36.938
486.36	35.192
486.70	34.352
487.05	34.822
487.40	35.419
487.75	35.706
488.09	37.064
488.44	37.292
488.79	37.866
489.13	37.853
489.48	37.847
489.83	37.980
490.17	38.492
490.52	37.688
490.87	36.816
491.22	37.699
491.56	37.267
491.91	38.018
492.26	37.299
492.60	37.558
492.95	37.138
493.30	36.963
493.64	37.891
493.99	37.558
494.34	37.095
494.68	37.592
495.03	37.782
495.37	36.389
495.72	38.012
496.07	37.865
496.41	37.257
496.76	37.291
497.11	36.785
497.45	36.889
497.80	38.148
498.14	37.101
498.49	36.829
498.84	37.680
499.18	36.571
499.53	37.797
499.87	37.092
500.22	37.023
500.56	37.573
500.91	37.163
501.26	37.696
501.60	38.348
501.95	36.343
502.29	37.348
502.64	36.266
502.98	36.746
503.33	35.649
503.67	37.401
504.02	36.763
504.36	36.640
504.71	36.199
505.06	37.157
505.40	36.607
505.75	36.114
506.09	35.909
506.44	37.346
506.78	36.094
507.13	36.699
507.47	37.727
507.82	37.234
508.16	37.234
508.51	38.610
508.85	36.197
509.19	36.786
509.54	35.561
509.88	36.940
510.23	36.864
510.57	38.906
510.92	35.888
511.26	35.868
511.61	37.241
511.95	37.213
512.30	37.381
512.64	36.754
512.98	36.602
513.33	37.580
513.67	36.499
514.02	36.364
514.36	37.247
514.70	35.473
515.05	35.583
515.39	37.016
515.74	36.768
516.08	36.780
516.42	37.236
516.77	37.681
517.11	36.570
517.46	36.287
517.80	37.398
518.14	36.074
518.49	37.690
518.83	37.386
519.17	36.605
519.52	36.106
519.86	36.167
520.20	36.069
520.55	37.163
520.89	36.922
521.23	37.937
521.58	37.815
521.92	37.538
522.26	35.387
522.61	36.636
522.95	36.955
523.29	36.336
523.64	37.378
523.98	37.893
524.32	36.007
524.66	36.320
525.01	36.458
525.35	36.865
525.69	36.268
526.04	36.698
526.38	37.035
526.72	36.871
527.06	37.414
527.41	34.653
527.75	37.235
528.09	36.866
528.43	35.500
528.78	37.001
529.12	35.636
529.46	37.416
529.80	36.139
530.15	36.075
530.49	34.769
530.83	35.316
531.17	36.749
531.51	37.484
531.86	36.903
532.20	37.679
532.54	36.643
532.88	36.970
533.22	36.102
533.57	36.111
533.91	36.063
534.25	35.176
534.59	36.181
534.93	35.396
535.27	35.908
535.62	35.348
535.96	35.217
536.30	35.664
536.64	35.866
536.98	35.567
537.32	35.945
537.66	36.667
538.01	36.669
538.35	36.005
538.69	36.375
539.03	36.322
539.37	35.144
539.71	34.478
540.05	35.686
540.39	36.013
540.73	35.899
541.07	35.691
541.42	35.877
541.76	36.194
542.10	35.446
542.44	35.894
542.78	36.166
543.12	35.445
543.46	36.459
543.80	35.654
544.14	34.403
544.48	36.063
544.82	35.343
545.16	35.979
545.50	34.897
545.84	36.290
546.18	35.758
546.52	35.926
546.86	35.326
547.20	35.604
547.54	35.538
547.88	35.906
548.22	34.994
548.56	34.969
548.90	34.507
549.24	33.805
549.58	35.880
549.92	34.753
550.26	36.719
550.60	34.924
550.94	36.056
551.28	34.821
551.62	35.226
551.96	36.000
552.30	35.700
552.64	36.917
552.98	35.797
553.32	35.738
553.66	35.992
554.00	34.660
554.34	34.231
554.68	35.908
555.02	35.190
555.36	35.212
555.69	34.641
556.03	35.935
556.37	35.130
556.71	34.993
557.05	35.154
557.39	34.150
557.73	34.862
558.07	36.186
558.41	35.601
558.75	35.342
559.08	35.198
559.42	35.374
559.76	35.588
560.10	34.975
560.44	35.150
560.78	33.932
561.12	33.773
561.45	34.224
561.79	34.542
562.13	34.474
562.47	34.563
562.81	34.031
563.15	34.515
563.48	34.350
563.82	34.051
564.16	34.859
564.50	33.854
564.84	34.260
565.17	34.299
565.51	34.058
565.85	34.074
566.19	33.688
566.52	34.516
566.86	32.791
567.20	34.611
567.54	33.333
567.88	33.297
568.21	33.757
568.55	32.457
568.89	33.268
569.23	32.888
569.56	32.146
569.90	31.811
570.24	32.113
570.57	31.520
570.91	30.575
571.25	31.192
571.59	31.281
571.92	30.732
572.26	30.676
572.60	30.691
572.93	30.495
573.27	31.322
573.61	30.514
573.95	31.085
574.28	30.905
574.62	30.539
574.96	29.940
575.29	29.559
575.63	30.310
575.97	30.513
576.30	30.775
576.64	30.528
576.98	29.971
577.31	30.014
577.65	30.250
577.98	29.715
578.32	30.044
578.66	29.727
578.99	30.450
579.33	29.993
579.67	29.944
580.00	29.969
580.34	30.636
580.67	30.277
581.01	29.660
581.35	30.231
581.68	29.961
582.02	29.491
582.35	29.331
582.69	29.430
583.02	29.651
583.36	29.998
583.70	29.870
584.03	30.146
584.37	30.804
584.70	30.747
585.04	30.039
585.37	29.706
585.71	30.193
586.04	30.225
586.38	30.329
586.72	30.820
587.05	30.644
587.39	29.842
587.72	30.095
588.06	30.203
588.39	30.398
588.73	29.891
589.06	31.225
589.40	30.943
589.73	31.397
590.07	31.139
590.40	31.421
590.73	31.421
591.07	31.583
591.40	31.590
591.74	32.900
592.07	31.021
592.41	31.087
592.74	30.974
593.08	30.480
593.41	30.244
593.75	29.169
594.08	30.406
594.41	30.470
594.75	30.980
595.08	30.530
595.42	31.313
595.75	30.662
596.09	31.431
596.42	31.277
596.75	31.448
597.09	31.429
597.42	30.396
597.75	31.479
598.09	31.565
598.42	30.756
598.76	30.766
599.09	30.825
599.42	30.095
599.76	30.307
600.09	30.310
600.42	30.022
600.76	29.643
601.09	30.055
601.42	30.518
601.76	30.854
602.09	30.672
602.42	30.852
602.76	31.076
603.09	31.275
603.42	31.628
603.76	30.412
604.09	30.787
604.42	30.697
604.76	31.632
605.09	30.275
605.42	30.526
605.75	29.967
606.09	30.866
606.42	30.772
606.75	30.942
607.09	30.306
607.42	30.039
607.75	31.055
608.08	30.786
608.42	30.928
608.75	31.289
609.08	29.833
609.41	30.985
609.75	30.062
610.08	31.008
610.41	31.238
610.74	31.268
611.07	30.830
611.41	31.011
611.74	31.926
612.07	31.884
612.40	32.109
612.73	30.684
613.07	31.034
613.40	31.280
613.73	30.309
614.06	31.398
614.39	32.197
614.72	31.789
615.06	31.513
615.39	31.051
615.72	30.266
616.05	30.569
616.38	32.018
616.71	32.423
617.05	32.921
617.38	32.652
617.71	32.072
618.04	33.113
618.37	32.229
618.70	31.798
619.03	31.579
619.36	32.111
619.69	33.521
620.03	32.280
620.36	33.690
620.69	32.945
621.02	32.891
621.35	32.733
621.68	33.100
622.01	33.204
622.34	33.283
622.67	33.232
623.00	32.062
623.33	32.309
623.66	33.595
623.99	33.505
624.32	32.882
624.65	31.780
624.99	31.586
625.32	33.526
625.65	33.959
625.98	34.358
626.31	32.504
626.64	33.388
626.97	34.331
627.30	33.915
627.63	33.962
627.96	34.062
628.29	33.771
628.62	34.767
628.95	36.132
629.28	32.938
629.61	34.647
629.94	35.810
630.26	35.462
630.59	34.795
630.92	34.100
631.25	34.452
631.58	35.035
631.91	33.469
632.24	34.072
632.57	34.208
632.90	35.746
633.23	35.011
633.56	35.480
633.89	34.994
634.22	34.733
634.55	37.160
634.88	36.647
635.20	34.767
635.53	35.422
635.86	36.881
636.19	35.294
636.52	34.487
636.85	35.968
637.18	33.986
637.51	35.106
637.83	33.416
638.16	36.445
638.49	36.398
638.82	36.915
639.15	37.500
639.48	36.160
639.81	36.863
640.13	35.937
640.46	38.523
640.79	35.799
641.12	34.938
641.45	37.709
641.77	36.230
642.10	36.550
642.43	37.688
642.76	36.068
643.09	36.350
643.41	37.178
643.74	38.272
644.07	37.195
644.40	38.804
644.73	37.008
645.05	38.352
645.38	36.809
645.71	37.359
646.04	38.206
646.36	40.568
646.69	39.465
647.02	37.415
647.35	39.519
647.67	38.407
648.00	37.561
648.33	36.634
648.66	36.970
648.98	36.432
649.31	36.173
649.64	35.426
649.96	37.407
650.29	35.229
650.62	36.246
650.94	37.439
651.27	38.514
651.60	39.601
651.92	37.061
652.25	36.808
652.58	37.227
652.90	36.019
653.23	35.285
653.56	36.693
653.88	36.292
654.21	38.231
654.54	37.129
654.86	36.916
655.19	34.865
655.52	26.001
655.84	24.616
656.17	32.173
656.49	43.224
656.82	42.972
657.15	32.022
657.47	23.803
657.80	18.348
658.13	19.174
658.45	28.305
658.78	28.289
659.10	29.466
659.43	30.429
659.75	31.130
660.08	34.747
660.41	36.965
660.73	39.644
661.06	35.987
661.38	41.091
661.71	41.346
662.03	39.250
662.36	39.364
662.68	37.149
663.01	38.990
663.33	39.703
663.66	40.126
663.98	39.741
664.31	38.235
664.63	38.866
664.96	37.022
665.28	40.779
665.61	38.012
665.93	37.626
666.26	39.351
666.58	41.213
666.91	40.803
667.23	40.225
667.56	36.933
667.88	39.530
668.21	41.365
668.53	36.443
668.86	38.528
669.18	41.365
669.50	38.913
669.83	41.394
670.15	40.222
670.48	38.998
670.80	39.440
671.13	39.490
671.45	37.447
671.77	39.919
672.10	36.229
672.42	35.159
672.75	36.484
673.07	35.563
673.39	36.347
673.72	37.695
674.04	38.627
674.37	39.029
674.69	39.059
675.01	37.448
675.34	36.140
675.66	40.000
675.98	38.900
676.31	38.235
676.63	39.703
676.95	36.268
677.28	39.486
677.60	39.780
677.92	41.350
678.25	38.398
678.57	38.446
678.89	40.080
679.22	38.114
679.54	37.405
679.86	36.881
680.18	37.030
680.51	35.461
680.83	37.367
681.15	40.000
681.48	38.374
681.80	39.845
682.12	37.931
682.44	34.816
682.77	38.697
683.09	39.700
683.41	38.359
683.73	39.514
684.06	39.669
684.38	36.986
684.70	38.760
685.02	38.837
685.34	36.081
685.67	33.217
685.99	36.426
686.31	34.642
686.63	34.629
686.96	36.786
687.28	34.838
687.60	36.957
687.92	36.197
688.24	34.791
688.56	37.952
688.89	40.456
689.21	40.830
689.53	37.161
689.85	37.472
690.17	35.404
690.49	40.127
690.82	41.355
691.14	37.277
691.46	37.131
691.78	34.538
692.10	36.983
692.42	36.727
692.74	37.137
693.06	37.021
693.39	37.988
693.71	37.773
694.03	38.105
694.35	38.961
694.67	39.359
694.99	40.244
695.31	39.706
695.63	41.388
695.95	40.831
696.27	38.325
696.59	38.601
696.91	41.451
697.23	37.559
697.56	38.806
697.88	32.311
698.20	37.708
698.52	36.989
698.84	38.753
699.16	38.940
699.48	37.530
699.80	36.715
700.12	46.234
700.44	40.849
700.76	38.674
701.08	38.218
701.40	44.413
701.72	38.484
702.04	44.034
702.36	37.960
702.68	41.643
703.00	39.612
703.32	38.830
703.64	41.019
703.96	40.669
704.28	42.151
704.60	41.349
704.91	42.136
705.23	40.762
705.55	45.847
705.87	44.850
706.19	40.989
706.51	44.237
706.83	43.636
707.15	39.216
707.47	37.374
707.79	40.049
708.11	37.215
708.43	38.333
708.74	35.459
709.06	38.182
709.38	39.108
709.70	39.244
710.02	42.136
710.34	39.697
710.66	40.000
710.98	41.193
711.29	41.570
711.61	45.723
711.93	41.346
712.25	43.408
712.57	43.750
712.89	40.830
713.20	41.641
713.52	43.421
713.84	43.671
714.16	39.329
714.48	41.092
714.80	44.681
715.11	36.023
715.43	39.763
715.75	38.841
716.07	41.214
716.39	40.752
716.70	41.196
717.02	43.525
717.34	41.343
717.66	42.910
717.97	46.215
718.29	42.593
718.61	44.161
718.93	43.015
719.24	43.253
719.56	40.000
719.88	38.983
720.20	43.243
720.51	41.463
720.83	43.494
721.15	36.567
721.46	40.426
721.78	44.444
722.10	41.509
722.42	47.368
722.73	42.322
723.05	45.082
723.37	40.081
723.68	45.946
724.00	46.341
724.32	42.339
724.63	41.463
724.95	43.096
725.27	45.749
725.58	43.750
725.90	44.891
726.22	43.774
726.53	42.014
726.85	39.590
727.16	42.349
727.48	43.262
727.80	43.939
728.11	42.391
728.43	40.769
728.74	42.652
729.06	48.540
729.38	44.853
729.69	45.907
730.01	38.908
730.32	38.194
730.64	42.809
730.96	38.284
731.27	40.397
731.59	43.425
731.90	41.399
732.22	41.615
732.53	40.248
732.85	39.103
733.16	38.585
733.48	38.870
733.80	40.584
734.11	37.261
734.43	41.420
734.74	39.143
735.06	39.542
735.37	39.017
735.69	34.395
736.00	40.523
736.32	39.252
736.63	34.185
736.95	40.256
737.26	36.054
737.58	39.032
737.89	39.799
738.21	44.027
738.52	40.714
738.83	39.245
739.15	42.692
739.46	38.321
739.78	39.583
740.09	40.923
740.41	40.968
740.72	38.676
741.04	43.704
741.35	42.083
741.66	46.667
741.98	46.226
742.29	45.933
742.61	48.276
742.92	46.154
743.23	44.444
743.55	41.200
743.86	41.228
744.18	41.593
744.49	47.847
744.80	46.479
745.12	50.000
745.43	40.969
745.74	47.748
746.06	48.165
746.37	47.982
746.68	47.964
747.00	45.833
747.31	48.571
747.62	41.593
747.94	44.493
748.25	41.702
748.56	46.256
748.88	44.554
749.19	49.000
749.50	50.698
749.82	39.431
750.13	38.776
750.44	41.606
750.75	41.053
751.07	44.051
751.38	42.509
751.69	40.433
752.01	42.481
752.32	40.433
752.63	40.426
752.94	43.443
753.26	47.200
753.57	40.244
753.88	42.187
754.19	38.571
754.51	42.014
754.82	41.877
755.13	43.019
755.44	43.985
755.75	37.956
756.07	36.879
756.38	38.321
756.69	40.604
757.00	35.030
757.31	37.982
757.63	38.012
757.94	34.316
758.25	36.275
758.56	33.580
758.87	35.484
759.18	40.000
759.50	35.110
759.81	37.072
760.12	33.125
760.43	35.244
760.74	35.870
761.05	38.418
761.36	35.294
761.67	38.636
761.99	39.130
762.30	38.194
762.61	37.023
762.92	44.531
763.23	43.697
763.54	41.600
763.85	41.016
764.16	42.692
764.47	42.205
764.78	34.982
765.10	35.443
765.41	38.938
765.72	37.725
766.03	37.618
766.34	36.000
766.65	41.702
766.96	42.308
767.27	50.254
767.58	51.042
767.89	51.579
768.20	52.299
768.51	46.193
768.82	47.248
769.13	39.431
769.44	37.247
769.75	39.056
770.06	40.367
770.37	44.344
770.68	42.593
770.99	39.111
771.30	37.705
771.61	40.807
771.92	42.623
772.23	43.277
772.54	48.205
772.85	52.880
773.16	46.809
773.47	56.522
773.78	47.208
774.09	45.833
774.39	46.199
774.70	50.000
775.01	50.000
775.32	54.248
775.63	53.947
775.94	53.237
776.25	56.693
776.56	52.239
776.87	47.541
777.18	55.469
777.48	64.885
777.79	62.121
778.10	61.481
778.41	63.393
778.72	47.445
779.03	50.336
779.34	44.295
779.65	50.676
779.95	43.558
780.26	54.902
780.57	62.069
780.88	59.375
781.19	59.398
781.50	55.405
781.80	50.314
782.11	52.542
782.42	52.532
782.73	42.331
783.04	60.811
783.34	49.296
783.65	59.589
783.96	54.478
784.27	44.056
784.57	48.201
784.88	60.185
785.19	61.905
785.50	55.660
785.81	55.970
786.11	64.754
786.42	55.039
786.73	55.752
787.04	67.925
787.34	71.429
787.65	62.000
787.96	64.865
788.26	50.413
788.57	68.644
788.88	62.810
789.19	56.944
789.49	59.848
789.80	62.595
790.11	62.857
790.41	73.267
790.72	68.675
791.03	73.913
791.33	80.233
791.64	67.010
791.95	73.267
792.25	84.444
792.56	76.623
792.87	85.897
793.17	86.076
793.48	73.563
793.79	63.218
794.09	69.318
794.40	64.706
794.70	60.294
795.01	46.667
795.32	52.518
795.62	55.906
795.93	60.345
796.23	61.062
796.54	67.059
796.85	72.973
797.15	85.915
797.46	71.212
797.76	85.542
798.07	84.810
798.37	78.462
798.68	78.788
798.99	91.549
799.29	94.805
799.60	71.591
799.90	93.151
800.21	104.478
800.51	101.724
800.82	115.789
801.12	91.803
801.43	80.303
801.73	66.216
802.04	100.000
802.34	76.543
802.65	78.125
802.95	120.339
803.26	115.625
803.56	78.571
803.87	84.615
804.17	82.353
804.48	107.407
804.78	81.034
805.09	82.353
805.39	76.923
805.70	83.929
806.00	90.164
806.30	86.364
806.61	82.927
806.91	69.620
807.22	69.737
807.52	88.060
807.83	81.690
808.13	100.000
808.43	93.333
808.74	80.263
809.04	105.797
809.35	89.552
809.65	89.474
809.95	104.839
810.26	111.864
810.56	85.714
810.86	122.727
811.17	119.048
811.47	108.333
811.77	105.556
812.08	107.273
812.38	118.000
812.69	147.222
812.99	134.091
813.29	136.735
813.59	95.238
813.90	118.367
814.20	90.909
814.50	78.462
814.81	91.176
815.11	102.041
815.41	88.525
815.72	142.857
816.02	123.636
816.32	126.190
816.62	117.500
816.93	139.024
817.23	150.000
817.53	118.182
817.84	151.515
818.14	123.913
818.44	113.333
818.74	132.353
819.04	142.500
819.35	151.429
819.65	147.059
819.95	182.143
820.25	205.000
820.56	141.026
820.86	136.364
821.16	137.209
821.46	135.897
821.76	124.000
822.07	148.571
822.37	145.000
822.67	166.667
822.97	105.882
823.27	196.429
823.57	159.459
823.88	162.500
824.18	153.333
824.48	150.000
824.78	172.000
825.08	187.500
825.38	154.054
825.69	134.146
825.99	170.833
826.29	134.483
826.59	144.737
826.89	155.263
827.19	164.706
827.49	154.839
827.79	147.727
828.09	131.818
828.39	119.149
828.70	116.327
829.00	207.407
829.30	122.581
829.60	135.000
829.90	320.000
830.20	196.429
830.50	173.913
830.80	208.696
831.10	193.333
831.40	160.000
831.70	173.913
832.00	180.769
832.30	170.370
832.60	281.250
832.90	173.333
833.20	385.714
833.50	167.742
833.80	162.069
834.10	187.500
834.40	192.308
834.70	300.000
835.00	304.762
835.30	157.143
835.60	246.154
835.90	175.862
836.20	371.429
836.50	172.414
836.80	176.000
837.10	155.556
837.40	238.095
837.70	317.647
838.00	203.704
838.30	233.333
838.60	300.000
838.90	211.538
839.19	230.000
839.49	364.286
839.79	245.000
840.09	225.000
840.39	271.429
840.69	195.652
840.99	288.889
841.29	490.000
841.59	241.667
841.88	318.750
842.18	179.310
842.48	238.095
842.78	186.667
843.08	191.304
843.38	171.875
843.68	916.667
843.97	188.462
844.27	172.414
844.57	280.952
844.87	350.000
845.17	192.593
845.47	1300.000
845.76	433.333
846.06	276.471
846.36	512.500
846.66	321.429
846.96	318.750
847.25	363.636
847.55	336.364
847.85	230.435
848.15	370.000
848.44	328.571
848.74	250.000
849.04	305.882
849.34	540.000
849.63	247.368
849.93	427.273
850.23	920.000
850.53	314.286
850.82	2050.000
851.12	-4100.000
851.42	4900.000
851.71	270.000
852.01	-1133.333
852.31	233.333
852.61	1600.000
852.90	252.381
853.20	224.000
853.50	335.294
853.79	257.143
854.09	233.333
854.39	337.500
854.68	151.351
854.98	177.419
855.28	156.667
855.57	193.103
855.87	166.667
856.17	247.368
856.46	253.333
856.76	276.471
857.05	168.966
857.35	225.000
857.65	280.000
857.94	213.043
858.24	196.154
858.53	195.000
858.83	231.818
859.13	313.333
859.42	0.000
859.72	477.778
860.01	390.909
860.31	259.091
860.60	278.947
860.90	208.696
861.20	488.889
861.49	491.667
861.79	-4000.000
862.08	537.500
862.38	271.429
862.67	269.231
862.97	282.353
863.26	688.889
863.56	227.778
863.85	425.000
864.15	450.000
864.44	306.667
864.74	800.000
865.03	600.000
865.33	221.053
865.62	336.364
865.92	423.077
866.21	350.000
866.51	0.000
866.80	290.909
867.10	860.000
867.39	400.000
867.69	372.727
867.98	263.158
868.27	390.909
868.57	321.053
868.86	-4100.000
869.16	331.250
869.45	1700.000
869.75	-3200.000
870.04	416.667
870.33	714.286
870.63	975.000
870.92	2400.000
871.22	714.286
871.51	317.647
871.80	214.286
872.10	350.000
>>>>>End Processed Spectral Data<<<<<
