SpectraSuite Data File
++++++++++++++++++++++++++++++++++++
Date: Wed May 13 16:04:23 PDT 2015
User: schluterlab
Dark Spectrum Present: Yes
Reference Spectrum Present: Yes
Number of Sampled Component Spectra: 1
Spectrometers: USB2E3373
Integration Time (usec): 3000 (USB2E3373)
Spectra Averaged: 3 (USB2E3373)
Boxcar Smoothing: 0 (USB2E3373)
Correct for Electrical Dark: No (USB2E3373)
Strobe/Lamp Enabled: No (USB2E3373)
Correct for Detector Non-linearity: No (USB2E3373)
Correct for Stray Light: No (USB2E3373)
Number of Pixels in Processed Spectrum: 2048
>>>>>Begin Processed Spectral Data<<<<<
178.53	0.000
178.91	-575.000
179.29	-600.000
179.67	-105.556
180.04	-725.000
180.42	1350.000
180.80	480.000
181.18	-450.000
181.56	285.714
181.94	0.000
182.31	-300.000
182.69	800.000
183.07	-312.500
183.45	-288.889
183.83	254.545
184.20	-240.000
184.58	1150.000
184.96	2100.000
185.34	-360.000
185.72	-362.500
186.09	-900.000
186.47	1650.000
186.85	1400.000
187.23	2300.000
187.61	-766.667
187.98	675.000
188.36	354.545
188.74	254.545
189.12	-380.000
189.49	300.000
189.87	-1700.000
190.25	-475.000
190.63	250.000
191.00	238.462
191.38	466.667
191.76	-425.000
192.14	1050.000
192.51	300.000
192.89	433.333
193.27	350.000
193.65	-650.000
194.02	260.000
194.40	400.000
194.78	390.000
195.15	233.333
195.53	310.000
195.91	-1150.000
196.29	156.250
196.66	200.000
197.04	-100.000
197.42	0.000
197.79	340.000
198.17	-2300.000
198.55	357.143
198.92	300.000
199.30	420.000
199.68	0.000
200.05	166.667
200.43	457.143
200.81	2300.000
201.18	1000.000
201.56	-900.000
201.94	311.111
202.31	222.222
202.69	241.667
203.07	190.000
203.44	0.000
203.82	625.000
204.19	514.286
204.57	257.143
204.95	375.000
205.32	333.333
205.70	336.364
206.08	171.429
206.45	800.000
206.83	212.500
207.20	433.333
207.58	360.000
207.96	205.556
208.33	462.500
208.71	-483.333
209.08	428.571
209.46	277.778
209.84	190.909
210.21	-300.000
210.59	825.000
210.96	-112.500
211.34	1150.000
211.71	370.000
212.09	366.667
212.46	0.000
212.84	566.667
213.22	650.000
213.59	-1900.000
213.97	433.333
214.34	300.000
214.72	300.000
215.09	460.000
215.47	-1150.000
215.84	-1050.000
216.22	766.667
216.59	185.714
216.97	625.000
217.34	118.182
217.72	-283.333
218.09	0.000
218.47	-3500.000
218.84	344.444
219.22	357.143
219.59	900.000
219.97	-157.143
220.34	500.000
220.72	-966.667
221.09	214.286
221.47	450.000
221.84	-550.000
222.22	0.000
222.59	700.000
222.97	-1200.000
223.34	660.000
223.72	315.385
224.09	620.000
224.46	850.000
224.84	-2600.000
225.21	-480.000
225.59	-2000.000
225.96	410.000
226.34	145.000
226.71	1500.000
227.08	387.500
227.46	300.000
227.83	-400.000
228.21	-1400.000
228.58	444.444
228.95	-1000.000
229.33	-1050.000
229.70	600.000
230.08	385.714
230.45	-160.000
230.82	166.667
231.20	366.667
231.57	242.857
231.95	200.000
232.32	127.273
232.69	172.727
233.07	371.429
233.44	169.231
233.81	-500.000
234.19	147.368
234.56	191.667
234.93	133.333
235.31	145.455
235.68	146.154
236.05	221.429
236.43	93.939
236.80	94.737
237.17	1100.000
237.55	100.000
237.92	110.714
238.29	85.714
238.67	54.839
239.04	103.448
239.41	41.667
239.79	52.174
240.16	64.286
240.53	70.455
240.91	45.098
241.28	54.000
241.65	46.000
242.02	42.029
242.40	29.032
242.77	26.667
243.14	36.559
243.51	44.944
243.89	20.000
244.26	20.000
244.63	29.032
245.00	21.277
245.38	17.822
245.75	10.280
246.12	12.844
246.49	24.818
246.87	29.600
247.24	19.231
247.61	14.286
247.98	11.765
248.36	18.243
248.73	17.834
249.10	19.108
249.47	9.605
249.84	18.717
250.22	10.695
250.59	11.834
250.96	17.677
251.33	19.431
251.70	17.327
252.08	10.476
252.45	8.520
252.82	12.174
253.19	15.319
253.56	9.020
253.94	14.523
254.31	13.281
254.68	15.000
255.05	11.808
255.42	8.943
255.79	9.926
256.16	14.440
256.54	9.541
256.91	7.829
257.28	5.396
257.65	9.571
258.02	9.006
258.39	9.464
258.76	5.686
259.14	11.905
259.51	8.815
259.88	6.522
260.25	9.063
260.62	8.382
260.99	6.211
261.36	7.207
261.73	4.011
262.10	7.267
262.47	9.859
262.85	7.799
263.22	3.134
263.59	11.966
263.96	4.121
264.33	8.877
264.70	7.632
265.07	6.905
265.44	5.303
265.81	7.299
266.18	8.040
266.55	6.585
266.92	6.634
267.29	9.028
267.66	8.486
268.03	6.818
268.40	5.607
268.77	4.773
269.14	4.054
269.51	7.901
269.88	4.429
270.25	6.772
270.62	5.843
270.99	9.032
271.36	8.369
271.73	5.140
272.10	5.652
272.47	8.387
272.84	5.628
273.21	6.499
273.58	4.585
273.95	5.660
274.32	5.372
274.69	7.281
275.06	3.937
275.43	7.447
275.80	5.611
276.17	5.092
276.54	5.821
276.91	5.731
277.28	5.078
277.65	7.350
278.02	6.211
278.39	8.203
278.76	7.091
279.13	7.736
279.50	7.821
279.87	5.777
280.23	3.992
280.60	5.029
280.97	3.697
281.34	6.195
281.71	6.364
282.08	4.031
282.45	4.909
282.82	5.329
283.19	3.387
283.56	5.789
283.92	6.261
284.29	2.646
284.66	4.537
285.03	4.521
285.40	5.458
285.77	5.724
286.14	4.663
286.51	4.833
286.87	4.786
287.24	5.700
287.61	5.618
287.98	5.519
288.35	3.328
288.72	5.763
289.08	4.851
289.45	4.942
289.82	4.715
290.19	2.826
290.56	5.513
290.93	2.568
291.29	4.448
291.66	5.015
292.03	8.866
292.40	6.755
292.77	4.142
293.13	6.119
293.50	5.394
293.87	6.222
294.24	4.296
294.60	4.367
294.97	4.942
295.34	7.475
295.71	6.818
296.08	5.698
296.44	4.677
296.81	5.416
297.18	6.233
297.55	3.826
297.91	3.958
298.28	5.489
298.65	6.789
299.02	5.929
299.38	4.648
299.75	4.717
300.12	7.024
300.48	6.250
300.85	6.412
301.22	6.879
301.59	4.924
301.95	6.297
302.32	5.648
302.69	7.407
303.05	5.818
303.42	5.185
303.79	6.229
304.15	7.110
304.52	5.678
304.89	6.156
305.25	6.381
305.62	8.154
305.99	7.202
306.35	7.271
306.72	8.184
307.09	7.214
307.45	7.770
307.82	6.250
308.19	7.726
308.55	8.522
308.92	6.982
309.29	8.131
309.65	7.423
310.02	7.611
310.38	7.957
310.75	7.497
311.12	7.881
311.48	9.300
311.85	8.386
312.22	8.012
312.58	9.252
312.95	9.187
313.31	8.738
313.68	9.148
314.05	10.256
314.41	9.749
314.78	9.063
315.14	9.434
315.51	9.063
315.87	9.703
316.24	10.824
316.61	9.942
316.97	10.078
317.34	9.883
317.70	10.899
318.07	11.068
318.43	11.350
318.80	11.809
319.16	11.017
319.53	10.225
319.89	12.381
320.26	12.700
320.62	11.706
320.99	12.424
321.35	13.232
321.72	12.936
322.08	11.846
322.45	14.030
322.81	14.147
323.18	13.776
323.54	13.822
323.91	13.491
324.27	14.245
324.64	12.861
325.00	13.886
325.37	13.376
325.73	15.171
326.10	14.651
326.46	14.427
326.83	15.013
327.19	15.371
327.56	15.418
327.92	16.273
328.29	15.972
328.65	16.298
329.01	16.697
329.38	16.836
329.74	15.974
330.11	15.174
330.47	16.070
330.84	17.004
331.20	16.849
331.56	15.872
331.93	16.667
332.29	16.859
332.66	17.257
333.02	16.271
333.38	17.706
333.75	16.667
334.11	17.438
334.48	17.391
334.84	16.360
335.20	16.909
335.57	17.135
335.93	15.804
336.29	17.216
336.66	17.583
337.02	18.100
337.38	16.759
337.75	16.310
338.11	17.278
338.47	17.587
338.84	16.499
339.20	16.055
339.56	17.792
339.93	16.182
340.29	17.572
340.65	16.667
341.02	16.318
341.38	18.149
341.74	17.281
342.11	17.642
342.47	17.797
342.83	17.808
343.20	17.489
343.56	16.428
343.92	17.018
344.28	17.772
344.65	17.885
345.01	16.835
345.37	17.067
345.73	17.174
346.10	17.306
346.46	16.610
346.82	17.298
347.19	16.207
347.55	15.681
347.91	17.557
348.27	17.420
348.63	17.391
349.00	16.262
349.36	16.831
349.72	16.840
350.08	16.126
350.45	16.680
350.81	16.166
351.17	16.694
351.53	16.380
351.89	16.667
352.26	16.811
352.62	16.840
352.98	15.964
353.34	17.009
353.70	16.203
354.07	16.935
354.43	15.952
354.79	16.814
355.15	16.760
355.51	17.586
355.87	16.163
356.24	17.671
356.60	15.958
356.96	16.573
357.32	16.271
357.68	17.244
358.04	16.944
358.40	17.894
358.77	16.432
359.13	15.864
359.49	17.098
359.85	15.397
360.21	15.630
360.57	16.965
360.93	17.692
361.29	16.251
361.66	15.867
362.02	16.119
362.38	16.806
362.74	15.848
363.10	16.728
363.46	15.701
363.82	17.234
364.18	15.932
364.54	16.939
364.90	17.776
365.26	16.250
365.62	16.581
365.98	17.239
366.35	15.473
366.71	17.137
367.07	16.824
367.43	17.344
367.79	18.201
368.15	17.098
368.51	15.334
368.87	17.273
369.23	17.630
369.59	16.510
369.95	16.618
370.31	17.094
370.67	16.449
371.03	17.228
371.39	16.327
371.75	17.132
372.11	15.576
372.47	18.255
372.83	17.003
373.19	16.618
373.55	16.851
373.91	16.863
374.27	17.113
374.63	16.873
374.99	18.008
375.35	15.492
375.71	16.313
376.07	17.421
376.42	16.644
376.78	17.164
377.14	16.011
377.50	17.152
377.86	16.755
378.22	17.636
378.58	16.291
378.94	17.096
379.30	16.730
379.66	16.688
380.02	17.260
380.38	16.454
380.74	16.507
381.09	16.932
381.45	17.640
381.81	17.752
382.17	17.070
382.53	16.792
382.89	17.099
383.25	16.760
383.61	17.782
383.97	17.699
384.32	17.342
384.68	16.667
385.04	16.902
385.40	16.966
385.76	16.523
386.12	16.645
386.48	17.747
386.83	17.896
387.19	17.440
387.55	16.698
387.91	17.050
388.27	17.719
388.62	17.333
388.98	17.015
389.34	18.523
389.70	16.983
390.06	17.997
390.42	16.667
390.77	16.603
391.13	17.358
391.49	17.386
391.85	16.932
392.20	16.151
392.56	17.424
392.92	17.010
393.28	16.391
393.64	16.667
393.99	17.410
394.35	16.191
394.71	16.813
395.07	15.701
395.42	17.244
395.78	16.794
396.14	17.008
396.50	17.043
396.85	17.419
397.21	15.968
397.57	15.809
397.92	16.887
398.28	16.312
398.64	16.069
399.00	16.732
399.35	15.905
399.71	16.956
400.07	16.795
400.42	16.442
400.78	16.466
401.14	16.646
401.49	16.597
401.85	15.850
402.21	16.228
402.57	15.731
402.92	16.772
403.28	16.240
403.63	15.408
403.99	15.860
404.35	15.455
404.70	15.468
405.06	15.783
405.42	16.407
405.77	15.771
406.13	15.519
406.49	15.376
406.84	15.357
407.20	15.071
407.55	15.061
407.91	15.267
408.27	15.954
408.62	15.834
408.98	14.645
409.34	15.683
409.69	16.387
410.05	16.295
410.40	16.208
410.76	15.711
411.11	15.561
411.47	15.463
411.83	16.127
412.18	14.966
412.54	15.567
412.89	15.783
413.25	15.762
413.60	15.318
413.96	15.240
414.31	15.614
414.67	15.843
415.03	15.762
415.38	15.722
415.74	16.206
416.09	15.023
416.45	14.324
416.80	15.003
417.16	16.220
417.51	15.727
417.87	15.029
418.22	16.278
418.58	16.139
418.93	15.909
419.29	15.341
419.64	15.491
420.00	15.061
420.35	15.884
420.71	15.959
421.06	15.752
421.42	14.912
421.77	15.415
422.12	15.160
422.48	14.301
422.83	15.259
423.19	15.193
423.54	15.728
423.90	14.957
424.25	14.908
424.61	14.702
424.96	15.335
425.31	16.113
425.67	14.382
426.02	15.257
426.38	16.239
426.73	15.038
427.09	14.590
427.44	15.411
427.79	14.549
428.15	15.476
428.50	15.448
428.85	15.316
429.21	15.130
429.56	14.826
429.92	15.450
430.27	14.101
430.62	14.183
430.98	14.686
431.33	15.155
431.68	15.288
432.04	15.495
432.39	14.906
432.74	14.841
433.10	15.054
433.45	15.160
433.80	15.133
434.16	14.850
434.51	15.211
434.86	15.393
435.22	14.675
435.57	15.258
435.92	14.043
436.28	16.014
436.63	15.121
436.98	13.795
437.34	14.788
437.69	15.228
438.04	14.503
438.39	15.045
438.75	15.689
439.10	15.140
439.45	15.289
439.81	14.864
440.16	15.133
440.51	14.704
440.86	15.750
441.22	14.794
441.57	14.597
441.92	15.097
442.27	15.339
442.63	15.219
442.98	16.732
443.33	15.543
443.68	14.713
444.03	15.178
444.39	14.508
444.74	14.827
445.09	15.040
445.44	14.434
445.79	15.388
446.15	15.140
446.50	14.863
446.85	14.748
447.20	14.992
447.55	15.801
447.91	15.223
448.26	15.081
448.61	15.432
448.96	14.618
449.31	15.073
449.66	15.307
450.02	13.983
450.37	14.796
450.72	14.777
451.07	14.503
451.42	14.043
451.77	15.619
452.12	14.781
452.47	14.739
452.83	14.802
453.18	14.731
453.53	15.399
453.88	14.294
454.23	15.182
454.58	14.779
454.93	15.639
455.28	15.087
455.63	14.867
455.98	15.714
456.34	14.761
456.69	14.465
457.04	15.046
457.39	15.313
457.74	14.335
458.09	14.549
458.44	14.196
458.79	14.534
459.14	14.842
459.49	15.061
459.84	14.294
460.19	14.025
460.54	14.583
460.89	13.988
461.24	15.058
461.59	15.921
461.94	14.797
462.29	15.193
462.64	15.635
462.99	13.728
463.34	15.733
463.69	15.197
464.04	14.377
464.39	15.246
464.74	14.736
465.09	13.209
465.44	13.961
465.79	14.821
466.14	14.505
466.49	14.238
466.84	14.711
467.19	13.941
467.54	14.188
467.89	14.466
468.24	14.718
468.59	14.652
468.94	14.539
469.29	14.589
469.64	15.596
469.99	14.614
470.34	14.531
470.68	14.080
471.03	14.286
471.38	14.802
471.73	14.124
472.08	15.329
472.43	14.322
472.78	14.747
473.13	14.698
473.48	14.482
473.83	14.817
474.17	13.815
474.52	13.896
474.87	14.828
475.22	14.568
475.57	14.025
475.92	13.648
476.27	13.811
476.61	14.396
476.96	13.689
477.31	13.134
477.66	14.114
478.01	13.225
478.36	13.749
478.70	14.071
479.05	14.643
479.40	14.176
479.75	13.930
480.10	13.270
480.45	13.898
480.79	13.091
481.14	13.699
481.49	13.574
481.84	13.489
482.19	13.721
482.53	13.303
482.88	13.774
483.23	12.897
483.58	13.603
483.92	13.168
484.27	12.810
484.62	13.319
484.97	13.323
485.31	13.562
485.66	13.201
486.01	12.343
486.36	12.166
486.70	11.658
487.05	12.291
487.40	12.385
487.75	12.432
488.09	13.285
488.44	12.141
488.79	12.731
489.13	13.293
489.48	13.051
489.83	12.128
490.17	13.415
490.52	13.330
490.87	12.709
491.22	13.233
491.56	12.437
491.91	12.471
492.26	13.137
492.60	13.641
492.95	12.722
493.30	12.944
493.64	13.019
493.99	12.999
494.34	13.090
494.68	13.370
495.03	12.970
495.37	12.750
495.72	12.817
496.07	12.993
496.41	13.142
496.76	12.797
497.11	13.913
497.45	13.414
497.80	12.956
498.14	12.705
498.49	12.780
498.84	12.752
499.18	11.905
499.53	12.678
499.87	12.302
500.22	12.624
500.56	13.350
500.91	12.740
501.26	12.802
501.60	12.814
501.95	12.695
502.29	12.793
502.64	13.222
502.98	12.763
503.33	12.843
503.67	12.715
504.02	12.769
504.36	12.822
504.71	12.799
505.06	12.482
505.40	13.466
505.75	12.633
506.09	12.148
506.44	12.580
506.78	12.323
507.13	12.569
507.47	13.788
507.82	11.803
508.16	12.969
508.51	12.532
508.85	11.966
509.19	12.296
509.54	12.449
509.88	12.725
510.23	12.699
510.57	13.261
510.92	12.740
511.26	12.539
511.61	12.500
511.95	12.630
512.30	12.566
512.64	13.004
512.98	12.969
513.33	12.848
513.67	12.647
514.02	12.121
514.36	12.671
514.70	12.673
515.05	12.326
515.39	12.731
515.74	11.993
516.08	13.192
516.42	12.320
516.77	13.043
517.11	12.764
517.46	12.472
517.80	12.834
518.14	12.102
518.49	12.835
518.83	12.841
519.17	12.702
519.52	12.337
519.86	12.949
520.20	12.486
520.55	12.268
520.89	12.226
521.23	13.390
521.58	12.545
521.92	13.288
522.26	13.301
522.61	12.586
522.95	12.032
523.29	12.234
523.64	12.622
523.98	12.877
524.32	12.847
524.66	12.688
525.01	13.051
525.35	12.454
525.69	13.177
526.04	12.648
526.38	12.325
526.72	12.515
527.06	12.994
527.41	11.200
527.75	12.733
528.09	12.653
528.43	13.002
528.78	13.030
529.12	11.758
529.46	12.737
529.80	13.057
530.15	13.146
530.49	11.815
530.83	12.342
531.17	13.251
531.51	13.748
531.86	12.774
532.20	14.016
532.54	13.197
532.88	13.094
533.22	12.430
533.57	12.716
533.91	12.462
534.25	12.515
534.59	13.240
534.93	12.076
535.27	12.311
535.62	12.210
535.96	12.429
536.30	11.697
536.64	13.071
536.98	11.878
537.32	12.508
537.66	12.267
538.01	12.508
538.35	13.122
538.69	12.891
539.03	11.956
539.37	11.629
539.71	11.730
540.05	12.549
540.39	12.027
540.73	12.290
541.07	12.849
541.42	12.459
541.76	12.581
542.10	12.419
542.44	12.384
542.78	12.978
543.12	11.964
543.46	12.852
543.80	12.687
544.14	11.874
544.48	12.571
544.82	12.059
545.16	12.622
545.50	11.311
545.84	12.702
546.18	11.919
546.52	11.975
546.86	11.890
547.20	12.205
547.54	10.888
547.88	12.946
548.22	11.333
548.56	11.447
548.90	11.652
549.24	11.785
549.58	12.005
549.92	12.088
550.26	12.287
550.60	11.480
550.94	11.972
551.28	11.046
551.62	12.940
551.96	12.281
552.30	12.355
552.64	11.494
552.98	12.339
553.32	12.610
553.66	12.202
554.00	12.491
554.34	12.215
554.68	12.017
555.02	12.553
555.36	11.691
555.69	11.502
556.03	11.978
556.37	12.210
556.71	11.869
557.05	11.835
557.39	12.456
557.73	12.279
558.07	12.835
558.41	11.433
558.75	11.389
559.08	11.633
559.42	12.396
559.76	12.353
560.10	10.921
560.44	10.971
560.78	11.444
561.12	11.346
561.45	12.060
561.79	11.009
562.13	11.603
562.47	12.090
562.81	11.925
563.15	11.572
563.48	11.737
563.82	11.155
564.16	11.838
564.50	11.328
564.84	11.757
565.17	11.004
565.51	11.885
565.85	11.612
566.19	11.146
566.52	11.526
566.86	10.970
567.20	11.557
567.54	11.986
567.88	10.266
568.21	11.693
568.55	11.274
568.89	10.457
569.23	11.275
569.56	10.972
569.90	10.302
570.24	10.370
570.57	10.507
570.91	9.825
571.25	10.562
571.59	10.133
571.92	10.455
572.26	10.225
572.60	10.541
572.93	10.255
573.27	10.589
573.61	10.469
573.95	10.749
574.28	10.050
574.62	9.985
574.96	9.964
575.29	9.918
575.63	10.010
575.97	10.076
576.30	9.851
576.64	9.831
576.98	10.136
577.31	9.612
577.65	10.098
577.98	10.052
578.32	9.690
578.66	9.937
578.99	10.203
579.33	9.756
579.67	9.316
580.00	9.902
580.34	9.896
580.67	9.832
581.01	10.029
581.35	10.186
581.68	10.024
582.02	9.568
582.35	9.801
582.69	9.816
583.02	9.688
583.36	10.099
583.70	10.415
584.03	10.084
584.37	10.277
584.70	10.240
585.04	10.176
585.37	10.182
585.71	10.409
586.04	10.099
586.38	9.953
586.72	10.467
587.05	10.269
587.39	9.868
587.72	9.920
588.06	9.979
588.39	9.959
588.73	10.179
589.06	9.754
589.40	10.000
589.73	10.313
590.07	10.391
590.40	10.157
590.73	10.773
591.07	10.541
591.40	10.418
591.74	10.866
592.07	10.122
592.41	10.583
592.74	10.449
593.08	10.693
593.41	10.092
593.75	9.775
594.08	10.057
594.41	10.004
594.75	10.314
595.08	10.272
595.42	10.228
595.75	10.114
596.09	10.702
596.42	10.373
596.75	10.722
597.09	10.693
597.42	9.823
597.75	10.091
598.09	10.435
598.42	10.095
598.76	10.174
599.09	10.262
599.42	9.498
599.76	9.919
600.09	9.727
600.42	9.825
600.76	10.321
601.09	10.273
601.42	9.551
601.76	10.057
602.09	9.723
602.42	9.713
602.76	10.762
603.09	10.386
603.42	10.582
603.76	9.604
604.09	9.655
604.42	10.232
604.76	10.586
605.09	10.135
605.42	10.560
605.75	10.844
606.09	9.760
606.42	9.931
606.75	9.913
607.09	10.883
607.42	10.141
607.75	10.127
608.08	10.030
608.42	10.668
608.75	10.189
609.08	9.944
609.41	9.995
609.75	10.481
610.08	10.085
610.41	9.823
610.74	9.697
611.07	10.524
611.41	10.304
611.74	11.011
612.07	10.766
612.40	10.073
612.73	10.211
613.07	10.776
613.40	11.058
613.73	9.754
614.06	10.215
614.39	10.173
614.72	10.158
615.06	11.239
615.39	10.456
615.72	10.890
616.05	9.995
616.38	10.450
616.71	11.105
617.05	11.366
617.38	9.982
617.71	10.330
618.04	10.697
618.37	10.349
618.70	11.699
619.03	11.908
619.36	10.998
619.69	10.634
620.03	10.440
620.36	11.898
620.69	11.096
621.02	10.546
621.35	11.511
621.68	10.670
622.01	10.681
622.34	11.120
622.67	10.570
623.00	10.125
623.33	10.865
623.66	10.650
623.99	10.530
624.32	11.412
624.65	9.746
624.99	9.703
625.32	11.079
625.65	11.119
625.98	11.683
626.31	10.809
626.64	11.102
626.97	11.305
627.30	10.308
627.63	11.649
627.96	11.354
628.29	11.724
628.62	11.528
628.95	11.887
629.28	12.409
629.61	11.732
629.94	10.857
630.26	10.677
630.59	13.155
630.92	10.824
631.25	11.155
631.58	12.613
631.91	10.751
632.24	10.654
632.57	12.697
632.90	11.075
633.23	11.521
633.56	12.316
633.89	12.118
634.22	12.599
634.55	12.663
634.88	11.377
635.20	12.425
635.53	12.410
635.86	10.891
636.19	12.235
636.52	12.111
636.85	11.455
637.18	10.714
637.51	12.057
637.83	9.988
638.16	10.486
638.49	10.957
638.82	11.252
639.15	11.625
639.48	12.219
639.81	11.394
640.13	12.630
640.46	12.349
640.79	11.361
641.12	10.179
641.45	11.732
641.77	11.487
642.10	13.304
642.43	12.613
642.76	11.920
643.09	11.043
643.41	12.898
643.74	13.117
644.07	12.957
644.40	14.571
644.73	14.173
645.05	15.689
645.38	12.638
645.71	13.366
646.04	13.289
646.36	15.192
646.69	12.876
647.02	13.095
647.35	13.746
647.67	12.035
648.00	12.520
648.33	12.871
648.66	13.333
648.98	13.043
649.31	10.613
649.64	12.257
649.96	12.817
650.29	12.006
650.62	12.460
650.94	13.938
651.27	13.007
651.60	12.313
651.92	12.939
652.25	12.866
652.58	13.551
652.90	13.270
653.23	10.478
653.56	11.811
653.88	13.154
654.21	13.744
654.54	12.046
654.86	14.486
655.19	9.054
655.52	8.727
655.84	7.634
656.17	9.553
656.49	12.974
656.82	12.960
657.15	9.837
657.47	7.323
657.80	5.734
658.13	5.917
658.45	9.119
658.78	9.137
659.10	9.989
659.43	10.041
659.75	10.183
660.08	11.835
660.41	11.732
660.73	12.579
661.06	12.102
661.38	11.818
661.71	16.538
662.03	15.976
662.36	12.525
662.68	12.249
663.01	12.525
663.33	15.711
663.66	11.345
663.98	13.823
664.31	12.185
664.63	13.765
664.96	11.670
665.28	14.754
665.61	13.255
665.93	12.072
666.26	12.576
666.58	12.343
666.91	13.953
667.23	13.483
667.56	12.095
667.88	14.530
668.21	12.793
668.53	13.449
668.86	12.987
669.18	15.778
669.50	10.435
669.83	16.122
670.15	12.889
670.48	10.675
670.80	12.500
671.13	15.499
671.45	13.404
671.77	14.053
672.10	13.678
672.42	14.134
672.75	13.101
673.07	10.915
673.39	11.573
673.72	11.133
674.04	10.196
674.37	13.981
674.69	11.656
675.01	12.552
675.34	15.195
675.66	14.947
675.98	12.220
676.31	14.286
676.63	14.013
676.95	13.417
677.28	13.785
677.60	13.187
677.92	14.768
678.25	13.552
678.57	14.940
678.89	16.032
679.22	11.591
679.54	13.168
679.86	14.128
680.18	11.807
680.51	13.475
680.83	14.947
681.15	11.509
681.48	14.745
681.80	10.832
682.12	12.452
682.44	10.251
682.77	13.442
683.09	13.734
683.41	12.195
683.73	10.817
684.06	14.463
684.38	12.524
684.70	12.209
685.02	14.259
685.34	10.440
685.67	11.364
685.99	12.715
686.31	13.140
686.63	9.894
686.96	11.071
687.28	12.094
687.60	11.775
687.92	13.894
688.24	11.027
688.56	13.855
688.89	12.448
689.21	15.721
689.53	12.944
689.85	13.747
690.17	11.801
690.49	12.739
690.82	9.579
691.14	12.723
691.46	12.658
691.78	14.659
692.10	14.050
692.42	12.375
692.74	12.863
693.06	13.404
693.39	15.195
693.71	10.262
694.03	13.053
694.35	13.853
694.67	11.899
694.99	14.390
695.31	13.480
695.63	13.876
695.95	10.758
696.27	12.437
696.59	13.990
696.91	14.508
697.23	11.737
697.56	13.433
697.88	10.429
698.20	12.917
698.52	10.538
698.84	12.249
699.16	11.751
699.48	12.827
699.80	13.768
700.12	16.623
700.44	15.385
700.76	12.155
701.08	11.782
701.40	15.084
701.72	13.703
702.04	15.625
702.36	15.297
702.68	13.881
703.00	14.404
703.32	14.362
703.64	12.869
703.96	15.042
704.28	14.244
704.60	14.956
704.91	12.166
705.23	14.076
705.55	14.286
705.87	16.279
706.19	11.661
706.51	17.757
706.83	17.273
707.15	14.566
707.47	12.121
707.79	17.445
708.11	14.612
708.43	13.333
708.74	10.459
709.06	15.325
709.38	14.173
709.70	15.698
710.02	12.760
710.34	13.636
710.66	16.716
710.98	15.057
711.29	16.279
711.61	19.764
711.93	14.423
712.25	18.650
712.57	15.074
712.89	13.841
713.20	16.413
713.52	15.461
713.84	16.456
714.16	13.415
714.48	14.943
714.80	15.502
715.11	14.697
715.43	12.760
715.75	16.232
716.07	15.974
716.39	13.793
716.70	20.266
717.02	17.986
717.34	16.961
717.66	19.030
717.97	17.928
718.29	16.667
718.61	16.058
718.93	16.176
719.24	14.533
719.56	15.932
719.88	13.220
720.20	17.905
720.51	19.512
720.83	17.100
721.15	13.060
721.46	12.766
721.78	19.355
722.10	15.094
722.42	19.173
722.73	15.730
723.05	14.344
723.37	14.170
723.68	16.602
724.00	10.976
724.32	17.742
724.63	14.228
724.95	16.318
725.27	19.838
725.58	18.750
725.90	22.263
726.22	18.113
726.53	14.931
726.85	15.358
727.16	17.082
727.48	14.894
727.80	15.530
728.11	17.754
728.43	13.846
728.74	16.846
729.06	19.708
729.38	17.647
729.69	17.794
730.01	13.993
730.32	11.458
730.64	14.716
730.96	12.871
731.27	14.570
731.59	14.373
731.90	16.327
732.22	16.149
732.53	10.836
732.85	14.423
733.16	16.077
733.48	14.286
733.80	13.312
734.11	13.694
734.43	15.385
734.74	14.286
735.06	13.181
735.37	18.497
735.69	10.191
736.00	16.993
736.32	17.757
736.63	15.016
736.95	17.252
737.26	7.823
737.58	15.161
737.89	14.381
738.21	15.700
738.52	16.429
738.83	16.604
739.15	17.308
739.46	16.788
739.78	14.583
740.09	14.154
740.41	18.710
740.72	11.498
741.04	15.185
741.35	15.417
741.66	23.111
741.98	13.208
742.29	17.225
742.61	21.552
742.92	12.217
743.23	16.239
743.55	17.200
743.86	20.175
744.18	19.027
744.49	20.096
744.80	20.188
745.12	21.364
745.43	19.824
745.74	17.117
746.06	16.972
746.37	18.834
746.68	9.502
747.00	21.759
747.31	19.048
747.62	15.929
747.94	13.216
748.25	13.617
748.56	19.383
748.88	14.356
749.19	23.000
749.50	17.209
749.82	15.041
750.13	11.020
750.44	12.409
750.75	15.088
751.07	19.936
751.38	13.589
751.69	15.523
752.01	12.030
752.32	16.245
752.63	17.021
752.94	12.295
753.26	22.000
753.57	13.415
753.88	23.437
754.19	16.429
754.51	18.403
754.82	12.274
755.13	18.113
755.44	15.789
755.75	16.788
756.07	13.121
756.38	10.219
756.69	14.430
757.00	13.174
757.31	14.540
757.63	11.988
757.94	11.796
758.25	11.520
758.56	10.864
758.87	13.710
759.18	12.121
759.50	12.539
759.81	12.773
760.12	12.187
760.43	16.332
760.74	13.587
761.05	12.429
761.36	13.369
761.67	13.636
761.99	13.665
762.30	16.667
762.61	15.267
762.92	16.406
763.23	16.807
763.54	15.200
763.85	17.578
764.16	19.615
764.47	18.631
764.78	15.548
765.10	12.658
765.41	18.584
765.72	13.772
766.03	13.480
766.34	14.000
766.65	15.745
766.96	17.521
767.27	18.782
767.58	15.104
767.89	24.211
768.20	20.690
768.51	21.827
768.82	20.642
769.13	14.634
769.44	15.385
769.75	15.451
770.06	11.927
770.37	17.647
770.68	20.833
770.99	15.556
771.30	11.475
771.61	15.695
771.92	18.033
772.23	23.529
772.54	18.462
772.85	17.277
773.16	19.149
773.47	22.283
773.78	24.873
774.09	19.048
774.39	19.883
774.70	22.222
775.01	24.638
775.32	26.797
775.63	27.632
775.94	19.424
776.25	34.646
776.56	28.358
776.87	27.049
777.18	32.813
777.48	22.901
777.79	23.485
778.10	29.630
778.41	24.107
778.72	15.328
779.03	17.450
779.34	21.477
779.65	23.649
779.95	20.859
780.26	26.144
780.57	24.138
780.88	26.563
781.19	27.820
781.50	32.432
781.80	18.239
782.11	15.819
782.42	12.658
782.73	22.699
783.04	28.378
783.34	23.239
783.65	32.877
783.96	23.134
784.27	24.476
784.57	23.741
784.88	19.444
785.19	32.540
785.50	31.132
785.81	29.104
786.11	28.689
786.42	27.132
786.73	18.584
787.04	22.642
787.34	22.321
787.65	25.000
787.96	31.532
788.26	23.967
788.57	34.746
788.88	35.537
789.19	29.861
789.49	28.788
789.80	30.534
790.11	27.619
790.41	34.653
790.72	32.530
791.03	40.217
791.33	30.233
791.64	32.990
791.95	31.683
792.25	31.111
792.56	40.260
792.87	35.897
793.17	41.772
793.48	50.575
793.79	25.287
794.09	31.818
794.40	35.294
794.70	31.618
795.01	21.481
795.32	24.460
795.62	30.709
795.93	31.034
796.23	36.283
796.54	34.118
796.85	28.378
797.15	50.704
797.46	27.273
797.76	50.602
798.07	34.177
798.37	32.308
798.68	34.848
798.99	35.211
799.29	32.468
799.60	37.500
799.90	61.644
800.21	46.269
800.51	29.310
800.82	56.140
801.12	37.705
801.43	48.485
801.73	35.135
802.04	41.270
802.34	51.852
802.65	40.625
802.95	66.102
803.26	43.750
803.56	25.714
803.87	26.154
804.17	54.412
804.48	59.259
804.78	27.586
805.09	42.647
805.39	38.462
805.70	44.643
806.00	54.098
806.30	36.364
806.61	39.024
806.91	30.380
807.22	32.895
807.52	22.388
807.83	35.211
808.13	31.250
808.43	40.000
808.74	36.842
809.04	53.623
809.35	37.313
809.65	46.053
809.95	46.774
810.26	55.932
810.56	41.270
810.86	61.364
811.17	57.143
811.47	51.667
811.77	35.185
812.08	60.000
812.38	60.000
812.69	66.667
812.99	72.727
813.29	48.980
813.59	14.286
813.90	69.388
814.20	56.364
814.50	38.462
814.81	55.882
815.11	55.102
815.41	42.623
815.72	54.762
816.02	47.273
816.32	66.667
816.62	67.500
816.93	63.415
817.23	83.333
817.53	65.909
817.84	81.818
818.14	50.000
818.44	57.778
818.74	67.647
819.04	72.500
819.35	48.571
819.65	73.529
819.95	85.714
820.25	105.000
820.56	87.179
820.86	56.818
821.16	65.116
821.46	51.282
821.76	76.000
822.07	74.286
822.37	67.500
822.67	48.485
822.97	52.941
823.27	92.857
823.57	83.784
823.88	85.000
824.18	103.333
824.48	95.238
824.78	64.000
825.08	70.833
825.38	64.865
825.69	43.902
825.99	108.333
826.29	72.414
826.59	73.684
826.89	57.895
827.19	88.235
827.49	93.548
827.79	79.545
828.09	79.545
828.39	42.553
828.70	63.265
829.00	29.630
829.30	80.645
829.60	65.000
829.90	80.000
830.20	60.714
830.50	65.217
830.80	104.348
831.10	100.000
831.40	93.333
831.70	65.217
832.00	111.538
832.30	92.593
832.60	143.750
832.90	110.000
833.20	250.000
833.50	64.516
833.80	110.345
834.10	118.750
834.40	146.154
834.70	144.444
835.00	200.000
835.30	94.286
835.60	53.846
835.90	131.034
836.20	192.857
836.50	124.138
836.80	52.000
837.10	105.556
837.40	123.810
837.70	129.412
838.00	77.778
838.30	128.571
838.60	166.667
838.90	103.846
839.19	160.000
839.49	171.429
839.79	240.000
840.09	165.000
840.39	80.952
840.69	108.696
840.99	111.111
841.29	140.000
841.59	125.000
841.88	168.750
842.18	93.103
842.48	114.286
842.78	123.333
843.08	126.087
843.38	106.250
843.68	366.667
843.97	88.462
844.27	79.310
844.57	166.667
844.87	200.000
845.17	96.296
845.47	533.333
845.76	166.667
846.06	152.941
846.36	175.000
846.66	142.857
846.96	87.500
847.25	200.000
847.55	209.091
847.85	104.348
848.15	260.000
848.44	85.714
848.74	55.556
849.04	164.706
849.34	340.000
849.63	100.000
849.93	136.364
850.23	440.000
850.53	242.857
850.82	600.000
851.12	-1400.000
851.42	2300.000
851.71	165.000
852.01	-433.333
852.31	116.667
852.61	700.000
852.90	157.143
853.20	124.000
853.50	182.353
853.79	123.810
854.09	112.500
854.39	168.750
854.68	100.000
854.98	87.097
855.28	80.000
855.57	127.586
855.87	118.519
856.17	115.789
856.46	113.333
856.76	88.235
857.05	106.897
857.35	112.500
857.65	160.000
857.94	108.696
858.24	157.692
858.53	160.000
858.83	95.455
859.13	253.333
859.42	0.000
859.72	300.000
860.01	254.545
860.31	109.091
860.60	157.895
860.90	130.435
861.20	333.333
861.49	258.333
861.79	-2700.000
862.08	350.000
862.38	190.476
862.67	69.231
862.97	147.059
863.26	233.333
863.56	138.889
863.85	216.667
864.15	200.000
864.44	206.667
864.74	450.000
865.03	387.500
865.33	121.053
865.62	281.818
865.92	246.154
866.21	191.667
866.51	0.000
866.80	190.909
867.10	520.000
867.39	253.846
867.69	245.455
867.98	178.947
868.27	245.455
868.57	194.737
868.86	-2600.000
869.16	143.750
869.45	700.000
869.75	-1600.000
870.04	258.333
870.33	271.429
870.63	375.000
870.92	750.000
871.22	442.857
871.51	194.118
871.80	138.095
872.10	100.000
>>>>>End Processed Spectral Data<<<<<
