SpectraSuite Data File
++++++++++++++++++++++++++++++++++++
Date: Wed May 13 16:32:14 PDT 2015
User: schluterlab
Dark Spectrum Present: Yes
Reference Spectrum Present: Yes
Number of Sampled Component Spectra: 1
Spectrometers: USB2E3373
Integration Time (usec): 3000 (USB2E3373)
Spectra Averaged: 3 (USB2E3373)
Boxcar Smoothing: 0 (USB2E3373)
Correct for Electrical Dark: No (USB2E3373)
Strobe/Lamp Enabled: No (USB2E3373)
Correct for Detector Non-linearity: No (USB2E3373)
Correct for Stray Light: No (USB2E3373)
Number of Pixels in Processed Spectrum: 2048
>>>>>Begin Processed Spectral Data<<<<<
178.53	0.000
178.91	-1150.000
179.29	-1225.000
179.67	-250.000
180.04	-1125.000
180.42	2400.000
180.80	1080.000
181.18	-1125.000
181.56	485.714
181.94	0.000
182.31	-614.286
182.69	1533.333
183.07	-512.500
183.45	-633.333
183.83	536.364
184.20	-340.000
184.58	2200.000
184.96	4900.000
185.34	-740.000
185.72	-450.000
186.09	-2600.000
186.47	2500.000
186.85	1800.000
187.23	3600.000
187.61	-1266.667
187.98	1350.000
188.36	481.818
188.74	427.273
189.12	-1040.000
189.49	440.000
189.87	-4200.000
190.25	-1125.000
190.63	285.714
191.00	307.692
191.38	933.333
191.76	-1150.000
192.14	1000.000
192.51	550.000
192.89	916.667
193.27	550.000
193.65	-1200.000
194.02	520.000
194.40	980.000
194.78	430.000
195.15	508.333
195.53	620.000
195.91	-1400.000
196.29	268.750
196.66	284.211
197.04	-350.000
197.42	0.000
197.79	580.000
198.17	-3500.000
198.55	642.857
198.92	550.000
199.30	620.000
199.68	0.000
200.05	288.889
200.43	728.571
200.81	3400.000
201.18	1566.667
201.56	-1366.667
201.94	577.778
202.31	511.111
202.69	433.333
203.07	520.000
203.44	0.000
203.82	1300.000
204.19	657.143
204.57	400.000
204.95	637.500
205.32	1433.333
205.70	454.545
206.08	385.714
206.45	2500.000
206.83	312.500
207.20	883.333
207.58	760.000
207.96	300.000
208.33	587.500
208.71	-750.000
209.08	585.714
209.46	600.000
209.84	472.727
210.21	-1266.667
210.59	1150.000
210.96	-412.500
211.34	1800.000
211.71	550.000
212.09	850.000
212.46	0.000
212.84	1533.333
213.22	1025.000
213.59	-4100.000
213.97	950.000
214.34	785.714
214.72	500.000
215.09	1000.000
215.47	-2500.000
215.84	-2200.000
216.22	1433.333
216.59	335.714
216.97	1150.000
217.34	454.545
217.72	-700.000
218.09	0.000
218.47	-4000.000
218.84	500.000
219.22	700.000
219.59	1433.333
219.97	-657.143
220.34	1040.000
220.72	-1766.667
221.09	371.429
221.47	1350.000
221.84	-816.667
222.22	0.000
222.59	1025.000
222.97	-2250.000
223.34	880.000
223.72	346.154
224.09	900.000
224.46	1850.000
224.84	-4000.000
225.21	-920.000
225.59	-3900.000
225.96	590.000
226.34	275.000
226.71	2300.000
227.08	612.500
227.46	460.000
227.83	-750.000
228.21	-2300.000
228.58	544.444
228.95	-1700.000
229.33	-2000.000
229.70	1533.333
230.08	571.429
230.45	-640.000
230.82	391.667
231.20	783.333
231.57	528.571
231.95	408.333
232.32	236.364
232.69	281.818
233.07	571.429
233.44	284.615
233.81	-1300.000
234.19	226.316
234.56	391.667
234.93	316.667
235.31	381.818
235.68	300.000
236.05	235.714
236.43	145.455
236.80	189.474
237.17	3900.000
237.55	195.238
237.92	167.857
238.29	228.571
238.67	129.032
239.04	134.483
239.41	113.889
239.79	91.304
240.16	111.905
240.53	102.273
240.91	64.706
241.28	72.000
241.65	68.000
242.02	66.667
242.40	74.194
242.77	68.333
243.14	46.237
243.51	64.045
243.89	43.529
244.26	40.000
244.63	40.860
245.00	47.872
245.38	39.604
245.75	37.383
246.12	40.367
246.49	37.956
246.87	48.000
247.24	38.462
247.61	36.429
247.98	29.412
248.36	24.324
248.73	25.478
249.10	33.121
249.47	31.638
249.84	25.668
250.22	20.321
250.59	26.627
250.96	29.798
251.33	21.327
251.70	30.693
252.08	24.286
252.45	21.525
252.82	20.435
253.19	22.979
253.56	22.353
253.94	27.801
254.31	21.094
254.68	22.692
255.05	20.664
255.42	17.073
255.79	18.382
256.16	19.495
256.54	17.668
256.91	18.505
257.28	13.669
257.65	16.172
258.02	15.528
258.39	16.088
258.76	14.381
259.14	15.774
259.51	15.805
259.88	13.043
260.25	12.991
260.62	14.162
260.99	14.286
261.36	15.015
261.73	13.181
262.10	12.500
262.47	12.958
262.85	13.370
263.22	11.111
263.59	14.530
263.96	13.187
264.33	10.705
264.70	13.158
265.07	13.043
265.44	13.889
265.81	11.679
266.18	12.814
266.55	12.439
266.92	12.531
267.29	14.583
267.66	11.239
268.03	14.091
268.40	10.981
268.77	10.263
269.14	10.586
269.51	11.738
269.88	11.422
270.25	11.287
270.62	9.438
270.99	14.194
271.36	12.876
271.73	9.346
272.10	9.565
272.47	11.183
272.84	10.606
273.21	10.692
273.58	8.734
273.95	9.644
274.32	8.884
274.69	11.777
275.06	8.858
275.43	12.340
275.80	9.619
276.17	10.183
276.54	10.811
276.91	10.277
277.28	8.789
277.65	11.412
278.02	11.180
278.39	9.375
278.76	10.364
279.13	11.698
279.50	10.987
279.87	8.566
280.23	11.577
280.60	9.478
280.97	9.057
281.34	10.265
281.71	10.545
282.08	8.637
282.45	10.727
282.82	9.059
283.19	8.021
283.56	8.772
283.92	10.152
284.29	7.407
284.66	9.800
285.03	8.318
285.40	9.507
285.77	8.418
286.14	7.599
286.51	9.000
286.87	8.205
287.24	10.098
287.61	9.149
287.98	8.279
288.35	8.082
288.72	7.321
289.08	9.546
289.45	8.237
289.82	9.919
290.19	7.535
290.56	9.188
290.93	6.949
291.29	7.669
291.66	8.850
292.03	10.756
292.40	10.132
292.77	9.024
293.13	9.552
293.50	7.726
293.87	6.815
294.24	5.630
294.60	6.405
294.97	7.994
295.34	7.757
295.71	5.966
296.08	7.123
296.44	8.116
296.81	5.945
297.18	8.130
297.55	5.145
297.91	7.388
298.28	7.363
298.65	7.572
299.02	6.324
299.38	5.976
299.75	4.987
300.12	7.535
300.48	7.375
300.85	7.275
301.22	5.987
301.59	5.556
301.95	6.927
302.32	6.804
302.69	6.093
303.05	5.697
303.42	7.531
303.79	7.248
304.15	5.711
304.52	5.794
304.89	5.923
305.25	6.845
305.62	7.361
305.99	6.612
306.35	7.159
306.72	6.502
307.09	6.437
307.45	6.644
307.82	5.246
308.19	6.733
308.55	7.120
308.92	6.230
309.29	5.069
309.65	6.045
310.02	6.765
310.38	6.237
310.75	6.019
311.12	6.653
311.48	6.374
311.85	6.813
312.22	6.660
312.58	5.613
312.95	6.758
313.31	5.340
313.68	6.341
314.05	9.270
314.41	6.834
314.78	6.445
315.14	6.256
315.51	6.385
315.87	7.327
316.24	7.249
316.61	6.043
316.97	5.969
317.34	4.795
317.70	6.883
318.07	7.218
318.43	6.751
318.80	8.060
319.16	8.192
319.53	7.505
319.89	7.905
320.26	7.900
320.62	8.433
320.99	8.384
321.35	8.283
321.72	9.343
322.08	9.477
322.45	9.353
322.81	9.109
323.18	8.863
323.54	8.720
323.91	9.245
324.27	8.509
324.64	8.854
325.00	7.665
325.37	8.826
325.73	10.144
326.10	9.003
326.46	9.050
326.83	10.009
327.19	9.308
327.56	9.756
327.92	9.011
328.29	9.494
328.65	10.129
329.01	9.838
329.38	9.621
329.74	10.342
330.11	9.614
330.47	10.560
330.84	10.662
331.20	9.290
331.56	11.101
331.93	9.907
332.29	10.382
332.66	11.239
333.02	11.243
333.38	9.846
333.75	9.626
334.11	9.875
334.48	9.139
334.84	10.202
335.20	11.636
335.57	9.429
335.93	8.839
336.29	9.707
336.66	9.919
337.02	10.498
337.38	10.926
337.75	11.052
338.11	10.474
338.47	10.313
338.84	9.899
339.20	8.807
339.56	10.036
339.93	9.273
340.29	9.783
340.65	10.784
341.02	11.257
341.38	11.032
341.74	9.649
342.11	9.782
342.47	10.396
342.83	10.188
343.20	10.823
343.56	8.930
343.92	9.825
344.28	10.544
344.65	10.404
345.01	10.269
345.37	9.777
345.73	10.914
346.10	9.548
346.46	10.763
346.82	10.132
347.19	9.607
347.55	9.278
347.91	10.841
348.27	11.257
348.63	9.197
349.00	10.113
349.36	9.195
349.72	10.585
350.08	10.130
350.45	10.334
350.81	10.642
351.17	9.643
351.53	9.910
351.89	9.653
352.26	11.602
352.62	10.184
352.98	10.130
353.34	9.942
353.70	9.574
354.07	10.161
354.43	11.032
354.79	9.252
355.15	10.056
355.51	10.152
355.87	10.286
356.24	9.365
356.60	10.184
356.96	9.654
357.32	10.548
357.68	10.315
358.04	9.501
358.40	10.214
358.77	10.172
359.13	9.155
359.49	9.098
359.85	8.889
360.21	9.171
360.57	10.272
360.93	9.615
361.29	10.128
361.66	9.598
362.02	10.672
362.38	10.038
362.74	10.193
363.10	9.326
363.46	9.758
363.82	9.599
364.18	10.206
364.54	10.550
364.90	10.340
365.26	9.118
365.62	9.423
365.98	8.985
366.35	9.312
366.71	9.978
367.07	9.177
367.43	9.434
367.79	10.278
368.15	11.135
368.51	9.666
368.87	9.921
369.23	9.949
369.59	10.210
369.95	9.412
370.31	10.470
370.67	8.841
371.03	11.311
371.39	10.058
371.75	10.735
372.11	10.953
372.47	11.364
372.83	10.519
373.19	10.983
373.55	9.608
373.91	11.340
374.27	10.378
374.63	9.018
374.99	11.229
375.35	9.839
375.71	10.418
376.07	10.425
376.42	10.798
376.78	11.266
377.14	10.448
377.50	11.589
377.86	9.574
378.22	11.125
378.58	10.213
378.94	10.622
379.30	9.924
379.66	10.723
380.02	10.627
380.38	10.443
380.74	11.405
381.09	11.369
381.45	10.756
381.81	11.241
382.17	11.401
382.53	10.818
382.89	12.654
383.25	11.194
383.61	10.471
383.97	11.132
384.32	12.102
384.68	10.533
385.04	11.186
385.40	11.084
385.76	11.548
386.12	10.233
386.48	12.272
386.83	12.572
387.19	12.554
387.55	11.688
387.91	11.548
388.27	11.159
388.62	12.784
388.98	11.364
389.34	12.140
389.70	12.262
390.06	12.611
390.42	12.192
390.77	12.150
391.13	11.615
391.49	12.500
391.85	12.031
392.20	11.356
392.56	12.879
392.92	12.419
393.28	10.414
393.64	12.290
393.99	12.401
394.35	11.973
394.71	11.857
395.07	11.651
395.42	12.299
395.78	12.532
396.14	12.663
396.50	12.406
396.85	12.270
397.21	11.406
397.57	13.267
397.92	12.680
398.28	11.883
398.64	12.007
399.00	12.311
399.35	10.886
399.71	11.748
400.07	12.655
400.42	11.963
400.78	13.148
401.14	12.683
401.49	12.299
401.85	11.676
402.21	10.958
402.57	12.276
402.92	12.232
403.28	13.242
403.63	11.572
403.99	11.529
404.35	11.939
404.70	12.050
405.06	11.881
405.42	12.165
405.77	11.371
406.13	11.682
406.49	12.064
406.84	12.345
407.20	11.584
407.55	11.934
407.91	12.400
408.27	11.423
408.62	13.064
408.98	11.642
409.34	12.116
409.69	12.323
410.05	11.648
410.40	11.927
410.76	11.350
411.11	12.425
411.47	12.141
411.83	11.729
412.18	11.936
412.54	12.329
412.89	12.289
413.25	11.806
413.60	12.847
413.96	10.929
414.31	12.333
414.67	12.611
415.03	11.656
415.38	12.307
415.74	12.797
416.09	12.084
416.45	12.316
416.80	10.972
417.16	12.668
417.51	11.679
417.87	12.331
418.22	12.303
418.58	12.653
418.93	12.101
419.29	11.330
419.64	12.280
420.00	12.622
420.35	13.101
420.71	12.672
421.06	12.470
421.42	11.813
421.77	12.388
422.12	12.184
422.48	10.955
422.83	12.114
423.19	12.431
423.54	11.782
423.90	11.478
424.25	11.837
424.61	12.321
424.96	12.012
425.31	12.071
425.67	11.517
426.02	10.971
426.38	12.698
426.73	11.644
427.09	12.219
427.44	12.478
427.79	12.421
428.15	11.845
428.50	12.405
428.85	12.753
429.21	11.706
429.56	11.768
429.92	11.676
430.27	10.775
430.62	11.162
430.98	11.053
431.33	12.165
431.68	12.304
432.04	12.673
432.39	11.593
432.74	12.507
433.10	11.885
433.45	12.536
433.80	11.752
434.16	11.645
434.51	12.053
434.86	12.486
435.22	11.340
435.57	12.948
435.92	12.522
436.28	12.633
436.63	12.638
436.98	12.421
437.34	12.284
437.69	11.785
438.04	12.366
438.39	12.537
438.75	12.725
439.10	12.291
439.45	12.279
439.81	11.903
440.16	12.140
440.51	12.361
440.86	12.623
441.22	11.958
441.57	11.943
441.92	12.078
442.27	12.648
442.63	12.533
442.98	13.014
443.33	12.554
443.68	12.287
444.03	12.201
444.39	11.441
444.74	12.121
445.09	12.722
445.44	12.083
445.79	12.222
446.15	13.658
446.50	12.332
446.85	11.819
447.20	11.933
447.55	12.395
447.91	12.135
448.26	12.354
448.61	12.210
448.96	13.234
449.31	13.386
449.66	11.874
450.02	11.198
450.37	11.735
450.72	12.408
451.07	12.249
451.42	12.462
451.77	13.036
452.12	12.240
452.47	12.624
452.83	12.471
453.18	11.980
453.53	12.492
453.88	12.995
454.23	12.552
454.58	13.568
454.93	13.668
455.28	12.781
455.63	12.621
455.98	13.393
456.34	13.065
456.69	12.962
457.04	12.879
457.39	12.098
457.74	12.594
458.09	13.341
458.44	12.258
458.79	11.117
459.14	12.472
459.49	12.901
459.84	11.801
460.19	11.668
460.54	12.616
460.89	12.287
461.24	12.811
461.59	13.713
461.94	12.454
462.29	12.819
462.64	12.955
462.99	12.687
463.34	13.533
463.69	13.258
464.04	13.623
464.39	13.043
464.74	12.537
465.09	11.821
465.44	12.909
465.79	12.864
466.14	12.315
466.49	11.902
466.84	12.434
467.19	12.794
467.54	13.688
467.89	12.245
468.24	13.031
468.59	13.004
468.94	13.012
469.29	13.432
469.64	13.788
469.99	13.194
470.34	12.417
470.68	13.362
471.03	13.469
471.38	13.204
471.73	13.458
472.08	13.816
472.43	12.814
472.78	13.167
473.13	13.415
473.48	14.232
473.83	13.049
474.17	12.383
474.52	13.089
474.87	13.135
475.22	12.594
475.57	12.628
475.92	12.108
476.27	13.134
476.61	12.852
476.96	12.809
477.31	12.768
477.66	12.637
478.01	12.650
478.36	12.956
478.70	12.201
479.05	12.194
479.40	12.487
479.75	12.710
480.10	12.773
480.45	12.470
480.79	12.136
481.14	12.378
481.49	12.292
481.84	11.934
482.19	12.449
482.53	12.294
482.88	12.471
483.23	11.729
483.58	12.693
483.92	11.856
484.27	11.503
484.62	12.026
484.97	11.943
485.31	11.644
485.66	11.037
486.01	10.409
486.36	10.055
486.70	9.865
487.05	10.352
487.40	10.700
487.75	11.090
488.09	11.313
488.44	10.974
488.79	11.646
489.13	12.223
489.48	11.786
489.83	12.085
490.17	12.275
490.52	11.825
490.87	12.257
491.22	12.187
491.56	11.708
491.91	12.238
492.26	11.713
492.60	12.166
492.95	11.272
493.30	12.009
493.64	12.739
493.99	12.442
494.34	12.257
494.68	12.729
495.03	12.218
495.37	11.819
495.72	12.183
496.07	12.390
496.41	12.345
496.76	11.961
497.11	11.932
497.45	12.250
497.80	11.756
498.14	12.609
498.49	11.902
498.84	12.608
499.18	12.381
499.53	12.393
499.87	12.535
500.22	11.682
500.56	13.010
500.91	12.019
501.26	12.660
501.60	12.435
501.95	12.328
502.29	12.746
502.64	12.244
502.98	12.155
503.33	12.797
503.67	11.926
504.02	12.769
504.36	12.120
504.71	12.311
505.06	12.723
505.40	12.494
505.75	12.006
506.09	12.634
506.44	13.271
506.78	12.616
507.13	12.771
507.47	13.081
507.82	12.361
508.16	12.766
508.51	12.329
508.85	12.761
509.19	13.163
509.54	12.857
509.88	12.725
510.23	12.956
510.57	13.777
510.92	12.532
511.26	12.333
511.61	13.330
511.95	12.839
512.30	12.619
512.64	13.326
512.98	13.183
513.33	12.794
513.67	13.394
514.02	12.933
514.36	13.053
514.70	12.839
515.05	12.939
515.39	13.629
515.74	12.725
516.08	13.415
516.42	13.984
516.77	13.991
517.11	12.542
517.46	13.883
517.80	13.647
518.14	13.086
518.49	13.477
518.83	13.580
519.17	13.279
519.52	13.752
519.86	14.204
520.20	14.104
520.55	14.722
520.89	13.504
521.23	13.752
521.58	14.286
521.92	14.513
522.26	13.728
522.61	13.645
522.95	13.567
523.29	13.451
523.64	14.085
523.98	14.233
524.32	14.113
524.66	13.770
525.01	13.909
525.35	13.693
525.69	13.732
526.04	13.832
526.38	13.911
526.72	14.417
527.06	13.873
527.41	13.800
527.75	13.762
528.09	13.809
528.43	14.468
528.78	14.198
529.12	13.879
529.46	15.003
529.80	13.923
530.15	14.829
530.49	13.477
530.83	14.114
531.17	15.013
531.51	15.305
531.86	13.161
532.20	14.993
532.54	14.862
532.88	14.506
533.22	15.116
533.57	14.444
533.91	14.269
534.25	13.913
534.59	13.301
534.93	13.563
535.27	14.062
535.62	14.286
535.96	14.626
536.30	13.541
536.64	14.037
536.98	13.470
537.32	14.220
537.66	14.600
538.01	14.417
538.35	14.156
538.69	15.316
539.03	13.320
539.37	13.419
539.71	13.027
540.05	13.529
540.39	14.485
540.73	14.036
541.07	14.341
541.42	14.025
541.76	14.000
542.10	14.101
542.44	14.371
542.78	15.481
543.12	13.692
543.46	13.836
543.80	14.249
544.14	14.634
544.48	14.349
544.82	13.919
545.16	14.379
545.50	13.946
545.84	13.105
546.18	14.949
546.52	14.659
546.86	14.708
547.20	14.565
547.54	13.828
547.88	15.115
548.22	13.200
548.56	14.214
548.90	13.124
549.24	13.939
549.58	13.984
549.92	14.423
550.26	14.773
550.60	13.900
550.94	14.577
551.28	14.411
551.62	14.019
551.96	14.526
552.30	15.154
552.64	13.928
552.98	14.508
553.32	14.902
553.66	14.997
554.00	14.756
554.34	13.803
554.68	14.521
555.02	14.034
555.36	13.779
555.69	13.329
556.03	14.132
556.37	14.325
556.71	14.120
557.05	14.216
557.39	14.206
557.73	13.903
558.07	13.778
558.41	15.051
558.75	14.622
559.08	15.138
559.42	15.268
559.76	14.926
560.10	14.989
560.44	13.557
560.78	14.770
561.12	14.644
561.45	14.602
561.79	13.843
562.13	13.749
562.47	14.139
562.81	13.668
563.15	13.846
563.48	14.788
563.82	13.568
564.16	13.734
564.50	13.086
564.84	13.906
565.17	13.514
565.51	13.866
565.85	14.277
566.19	13.525
566.52	13.490
566.86	13.321
567.20	13.915
567.54	13.527
567.88	12.873
568.21	14.021
568.55	13.600
568.89	12.257
569.23	13.057
569.56	11.781
569.90	12.302
570.24	12.343
570.57	11.731
570.91	11.183
571.25	11.242
571.59	11.576
571.92	11.665
572.26	11.670
572.60	11.471
572.93	11.364
573.27	11.713
573.61	11.725
573.95	11.370
574.28	11.307
574.62	11.200
574.96	10.968
575.29	10.839
575.63	11.026
575.97	11.429
576.30	11.418
576.64	10.993
576.98	11.060
577.31	10.883
577.65	10.966
577.98	10.877
578.32	10.564
578.66	10.922
578.99	11.299
579.33	11.014
579.67	10.703
580.00	10.789
580.34	10.845
580.67	10.872
581.01	10.906
581.35	10.902
581.68	11.047
582.02	10.390
582.35	10.579
582.69	10.821
583.02	10.714
583.36	11.137
583.70	11.139
584.03	11.494
584.37	11.937
584.70	11.677
585.04	11.473
585.37	11.067
585.71	11.396
586.04	11.162
586.38	11.285
586.72	11.240
587.05	11.301
587.39	10.765
587.72	11.518
588.06	11.259
588.39	11.632
588.73	11.558
589.06	12.029
589.40	12.121
589.73	12.144
590.07	12.135
590.40	11.765
590.73	12.373
591.07	12.454
591.40	12.653
591.74	12.900
592.07	12.435
592.41	12.609
592.74	11.910
593.08	11.759
593.41	11.642
593.75	11.212
594.08	11.733
594.41	11.912
594.75	11.571
595.08	11.668
595.42	11.944
595.75	11.930
596.09	12.279
596.42	12.692
596.75	12.790
597.09	12.944
597.42	12.057
597.75	12.333
598.09	12.348
598.42	12.457
598.76	11.350
599.09	11.593
599.42	11.790
599.76	11.859
600.09	11.949
600.42	11.651
600.76	11.571
601.09	11.548
601.42	11.834
601.76	11.879
602.09	11.581
602.42	12.779
602.76	12.213
603.09	11.998
603.42	12.222
603.76	11.928
604.09	11.904
604.42	11.985
604.76	12.569
605.09	12.451
605.42	12.014
605.75	12.003
606.09	11.305
606.42	11.688
606.75	12.526
607.09	12.223
607.42	12.323
607.75	11.603
608.08	11.984
608.42	12.819
608.75	12.128
609.08	11.887
609.41	11.947
609.75	12.816
610.08	12.724
610.41	12.197
610.74	11.968
611.07	12.698
611.41	12.659
611.74	13.575
612.07	12.578
612.40	12.907
612.73	13.000
613.07	13.039
613.40	13.323
613.73	12.008
614.06	12.796
614.39	13.319
614.72	12.684
615.06	12.710
615.39	11.783
615.72	12.832
616.05	12.387
616.38	12.451
616.71	13.895
617.05	13.251
617.38	12.688
617.71	12.673
618.04	13.041
618.37	12.774
618.70	13.379
619.03	14.079
619.36	13.781
619.69	14.225
620.03	14.492
620.36	14.439
620.69	14.452
621.02	14.233
621.35	14.174
621.68	14.019
622.01	13.235
622.34	14.297
622.67	14.601
623.00	13.353
623.33	13.796
623.66	13.724
623.99	13.255
624.32	14.408
624.65	13.630
624.99	12.535
625.32	12.310
625.65	13.524
625.98	14.297
626.31	13.453
626.64	14.449
626.97	14.630
627.30	13.466
627.63	15.258
627.96	14.382
628.29	15.486
628.62	16.285
628.95	17.075
629.28	15.420
629.61	16.315
629.94	15.238
630.26	14.109
630.59	14.871
630.92	14.943
631.25	14.709
631.58	15.315
631.91	16.633
632.24	15.190
632.57	16.055
632.90	16.118
633.23	15.436
633.56	17.288
633.89	16.988
634.22	17.026
634.55	16.331
634.88	15.689
635.20	17.085
635.53	17.229
635.86	15.965
636.19	16.000
636.52	16.609
636.85	15.578
637.18	14.286
637.51	16.548
637.83	15.536
638.16	15.857
638.49	16.373
638.82	18.205
639.15	15.375
639.48	16.708
639.81	17.560
640.13	16.927
640.46	16.913
640.79	17.966
641.12	17.056
641.45	16.760
641.77	16.937
642.10	17.982
642.43	17.117
642.76	17.337
643.09	18.558
643.41	17.906
643.74	18.364
644.07	17.988
644.40	17.945
644.73	19.213
645.05	20.127
645.38	16.904
645.71	19.002
646.04	17.608
646.36	19.199
646.69	19.231
647.02	19.048
647.35	18.900
647.67	20.177
648.00	19.187
648.33	17.822
648.66	17.273
648.98	20.090
649.31	15.247
649.64	17.489
649.96	18.778
650.29	17.536
650.62	17.476
650.94	19.611
651.27	19.426
651.60	18.136
651.92	18.530
652.25	18.241
652.58	16.511
652.90	18.641
653.23	16.641
653.56	17.008
653.88	18.067
654.21	18.167
654.54	17.492
654.86	17.134
655.19	15.676
655.52	10.998
655.84	8.704
656.17	10.733
656.49	14.289
656.82	14.335
657.15	10.846
657.47	8.384
657.80	6.591
658.13	6.682
658.45	9.992
658.78	10.477
659.10	11.549
659.43	12.423
659.75	12.729
660.08	13.671
660.41	16.667
660.73	18.043
661.06	17.197
661.38	21.455
661.71	20.385
662.03	20.118
662.36	17.097
662.68	20.080
663.01	18.586
663.33	21.656
663.66	22.059
663.98	19.654
664.31	19.958
664.63	19.028
664.96	19.517
665.28	19.877
665.61	18.324
665.93	17.706
666.26	18.864
666.58	19.247
666.91	20.507
667.23	20.000
667.56	20.302
667.88	20.726
668.21	21.962
668.53	21.041
668.86	19.481
669.18	23.881
669.50	21.522
669.83	22.876
670.15	19.333
670.48	19.826
670.80	21.767
671.13	20.382
671.45	19.574
671.77	19.552
672.10	18.669
672.42	19.435
672.75	18.905
673.07	15.845
673.39	19.168
673.72	18.945
674.04	18.235
674.37	19.029
674.69	19.223
675.01	20.921
675.34	19.918
675.66	20.842
675.98	22.200
676.31	19.958
676.63	23.142
676.95	21.803
677.28	22.196
677.60	19.780
677.92	22.996
678.25	18.891
678.57	19.323
678.89	18.838
679.22	18.075
679.54	20.992
679.86	20.734
680.18	18.247
680.51	15.957
680.83	19.039
681.15	19.811
681.48	21.172
681.80	14.894
682.12	19.732
682.44	17.602
682.77	17.923
683.09	23.820
683.41	18.847
683.73	20.530
684.06	19.835
684.38	17.221
684.70	21.318
685.02	19.700
685.34	18.132
685.67	16.958
685.99	17.354
686.31	17.406
686.63	15.018
686.96	18.393
687.28	19.495
687.60	17.935
687.92	19.196
688.24	18.061
688.56	20.080
688.89	23.444
689.21	20.306
689.53	18.789
689.85	19.512
690.17	19.255
690.49	21.444
690.82	19.159
691.14	18.750
691.46	18.987
691.78	18.675
692.10	20.455
692.42	20.758
692.74	17.635
693.06	20.638
693.39	22.177
693.71	18.996
694.03	20.632
694.35	19.697
694.67	21.510
694.99	20.244
695.31	18.873
695.63	16.746
695.95	20.538
696.27	17.259
696.59	20.207
696.91	22.539
697.23	19.014
697.56	20.043
697.88	18.405
698.20	20.625
698.52	18.710
698.84	18.708
699.16	19.355
699.48	19.002
699.80	21.739
700.12	24.675
700.44	24.934
700.76	21.823
701.08	20.977
701.40	22.626
701.72	25.948
702.04	26.420
702.36	21.530
702.68	21.813
703.00	22.992
703.32	21.011
703.64	22.520
703.96	19.499
704.28	23.837
704.60	25.806
704.91	21.958
705.23	23.167
705.55	21.595
705.87	28.571
706.19	28.975
706.51	21.495
706.83	25.455
707.15	24.930
707.47	20.455
707.79	21.622
708.11	20.091
708.43	15.476
708.74	20.918
709.06	20.779
709.38	23.097
709.70	20.640
710.02	22.255
710.34	21.515
710.66	26.567
710.98	26.136
711.29	22.965
711.61	25.369
711.93	22.436
712.25	24.759
712.57	18.750
712.89	26.644
713.20	22.796
713.52	25.658
713.84	22.785
714.16	23.476
714.48	19.828
714.80	22.188
715.11	22.190
715.43	22.849
715.75	24.058
716.07	24.920
716.39	23.197
716.70	25.581
717.02	24.820
717.34	22.968
717.66	32.463
717.97	30.279
718.29	26.296
718.61	28.102
718.93	22.426
719.24	21.107
719.56	26.102
719.88	27.797
720.20	27.703
720.51	23.693
720.83	27.509
721.15	24.627
721.46	21.986
721.78	28.674
722.10	21.132
722.42	28.195
722.73	28.090
723.05	24.590
723.37	29.555
723.68	28.185
724.00	30.894
724.32	28.226
724.63	27.236
724.95	23.431
725.27	32.389
725.58	30.078
725.90	29.927
726.22	23.774
726.53	25.694
726.85	25.256
727.16	23.843
727.48	29.078
727.80	24.242
728.11	23.913
728.43	25.000
728.74	25.806
729.06	23.723
729.38	30.882
729.69	21.352
730.01	21.843
730.32	23.264
730.64	24.749
730.96	22.112
731.27	21.523
731.59	20.795
731.90	25.073
732.22	22.981
732.53	21.981
732.85	23.718
733.16	22.830
733.48	24.585
733.80	25.325
734.11	24.841
734.43	24.556
734.74	22.857
735.06	19.198
735.37	24.855
735.69	20.382
736.00	22.549
736.32	27.103
736.63	20.767
736.95	23.323
737.26	19.048
737.58	22.581
737.89	23.746
738.21	26.280
738.52	23.571
738.83	21.509
739.15	25.000
739.46	26.642
739.78	24.306
740.09	24.923
740.41	24.839
740.72	22.648
741.04	22.222
741.35	24.583
741.66	27.111
741.98	25.000
742.29	31.579
742.61	28.017
742.92	26.697
743.23	22.222
743.55	30.400
743.86	26.754
744.18	37.168
744.49	29.665
744.80	37.089
745.12	29.091
745.43	30.396
745.74	31.532
746.06	27.064
746.37	30.045
746.68	30.769
747.00	34.259
747.31	28.571
747.62	23.451
747.94	24.670
748.25	28.936
748.56	31.278
748.88	27.723
749.19	38.000
749.50	29.302
749.82	28.862
750.13	25.306
750.44	25.547
750.75	23.860
751.07	23.794
751.38	27.178
751.69	24.549
752.01	28.195
752.32	23.827
752.63	28.369
752.94	27.049
753.26	30.800
753.57	26.016
753.88	27.344
754.19	22.857
754.51	28.819
754.82	22.383
755.13	29.434
755.44	25.188
755.75	23.723
756.07	24.823
756.38	21.898
756.69	24.497
757.00	20.659
757.31	22.552
757.63	19.006
757.94	21.180
758.25	19.608
758.56	20.741
758.87	20.968
759.18	24.242
759.50	20.376
759.81	24.299
760.12	20.938
760.43	24.069
760.74	21.467
761.05	25.989
761.36	20.588
761.67	23.864
761.99	21.429
762.30	22.917
762.61	24.427
762.92	26.562
763.23	26.891
763.54	30.800
763.85	24.219
764.16	30.385
764.47	26.236
764.78	24.735
765.10	20.886
765.41	20.059
765.72	20.659
766.03	23.197
766.34	23.000
766.65	28.511
766.96	25.214
767.27	34.518
767.58	34.375
767.89	37.368
768.20	39.080
768.51	30.457
768.82	29.817
769.13	23.577
769.44	25.506
769.75	24.893
770.06	18.807
770.37	29.864
770.68	34.722
770.99	22.667
771.30	21.721
771.61	29.596
771.92	30.328
772.23	33.193
772.54	33.333
772.85	35.079
773.16	32.979
773.47	38.587
773.78	37.056
774.09	30.952
774.39	38.012
774.70	35.185
775.01	40.580
775.32	37.908
775.63	40.789
775.94	38.849
776.25	39.370
776.56	46.269
776.87	40.984
777.18	47.656
777.48	46.565
777.79	40.152
778.10	46.667
778.41	46.429
778.72	32.117
779.03	42.282
779.34	38.255
779.65	31.757
779.95	41.718
780.26	43.137
780.57	39.310
780.88	46.875
781.19	38.346
781.50	36.486
781.80	38.365
782.11	31.073
782.42	34.810
782.73	30.061
783.04	39.189
783.34	41.549
783.65	45.205
783.96	41.791
784.27	37.063
784.57	33.813
784.88	36.111
785.19	57.937
785.50	49.057
785.81	44.776
786.11	57.377
786.42	43.411
786.73	40.708
787.04	52.830
787.34	54.464
787.65	62.000
787.96	44.144
788.26	44.628
788.57	53.390
788.88	42.975
789.19	45.833
789.49	48.485
789.80	50.382
790.11	51.429
790.41	68.317
790.72	54.217
791.03	52.174
791.33	48.837
791.64	40.206
791.95	54.455
792.25	56.667
792.56	68.831
792.87	82.051
793.17	78.481
793.48	66.667
793.79	59.770
794.09	62.500
794.40	46.218
794.70	49.265
795.01	38.519
795.32	40.288
795.62	48.031
795.93	48.276
796.23	44.248
796.54	60.000
796.85	55.405
797.15	76.056
797.46	74.242
797.76	73.494
798.07	72.152
798.37	64.615
798.68	54.545
798.99	60.563
799.29	71.429
799.60	53.409
799.90	73.973
800.21	62.687
800.51	63.793
800.82	89.474
801.12	75.410
801.43	89.394
801.73	66.216
802.04	80.952
802.34	77.778
802.65	78.125
802.95	94.915
803.26	75.000
803.56	64.286
803.87	80.000
804.17	86.765
804.48	107.407
804.78	62.069
805.09	76.471
805.39	78.846
805.70	78.571
806.00	83.607
806.30	53.030
806.61	67.073
806.91	65.823
807.22	57.895
807.52	68.657
807.83	70.423
808.13	78.125
808.43	80.000
808.74	53.947
809.04	82.609
809.35	74.627
809.65	65.789
809.95	98.387
810.26	67.797
810.56	74.603
810.86	113.636
811.17	116.667
811.47	86.667
811.77	96.296
812.08	96.364
812.38	114.000
812.69	119.444
812.99	106.818
813.29	106.122
813.59	73.810
813.90	104.082
814.20	89.091
814.50	76.923
814.81	85.294
815.11	110.204
815.41	83.607
815.72	121.429
816.02	103.636
816.32	102.381
816.62	97.500
816.93	117.073
817.23	109.524
817.53	109.091
817.84	184.848
818.14	100.000
818.44	82.222
818.74	123.529
819.04	100.000
819.35	114.286
819.65	141.176
819.95	171.429
820.25	175.000
820.56	146.154
820.86	86.364
821.16	113.953
821.46	97.436
821.76	104.000
822.07	151.429
822.37	117.500
822.67	136.364
822.97	96.078
823.27	200.000
823.57	129.730
823.88	142.500
824.18	170.000
824.48	154.762
824.78	192.000
825.08	162.500
825.38	129.730
825.69	107.317
825.99	216.667
826.29	120.690
826.59	121.053
826.89	121.053
827.19	150.000
827.49	193.548
827.79	127.273
828.09	106.818
828.39	110.638
828.70	118.367
829.00	133.333
829.30	125.806
829.60	120.000
829.90	186.667
830.20	142.857
830.50	169.565
830.80	191.304
831.10	146.667
831.40	173.333
831.70	204.348
832.00	200.000
832.30	174.074
832.60	275.000
832.90	203.333
833.20	350.000
833.50	167.742
833.80	141.379
834.10	190.625
834.40	173.077
834.70	300.000
835.00	319.048
835.30	148.571
835.60	284.615
835.90	158.621
836.20	278.571
836.50	206.897
836.80	164.000
837.10	155.556
837.40	238.095
837.70	288.235
838.00	177.778
838.30	180.952
838.60	233.333
838.90	219.231
839.19	220.000
839.49	328.571
839.79	270.000
840.09	220.000
840.39	223.810
840.69	213.043
840.99	322.222
841.29	390.000
841.59	300.000
841.88	293.750
842.18	141.379
842.48	214.286
842.78	190.000
843.08	165.217
843.38	143.750
843.68	633.333
843.97	165.385
844.27	196.552
844.57	242.857
844.87	312.500
845.17	192.593
845.47	1100.000
845.76	377.778
846.06	270.588
846.36	475.000
846.66	321.429
846.96	287.500
847.25	290.909
847.55	309.091
847.85	186.957
848.15	400.000
848.44	357.143
848.74	250.000
849.04	229.412
849.34	540.000
849.63	226.316
849.93	381.818
850.23	720.000
850.53	292.857
850.82	2300.000
851.12	-4300.000
851.42	4000.000
851.71	220.000
852.01	-900.000
852.31	195.833
852.61	1500.000
852.90	280.952
853.20	180.000
853.50	258.824
853.79	242.857
854.09	195.833
854.39	293.750
854.68	175.676
854.98	151.613
855.28	160.000
855.57	175.862
855.87	166.667
856.17	242.105
856.46	246.667
856.76	252.941
857.05	179.310
857.35	204.167
857.65	240.000
857.94	239.130
858.24	184.615
858.53	260.000
858.83	181.818
859.13	286.667
859.42	0.000
859.72	444.444
860.01	390.909
860.31	204.545
860.60	273.684
860.90	204.348
861.20	466.667
861.49	383.333
861.79	-2900.000
862.08	687.500
862.38	261.905
862.67	261.538
862.97	288.235
863.26	466.667
863.56	227.778
863.85	366.667
864.15	475.000
864.44	326.667
864.74	800.000
865.03	637.500
865.33	263.158
865.62	454.545
865.92	415.385
866.21	300.000
866.51	0.000
866.80	409.091
867.10	1000.000
867.39	376.923
867.69	481.818
867.98	263.158
868.27	427.273
868.57	226.316
868.86	-4200.000
869.16	331.250
869.45	2050.000
869.75	-3600.000
870.04	308.333
870.33	685.714
870.63	900.000
870.92	2350.000
871.22	585.714
871.51	294.118
871.80	204.762
872.10	321.429
>>>>>End Processed Spectral Data<<<<<
