SpectraSuite Data File
++++++++++++++++++++++++++++++++++++
Date: Wed May 13 16:11:16 PDT 2015
User: schluterlab
Dark Spectrum Present: Yes
Reference Spectrum Present: Yes
Number of Sampled Component Spectra: 1
Spectrometers: USB2E3373
Integration Time (usec): 3000 (USB2E3373)
Spectra Averaged: 3 (USB2E3373)
Boxcar Smoothing: 0 (USB2E3373)
Correct for Electrical Dark: No (USB2E3373)
Strobe/Lamp Enabled: No (USB2E3373)
Correct for Detector Non-linearity: No (USB2E3373)
Correct for Stray Light: No (USB2E3373)
Number of Pixels in Processed Spectrum: 2048
>>>>>Begin Processed Spectral Data<<<<<
178.53	0.000
178.91	-1100.000
179.29	-1050.000
179.67	-172.222
180.04	-850.000
180.42	1350.000
180.80	860.000
181.18	-700.000
181.56	600.000
181.94	0.000
182.31	-500.000
182.69	1333.333
183.07	-387.500
183.45	-488.889
183.83	418.182
184.20	-250.000
184.58	1800.000
184.96	4300.000
185.34	-560.000
185.72	-362.500
186.09	-2000.000
186.47	1800.000
186.85	1800.000
187.23	3900.000
187.61	-1200.000
187.98	1100.000
188.36	354.545
188.74	372.727
189.12	-780.000
189.49	400.000
189.87	-3900.000
190.25	-850.000
190.63	278.571
191.00	276.923
191.38	516.667
191.76	-1075.000
192.14	1200.000
192.51	412.500
192.89	683.333
193.27	375.000
193.65	-825.000
194.02	470.000
194.40	740.000
194.78	430.000
195.15	366.667
195.53	410.000
195.91	-1550.000
196.29	287.500
196.66	247.368
197.04	-270.000
197.42	0.000
197.79	470.000
198.17	-3600.000
198.55	442.857
198.92	500.000
199.30	740.000
199.68	0.000
200.05	227.778
200.43	442.857
200.81	3000.000
201.18	1000.000
201.56	-800.000
201.94	400.000
202.31	500.000
202.69	316.667
203.07	460.000
203.44	0.000
203.82	825.000
204.19	614.286
204.57	350.000
204.95	375.000
205.32	1133.333
205.70	400.000
206.08	328.571
206.45	1550.000
206.83	306.250
207.20	650.000
207.58	540.000
207.96	261.111
208.33	475.000
208.71	-616.667
209.08	657.143
209.46	455.556
209.84	300.000
210.21	-1100.000
210.59	1000.000
210.96	-312.500
211.34	1850.000
211.71	480.000
212.09	583.333
212.46	0.000
212.84	1166.667
213.22	1150.000
213.59	-4000.000
213.97	816.667
214.34	585.714
214.72	481.818
215.09	840.000
215.47	-1600.000
215.84	-1500.000
216.22	1400.000
216.59	335.714
216.97	1075.000
217.34	309.091
217.72	-450.000
218.09	0.000
218.47	-3500.000
218.84	500.000
219.22	485.714
219.59	1066.667
219.97	-528.571
220.34	680.000
220.72	-1366.667
221.09	307.143
221.47	1150.000
221.84	-683.333
222.22	0.000
222.59	1125.000
222.97	-2050.000
223.34	840.000
223.72	315.385
224.09	800.000
224.46	1500.000
224.84	-2900.000
225.21	-920.000
225.59	-3100.000
225.96	480.000
226.34	215.000
226.71	2350.000
227.08	500.000
227.46	420.000
227.83	-550.000
228.21	-1850.000
228.58	600.000
228.95	-1750.000
229.33	-1700.000
229.70	1466.667
230.08	700.000
230.45	-560.000
230.82	341.667
231.20	700.000
231.57	471.429
231.95	500.000
232.32	195.455
232.69	236.364
233.07	457.143
233.44	315.385
233.81	-1033.333
234.19	252.632
234.56	350.000
234.93	216.667
235.31	300.000
235.68	230.769
236.05	207.143
236.43	136.364
236.80	100.000
237.17	2600.000
237.55	147.619
237.92	128.571
238.29	109.524
238.67	96.774
239.04	158.621
239.41	86.111
239.79	69.565
240.16	88.095
240.53	97.727
240.91	60.784
241.28	66.000
241.65	68.000
242.02	59.420
242.40	53.226
242.77	45.000
243.14	45.161
243.51	46.067
243.89	45.882
244.26	38.889
244.63	36.559
245.00	39.362
245.38	32.673
245.75	28.037
246.12	31.193
246.49	33.577
246.87	37.600
247.24	33.077
247.61	30.714
247.98	32.026
248.36	24.324
248.73	29.936
249.10	26.115
249.47	25.989
249.84	18.182
250.22	19.251
250.59	22.485
250.96	22.727
251.33	18.957
251.70	24.257
252.08	19.048
252.45	17.937
252.82	19.565
253.19	21.277
253.56	18.039
253.94	21.577
254.31	17.187
254.68	20.385
255.05	18.450
255.42	18.699
255.79	18.750
256.16	18.412
256.54	12.367
256.91	18.861
257.28	8.993
257.65	13.861
258.02	17.081
258.39	15.457
258.76	14.381
259.14	15.774
259.51	14.286
259.88	10.559
260.25	14.502
260.62	13.584
260.99	11.180
261.36	16.216
261.73	12.607
262.10	10.465
262.47	14.930
262.85	12.535
263.22	9.972
263.59	13.390
263.96	10.165
264.33	13.316
264.70	10.000
265.07	14.066
265.44	12.121
265.81	10.949
266.18	10.804
266.55	10.000
266.92	9.582
267.29	12.500
267.66	9.862
268.03	10.000
268.40	11.682
268.77	10.024
269.14	10.360
269.51	12.415
269.88	11.888
270.25	12.415
270.62	11.011
270.99	14.194
271.36	11.803
271.73	8.879
272.10	8.261
272.47	11.613
272.84	9.091
273.21	11.530
273.58	10.917
273.95	9.853
274.32	10.331
274.69	10.493
275.06	8.268
275.43	10.638
275.80	10.220
276.17	9.776
276.54	10.811
276.91	9.091
277.28	10.742
277.65	11.219
278.02	8.903
278.39	10.742
278.76	10.000
279.13	9.623
279.50	11.173
279.87	8.566
280.23	8.782
280.60	9.478
280.97	9.242
281.34	9.735
281.71	9.091
282.08	11.132
282.45	7.636
282.82	9.236
283.19	7.308
283.56	8.246
283.92	10.998
284.29	8.818
284.66	7.623
285.03	7.776
285.40	8.275
285.77	8.249
286.14	7.599
286.51	8.000
286.87	7.350
287.24	9.121
287.61	8.186
287.98	8.604
288.35	8.241
288.72	9.190
289.08	9.546
289.45	6.755
289.82	7.154
290.19	6.436
290.56	7.963
290.93	7.553
291.29	7.822
291.66	7.670
292.03	10.174
292.40	8.223
292.77	6.805
293.13	7.015
293.50	8.746
293.87	8.296
294.24	7.407
294.60	6.405
294.97	6.977
295.34	7.475
295.71	9.233
296.08	7.265
296.44	7.978
296.81	7.001
297.18	7.859
297.55	4.485
297.91	6.332
298.28	7.764
298.65	8.094
299.02	7.510
299.38	5.578
299.75	3.639
300.12	6.130
300.48	7.125
300.85	7.152
301.22	7.261
301.59	5.303
301.95	7.179
302.32	6.162
302.69	6.691
303.05	6.061
303.42	6.173
303.79	6.908
304.15	5.944
304.52	6.141
304.89	5.459
305.25	6.032
305.62	6.342
305.99	7.438
306.35	6.600
306.72	6.278
307.09	7.325
307.45	8.108
307.82	4.464
308.19	7.506
308.55	7.335
308.92	6.230
309.29	6.125
309.65	5.514
310.02	5.603
310.38	5.376
310.75	6.758
311.12	7.062
311.48	6.374
311.85	6.394
312.22	6.452
312.58	5.717
312.95	6.019
313.31	5.049
313.68	5.925
314.05	7.692
314.41	6.834
314.78	5.035
315.14	6.157
315.51	5.870
315.87	6.040
316.24	6.157
316.61	6.433
316.97	6.654
317.34	4.892
317.70	5.641
318.07	6.256
318.43	5.969
318.80	7.123
319.16	7.250
319.53	6.285
319.89	6.857
320.26	6.800
320.62	5.952
320.99	7.071
321.35	5.556
321.72	6.263
322.08	5.429
322.45	6.965
322.81	6.298
323.18	7.129
323.54	7.607
323.91	7.170
324.27	5.067
324.64	6.058
325.00	5.320
325.37	6.369
325.73	6.463
326.10	6.002
326.46	5.735
326.83	7.075
327.19	5.807
327.56	5.923
327.92	5.424
328.29	6.655
328.65	6.262
329.01	5.957
329.38	4.718
329.74	5.263
330.11	5.372
330.47	5.969
330.84	6.801
331.20	5.373
331.56	6.147
331.93	5.093
332.29	6.566
332.66	5.929
333.02	5.941
333.38	5.420
333.75	6.506
334.11	6.050
334.48	6.211
334.84	5.699
335.20	6.455
335.57	5.893
335.93	5.000
336.29	5.311
336.66	6.673
337.02	4.796
337.38	5.741
337.75	5.615
338.11	4.924
338.47	4.788
338.84	5.591
339.20	4.312
339.56	6.022
339.93	4.909
340.29	5.888
340.65	5.348
341.02	5.585
341.38	5.783
341.74	5.088
342.11	5.240
342.47	5.022
342.83	6.421
343.20	6.407
343.56	4.971
343.92	4.825
344.28	5.102
344.65	5.589
345.01	4.882
345.37	4.374
345.73	5.415
346.10	5.371
346.46	5.339
346.82	5.025
347.19	4.595
347.55	4.844
347.91	4.935
348.27	6.245
348.63	5.853
349.00	4.935
349.36	5.008
349.72	5.293
350.08	5.511
350.45	5.696
350.81	5.443
351.17	6.564
351.53	4.586
351.89	4.043
352.26	6.077
352.62	5.854
352.98	4.619
353.34	5.752
353.70	5.074
354.07	5.081
354.43	4.762
354.79	4.827
355.15	4.709
355.51	5.596
355.87	5.143
356.24	5.049
356.60	5.453
356.96	4.988
357.32	4.906
357.68	5.433
358.04	5.146
358.40	5.938
358.77	5.164
359.13	4.578
359.49	5.176
359.85	3.810
360.21	4.306
360.57	5.370
360.93	5.231
361.29	5.291
361.66	4.489
362.02	5.149
362.38	5.247
362.74	4.762
363.10	3.775
363.46	5.282
363.82	4.989
364.18	4.846
364.54	5.721
364.90	5.241
365.26	5.000
365.62	5.040
365.98	4.237
366.35	3.582
366.71	4.917
367.07	4.297
367.43	4.572
367.79	5.496
368.15	5.891
368.51	4.288
368.87	4.925
369.23	5.048
369.59	4.634
369.95	5.000
370.31	5.199
370.67	5.000
371.03	5.768
371.39	5.248
371.75	5.368
372.11	5.477
372.47	5.645
372.83	5.187
373.19	4.841
373.55	4.656
373.91	6.112
374.27	4.948
374.63	4.364
374.99	5.085
375.35	4.257
375.71	5.278
376.07	5.624
376.42	4.608
376.78	5.302
377.14	4.749
377.50	5.563
377.86	4.455
378.22	5.120
378.58	4.762
378.94	5.217
379.30	5.153
379.66	4.949
380.02	5.221
380.38	4.736
380.74	5.342
381.09	5.929
381.45	5.593
381.81	4.975
382.17	5.414
382.53	5.346
382.89	5.926
383.25	4.753
383.61	5.824
383.97	5.629
384.32	5.926
384.68	5.019
385.04	5.839
385.40	5.511
385.76	5.221
386.12	5.829
386.48	6.167
386.83	6.735
387.19	6.370
387.55	5.442
387.91	5.200
388.27	5.641
388.62	5.962
388.98	5.344
389.34	6.758
389.70	5.886
390.06	6.274
390.42	5.772
390.77	5.980
391.13	6.190
391.49	6.028
391.85	6.365
392.20	5.174
392.56	5.745
392.92	6.004
393.28	4.438
393.64	6.715
393.99	6.292
394.35	5.211
394.71	5.960
395.07	5.857
395.42	5.748
395.78	6.234
396.14	6.518
396.50	7.393
396.85	6.612
397.21	5.672
397.57	6.820
397.92	6.430
398.28	5.549
398.64	6.452
399.00	5.820
399.35	5.471
399.71	5.729
400.07	6.682
400.42	6.810
400.78	6.393
401.14	5.915
401.49	6.388
401.85	6.231
402.21	5.569
402.57	6.169
402.92	5.864
403.28	6.496
403.63	5.446
403.99	5.987
404.35	7.030
404.70	6.595
405.06	5.882
405.42	5.926
405.77	5.943
406.13	6.885
406.49	5.855
406.84	5.729
407.20	6.147
407.55	6.509
407.91	5.867
408.27	5.807
408.62	5.659
408.98	6.127
409.34	6.027
409.69	6.194
410.05	6.568
410.40	6.728
410.76	6.093
411.11	6.212
411.47	5.687
411.83	6.597
412.18	6.370
412.54	6.227
412.89	6.566
413.25	6.316
413.60	6.300
413.96	5.950
414.31	6.258
414.67	6.971
415.03	6.424
415.38	6.959
415.74	6.367
416.09	6.205
416.45	6.225
416.80	6.477
417.16	7.172
417.51	6.768
417.87	6.358
418.22	6.562
418.58	7.037
418.93	5.958
419.29	6.365
419.64	7.179
420.00	6.341
420.35	7.014
420.71	6.635
421.06	5.907
421.42	6.082
421.77	6.951
422.12	5.952
422.48	5.235
422.83	6.814
423.19	6.298
423.54	5.746
423.90	7.072
424.25	6.365
424.61	5.952
424.96	6.122
425.31	6.312
425.67	6.404
426.02	6.114
426.38	6.654
426.73	6.788
427.09	6.018
427.44	6.440
427.79	6.440
428.15	6.845
428.50	6.261
428.85	6.853
429.21	6.681
429.56	6.376
429.92	5.737
430.27	5.760
430.62	5.837
430.98	5.656
431.33	5.928
431.68	6.492
432.04	6.656
432.39	5.711
432.74	6.703
433.10	6.395
433.45	6.181
433.80	6.153
434.16	6.090
434.51	5.737
434.86	6.100
435.22	6.559
435.57	6.687
435.92	6.202
436.28	6.643
436.63	6.954
436.98	6.411
437.34	6.261
437.69	7.760
438.04	6.464
438.39	6.328
438.75	7.728
439.10	6.089
439.45	6.848
439.81	6.103
440.16	6.606
440.51	6.503
440.86	5.790
441.22	6.563
441.57	6.263
441.92	6.039
442.27	7.051
442.63	6.793
442.98	6.592
443.33	6.739
443.68	5.885
444.03	6.491
444.39	5.599
444.74	6.710
445.09	6.577
445.44	6.670
445.79	6.383
446.15	7.147
446.50	6.193
446.85	6.629
447.20	6.833
447.55	6.030
447.91	6.564
448.26	6.622
448.61	6.162
448.96	6.921
449.31	6.524
449.66	6.866
450.02	5.850
450.37	6.519
450.72	7.219
451.07	5.180
451.42	6.383
451.77	6.870
452.12	6.986
452.47	6.592
452.83	6.643
453.18	6.296
453.53	7.421
453.88	5.670
454.23	6.396
454.58	6.784
454.93	7.311
455.28	5.923
455.63	6.189
455.98	7.619
456.34	6.156
456.69	6.637
457.04	6.935
457.39	6.312
457.74	6.616
458.09	6.728
458.44	7.070
458.79	6.453
459.14	6.772
459.49	6.597
459.84	6.260
460.19	6.187
460.54	6.713
460.89	6.637
461.24	7.225
461.59	7.379
461.94	7.213
462.29	6.766
462.64	6.190
462.99	6.897
463.34	8.200
463.69	6.379
464.04	6.609
464.39	6.957
464.74	6.179
465.09	6.695
465.44	7.091
465.79	6.488
466.14	7.170
466.49	6.174
466.84	6.480
467.19	7.302
467.54	6.688
467.89	7.443
468.24	7.213
468.59	7.326
468.94	6.292
469.29	6.941
469.64	8.768
469.99	7.240
470.34	6.143
470.68	7.902
471.03	7.415
471.38	7.019
471.73	7.995
472.08	7.697
472.43	7.035
472.78	7.242
473.13	7.445
473.48	7.241
473.83	6.585
474.17	6.347
474.52	7.754
474.87	8.056
475.22	7.255
475.57	6.556
475.92	6.320
476.27	7.554
476.61	6.784
476.96	6.102
477.31	6.698
477.66	6.346
478.01	6.639
478.36	7.351
478.70	5.763
479.05	6.550
479.40	6.960
479.75	6.609
480.10	6.163
480.45	6.663
480.79	6.163
481.14	6.849
481.49	6.407
481.84	6.676
482.19	6.361
482.53	7.156
482.88	6.561
483.23	6.075
483.58	6.597
483.92	6.139
484.27	5.839
484.62	5.690
484.97	5.873
485.31	6.336
485.66	4.990
486.01	4.753
486.36	4.915
486.70	4.502
487.05	5.007
487.40	4.750
487.75	5.230
488.09	5.672
488.44	5.637
488.79	6.148
489.13	5.844
489.48	6.199
489.83	5.524
490.17	6.664
490.52	6.112
490.87	6.242
491.22	6.094
491.56	5.786
491.91	6.096
492.26	6.523
492.60	6.359
492.95	6.127
493.30	6.869
493.64	6.253
493.99	6.175
494.34	6.337
494.68	6.822
495.03	6.297
495.37	6.794
495.72	6.189
496.07	6.125
496.41	5.796
496.76	6.332
497.11	6.303
497.45	6.660
497.80	6.094
498.14	5.362
498.49	6.098
498.84	6.472
499.18	6.238
499.53	6.695
499.87	6.384
500.22	6.594
500.56	6.553
500.91	6.635
501.26	6.164
501.60	6.739
501.95	6.508
502.29	6.842
502.64	6.285
502.98	6.358
503.33	6.353
503.67	6.218
504.02	6.595
504.36	6.926
504.71	6.448
505.06	6.169
505.40	6.466
505.75	6.509
506.09	6.463
506.44	6.265
506.78	6.624
507.13	6.512
507.47	7.071
507.82	7.396
508.16	6.687
508.51	7.103
508.85	6.157
509.19	6.888
509.54	7.041
509.88	6.646
510.23	6.941
510.57	7.585
510.92	6.680
511.26	6.680
511.61	7.002
511.95	6.420
512.30	6.469
512.64	7.039
512.98	7.449
513.33	7.120
513.67	7.684
514.02	6.926
514.36	7.537
514.70	7.416
515.05	7.306
515.39	7.796
515.74	7.207
516.08	7.546
516.42	7.325
516.77	8.082
517.11	7.991
517.46	7.957
517.80	7.840
518.14	6.427
518.49	7.526
518.83	7.670
519.17	7.390
519.52	7.640
519.86	7.929
520.20	8.266
520.55	7.899
520.89	7.664
521.23	8.384
521.58	7.563
521.92	7.348
522.26	6.650
522.61	7.414
522.95	7.673
523.29	7.182
523.64	8.049
523.98	8.256
524.32	6.755
524.66	8.358
525.01	8.150
525.35	8.116
525.69	8.805
526.04	8.287
526.38	8.237
526.72	7.975
527.06	8.663
527.41	7.426
527.75	8.103
528.09	8.671
528.43	7.266
528.78	8.728
529.12	8.121
529.46	8.267
529.80	8.106
530.15	8.411
530.49	7.754
530.83	8.418
531.17	8.616
531.51	8.625
531.86	7.871
532.20	8.605
532.54	8.584
532.88	8.408
533.22	7.433
533.57	8.395
533.91	8.188
534.25	8.141
534.59	8.176
534.93	8.626
535.27	7.725
535.62	8.181
535.96	8.223
536.30	7.502
536.64	8.371
536.98	8.029
537.32	7.768
537.66	8.667
538.01	8.097
538.35	8.727
538.69	9.253
539.03	8.187
539.37	7.668
539.71	7.323
540.05	8.301
540.39	7.641
540.73	7.697
541.07	9.150
541.42	8.676
541.76	8.452
542.10	7.956
542.44	7.748
542.78	8.959
543.12	7.294
543.46	8.590
543.80	7.742
544.14	8.151
544.48	8.000
544.82	7.569
545.16	7.742
545.50	8.290
545.84	8.199
546.18	8.081
546.52	7.983
546.86	8.454
547.20	8.294
547.54	8.417
547.88	9.375
548.22	7.970
548.56	8.176
548.90	7.810
549.24	7.811
549.58	8.322
549.92	8.723
550.26	9.091
550.60	8.368
550.94	7.887
551.28	8.193
551.62	8.267
551.96	7.860
552.30	9.010
552.64	8.857
552.98	8.610
553.32	8.294
553.66	9.475
554.00	8.717
554.34	8.144
554.68	8.727
555.02	8.392
555.36	9.603
555.69	8.390
556.03	8.412
556.37	8.117
556.71	8.322
557.05	8.263
557.39	8.887
557.73	8.327
558.07	8.992
558.41	8.973
558.75	8.450
559.08	9.396
559.42	8.466
559.76	8.971
560.10	8.208
560.44	8.176
560.78	7.186
561.12	8.773
561.45	7.953
561.79	8.570
562.13	8.249
562.47	8.675
562.81	7.671
563.15	8.629
563.48	8.223
563.82	8.154
564.16	7.979
564.50	7.943
564.84	8.281
565.17	8.237
565.51	8.371
565.85	8.249
566.19	7.952
566.52	8.106
566.86	7.957
567.20	7.724
567.54	7.991
567.88	7.550
568.21	7.460
568.55	7.836
568.89	7.004
569.23	7.041
569.56	6.883
569.90	6.340
570.24	6.710
570.57	6.290
570.91	6.076
571.25	6.084
571.59	6.480
571.92	6.020
572.26	6.297
572.60	6.126
572.93	6.177
573.27	6.537
573.61	6.142
573.95	6.279
574.28	5.879
574.62	6.025
574.96	5.878
575.29	5.432
575.63	5.793
575.97	5.962
576.30	6.028
576.64	5.787
576.98	5.761
577.31	5.707
577.65	5.581
577.98	5.267
578.32	5.580
578.66	5.451
578.99	5.775
579.33	6.028
579.67	5.473
580.00	5.658
580.34	6.028
580.67	5.932
581.01	5.959
581.35	5.339
581.68	5.263
582.02	5.335
582.35	5.407
582.69	5.742
583.02	5.399
583.36	5.857
583.70	5.794
584.03	6.113
584.37	6.614
584.70	6.061
585.04	6.164
585.37	5.685
585.71	5.851
586.04	6.161
586.38	5.956
586.72	6.462
587.05	6.085
587.39	5.515
587.72	6.081
588.06	5.550
588.39	6.118
588.73	6.043
589.06	6.793
589.40	6.498
589.73	6.301
590.07	6.512
590.40	6.394
590.73	6.440
591.07	6.878
591.40	6.959
591.74	7.446
592.07	6.894
592.41	6.656
592.74	6.704
593.08	6.462
593.41	6.137
593.75	5.934
594.08	6.403
594.41	6.327
594.75	6.285
595.08	6.693
595.42	6.690
595.75	6.339
596.09	6.609
596.42	7.308
596.75	6.965
597.09	7.706
597.42	6.535
597.75	6.943
598.09	7.174
598.42	6.615
598.76	6.648
599.09	6.727
599.42	6.659
599.76	6.406
600.09	6.703
600.42	6.501
600.76	6.464
601.09	6.047
601.42	6.431
601.76	6.338
602.09	6.917
602.42	6.967
602.76	7.054
603.09	6.609
603.42	6.833
603.76	6.898
604.09	6.902
604.42	6.523
604.76	7.465
605.09	6.335
605.42	7.054
605.75	6.747
606.09	6.466
606.42	6.375
606.75	7.051
607.09	7.535
607.42	6.290
607.75	6.582
608.08	6.253
608.42	7.037
608.75	6.808
609.08	7.262
609.41	6.997
609.75	6.860
610.08	7.493
610.41	6.657
610.74	6.623
611.07	7.016
611.41	7.017
611.74	7.491
612.07	7.816
612.40	7.503
612.73	7.368
613.07	7.381
613.40	7.636
613.73	6.869
614.06	6.935
614.39	7.394
614.72	7.211
615.06	7.300
615.39	6.847
615.72	7.106
616.05	7.230
616.38	7.782
616.71	7.482
617.05	7.715
617.38	7.456
617.71	7.447
618.04	8.173
618.37	7.983
618.70	7.343
619.03	8.158
619.36	8.011
619.69	7.887
620.03	8.860
620.36	8.690
620.69	8.493
621.02	7.891
621.35	8.771
621.68	8.255
622.01	7.817
622.34	8.245
622.67	8.517
623.00	7.410
623.33	8.506
623.66	9.221
623.99	7.437
624.32	7.917
624.65	7.768
624.99	8.003
625.32	7.965
625.65	8.415
625.98	8.301
626.31	9.642
626.64	8.816
626.97	8.978
627.30	8.479
627.63	9.516
627.96	9.167
628.29	9.011
628.62	10.064
628.95	11.132
629.28	9.398
629.61	10.082
629.94	9.905
630.26	9.438
630.59	9.628
630.92	8.621
631.25	8.786
631.58	8.709
631.91	9.229
632.24	9.388
632.57	9.129
632.90	9.759
633.23	10.291
633.56	10.395
633.89	10.759
634.22	9.875
634.55	10.651
634.88	10.299
635.20	10.633
635.53	10.000
635.86	11.139
636.19	10.471
636.52	9.227
636.85	10.997
637.18	10.253
637.51	10.047
637.83	8.508
638.16	11.125
638.49	11.335
638.82	11.125
639.15	10.750
639.48	11.222
639.81	10.858
640.13	11.589
640.46	12.215
640.79	12.814
641.12	9.904
641.45	10.475
641.77	10.604
642.10	11.404
642.43	11.411
642.76	11.765
643.09	10.583
643.41	11.836
643.74	12.963
644.07	11.280
644.40	12.577
644.73	12.441
645.05	12.203
645.38	11.690
645.71	11.916
646.04	11.794
646.36	13.689
646.69	13.378
647.02	11.735
647.35	12.371
647.67	13.097
648.00	15.122
648.33	11.881
648.66	13.182
648.98	12.294
649.31	9.865
649.64	13.303
649.96	11.923
650.29	13.112
650.62	11.003
650.94	14.100
651.27	13.345
651.60	14.143
651.92	11.661
652.25	10.423
652.58	11.371
652.90	12.480
653.23	11.556
653.56	10.866
653.88	12.520
654.21	12.954
654.54	11.716
654.86	12.461
655.19	10.405
655.52	6.396
655.84	4.513
656.17	5.129
656.49	6.771
656.82	7.070
657.15	5.631
657.47	4.192
657.80	3.435
658.13	3.481
658.45	5.528
658.78	5.952
659.10	6.025
659.43	7.114
659.75	7.459
660.08	8.291
660.41	9.963
660.73	12.452
661.06	12.898
661.38	11.818
661.71	13.269
662.03	15.187
662.36	11.730
662.68	17.068
663.01	13.737
663.33	13.800
663.66	15.546
663.98	13.607
664.31	10.924
664.63	12.753
664.96	11.469
665.28	15.779
665.61	13.255
665.93	11.871
666.26	15.213
666.58	13.808
666.91	13.742
667.23	15.955
667.56	11.663
667.88	13.675
668.21	13.646
668.53	11.714
668.86	12.987
669.18	14.712
669.50	13.696
669.83	13.508
670.15	13.778
670.48	14.597
670.80	14.655
671.13	13.588
671.45	11.702
671.77	13.442
672.10	13.309
672.42	12.191
672.75	12.604
673.07	11.268
673.39	11.212
673.72	10.742
674.04	11.765
674.37	12.427
674.69	12.679
675.01	11.506
675.34	14.168
675.66	15.579
675.98	14.460
676.31	15.966
676.63	12.102
676.95	12.159
677.28	13.084
677.60	14.066
677.92	13.924
678.25	13.758
678.57	12.948
678.89	14.228
679.22	13.949
679.54	12.977
679.86	13.028
680.18	13.238
680.51	12.589
680.83	13.345
681.15	12.453
681.48	13.422
681.80	12.379
682.12	13.027
682.44	11.219
682.77	13.849
683.09	17.167
683.41	13.082
683.73	16.336
684.06	14.463
684.38	13.112
684.70	13.566
685.02	13.508
685.34	12.637
685.67	11.014
685.99	11.512
686.31	11.263
686.63	10.777
686.96	10.000
687.28	11.913
687.60	12.862
687.92	14.625
688.24	11.977
688.56	14.257
688.89	13.071
689.21	13.100
689.53	12.317
689.85	14.634
690.17	12.215
690.49	15.074
690.82	14.019
691.14	11.607
691.46	12.447
691.78	14.859
692.10	11.570
692.42	14.172
692.74	15.145
693.06	13.191
693.39	12.526
693.71	12.882
694.03	12.000
694.35	12.121
694.67	13.272
694.99	13.659
695.31	12.990
695.63	15.789
695.95	13.936
696.27	12.690
696.59	16.062
696.91	13.990
697.23	12.676
697.56	14.286
697.88	10.838
698.20	12.708
698.52	13.548
698.84	13.808
699.16	10.599
699.48	14.252
699.80	16.908
700.12	17.662
700.44	16.180
700.76	13.536
701.08	16.092
701.40	15.642
701.72	19.242
702.04	19.034
702.36	15.581
702.68	14.731
703.00	16.343
703.32	13.830
703.64	14.477
703.96	15.320
704.28	15.407
704.60	15.543
704.91	17.211
705.23	19.355
705.55	21.262
705.87	22.591
706.19	17.668
706.51	19.626
706.83	18.485
707.15	18.207
707.47	14.899
707.79	14.496
708.11	14.840
708.43	15.000
708.74	13.010
709.06	15.584
709.38	15.748
709.70	16.570
710.02	21.068
710.34	13.939
710.66	18.507
710.98	18.466
711.29	15.988
711.61	17.699
711.93	13.782
712.25	20.900
712.57	16.176
712.89	17.993
713.20	17.021
713.52	17.763
713.84	16.139
714.16	16.463
714.48	17.241
714.80	17.933
715.11	17.291
715.43	14.243
715.75	17.971
716.07	14.377
716.39	18.495
716.70	18.272
717.02	19.424
717.34	20.141
717.66	21.269
717.97	23.108
718.29	20.370
718.61	16.423
718.93	18.750
719.24	19.723
719.56	19.661
719.88	20.339
720.20	22.297
720.51	16.028
720.83	19.331
721.15	13.806
721.46	18.440
721.78	23.297
722.10	19.623
722.42	24.812
722.73	18.352
723.05	14.754
723.37	18.219
723.68	21.236
724.00	17.480
724.32	19.758
724.63	15.854
724.95	18.828
725.27	21.053
725.58	17.578
725.90	20.803
726.22	15.094
726.53	13.889
726.85	20.137
727.16	18.861
727.48	15.957
727.80	19.697
728.11	18.841
728.43	16.538
728.74	22.939
729.06	22.993
729.38	24.632
729.69	18.861
730.01	18.771
730.32	17.708
730.64	19.732
730.96	13.861
731.27	20.530
731.59	16.514
731.90	17.784
732.22	17.081
732.53	19.195
732.85	16.987
733.16	16.399
733.48	15.282
733.80	17.208
734.11	18.790
734.43	16.568
734.74	18.286
735.06	14.327
735.37	17.630
735.69	14.013
736.00	17.974
736.32	20.561
736.63	16.613
736.95	19.808
737.26	12.925
737.58	14.516
737.89	16.722
738.21	20.819
738.52	16.429
738.83	18.868
739.15	14.615
739.46	19.343
739.78	15.972
740.09	18.769
740.41	19.677
740.72	18.118
741.04	22.222
741.35	20.000
741.66	24.444
741.98	23.113
742.29	20.096
742.61	21.121
742.92	14.932
743.23	20.085
743.55	22.000
743.86	21.491
744.18	20.354
744.49	22.967
744.80	24.883
745.12	28.182
745.43	27.753
745.74	23.874
746.06	23.394
746.37	26.009
746.68	23.982
747.00	21.759
747.31	25.238
747.62	20.354
747.94	16.300
748.25	19.574
748.56	26.432
748.88	24.257
749.19	25.500
749.50	21.860
749.82	20.325
750.13	17.143
750.44	14.599
750.75	22.105
751.07	20.900
751.38	20.557
751.69	18.051
752.01	16.917
752.32	18.412
752.63	19.858
752.94	15.984
753.26	22.400
753.57	17.480
753.88	20.313
754.19	22.143
754.51	21.875
754.82	13.718
755.13	17.736
755.44	20.301
755.75	20.073
756.07	16.667
756.38	14.234
756.69	18.792
757.00	16.467
757.31	16.320
757.63	13.450
757.94	13.673
758.25	16.176
758.56	12.840
758.87	12.097
759.18	16.364
759.50	15.047
759.81	17.757
760.12	12.812
760.43	18.911
760.74	13.587
761.05	16.102
761.36	13.904
761.67	15.057
761.99	15.839
762.30	18.403
762.61	22.137
762.92	21.094
763.23	15.966
763.54	20.000
763.85	22.266
764.16	19.231
764.47	22.814
764.78	16.254
765.10	13.291
765.41	15.634
765.72	18.563
766.03	14.107
766.34	17.000
766.65	25.957
766.96	21.368
767.27	25.381
767.58	26.042
767.89	24.211
768.20	24.138
768.51	24.365
768.82	25.229
769.13	15.447
769.44	16.599
769.75	21.030
770.06	18.349
770.37	18.552
770.68	18.981
770.99	21.778
771.30	18.852
771.61	21.076
771.92	21.721
772.23	25.210
772.54	20.513
772.85	24.084
773.16	21.809
773.47	28.804
773.78	28.426
774.09	21.429
774.39	29.240
774.70	20.988
775.01	34.058
775.32	32.680
775.63	32.237
775.94	35.252
776.25	31.496
776.56	32.090
776.87	29.508
777.18	34.375
777.48	37.405
777.79	40.909
778.10	25.926
778.41	32.143
778.72	26.277
779.03	29.530
779.34	25.503
779.65	26.351
779.95	30.061
780.26	30.065
780.57	31.034
780.88	36.719
781.19	32.331
781.50	37.162
781.80	31.447
782.11	26.554
782.42	23.418
782.73	25.767
783.04	34.459
783.34	31.690
783.65	39.041
783.96	35.075
784.27	37.063
784.57	21.583
784.88	28.704
785.19	34.921
785.50	33.962
785.81	35.821
786.11	38.525
786.42	40.310
786.73	35.398
787.04	36.792
787.34	35.714
787.65	35.000
787.96	33.333
788.26	30.579
788.57	43.220
788.88	37.190
789.19	39.583
789.49	34.848
789.80	33.588
790.11	45.714
790.41	35.644
790.72	44.578
791.03	46.739
791.33	47.674
791.64	45.361
791.95	49.505
792.25	51.111
792.56	50.649
792.87	62.821
793.17	56.962
793.48	49.425
793.79	44.828
794.09	59.091
794.40	37.815
794.70	37.500
795.01	31.111
795.32	33.813
795.62	33.858
795.93	40.517
796.23	33.628
796.54	45.882
796.85	37.838
797.15	60.563
797.46	63.636
797.76	59.036
798.07	54.430
798.37	41.538
798.68	45.455
798.99	45.070
799.29	59.740
799.60	44.318
799.90	58.904
800.21	56.716
800.51	51.724
800.82	75.439
801.12	54.098
801.43	50.000
801.73	54.054
802.04	80.952
802.34	65.432
802.65	53.125
802.95	96.610
803.26	79.688
803.56	60.000
803.87	53.846
804.17	63.235
804.48	70.370
804.78	67.241
805.09	63.235
805.39	80.769
805.70	75.000
806.00	63.934
806.30	57.576
806.61	65.854
806.91	46.835
807.22	55.263
807.52	43.284
807.83	63.380
808.13	67.188
808.43	63.333
808.74	44.737
809.04	63.768
809.35	61.194
809.65	52.632
809.95	74.194
810.26	61.017
810.56	57.143
810.86	79.545
811.17	128.571
811.47	80.000
811.77	75.926
812.08	69.091
812.38	94.000
812.69	100.000
812.99	111.364
813.29	65.306
813.59	73.810
813.90	71.429
814.20	67.273
814.50	69.231
814.81	70.588
815.11	85.714
815.41	78.689
815.72	119.048
816.02	83.636
816.32	123.810
816.62	85.000
816.93	107.317
817.23	104.762
817.53	86.364
817.84	118.182
818.14	80.435
818.44	82.222
818.74	105.882
819.04	95.000
819.35	94.286
819.65	144.118
819.95	125.000
820.25	85.000
820.56	112.821
820.86	86.364
821.16	104.651
821.46	100.000
821.76	86.000
822.07	128.571
822.37	97.500
822.67	115.152
822.97	84.314
823.27	125.000
823.57	97.297
823.88	112.500
824.18	133.333
824.48	116.667
824.78	120.000
825.08	129.167
825.38	116.216
825.69	104.878
825.99	145.833
826.29	106.897
826.59	100.000
826.89	113.158
827.19	79.412
827.49	122.581
827.79	106.818
828.09	95.455
828.39	93.617
828.70	95.918
829.00	122.222
829.30	119.355
829.60	100.000
829.90	166.667
830.20	139.286
830.50	121.739
830.80	195.652
831.10	180.000
831.40	146.667
831.70	147.826
832.00	153.846
832.30	144.444
832.60	200.000
832.90	176.667
833.20	350.000
833.50	141.935
833.80	134.483
834.10	140.625
834.40	146.154
834.70	183.333
835.00	195.238
835.30	128.571
835.60	184.615
835.90	141.379
836.20	228.571
836.50	144.828
836.80	124.000
837.10	147.222
837.40	190.476
837.70	211.765
838.00	144.444
838.30	157.143
838.60	228.571
838.90	161.538
839.19	200.000
839.49	250.000
839.79	245.000
840.09	150.000
840.39	161.905
840.69	204.348
840.99	216.667
841.29	350.000
841.59	258.333
841.88	281.250
842.18	151.724
842.48	180.952
842.78	166.667
843.08	165.217
843.38	168.750
843.68	633.333
843.97	207.692
844.27	148.276
844.57	219.048
844.87	225.000
845.17	151.852
845.47	1400.000
845.76	266.667
846.06	223.529
846.36	412.500
846.66	250.000
846.96	212.500
847.25	254.545
847.55	227.273
847.85	217.391
848.15	350.000
848.44	271.429
848.74	188.889
849.04	247.059
849.34	320.000
849.63	247.368
849.93	318.182
850.23	660.000
850.53	285.714
850.82	1750.000
851.12	-3400.000
851.42	3900.000
851.71	210.000
852.01	-866.667
852.31	170.833
852.61	1000.000
852.90	200.000
853.20	180.000
853.50	288.235
853.79	171.429
854.09	175.000
854.39	237.500
854.68	121.622
854.98	135.484
855.28	120.000
855.57	151.724
855.87	140.741
856.17	189.474
856.46	140.000
856.76	152.941
857.05	168.966
857.35	158.333
857.65	233.333
857.94	165.217
858.24	188.462
858.53	205.000
858.83	190.909
859.13	246.667
859.42	0.000
859.72	433.333
860.01	318.182
860.31	209.091
860.60	226.316
860.90	200.000
861.20	344.444
861.49	391.667
861.79	-3100.000
862.08	475.000
862.38	209.524
862.67	292.308
862.97	294.118
863.26	322.222
863.56	200.000
863.85	283.333
864.15	362.500
864.44	313.333
864.74	700.000
865.03	487.500
865.33	184.211
865.62	290.909
865.92	338.462
866.21	233.333
866.51	0.000
866.80	372.727
867.10	920.000
867.39	392.308
867.69	390.909
867.98	168.421
868.27	354.545
868.57	215.789
868.86	-2900.000
869.16	237.500
869.45	1500.000
869.75	-2800.000
870.04	325.000
870.33	457.143
870.63	450.000
870.92	1750.000
871.22	585.714
871.51	258.824
871.80	161.905
872.10	264.286
>>>>>End Processed Spectral Data<<<<<
