SpectraSuite Data File
++++++++++++++++++++++++++++++++++++
Date: Wed May 13 16:30:49 PDT 2015
User: schluterlab
Dark Spectrum Present: Yes
Reference Spectrum Present: Yes
Number of Sampled Component Spectra: 1
Spectrometers: USB2E3373
Integration Time (usec): 3000 (USB2E3373)
Spectra Averaged: 3 (USB2E3373)
Boxcar Smoothing: 0 (USB2E3373)
Correct for Electrical Dark: No (USB2E3373)
Strobe/Lamp Enabled: No (USB2E3373)
Correct for Detector Non-linearity: No (USB2E3373)
Correct for Stray Light: No (USB2E3373)
Number of Pixels in Processed Spectrum: 2048
>>>>>Begin Processed Spectral Data<<<<<
178.53	0.000
178.91	-1225.000
179.29	-1200.000
179.67	-200.000
180.04	-1100.000
180.42	1900.000
180.80	800.000
181.18	-850.000
181.56	728.571
181.94	0.000
182.31	-642.857
182.69	1566.667
183.07	-525.000
183.45	-544.444
183.83	618.182
184.20	-420.000
184.58	1850.000
184.96	4700.000
185.34	-660.000
185.72	-675.000
186.09	-2050.000
186.47	2850.000
186.85	2350.000
187.23	4600.000
187.61	-1266.667
187.98	1175.000
188.36	481.818
188.74	509.091
189.12	-840.000
189.49	530.000
189.87	-4500.000
190.25	-1000.000
190.63	385.714
191.00	400.000
191.38	850.000
191.76	-775.000
192.14	1350.000
192.51	612.500
192.89	783.333
193.27	512.500
193.65	-1125.000
194.02	490.000
194.40	800.000
194.78	450.000
195.15	458.333
195.53	490.000
195.91	-1900.000
196.29	331.250
196.66	294.737
197.04	-250.000
197.42	0.000
197.79	500.000
198.17	-5200.000
198.55	771.429
198.92	675.000
199.30	960.000
199.68	0.000
200.05	333.333
200.43	671.429
200.81	3800.000
201.18	1533.333
201.56	-1766.667
201.94	522.222
202.31	488.889
202.69	458.333
203.07	520.000
203.44	0.000
203.82	1075.000
204.19	757.143
204.57	350.000
204.95	675.000
205.32	1333.333
205.70	481.818
206.08	407.143
206.45	2300.000
206.83	325.000
207.20	800.000
207.58	740.000
207.96	294.444
208.33	700.000
208.71	-783.333
209.08	714.286
209.46	600.000
209.84	427.273
210.21	-1333.333
210.59	1175.000
210.96	-550.000
211.34	2900.000
211.71	520.000
212.09	633.333
212.46	0.000
212.84	1433.333
213.22	1300.000
213.59	-4700.000
213.97	600.000
214.34	728.571
214.72	545.455
215.09	920.000
215.47	-1800.000
215.84	-2400.000
216.22	1800.000
216.59	378.571
216.97	1175.000
217.34	427.273
217.72	-666.667
218.09	0.000
218.47	-3700.000
218.84	555.556
219.22	742.857
219.59	1433.333
219.97	-400.000
220.34	800.000
220.72	-1566.667
221.09	364.286
221.47	1475.000
221.84	-816.667
222.22	0.000
222.59	1300.000
222.97	-2800.000
223.34	900.000
223.72	346.154
224.09	1080.000
224.46	2050.000
224.84	-3300.000
225.21	-800.000
225.59	-4400.000
225.96	530.000
226.34	220.000
226.71	2650.000
227.08	587.500
227.46	550.000
227.83	-1050.000
228.21	-2100.000
228.58	522.222
228.95	-2450.000
229.33	-2550.000
229.70	1500.000
230.08	742.857
230.45	-640.000
230.82	433.333
231.20	600.000
231.57	714.286
231.95	333.333
232.32	263.636
232.69	336.364
233.07	428.571
233.44	300.000
233.81	-1233.333
234.19	252.632
234.56	400.000
234.93	366.667
235.31	400.000
235.68	300.000
236.05	314.286
236.43	145.455
236.80	273.684
237.17	3800.000
237.55	204.762
237.92	189.286
238.29	200.000
238.67	135.484
239.04	193.103
239.41	136.111
239.79	76.087
240.16	114.286
240.53	106.818
240.91	86.275
241.28	80.000
241.65	94.000
242.02	71.014
242.40	62.903
242.77	90.000
243.14	70.968
243.51	74.157
243.89	57.647
244.26	56.667
244.63	41.935
245.00	45.745
245.38	45.545
245.75	34.579
246.12	44.037
246.49	48.905
246.87	49.600
247.24	40.000
247.61	37.143
247.98	44.444
248.36	29.730
248.73	31.847
249.10	29.299
249.47	27.119
249.84	33.690
250.22	32.086
250.59	33.728
250.96	29.798
251.33	33.649
251.70	35.644
252.08	27.619
252.45	22.870
252.82	25.217
253.19	27.660
253.56	23.922
253.94	24.481
254.31	25.781
254.68	26.538
255.05	23.616
255.42	22.764
255.79	22.426
256.16	26.715
256.54	20.848
256.91	22.776
257.28	16.187
257.65	21.782
258.02	24.224
258.39	19.874
258.76	21.070
259.14	19.048
259.51	19.757
259.88	18.012
260.25	19.033
260.62	19.364
260.99	18.323
261.36	22.823
261.73	20.630
262.10	18.314
262.47	16.620
262.85	17.549
263.22	17.094
263.59	23.932
263.96	18.956
264.33	18.016
264.70	18.158
265.07	18.159
265.44	19.949
265.81	17.032
266.18	17.337
266.55	15.122
266.92	18.673
267.29	18.750
267.66	16.972
268.03	18.182
268.40	16.589
268.77	15.513
269.14	16.441
269.51	17.833
269.88	16.084
270.25	16.930
270.62	16.854
270.99	18.065
271.36	17.597
271.73	17.290
272.10	14.348
272.47	16.344
272.84	17.965
273.21	17.191
273.58	12.882
273.95	15.514
274.32	16.322
274.69	15.632
275.06	12.598
275.43	15.106
275.80	15.431
276.17	15.886
276.54	15.800
276.91	15.810
277.28	15.039
277.65	16.634
278.02	15.321
278.39	17.187
278.76	16.000
279.13	17.925
279.50	15.084
279.87	13.745
280.23	13.972
280.60	14.120
280.97	14.787
281.34	15.398
281.71	13.818
282.08	15.163
282.45	15.091
282.82	13.854
283.19	11.586
283.56	14.035
283.92	14.382
284.29	13.757
284.66	13.249
285.03	12.297
285.40	13.556
285.77	13.131
286.14	12.781
286.51	14.667
286.87	13.846
287.24	14.332
287.61	13.804
287.98	12.500
288.35	13.946
288.72	13.396
289.08	14.241
289.45	11.697
289.82	13.496
290.19	10.047
290.56	13.323
290.93	10.423
291.29	11.963
291.66	12.389
292.03	13.517
292.40	14.391
292.77	10.799
293.13	13.433
293.50	12.536
293.87	12.889
294.24	11.259
294.60	10.189
294.97	12.355
295.34	11.425
295.71	13.210
296.08	11.538
296.44	11.554
296.81	11.493
297.18	12.195
297.55	10.686
297.91	11.478
298.28	11.379
298.65	12.533
299.02	12.516
299.38	10.226
299.75	11.456
300.12	10.089
300.48	11.875
300.85	11.961
301.22	11.083
301.59	9.722
301.95	13.224
302.32	12.709
302.69	11.828
303.05	11.515
303.42	12.963
303.79	12.231
304.15	12.937
304.52	10.776
304.89	11.382
305.25	11.021
305.62	12.458
305.99	13.105
306.35	12.864
306.72	12.892
307.09	14.428
307.45	14.977
307.82	12.165
308.19	13.797
308.55	13.592
308.92	13.426
309.29	12.566
309.65	12.619
310.02	15.328
310.38	13.548
310.75	12.883
311.12	13.613
311.48	14.838
311.85	14.570
312.22	14.984
312.58	13.825
312.95	14.572
313.31	14.175
313.68	15.385
314.05	18.047
314.41	15.678
314.78	15.911
315.14	16.783
315.51	16.890
315.87	16.535
316.24	16.783
316.61	16.179
316.97	15.851
317.34	16.536
317.70	17.495
318.07	17.132
318.43	17.417
318.80	18.182
319.16	18.173
319.53	17.542
319.89	19.048
320.26	18.500
320.62	19.048
320.99	18.889
321.35	20.202
321.72	20.329
322.08	22.409
322.45	22.985
322.81	22.093
323.18	23.314
323.54	22.913
323.91	24.623
324.27	24.570
324.64	24.324
325.00	23.986
325.37	26.752
325.73	27.828
326.10	25.949
326.46	26.882
326.83	27.955
327.19	29.035
327.56	29.094
327.92	30.534
328.29	30.790
328.65	32.320
329.01	32.401
329.38	31.730
329.74	31.948
330.11	33.553
330.47	34.343
330.84	35.662
331.20	34.791
331.56	35.229
331.93	34.815
332.29	34.605
332.66	36.460
333.02	35.649
333.38	36.043
333.75	36.007
334.11	36.210
334.48	36.469
334.84	36.857
335.20	37.545
335.57	37.625
335.93	36.250
336.29	38.187
336.66	38.503
337.02	37.466
337.38	37.500
337.75	37.166
338.11	39.391
338.47	39.227
338.84	38.497
339.20	37.982
339.56	39.416
339.93	38.818
340.29	38.134
340.65	38.146
341.02	39.267
341.38	39.235
341.74	38.947
342.11	38.603
342.47	38.414
342.83	38.356
343.20	38.268
343.56	37.574
343.92	38.596
344.28	39.116
344.65	39.467
345.01	39.141
345.37	38.079
345.73	38.579
346.10	37.766
346.46	38.983
346.82	38.221
347.19	37.427
347.55	37.356
347.91	38.350
348.27	39.113
348.63	38.211
349.00	36.974
349.36	37.438
349.72	38.011
350.08	37.358
350.45	38.080
350.81	37.206
351.17	38.574
351.53	38.084
351.89	37.871
352.26	37.569
352.62	37.771
352.98	38.006
353.34	38.291
353.70	37.643
354.07	37.339
354.43	36.984
354.79	37.088
355.15	37.271
355.51	38.929
355.87	38.041
356.24	37.541
356.60	38.011
356.96	38.616
357.32	37.694
357.68	37.165
358.04	37.371
358.40	38.876
358.77	37.402
359.13	37.648
359.49	38.196
359.85	37.460
360.21	37.959
360.57	37.510
360.93	38.615
361.29	37.264
361.66	37.616
362.02	38.060
362.38	37.947
362.74	37.574
363.10	37.898
363.46	38.591
363.82	38.549
364.18	37.225
364.54	38.782
364.90	37.748
365.26	38.750
365.62	37.692
365.98	37.327
366.35	36.748
366.71	38.684
367.07	38.165
367.43	39.187
367.79	37.901
368.15	39.583
368.51	36.991
368.87	37.545
369.23	37.966
369.59	39.537
369.95	38.897
370.31	38.319
370.67	38.551
371.03	38.951
371.39	38.265
371.75	39.559
372.11	38.407
372.47	40.029
372.83	40.346
373.19	39.306
373.55	39.024
373.91	41.090
374.27	38.488
374.63	38.545
374.99	39.054
375.35	38.241
375.71	37.491
376.07	39.026
376.42	39.684
376.78	39.430
377.14	39.756
377.50	39.735
377.86	39.229
378.22	39.886
378.58	38.784
378.94	39.346
379.30	39.631
379.66	40.926
380.02	39.189
380.38	39.466
380.74	39.076
381.09	40.281
381.45	40.381
381.81	40.418
382.17	40.000
382.53	40.377
382.89	41.173
383.25	39.587
383.61	41.264
383.97	40.713
384.32	40.861
384.68	39.281
385.04	40.320
385.40	40.495
385.76	39.558
386.12	40.738
386.48	39.962
386.83	40.475
387.19	41.435
387.55	39.394
387.91	40.266
388.27	40.221
388.62	41.795
388.98	40.602
389.34	42.115
389.70	40.589
390.06	40.558
390.42	41.115
390.77	42.176
391.13	40.715
391.49	41.307
391.85	41.502
392.20	40.063
392.56	41.667
392.92	41.436
393.28	40.118
393.64	41.067
393.99	40.623
394.35	41.687
394.71	40.025
395.07	40.436
395.42	41.409
395.78	41.158
396.14	40.844
396.50	42.105
396.85	41.767
397.21	40.567
397.57	41.476
397.92	41.647
398.28	40.022
398.64	40.323
399.00	40.515
399.35	40.384
399.71	40.856
400.07	41.218
400.42	41.043
400.78	41.255
401.14	41.098
401.49	41.075
401.85	40.653
402.21	40.240
402.57	41.518
402.92	42.182
403.28	41.349
403.63	40.965
403.99	41.083
404.35	41.333
404.70	40.588
405.06	39.953
405.42	41.298
405.77	40.571
406.13	40.576
406.49	39.917
406.84	39.575
407.20	40.307
407.55	39.949
407.91	41.533
408.27	40.523
408.62	41.361
408.98	40.074
409.34	40.221
409.69	40.581
410.05	41.016
410.40	40.428
410.76	41.039
411.11	39.747
411.47	40.831
411.83	41.662
412.18	40.631
412.54	40.411
412.89	40.422
413.25	40.437
413.60	40.951
413.96	39.951
414.31	40.401
414.67	41.381
415.03	40.397
415.38	40.142
415.74	40.322
416.09	40.823
416.45	40.027
416.80	40.780
417.16	41.488
417.51	40.743
417.87	40.141
418.22	40.883
418.58	42.221
418.93	42.260
419.29	39.847
419.64	41.688
420.00	41.341
420.35	40.290
420.71	40.526
421.06	40.573
421.42	41.287
421.77	40.415
422.12	41.213
422.48	40.529
422.83	40.885
423.19	40.608
423.54	40.859
423.90	41.333
424.25	41.597
424.61	41.131
424.96	41.633
425.31	41.030
425.67	40.169
426.02	40.171
426.38	41.575
426.73	41.428
427.09	41.763
427.44	41.173
427.79	41.173
428.15	40.893
428.50	41.194
428.85	41.895
429.21	40.475
429.56	40.332
429.92	40.362
430.27	40.765
430.62	40.502
430.98	41.723
431.33	40.052
431.68	41.937
432.04	41.161
432.39	42.090
432.74	41.891
433.10	42.558
433.45	42.507
433.80	42.073
434.16	41.026
434.51	41.000
434.86	42.189
435.22	41.245
435.57	42.796
435.92	42.071
436.28	43.120
436.63	42.108
436.98	42.702
437.34	43.292
437.69	43.116
438.04	42.327
438.39	42.149
438.75	43.056
439.10	43.408
439.45	42.857
439.81	42.175
440.16	41.615
440.51	43.351
440.86	43.775
441.22	41.824
441.57	42.463
441.92	43.552
442.27	42.626
442.63	42.917
442.98	44.789
443.33	43.098
443.68	42.643
444.03	43.045
444.39	42.210
444.74	43.128
445.09	43.504
445.44	43.412
445.79	43.592
446.15	43.515
446.50	43.403
446.85	44.193
447.20	43.753
447.55	44.221
447.91	43.629
448.26	44.741
448.61	43.867
448.96	45.183
449.31	44.094
449.66	43.838
450.02	43.398
450.37	43.764
450.72	42.922
451.07	43.327
451.42	44.134
451.77	44.745
452.12	44.688
452.47	43.532
452.83	44.522
453.18	44.560
453.53	45.083
453.88	45.540
454.23	44.949
454.58	46.699
454.93	46.662
455.28	44.888
455.63	45.692
455.98	47.083
456.34	45.226
456.69	45.085
457.04	46.935
457.39	45.587
457.74	45.966
458.09	46.291
458.44	45.439
458.79	44.469
459.14	45.937
459.49	45.768
459.84	45.208
460.19	46.140
460.54	44.271
460.89	46.023
461.24	45.902
461.59	46.252
461.94	45.623
462.29	47.062
462.64	45.054
462.99	45.283
463.34	46.933
463.69	45.716
464.04	45.739
464.39	46.145
464.74	46.583
465.09	46.321
465.44	45.152
465.79	44.575
466.14	45.758
466.49	45.940
466.84	45.768
467.19	46.470
467.54	47.250
467.89	46.519
468.24	46.364
468.59	45.971
468.94	45.144
469.29	46.658
469.64	47.657
469.99	48.579
470.34	46.631
470.68	47.701
471.03	46.667
471.38	48.923
471.73	47.502
472.08	48.026
472.43	47.613
472.78	48.585
473.13	48.074
473.48	48.315
473.83	47.805
474.17	46.546
474.52	47.705
474.87	47.694
475.22	47.475
475.57	45.943
475.92	47.053
476.27	47.125
476.61	46.994
476.96	47.169
477.31	47.619
477.66	48.687
478.01	46.315
478.36	47.488
478.70	46.262
479.05	48.562
479.40	47.953
479.75	47.789
480.10	47.714
480.45	47.168
480.79	46.679
481.14	48.190
481.49	46.891
481.84	47.234
482.19	47.251
482.53	47.339
482.88	48.255
483.23	47.617
483.58	47.680
483.92	47.423
484.27	46.405
484.62	48.190
484.97	46.748
485.31	47.568
485.66	45.526
486.01	43.441
486.36	41.863
486.70	41.051
487.05	42.625
487.40	44.229
487.75	45.153
488.09	47.194
488.44	47.198
488.79	48.354
489.13	48.663
489.48	48.002
489.83	47.820
490.17	49.233
490.52	48.229
490.87	48.033
491.22	48.022
491.56	47.836
491.91	48.069
492.26	47.405
492.60	47.880
492.95	47.802
493.30	48.084
493.64	48.717
493.99	47.911
494.34	49.537
494.68	48.443
495.03	48.731
495.37	48.162
495.72	49.659
496.07	48.631
496.41	47.168
496.76	49.164
497.11	48.717
497.45	49.231
497.80	49.328
498.14	49.420
498.49	49.366
498.84	49.041
499.18	49.429
499.53	49.810
499.87	49.301
500.22	48.799
500.56	50.146
500.91	49.712
501.26	48.222
501.60	49.834
501.95	50.137
502.29	49.766
502.64	48.976
502.98	49.743
503.33	48.446
503.67	48.863
504.02	48.597
504.36	49.509
504.71	50.660
505.06	49.687
505.40	49.976
505.75	48.843
506.09	51.020
506.44	51.011
506.78	50.219
507.13	50.631
507.47	50.606
507.82	51.317
508.16	50.203
508.51	51.700
508.85	50.695
509.19	51.786
509.54	50.204
509.88	51.108
510.23	51.054
510.57	51.858
510.92	51.476
511.26	50.874
511.61	51.556
511.95	51.148
512.30	51.591
512.64	51.693
512.98	53.323
513.33	52.944
513.67	51.387
514.02	53.139
514.36	52.485
514.70	52.241
515.05	53.542
515.39	53.169
515.74	52.646
516.08	54.164
516.42	53.441
516.77	53.679
517.11	53.441
517.46	53.330
517.80	54.646
518.14	52.982
518.49	55.309
518.83	53.239
519.17	53.291
519.52	53.028
519.86	52.767
520.20	53.757
520.55	55.775
520.89	54.866
521.23	56.031
521.58	53.842
521.92	55.419
522.26	54.606
522.61	55.327
522.95	53.898
523.29	55.021
523.64	55.122
523.98	55.145
524.32	54.403
524.66	55.502
525.01	55.944
525.35	54.709
525.69	54.372
526.04	56.012
526.38	55.095
526.72	55.092
527.06	55.744
527.41	53.837
527.75	57.235
528.09	56.005
528.43	56.342
528.78	54.886
529.12	54.788
529.46	55.726
529.80	56.559
530.15	55.950
530.49	54.400
530.83	56.709
531.17	56.919
531.51	57.977
531.86	55.677
532.20	57.366
532.54	57.079
532.88	56.675
533.22	55.215
533.57	55.864
533.91	55.328
534.25	55.407
534.59	56.254
534.93	54.610
535.27	54.375
535.62	55.067
535.96	57.564
536.30	56.453
536.64	56.536
536.98	57.996
537.32	57.209
537.66	57.000
538.01	57.011
538.35	56.173
538.69	57.307
539.03	55.621
539.37	55.463
539.71	55.023
540.05	56.928
540.39	56.080
540.73	55.498
541.07	56.652
541.42	56.621
541.76	55.935
542.10	56.533
542.44	55.497
542.78	57.378
543.12	54.255
543.46	57.508
543.80	56.018
544.14	55.584
544.48	56.635
544.82	56.960
545.16	57.124
545.50	55.141
545.84	56.452
546.18	58.182
546.52	58.018
546.86	58.900
547.20	56.979
547.54	55.912
547.88	56.186
548.22	56.164
548.56	55.723
548.90	54.802
549.24	57.643
549.58	58.186
549.92	58.310
550.26	59.375
550.60	57.815
550.94	57.817
551.28	56.693
551.62	57.153
551.96	57.474
552.30	58.225
552.64	56.592
552.98	57.559
553.32	57.519
553.66	57.260
554.00	58.614
554.34	57.143
554.68	57.582
555.02	57.757
555.36	57.342
555.69	56.901
556.03	56.595
556.37	57.503
556.71	57.503
557.05	57.423
557.39	58.083
557.73	58.292
558.07	60.261
558.41	56.802
558.75	58.413
559.08	60.999
559.42	60.469
559.76	58.971
560.10	57.316
560.44	58.141
560.78	57.884
561.12	57.190
561.45	56.584
561.79	57.350
562.13	57.881
562.47	58.333
562.81	59.414
563.15	56.789
563.48	57.891
563.82	57.404
564.16	57.489
564.50	57.943
564.84	56.258
565.17	57.529
565.51	57.061
565.85	57.297
566.19	57.044
566.52	58.391
566.86	56.902
567.20	57.075
567.54	56.164
567.88	55.459
568.21	55.556
568.55	55.410
568.89	55.107
569.23	53.610
569.56	53.198
569.90	52.642
570.24	51.561
570.57	51.479
570.91	50.032
571.25	50.618
571.59	50.486
571.92	50.403
572.26	50.607
572.60	50.781
572.93	50.495
573.27	51.582
573.61	50.475
573.95	50.749
574.28	49.749
574.62	49.320
574.96	49.008
575.29	49.539
575.63	49.670
575.97	49.883
576.30	50.372
576.64	49.760
576.98	50.000
577.31	49.677
577.65	49.924
577.98	49.819
578.32	48.471
578.66	49.413
578.99	49.372
579.33	49.359
579.67	50.012
580.00	50.300
580.34	50.878
580.67	50.579
581.01	50.641
581.35	49.192
581.68	49.600
582.02	48.312
582.35	48.843
582.69	49.308
583.02	49.676
583.36	50.634
583.70	50.874
584.03	50.862
584.37	51.831
584.70	52.038
585.04	51.101
585.37	50.256
585.71	50.587
586.04	49.843
586.38	51.411
586.72	51.422
587.05	50.801
587.39	50.633
587.72	51.147
588.06	51.547
588.39	51.660
588.73	51.569
589.06	52.446
589.40	53.367
589.73	53.678
590.07	52.669
590.40	53.635
590.73	54.020
591.07	54.660
591.40	54.407
591.74	55.281
592.07	54.058
592.41	54.113
592.74	53.296
593.08	52.099
593.41	51.914
593.75	50.062
594.08	51.626
594.41	52.563
594.75	53.013
595.08	52.827
595.42	52.995
595.75	52.920
596.09	53.248
596.42	54.381
596.75	54.116
597.09	55.022
597.42	53.078
597.75	54.722
598.09	54.087
598.42	53.995
598.76	53.344
599.09	53.250
599.42	52.147
599.76	52.672
600.09	52.969
600.42	52.630
600.76	52.214
601.09	52.095
601.42	52.854
601.76	52.751
602.09	54.150
602.42	54.618
602.76	55.623
603.09	53.816
603.42	53.846
603.76	53.354
604.09	53.276
604.42	54.138
604.76	54.914
605.09	55.090
605.42	54.126
605.75	53.560
606.09	53.640
606.42	54.924
606.75	53.671
607.09	54.542
607.42	54.643
607.75	55.021
608.08	54.494
608.42	53.967
608.75	54.644
609.08	54.348
609.41	54.926
609.75	54.979
610.08	56.503
610.41	54.330
610.74	56.197
611.07	55.830
611.41	57.262
611.74	57.014
612.07	57.816
612.40	57.555
612.73	56.158
613.07	56.843
613.40	56.451
613.73	56.162
614.06	56.237
614.39	57.053
614.72	56.211
615.06	56.618
615.39	57.006
615.72	55.061
616.05	55.662
616.38	56.865
616.71	58.135
617.05	57.833
617.38	58.208
617.71	59.219
618.04	58.233
618.37	57.599
618.70	58.183
619.03	60.066
619.36	60.149
619.69	60.563
620.03	60.508
620.36	60.294
620.69	61.644
621.02	61.799
621.35	61.002
621.68	61.526
622.01	62.307
622.34	63.238
622.67	62.129
623.00	60.455
623.33	58.899
623.66	61.330
623.99	61.782
624.32	59.629
624.65	59.675
624.99	60.269
625.32	61.188
625.65	61.082
625.98	61.875
626.31	61.431
626.64	63.918
626.97	61.845
627.30	64.256
627.63	62.756
627.96	64.508
628.29	65.267
628.62	63.861
628.95	66.038
629.28	64.599
629.61	65.445
629.94	68.571
630.26	65.205
630.59	65.872
630.92	64.847
631.25	64.956
631.58	65.265
631.91	65.416
632.24	68.671
632.57	69.150
632.90	68.860
633.23	67.450
633.56	68.023
633.89	67.837
634.22	69.012
634.55	70.533
634.88	68.743
635.20	69.415
635.53	70.241
635.86	69.307
636.19	68.235
636.52	67.474
636.85	68.156
637.18	64.286
637.51	69.504
637.83	67.571
638.16	71.355
638.49	69.395
638.82	71.176
639.15	68.875
639.48	70.200
639.81	71.180
640.13	72.005
640.46	71.544
640.79	71.070
641.12	70.151
641.45	71.788
641.77	75.847
642.10	73.830
642.43	73.273
642.76	74.923
643.09	75.613
643.41	71.927
643.74	73.457
644.07	75.762
644.40	74.847
644.73	77.323
645.05	77.338
645.38	72.038
645.71	72.947
646.04	78.073
646.36	76.461
646.69	77.090
647.02	76.020
647.35	76.460
647.67	77.522
648.00	72.846
648.33	73.597
648.66	72.879
648.98	73.163
649.31	72.048
649.64	71.151
649.96	69.896
650.29	72.354
650.62	74.434
650.94	71.475
651.27	75.338
651.60	74.376
651.92	70.447
652.25	72.476
652.58	71.807
652.90	75.671
653.23	70.416
653.56	71.654
653.88	72.425
654.21	73.776
654.54	73.267
654.86	73.988
655.19	69.730
655.52	50.628
655.84	43.108
656.17	54.666
656.49	73.424
656.82	75.132
657.15	57.573
657.47	43.669
657.80	34.091
658.13	36.269
658.45	55.338
658.78	56.490
659.10	59.778
659.43	62.628
659.75	66.771
660.08	72.152
660.41	77.188
660.73	78.399
661.06	80.732
661.38	80.909
661.71	79.423
662.03	81.262
662.36	76.541
662.68	76.305
663.01	77.576
663.33	81.104
663.66	80.042
663.98	77.538
664.31	81.303
664.63	74.494
664.96	74.648
665.28	78.484
665.61	72.904
665.93	75.654
666.26	77.282
666.58	77.824
666.91	80.973
667.23	84.045
667.56	78.186
667.88	79.701
668.21	83.369
668.53	78.308
668.86	79.654
669.18	80.597
669.50	78.913
669.83	80.174
670.15	80.000
670.48	78.649
670.80	76.940
671.13	79.406
671.45	78.298
671.77	77.597
672.10	70.980
672.42	70.671
672.75	69.486
673.07	74.824
673.39	73.960
673.72	75.195
674.04	75.490
674.37	73.204
674.69	78.732
675.01	76.151
675.34	76.797
675.66	77.053
675.98	73.931
676.31	77.521
676.63	77.070
676.95	77.358
677.28	80.374
677.60	77.802
677.92	77.215
678.25	74.949
678.57	74.303
678.89	77.355
679.22	73.674
679.54	72.710
679.86	73.394
680.18	70.483
680.51	73.582
680.83	72.420
681.15	73.962
681.48	75.047
681.80	75.242
682.12	73.946
682.44	72.534
682.77	71.894
683.09	78.970
683.41	76.275
683.73	80.574
684.06	75.207
684.38	74.168
684.70	74.031
685.02	72.983
685.34	69.963
685.67	69.755
685.99	67.698
686.31	69.966
686.63	69.081
686.96	69.643
687.28	70.217
687.60	69.203
687.92	73.492
688.24	70.342
688.56	73.494
688.89	78.008
689.21	78.166
689.53	72.443
689.85	78.049
690.17	72.671
690.49	74.947
690.82	79.439
691.14	73.661
691.46	71.308
691.78	75.301
692.10	78.306
692.42	74.052
692.74	72.199
693.06	73.830
693.39	72.690
693.71	76.201
694.03	73.895
694.35	73.593
694.67	76.659
694.99	78.780
695.31	76.471
695.63	75.359
695.95	76.039
696.27	78.426
696.59	77.979
696.91	75.648
697.23	71.596
697.56	72.495
697.88	69.121
698.20	72.500
698.52	74.194
698.84	71.938
699.16	72.350
699.48	78.622
699.80	75.845
700.12	81.818
700.44	81.432
700.76	81.215
701.08	82.759
701.40	77.095
701.72	83.382
702.04	84.659
702.36	77.337
702.68	80.170
703.00	82.271
703.32	76.596
703.64	72.654
703.96	78.830
704.28	78.488
704.60	78.592
704.91	80.415
705.23	80.938
705.55	85.714
705.87	83.056
706.19	85.866
706.51	76.012
706.83	83.636
707.15	73.950
707.47	71.465
707.79	72.482
708.11	71.689
708.43	76.429
708.74	69.388
709.06	76.883
709.38	74.541
709.70	81.395
710.02	78.338
710.34	79.091
710.66	77.015
710.98	69.886
711.29	75.581
711.61	81.416
711.93	75.641
712.25	82.637
712.57	84.926
712.89	82.007
713.20	74.164
713.52	77.303
713.84	75.316
714.16	81.707
714.48	75.000
714.80	78.723
715.11	78.963
715.43	75.964
715.75	74.493
716.07	81.150
716.39	74.922
716.70	82.724
717.02	82.374
717.34	74.912
717.66	83.955
717.97	87.251
718.29	84.444
718.61	78.467
718.93	83.824
719.24	80.969
719.56	78.644
719.88	75.254
720.20	75.676
720.51	80.836
720.83	79.554
721.15	82.836
721.46	82.270
721.78	79.211
722.10	83.396
722.42	82.707
722.73	84.270
723.05	81.557
723.37	85.425
723.68	77.220
724.00	80.894
724.32	85.887
724.63	84.553
724.95	84.519
725.27	84.211
725.58	85.156
725.90	77.737
726.22	82.264
726.53	80.556
726.85	80.205
727.16	75.445
727.48	81.915
727.80	82.197
728.11	75.725
728.43	76.538
728.74	77.061
729.06	84.307
729.38	81.985
729.69	76.868
730.01	75.427
730.32	77.083
730.64	75.585
730.96	70.627
731.27	78.808
731.59	69.725
731.90	68.805
732.22	72.981
732.53	73.994
732.85	71.474
733.16	70.740
733.48	71.429
733.80	74.351
734.11	74.204
734.43	72.781
734.74	69.429
735.06	69.628
735.37	72.254
735.69	77.707
736.00	76.797
736.32	75.701
736.63	72.204
736.95	69.329
737.26	70.408
737.58	68.065
737.89	75.920
738.21	77.133
738.52	75.714
738.83	71.698
739.15	78.462
739.46	74.818
739.78	74.653
740.09	69.846
740.41	73.226
740.72	74.216
741.04	76.296
741.35	75.417
741.66	89.778
741.98	83.491
742.29	89.952
742.61	82.759
742.92	86.878
743.23	74.786
743.55	72.000
743.86	81.579
744.18	86.283
744.49	88.517
744.80	81.221
745.12	81.818
745.43	73.128
745.74	87.387
746.06	85.780
746.37	85.202
746.68	80.090
747.00	78.704
747.31	86.190
747.62	81.416
747.94	80.176
748.25	77.021
748.56	86.784
748.88	82.178
749.19	87.500
749.50	81.395
749.82	78.862
750.13	76.327
750.44	74.088
750.75	75.088
751.07	71.383
751.38	77.352
751.69	75.451
752.01	75.940
752.32	73.646
752.63	75.887
752.94	80.738
753.26	83.600
753.57	77.236
753.88	78.125
754.19	68.571
754.51	74.306
754.82	72.563
755.13	73.962
755.44	75.564
755.75	72.263
756.07	71.986
756.38	69.708
756.69	72.483
757.00	68.263
757.31	66.766
757.63	66.082
757.94	66.756
758.25	62.255
758.56	63.457
758.87	63.978
759.18	71.212
759.50	63.950
759.81	69.782
760.12	69.062
760.43	65.330
760.74	63.315
761.05	68.362
761.36	62.834
761.67	69.886
761.99	67.081
762.30	73.264
762.61	74.046
762.92	69.531
763.23	76.050
763.54	74.000
763.85	72.656
764.16	76.154
764.47	75.665
764.78	66.784
765.10	62.342
765.41	66.077
765.72	70.359
766.03	67.712
766.34	67.667
766.65	82.979
766.96	76.923
767.27	88.325
767.58	84.375
767.89	86.316
768.20	89.080
768.51	82.741
768.82	78.440
769.13	69.106
769.44	70.445
769.75	75.966
770.06	67.890
770.37	81.900
770.68	78.241
770.99	71.111
771.30	70.082
771.61	77.578
771.92	76.639
772.23	74.370
772.54	79.487
772.85	87.435
773.16	81.915
773.47	76.087
773.78	85.279
774.09	81.548
774.39	89.474
774.70	90.741
775.01	103.623
775.32	86.275
775.63	86.842
775.94	86.331
776.25	107.087
776.56	94.030
776.87	101.639
777.18	92.188
777.48	103.817
777.79	89.394
778.10	91.852
778.41	101.786
778.72	93.431
779.03	91.275
779.34	83.893
779.65	91.216
779.95	81.595
780.26	86.275
780.57	95.172
780.88	108.594
781.19	88.722
781.50	84.459
781.80	87.421
782.11	83.051
782.42	87.975
782.73	79.755
783.04	83.108
783.34	95.070
783.65	89.041
783.96	90.299
784.27	89.510
784.57	92.806
784.88	97.222
785.19	95.238
785.50	106.604
785.81	83.582
786.11	100.820
786.42	96.899
786.73	106.195
787.04	108.491
787.34	108.036
787.65	105.000
787.96	103.604
788.26	88.430
788.57	104.237
788.88	100.826
789.19	87.500
789.49	93.182
789.80	96.947
790.11	105.714
790.41	112.871
790.72	118.072
791.03	109.783
791.33	97.674
791.64	97.938
791.95	92.079
792.25	111.111
792.56	118.182
792.87	126.923
793.17	130.380
793.48	111.494
793.79	113.793
794.09	114.773
794.40	89.916
794.70	88.235
795.01	73.333
795.32	80.576
795.62	88.976
795.93	93.103
796.23	91.150
796.54	105.882
796.85	118.919
797.15	142.254
797.46	133.333
797.76	116.867
798.07	124.051
798.37	121.538
798.68	124.242
798.99	111.268
799.29	102.597
799.60	100.000
799.90	128.767
800.21	137.313
800.51	150.000
800.82	142.105
801.12	132.787
801.43	133.333
801.73	117.568
802.04	134.921
802.34	104.938
802.65	123.438
802.95	137.288
803.26	140.625
803.56	120.000
803.87	130.769
804.17	122.059
804.48	155.556
804.78	137.931
805.09	108.824
805.39	155.769
805.70	121.429
806.00	137.705
806.30	140.909
806.61	96.341
806.91	120.253
807.22	102.632
807.52	123.881
807.83	123.944
808.13	120.313
808.43	141.667
808.74	101.316
809.04	121.739
809.35	140.299
809.65	113.158
809.95	140.323
810.26	128.814
810.56	111.111
810.86	159.091
811.17	185.714
811.47	140.000
811.77	133.333
812.08	130.909
812.38	184.000
812.69	180.556
812.99	165.909
813.29	153.061
813.59	171.429
813.90	165.306
814.20	150.909
814.50	106.154
814.81	129.412
815.11	136.735
815.41	124.590
815.72	180.952
816.02	149.091
816.32	161.905
816.62	150.000
816.93	170.732
817.23	164.286
817.53	170.455
817.84	196.970
818.14	160.870
818.44	164.444
818.74	217.647
819.04	145.000
819.35	202.857
819.65	194.118
819.95	246.429
820.25	280.000
820.56	174.359
820.86	177.273
821.16	172.093
821.46	182.051
821.76	168.000
822.07	202.857
822.37	190.000
822.67	196.970
822.97	149.020
823.27	239.286
823.57	186.486
823.88	190.000
824.18	240.000
824.48	171.429
824.78	256.000
825.08	220.833
825.38	194.595
825.69	163.415
825.99	270.833
826.29	189.655
826.59	184.211
826.89	157.895
827.19	176.471
827.49	212.903
827.79	168.182
828.09	165.909
828.39	140.426
828.70	144.898
829.00	170.370
829.30	183.871
829.60	177.500
829.90	440.000
830.20	203.571
830.50	213.043
830.80	226.087
831.10	206.667
831.40	233.333
831.70	269.565
832.00	253.846
832.30	192.593
832.60	287.500
832.90	226.667
833.20	471.429
833.50	212.903
833.80	206.897
834.10	221.875
834.40	253.846
834.70	300.000
835.00	347.619
835.30	157.143
835.60	423.077
835.90	220.690
836.20	435.714
836.50	203.448
836.80	232.000
837.10	188.889
837.40	314.286
837.70	311.765
838.00	229.630
838.30	266.667
838.60	300.000
838.90	253.846
839.19	310.000
839.49	400.000
839.79	345.000
840.09	325.000
840.39	266.667
840.69	252.174
840.99	333.333
841.29	500.000
841.59	366.667
841.88	381.250
842.18	189.655
842.48	276.190
842.78	193.333
843.08	247.826
843.38	203.125
843.68	816.667
843.97	223.077
844.27	210.345
844.57	300.000
844.87	331.250
845.17	233.333
845.47	1900.000
845.76	444.444
846.06	270.588
846.36	637.500
846.66	364.286
846.96	343.750
847.25	381.818
847.55	445.455
847.85	252.174
848.15	470.000
848.44	335.714
848.74	261.111
849.04	329.412
849.34	420.000
849.63	273.684
849.93	500.000
850.23	1140.000
850.53	414.286
850.82	2600.000
851.12	-4800.000
851.42	4400.000
851.71	295.000
852.01	-1333.333
852.31	233.333
852.61	1866.667
852.90	290.476
853.20	216.000
853.50	288.235
853.79	333.333
854.09	254.167
854.39	331.250
854.68	186.486
854.98	187.097
855.28	206.667
855.57	237.931
855.87	229.630
856.17	242.105
856.46	293.333
856.76	288.235
857.05	206.897
857.35	270.833
857.65	333.333
857.94	243.478
858.24	234.615
858.53	310.000
858.83	222.727
859.13	366.667
859.42	0.000
859.72	588.889
860.01	527.273
860.31	263.636
860.60	321.053
860.90	182.609
861.20	500.000
861.49	508.333
861.79	-3900.000
862.08	662.500
862.38	223.810
862.67	400.000
862.97	370.588
863.26	488.889
863.56	305.556
863.85	475.000
864.15	575.000
864.44	366.667
864.74	800.000
865.03	675.000
865.33	294.737
865.62	463.636
865.92	392.308
866.21	358.333
866.51	0.000
866.80	463.636
867.10	1060.000
867.39	415.385
867.69	472.727
867.98	294.737
868.27	354.545
868.57	278.947
868.86	-4100.000
869.16	350.000
869.45	1800.000
869.75	-4600.000
870.04	458.333
870.33	700.000
870.63	1275.000
870.92	1900.000
871.22	757.143
871.51	358.824
871.80	242.857
872.10	421.429
>>>>>End Processed Spectral Data<<<<<
