SpectraSuite Data File
++++++++++++++++++++++++++++++++++++
Date: Wed May 13 16:32:42 PDT 2015
User: schluterlab
Dark Spectrum Present: Yes
Reference Spectrum Present: Yes
Number of Sampled Component Spectra: 1
Spectrometers: USB2E3373
Integration Time (usec): 3000 (USB2E3373)
Spectra Averaged: 3 (USB2E3373)
Boxcar Smoothing: 0 (USB2E3373)
Correct for Electrical Dark: No (USB2E3373)
Strobe/Lamp Enabled: No (USB2E3373)
Correct for Detector Non-linearity: No (USB2E3373)
Correct for Stray Light: No (USB2E3373)
Number of Pixels in Processed Spectrum: 2048
>>>>>Begin Processed Spectral Data<<<<<
178.53	0.000
178.91	-1225.000
179.29	-1100.000
179.67	-216.667
180.04	-1200.000
180.42	2350.000
180.80	960.000
181.18	-825.000
181.56	642.857
181.94	0.000
182.31	-628.571
182.69	1666.667
183.07	-500.000
183.45	-511.111
183.83	500.000
184.20	-320.000
184.58	2200.000
184.96	5000.000
185.34	-720.000
185.72	-500.000
186.09	-1800.000
186.47	2400.000
186.85	2100.000
187.23	4500.000
187.61	-1666.667
187.98	1100.000
188.36	490.909
188.74	445.455
189.12	-780.000
189.49	540.000
189.87	-4800.000
190.25	-1000.000
190.63	421.429
191.00	392.308
191.38	766.667
191.76	-975.000
192.14	1300.000
192.51	587.500
192.89	983.333
193.27	500.000
193.65	-875.000
194.02	400.000
194.40	980.000
194.78	520.000
195.15	508.333
195.53	650.000
195.91	-1900.000
196.29	331.250
196.66	289.474
197.04	-290.000
197.42	0.000
197.79	580.000
198.17	-4400.000
198.55	614.286
198.92	612.500
199.30	760.000
199.68	0.000
200.05	327.778
200.43	657.143
200.81	4700.000
201.18	1700.000
201.56	-1500.000
201.94	522.222
202.31	533.333
202.69	366.667
203.07	590.000
203.44	0.000
203.82	1025.000
204.19	700.000
204.57	435.714
204.95	512.500
205.32	1566.667
205.70	527.273
206.08	357.143
206.45	2100.000
206.83	318.750
207.20	1000.000
207.58	700.000
207.96	250.000
208.33	812.500
208.71	-683.333
209.08	642.857
209.46	555.556
209.84	472.727
210.21	-1166.667
210.59	1100.000
210.96	-587.500
211.34	2350.000
211.71	540.000
212.09	733.333
212.46	0.000
212.84	1666.667
213.22	1200.000
213.59	-4400.000
213.97	833.333
214.34	714.286
214.72	563.636
215.09	1080.000
215.47	-1900.000
215.84	-1950.000
216.22	1566.667
216.59	378.571
216.97	1275.000
217.34	472.727
217.72	-516.667
218.09	0.000
218.47	-4200.000
218.84	555.556
219.22	771.429
219.59	1266.667
219.97	-614.286
220.34	900.000
220.72	-1200.000
221.09	328.571
221.47	1425.000
221.84	-850.000
222.22	0.000
222.59	1500.000
222.97	-2900.000
223.34	1080.000
223.72	330.769
224.09	920.000
224.46	2600.000
224.84	-5400.000
225.21	-880.000
225.59	-3800.000
225.96	580.000
226.34	305.000
226.71	2550.000
227.08	625.000
227.46	590.000
227.83	-1175.000
228.21	-2600.000
228.58	600.000
228.95	-2150.000
229.33	-2200.000
229.70	1366.667
230.08	700.000
230.45	-1040.000
230.82	358.333
231.20	866.667
231.57	642.857
231.95	358.333
232.32	268.182
232.69	418.182
233.07	571.429
233.44	269.231
233.81	-1700.000
234.19	284.211
234.56	441.667
234.93	383.333
235.31	481.818
235.68	315.385
236.05	342.857
236.43	169.697
236.80	221.053
237.17	3800.000
237.55	223.810
237.92	196.429
238.29	219.048
238.67	141.935
239.04	162.069
239.41	119.444
239.79	97.826
240.16	130.952
240.53	113.636
240.91	80.392
241.28	88.000
241.65	82.000
242.02	82.609
242.40	70.968
242.77	68.333
243.14	66.667
243.51	71.910
243.89	49.412
244.26	51.111
244.63	56.989
245.00	44.681
245.38	41.584
245.75	39.252
246.12	36.697
246.49	49.635
246.87	44.800
247.24	43.846
247.61	33.571
247.98	33.987
248.36	30.405
248.73	32.484
249.10	35.032
249.47	35.593
249.84	35.829
250.22	25.668
250.59	28.994
250.96	30.808
251.33	21.801
251.70	33.168
252.08	24.762
252.45	27.803
252.82	26.957
253.19	26.809
253.56	25.882
253.94	26.971
254.31	18.750
254.68	21.154
255.05	22.878
255.42	23.984
255.79	21.324
256.16	26.354
256.54	21.555
256.91	22.420
257.28	16.906
257.65	19.802
258.02	22.981
258.39	19.243
258.76	17.057
259.14	20.833
259.51	19.757
259.88	15.839
260.25	23.565
260.62	18.497
260.99	20.807
261.36	17.718
261.73	17.192
262.10	15.698
262.47	17.465
262.85	13.092
263.22	14.245
263.59	20.228
263.96	17.582
264.33	14.621
264.70	18.421
265.07	17.391
265.44	16.667
265.81	14.112
266.18	14.573
266.55	15.122
266.92	14.742
267.29	15.509
267.66	14.450
268.03	15.000
268.40	16.355
268.77	11.217
269.14	14.640
269.51	18.736
269.88	15.618
270.25	13.995
270.62	14.382
270.99	17.204
271.36	13.519
271.73	13.785
272.10	13.913
272.47	13.978
272.84	14.502
273.21	16.143
273.58	10.917
273.95	11.530
274.32	11.983
274.69	13.276
275.06	10.827
275.43	15.106
275.80	13.427
276.17	13.442
276.54	13.721
276.91	14.822
277.28	13.281
277.65	13.926
278.02	11.801
278.39	14.062
278.76	12.545
279.13	12.642
279.50	14.153
279.87	13.745
280.23	11.577
280.60	10.638
280.97	12.200
281.34	13.097
281.71	13.636
282.08	13.244
282.45	14.182
282.82	12.078
283.19	11.052
283.56	10.175
283.92	13.536
284.29	12.522
284.66	12.523
285.03	11.573
285.40	12.852
285.77	10.438
286.14	12.435
286.51	12.333
286.87	11.111
287.24	13.518
287.61	13.323
287.98	13.636
288.35	11.410
288.72	11.838
289.08	10.016
289.45	11.862
289.82	13.008
290.19	9.890
290.56	11.792
290.93	9.366
291.29	12.117
291.66	11.209
292.03	12.355
292.40	13.950
292.77	10.059
293.13	10.896
293.50	11.079
293.87	12.296
294.24	10.963
294.60	10.480
294.97	12.064
295.34	13.117
295.71	11.506
296.08	11.111
296.44	10.316
296.81	11.757
297.18	11.789
297.55	8.971
297.91	9.763
298.28	12.316
298.65	12.010
299.02	11.594
299.38	11.288
299.75	10.108
300.12	9.834
300.48	10.750
300.85	10.727
301.22	10.701
301.59	11.111
301.95	11.713
302.32	10.911
302.69	11.111
303.05	11.394
303.42	10.864
303.79	12.005
304.15	10.023
304.52	10.660
304.89	10.337
305.25	11.601
305.62	11.325
305.99	11.688
306.35	11.857
306.72	11.547
307.09	11.543
307.45	13.063
307.82	11.049
308.19	12.472
308.55	11.866
308.92	11.386
309.29	11.510
309.65	11.665
310.02	12.579
310.38	12.581
310.75	11.721
311.12	12.794
311.48	11.599
311.85	11.845
312.22	12.799
312.58	11.850
312.95	14.361
313.31	12.816
313.68	13.098
314.05	15.089
314.41	13.467
314.78	13.696
315.14	14.002
315.51	13.697
315.87	14.653
316.24	13.605
316.61	14.717
316.97	14.286
317.34	13.307
317.70	15.870
318.07	14.822
318.43	15.558
318.80	16.026
319.16	16.102
319.53	15.103
319.89	17.333
320.26	17.300
320.62	16.865
320.99	16.768
321.35	16.869
321.72	17.864
322.08	18.756
322.45	19.204
322.81	19.380
323.18	20.039
323.54	19.573
323.91	21.321
324.27	21.797
324.64	20.690
325.00	21.551
325.37	22.930
325.73	22.801
326.10	23.213
326.46	21.685
326.83	24.590
327.19	23.484
327.56	24.652
327.92	26.509
328.29	26.442
328.65	25.599
329.01	26.444
329.38	25.624
329.74	25.485
330.11	24.976
330.47	26.630
330.84	26.011
331.20	25.137
331.56	25.688
331.93	26.759
332.29	26.619
332.66	26.549
333.02	26.874
333.38	27.462
333.75	26.560
334.11	25.890
334.48	26.176
334.84	25.276
335.20	26.727
335.57	25.929
335.93	26.429
336.29	26.465
336.66	26.510
337.02	26.968
337.38	26.944
337.75	26.649
338.11	27.395
338.47	27.901
338.84	26.948
339.20	26.055
339.56	28.376
339.93	27.182
340.29	26.812
340.65	26.471
341.02	26.265
341.38	28.114
341.74	26.754
342.11	27.424
342.47	27.489
342.83	27.140
343.20	27.186
343.56	26.201
343.92	27.105
344.28	26.701
344.65	27.601
345.01	26.515
345.37	25.815
345.73	25.719
346.10	25.661
346.46	27.288
346.82	27.183
347.19	26.399
347.55	26.601
347.91	27.265
348.27	27.609
348.63	27.926
349.00	26.537
349.36	26.683
349.72	26.544
350.08	25.770
350.45	27.828
350.81	27.701
351.17	27.796
351.53	27.437
351.89	26.155
352.26	27.230
352.62	27.666
352.98	26.904
353.34	26.787
353.70	26.187
354.07	28.387
354.43	27.460
354.79	26.549
355.15	26.257
355.51	28.377
355.87	28.327
356.24	27.443
356.60	26.704
356.96	28.158
357.32	27.228
357.68	27.087
358.04	26.524
358.40	27.791
358.77	28.560
359.13	28.098
359.49	28.000
359.85	27.460
360.21	28.150
360.57	28.560
360.93	28.462
361.29	27.967
361.66	26.703
362.02	28.582
362.38	29.049
362.74	28.423
363.10	27.091
363.46	28.320
363.82	28.571
364.18	28.267
364.54	30.684
364.90	30.099
365.26	28.456
365.62	28.707
365.98	28.488
366.35	28.510
366.71	29.790
367.07	29.789
367.43	30.914
367.79	29.622
368.15	30.603
368.51	28.997
368.87	30.193
369.23	29.407
369.59	30.558
369.95	31.691
370.31	30.556
370.67	30.290
371.03	30.712
371.39	29.810
371.75	29.853
372.11	29.801
372.47	31.672
372.83	31.700
373.19	31.720
373.55	31.264
373.91	32.695
374.27	31.065
374.63	31.491
374.99	32.627
375.35	30.984
375.71	31.734
376.07	32.647
376.42	32.875
376.78	33.930
377.14	33.311
377.50	33.510
377.86	32.580
378.22	33.944
378.58	32.581
378.94	33.815
379.30	33.779
379.66	34.645
380.02	34.889
380.38	34.669
380.74	35.414
381.09	34.963
381.45	35.280
381.81	35.135
382.17	35.096
382.53	36.415
382.89	35.617
383.25	35.960
383.61	37.794
383.97	37.148
384.32	35.933
384.68	37.423
385.04	37.677
385.40	37.028
385.76	36.855
386.12	37.694
386.48	38.892
386.83	39.128
387.19	39.332
387.55	38.343
387.91	38.513
388.27	38.320
388.62	39.459
388.98	37.715
389.34	39.424
389.70	39.792
390.06	40.241
390.42	39.689
390.77	40.331
391.13	41.544
391.49	40.228
391.85	38.892
392.20	39.369
392.56	40.909
392.92	41.083
393.28	39.053
393.64	40.408
393.99	40.073
394.35	41.191
394.71	40.715
395.07	40.249
395.42	41.533
395.78	39.695
396.14	40.286
396.50	42.105
396.85	40.432
397.21	39.951
397.57	41.662
397.92	40.745
398.28	39.686
398.64	41.338
399.00	40.627
399.35	40.214
399.71	41.030
400.07	40.213
400.42	41.718
400.78	41.375
401.14	41.402
401.49	41.313
401.85	40.411
402.21	40.778
402.57	40.407
402.92	40.984
403.28	42.224
403.63	40.780
403.99	42.166
404.35	40.727
404.70	39.808
405.06	40.652
405.42	41.547
405.77	41.486
406.13	39.560
406.49	41.455
406.84	40.638
407.20	40.012
407.55	40.651
407.91	41.733
408.27	41.353
408.62	39.615
408.98	39.767
409.34	40.652
409.69	41.484
410.05	40.273
410.40	41.223
410.76	40.621
411.11	40.531
411.47	39.617
411.83	40.562
412.18	39.085
412.54	41.345
412.89	40.783
413.25	41.854
413.60	40.395
413.96	40.134
414.31	40.522
414.67	40.748
415.03	40.397
415.38	40.851
415.74	41.093
416.09	41.084
416.45	40.964
416.80	41.375
417.16	42.828
417.51	41.473
417.87	39.949
418.22	41.136
418.58	41.446
418.93	41.093
419.29	41.248
419.64	40.869
420.00	41.220
420.35	41.449
420.71	41.841
421.06	40.155
421.42	42.047
421.77	41.480
422.12	40.371
422.48	41.015
422.83	42.108
423.19	42.320
423.54	42.774
423.90	42.725
424.25	42.267
424.61	41.607
424.96	42.507
425.31	42.691
425.67	41.067
426.02	42.114
426.38	42.491
426.73	42.071
427.09	44.134
427.44	43.588
427.79	41.748
428.15	43.036
428.50	42.364
428.85	43.504
429.21	42.187
429.56	43.027
429.92	42.879
430.27	42.205
430.62	41.321
430.98	43.124
431.33	41.443
431.68	42.880
432.04	41.800
432.39	42.661
432.74	43.507
433.10	43.237
433.45	44.781
433.80	42.572
434.16	43.002
434.51	42.000
434.86	43.044
435.22	43.691
435.57	43.891
435.92	43.651
436.28	43.594
436.63	44.536
436.98	43.618
437.34	43.232
437.69	44.166
438.04	43.901
438.39	43.284
438.75	43.405
439.10	43.464
439.45	43.388
439.81	42.538
440.16	43.648
440.51	43.175
440.86	44.991
441.22	43.326
441.57	43.471
441.92	43.808
442.27	42.788
442.63	43.286
442.98	44.282
443.33	43.913
443.68	43.882
444.03	43.387
444.39	44.060
444.74	44.264
445.09	44.528
445.44	42.974
445.79	43.493
446.15	43.303
446.50	44.050
446.85	43.577
447.20	43.957
447.55	43.886
447.91	43.298
448.26	44.296
448.61	42.906
448.96	44.408
449.31	44.151
449.66	43.725
450.02	43.398
450.37	44.048
450.72	44.557
451.07	43.998
451.42	42.614
451.77	44.157
452.12	43.880
452.47	43.968
452.83	43.823
453.18	43.765
453.53	44.403
453.88	42.942
454.23	43.694
454.58	44.640
454.93	43.547
455.28	44.264
455.63	43.568
455.98	44.405
456.34	44.661
456.69	44.396
457.04	43.839
457.39	43.600
457.74	43.355
458.09	43.876
458.44	44.470
458.79	42.082
459.14	44.300
459.49	42.265
459.84	42.382
460.19	44.255
460.54	42.188
460.89	44.761
461.24	44.141
461.59	44.741
461.94	42.417
462.29	44.392
462.64	44.161
462.99	42.550
463.34	43.467
463.69	43.402
464.04	42.493
464.39	43.710
464.74	42.246
465.09	42.280
465.44	42.604
465.79	42.226
466.14	42.748
466.49	40.879
466.84	42.615
467.19	42.728
467.54	43.125
467.89	41.897
468.24	42.525
468.59	42.552
468.94	42.211
469.29	42.802
469.64	43.976
469.99	43.978
470.34	43.659
470.68	43.606
471.03	43.129
471.38	43.780
471.73	42.572
472.08	43.947
472.43	43.593
472.78	42.725
473.13	41.849
473.48	41.261
473.83	42.561
474.17	42.128
474.52	43.362
474.87	42.323
475.22	42.716
475.57	41.214
475.92	42.114
476.27	41.545
476.61	41.533
476.96	42.001
477.31	41.235
477.66	41.357
478.01	41.558
478.36	42.253
478.70	41.381
479.05	41.800
479.40	41.709
479.75	41.179
480.10	41.948
480.45	39.838
480.79	40.134
481.14	41.243
481.49	41.528
481.84	41.930
482.19	41.572
482.53	40.000
482.88	40.158
483.23	39.579
483.58	40.218
483.92	40.394
484.27	40.305
484.62	40.259
484.97	40.441
485.31	41.404
485.66	39.725
486.01	37.693
486.36	36.851
486.70	35.798
487.05	36.761
487.40	38.279
487.75	39.211
488.09	38.581
488.44	38.993
488.79	40.362
489.13	40.604
489.48	39.600
489.83	39.534
490.17	39.413
490.52	39.371
490.87	39.982
491.22	39.200
491.56	38.360
491.91	38.762
492.26	38.447
492.60	39.124
492.95	38.728
493.30	39.206
493.64	38.824
493.99	38.254
494.34	39.084
494.68	39.286
495.03	39.192
495.37	38.902
495.72	39.571
496.07	39.397
496.41	37.832
496.76	38.259
497.11	38.496
497.45	39.078
497.80	38.388
498.14	37.971
498.49	37.707
498.84	39.262
499.18	38.619
499.53	38.746
499.87	38.770
500.22	38.295
500.56	39.078
500.91	38.846
501.26	37.838
501.60	39.013
501.95	36.939
502.29	38.894
502.64	37.244
502.98	38.803
503.33	37.660
503.67	37.819
504.02	37.746
504.36	38.184
504.71	38.447
505.06	37.831
505.40	37.433
505.75	37.416
506.09	37.901
506.44	38.925
506.78	38.480
507.13	37.708
507.47	38.333
507.82	37.943
508.16	39.058
508.51	38.153
508.85	37.488
509.19	38.163
509.54	37.041
509.88	37.764
510.23	37.738
510.57	38.338
510.92	37.856
511.26	37.770
511.61	37.552
511.95	36.534
512.30	37.805
512.64	37.990
512.98	37.889
513.33	38.116
513.67	37.567
514.02	36.797
514.36	37.630
514.70	37.410
515.05	37.758
515.39	38.250
515.74	36.655
516.08	37.004
516.42	37.958
516.77	38.350
517.11	37.236
517.46	37.810
517.80	37.979
518.14	37.522
518.49	37.515
518.83	37.330
519.17	37.933
519.52	37.408
519.86	37.079
520.20	38.035
520.55	37.642
520.89	37.409
521.23	38.661
521.58	37.935
521.92	38.947
522.26	36.730
522.61	37.632
522.95	36.280
523.29	36.579
523.64	37.439
523.98	37.215
524.32	37.455
524.66	37.342
525.01	37.500
525.35	36.803
525.69	36.084
526.04	36.511
526.38	36.974
526.72	36.564
527.06	36.660
527.41	36.077
527.75	37.235
528.09	36.737
528.43	37.476
528.78	36.386
529.12	34.909
529.46	36.007
529.80	36.200
530.15	37.882
530.49	35.938
530.83	36.456
531.17	37.010
531.51	37.938
531.86	36.581
532.20	37.093
532.54	36.643
532.88	35.944
533.22	35.353
533.57	35.679
533.91	34.618
534.25	34.629
534.59	36.059
534.93	34.920
535.27	35.667
535.62	35.165
535.96	36.347
536.30	35.219
536.64	35.480
536.98	36.165
537.32	35.418
537.66	35.933
538.01	35.616
538.35	35.488
538.69	35.992
539.03	34.698
539.37	34.441
539.71	34.154
540.05	35.098
540.39	35.083
540.73	34.605
541.07	35.626
541.42	34.508
541.76	35.548
542.10	35.317
542.44	34.238
542.78	35.573
543.12	34.485
543.46	35.016
543.80	34.418
544.14	33.825
544.48	34.667
544.82	34.766
545.16	34.808
545.50	33.676
545.84	34.005
546.18	34.209
546.52	35.237
546.86	34.777
547.20	33.918
547.54	34.669
547.88	34.566
548.22	33.873
548.56	33.774
548.90	32.714
549.24	33.535
549.58	34.789
549.92	35.027
550.26	34.517
550.60	33.057
550.94	34.577
551.28	33.943
551.62	34.651
551.96	34.596
552.30	34.403
552.64	34.348
552.98	34.169
553.32	34.255
553.66	34.356
554.00	34.523
554.34	34.092
554.68	34.263
555.02	33.357
555.36	33.820
555.69	33.424
556.03	32.840
556.37	33.629
556.71	33.151
557.05	33.473
557.39	33.240
557.73	33.874
558.07	34.518
558.41	33.575
558.75	32.770
559.08	33.706
559.42	34.543
559.76	33.676
560.10	33.048
560.44	33.124
560.78	32.535
561.12	32.850
561.45	33.312
561.79	32.630
562.13	33.132
562.47	34.221
562.81	33.124
563.15	31.906
563.48	32.825
563.82	32.746
564.16	32.832
564.50	32.357
564.84	32.301
565.17	32.368
565.51	33.738
565.85	32.487
566.19	32.248
566.52	32.426
566.86	32.248
567.20	31.840
567.54	32.306
567.88	30.690
568.21	32.011
568.55	30.789
568.89	31.566
569.23	29.545
569.56	30.081
569.90	30.415
570.24	29.889
570.57	29.446
570.91	28.798
571.25	29.216
571.59	28.189
571.92	28.370
572.26	28.423
572.60	28.769
572.93	28.276
573.27	28.986
573.61	28.671
573.95	27.984
574.28	27.940
574.62	28.037
574.96	27.766
575.29	27.740
575.63	27.591
575.97	27.779
576.30	28.651
576.64	27.824
576.98	28.026
577.31	27.449
577.65	27.535
577.98	27.523
578.32	27.025
578.66	26.855
578.99	27.802
579.33	27.378
579.67	27.366
580.00	27.763
580.34	27.931
580.67	27.960
581.01	27.839
581.35	27.204
581.68	27.506
582.02	26.727
582.35	26.510
582.69	26.966
583.02	26.742
583.36	27.554
583.70	28.097
584.03	28.056
584.37	28.617
584.70	28.161
585.04	28.058
585.37	27.377
585.71	27.420
586.04	27.374
586.38	27.638
586.72	27.617
587.05	27.275
587.39	27.045
587.72	27.544
588.06	27.721
588.39	27.791
588.73	28.102
589.06	28.732
589.40	28.148
589.73	28.581
590.07	28.612
590.40	28.060
590.73	29.235
591.07	28.734
591.40	28.849
591.74	29.004
592.07	28.709
592.41	28.566
592.74	27.978
593.08	27.848
593.41	27.713
593.75	26.140
594.08	26.718
594.41	27.784
594.75	27.800
595.08	28.418
595.42	28.406
595.75	28.063
596.09	27.863
596.42	28.762
596.75	29.084
597.09	29.481
597.42	27.782
597.75	28.288
598.09	27.870
598.42	27.964
598.76	26.996
599.09	27.670
599.42	27.074
599.76	27.818
600.09	27.067
600.42	27.100
600.76	26.929
601.09	26.885
601.42	27.245
601.76	26.907
602.09	27.628
602.42	27.787
602.76	28.416
603.09	27.773
603.42	28.036
603.76	27.515
604.09	26.793
604.42	27.558
604.76	28.849
605.09	27.698
605.42	27.490
605.75	27.566
606.09	27.491
606.42	27.503
606.75	27.084
607.09	27.794
607.42	27.214
607.75	27.722
608.08	27.182
608.42	27.566
608.75	27.592
609.08	28.122
609.41	27.653
609.75	27.299
610.08	27.851
610.41	27.467
610.74	27.010
611.07	28.804
611.41	28.018
611.74	28.507
612.07	28.468
612.40	28.279
612.73	26.895
613.07	28.179
613.40	28.594
613.73	26.429
614.06	28.817
614.39	27.268
614.72	27.579
615.06	27.994
615.39	26.911
615.72	27.403
616.05	27.273
616.38	28.293
616.71	28.147
617.05	28.269
617.38	28.022
617.71	27.628
618.04	28.125
618.37	28.090
618.70	27.816
619.03	29.803
619.36	29.532
619.69	28.662
620.03	29.670
620.36	29.412
620.69	29.726
621.02	29.204
621.35	29.992
621.68	28.115
622.01	29.180
622.34	29.425
622.67	29.430
623.00	28.026
623.33	28.592
623.66	29.164
623.99	27.982
624.32	28.174
624.65	28.884
624.99	27.975
625.32	28.965
625.65	28.475
625.98	29.208
626.31	29.316
626.64	31.265
626.97	29.842
627.30	29.925
627.63	30.517
627.96	30.025
628.29	29.921
628.62	30.650
628.95	30.755
629.28	31.387
629.61	30.156
629.94	30.762
630.26	30.982
630.59	30.982
630.92	30.077
631.25	30.109
631.58	29.329
631.91	29.817
632.24	30.380
632.57	29.696
632.90	31.579
633.23	31.655
633.56	31.864
633.89	31.370
634.22	30.760
634.55	33.136
634.88	30.659
635.20	33.333
635.53	31.807
635.86	32.426
636.19	30.941
636.52	31.719
636.85	31.271
637.18	30.069
637.51	32.270
637.83	30.086
638.16	31.841
638.49	31.738
638.82	31.985
639.15	31.875
639.48	31.546
639.81	34.450
640.13	33.984
640.46	31.141
640.79	31.308
641.12	30.674
641.45	31.425
641.77	33.726
642.10	33.772
642.43	34.084
642.76	34.830
643.09	32.975
643.41	34.294
643.74	34.105
644.07	33.232
644.40	34.663
644.73	35.276
645.05	33.439
645.38	33.965
645.71	34.944
646.04	34.718
646.36	35.392
646.69	35.619
647.02	33.333
647.35	35.223
647.67	34.867
648.00	34.959
648.33	33.993
648.66	31.970
648.98	32.384
649.31	30.942
649.64	33.034
649.96	32.489
650.29	33.807
650.62	32.039
650.94	32.739
651.27	33.953
651.60	33.777
651.92	33.546
652.25	30.782
652.58	32.866
652.90	33.017
653.23	32.974
653.56	32.441
653.88	32.330
654.21	33.965
654.54	34.323
654.86	32.866
655.19	31.486
655.52	22.475
655.84	19.446
656.17	25.371
656.49	33.916
656.82	34.765
657.15	26.603
657.47	19.934
657.80	15.710
658.13	16.469
658.45	25.228
658.78	25.895
659.10	27.563
659.43	29.476
659.75	30.415
660.08	33.228
660.41	34.637
660.73	34.943
661.06	33.439
661.38	36.000
661.71	35.962
662.03	35.503
662.36	32.008
662.68	34.538
663.01	34.343
663.33	36.093
663.66	38.235
663.98	34.341
664.31	34.454
664.63	33.806
664.96	32.797
665.28	35.451
665.61	32.749
665.93	35.010
666.26	33.671
666.58	33.891
666.91	35.518
667.23	37.079
667.56	34.773
667.88	35.897
668.21	35.394
668.53	35.141
668.86	35.498
669.18	36.887
669.50	35.652
669.83	37.908
670.15	33.778
670.48	32.026
670.80	34.914
671.13	35.244
671.45	33.830
671.77	35.845
672.10	33.272
672.42	33.039
672.75	31.675
673.07	33.627
673.39	31.284
673.72	32.617
674.04	33.529
674.37	34.563
674.69	33.742
675.01	33.264
675.34	33.676
675.66	38.105
675.98	35.031
676.31	34.874
676.63	34.820
676.95	33.753
677.28	32.944
677.60	32.308
677.92	38.186
678.25	31.622
678.57	32.271
678.89	35.271
679.22	33.202
679.54	32.443
679.86	33.761
680.18	32.558
680.51	31.206
680.83	33.096
681.15	33.019
681.48	34.783
681.80	31.721
682.12	33.908
682.44	31.528
682.77	31.365
683.09	34.979
683.41	34.146
683.73	33.113
684.06	34.504
684.38	32.290
684.70	35.659
685.02	31.144
685.34	34.432
685.67	30.245
685.99	31.443
686.31	32.594
686.63	30.035
686.96	30.000
687.28	30.144
687.60	30.072
687.92	33.272
688.24	31.369
688.56	35.743
688.89	34.232
689.21	34.716
689.53	33.612
689.85	34.368
690.17	32.298
690.49	33.121
690.82	37.617
691.14	32.812
691.46	31.435
691.78	33.333
692.10	33.884
692.42	35.729
692.74	33.402
693.06	31.702
693.39	34.292
693.71	31.659
694.03	33.053
694.35	32.900
694.67	34.325
694.99	36.341
695.31	33.578
695.63	31.579
695.95	36.186
696.27	33.756
696.59	34.456
696.91	34.197
697.23	34.038
697.56	33.262
697.88	30.061
698.20	33.333
698.52	34.409
698.84	34.521
699.16	35.484
699.48	35.867
699.80	36.957
700.12	37.922
700.44	36.074
700.76	36.740
701.08	37.644
701.40	36.313
701.72	40.525
702.04	39.773
702.36	33.994
702.68	37.394
703.00	36.011
703.32	33.511
703.64	34.584
703.96	33.148
704.28	37.500
704.60	39.883
704.91	37.982
705.23	35.484
705.55	37.874
705.87	44.186
706.19	40.636
706.51	37.383
706.83	35.455
707.15	36.695
707.47	33.838
707.79	32.678
708.11	33.790
708.43	35.714
708.74	32.398
709.06	36.883
709.38	37.533
709.70	38.372
710.02	37.389
710.34	32.727
710.66	36.716
710.98	38.068
711.29	35.465
711.61	38.643
711.93	41.026
712.25	38.585
712.57	38.235
712.89	39.792
713.20	36.170
713.52	39.145
713.84	37.342
714.16	31.707
714.48	37.069
714.80	38.906
715.11	35.735
715.43	35.608
715.75	36.522
716.07	36.102
716.39	36.991
716.70	41.860
717.02	38.849
717.34	39.929
717.66	41.791
717.97	45.020
718.29	39.630
718.61	37.591
718.93	38.235
719.24	38.754
719.56	34.915
719.88	40.678
720.20	41.892
720.51	42.857
720.83	41.636
721.15	38.433
721.46	36.170
721.78	43.369
722.10	38.113
722.42	39.850
722.73	40.075
723.05	41.393
723.37	42.105
723.68	42.471
724.00	42.276
724.32	41.532
724.63	40.244
724.95	41.004
725.27	42.915
725.58	42.188
725.90	44.526
726.22	37.358
726.53	36.458
726.85	39.249
727.16	42.349
727.48	37.234
727.80	43.182
728.11	35.507
728.43	40.000
728.74	37.993
729.06	37.956
729.38	41.912
729.69	38.078
730.01	36.177
730.32	38.542
730.64	40.468
730.96	33.333
731.27	38.742
731.59	35.474
731.90	38.776
732.22	34.472
732.53	34.365
732.85	38.782
733.16	34.727
733.48	37.209
733.80	36.039
734.11	35.987
734.43	36.095
734.74	32.286
735.06	33.524
735.37	37.861
735.69	34.395
736.00	37.908
736.32	33.022
736.63	35.463
736.95	34.505
737.26	30.612
737.58	33.871
737.89	38.127
738.21	38.225
738.52	37.500
738.83	38.491
739.15	35.000
739.46	38.321
739.78	35.417
740.09	30.462
740.41	38.065
740.72	37.282
741.04	40.741
741.35	37.500
741.66	42.667
741.98	38.679
742.29	48.325
742.61	43.103
742.92	42.081
743.23	41.453
743.55	42.000
743.86	43.860
744.18	41.150
744.49	46.411
744.80	42.254
745.12	46.818
745.43	40.969
745.74	47.297
746.06	43.578
746.37	45.291
746.68	42.986
747.00	48.148
747.31	40.952
747.62	35.398
747.94	41.410
748.25	40.000
748.56	43.612
748.88	45.050
749.19	51.500
749.50	40.000
749.82	43.089
750.13	38.776
750.44	36.861
750.75	38.947
751.07	40.514
751.38	37.631
751.69	44.043
752.01	38.346
752.32	33.935
752.63	38.298
752.94	34.016
753.26	42.400
753.57	39.837
753.88	41.406
754.19	37.143
754.51	42.361
754.82	35.018
755.13	35.849
755.44	34.211
755.75	35.401
756.07	38.298
756.38	34.672
756.69	34.228
757.00	29.940
757.31	33.531
757.63	30.702
757.94	32.440
758.25	31.127
758.56	31.358
758.87	29.570
759.18	33.636
759.50	31.348
759.81	33.022
760.12	30.625
760.43	36.390
760.74	32.609
761.05	32.203
761.36	29.679
761.67	32.955
761.99	35.714
762.30	34.028
762.61	33.206
762.92	39.062
763.23	39.496
763.54	43.200
763.85	37.891
764.16	42.308
764.47	37.643
764.78	34.629
765.10	30.063
765.41	31.563
765.72	34.132
766.03	33.856
766.34	36.333
766.65	41.702
766.96	39.744
767.27	47.716
767.58	44.792
767.89	44.211
768.20	44.253
768.51	39.086
768.82	38.991
769.13	39.024
769.44	37.247
769.75	37.768
770.06	38.532
770.37	42.081
770.68	40.278
770.99	36.889
771.30	36.475
771.61	41.704
771.92	38.525
772.23	39.496
772.54	45.641
772.85	42.932
773.16	40.957
773.47	44.022
773.78	43.147
774.09	41.071
774.39	49.123
774.70	45.679
775.01	55.797
775.32	52.941
775.63	59.868
775.94	47.482
776.25	64.567
776.56	52.985
776.87	51.639
777.18	49.219
777.48	64.122
777.79	56.818
778.10	60.741
778.41	59.821
778.72	43.066
779.03	50.336
779.34	53.020
779.65	49.324
779.95	51.534
780.26	54.248
780.57	51.034
780.88	60.156
781.19	48.872
781.50	56.081
781.80	40.881
782.11	45.198
782.42	47.468
782.73	38.650
783.04	47.973
783.34	52.817
783.65	55.479
783.96	58.209
784.27	53.846
784.57	44.604
784.88	46.296
785.19	61.111
785.50	61.321
785.81	57.463
786.11	58.197
786.42	60.465
786.73	49.558
787.04	65.094
787.34	47.321
787.65	62.000
787.96	53.153
788.26	57.025
788.57	61.864
788.88	63.636
789.19	56.944
789.49	60.606
789.80	57.252
790.11	66.667
790.41	71.287
790.72	73.494
791.03	64.130
791.33	61.628
791.64	71.134
791.95	59.406
792.25	67.778
792.56	68.831
792.87	88.462
793.17	92.405
793.48	67.816
793.79	80.460
794.09	72.727
794.40	50.420
794.70	56.618
795.01	46.667
795.32	47.482
795.62	59.055
795.93	57.759
796.23	62.832
796.54	57.647
796.85	77.027
797.15	92.958
797.46	75.758
797.76	86.747
798.07	77.215
798.37	96.923
798.68	84.848
798.99	59.155
799.29	80.519
799.60	73.864
799.90	87.671
800.21	86.567
800.51	91.379
800.82	89.474
801.12	96.721
801.43	83.333
801.73	79.730
802.04	84.127
802.34	85.185
802.65	101.563
802.95	103.390
803.26	96.875
803.56	78.571
803.87	83.077
804.17	86.765
804.48	109.259
804.78	94.828
805.09	88.235
805.39	96.154
805.70	89.286
806.00	90.164
806.30	78.788
806.61	75.610
806.91	75.949
807.22	82.895
807.52	62.687
807.83	81.690
808.13	84.375
808.43	103.333
808.74	80.263
809.04	81.159
809.35	85.075
809.65	69.737
809.95	96.774
810.26	81.356
810.56	93.651
810.86	127.273
811.17	135.714
811.47	106.667
811.77	94.444
812.08	109.091
812.38	118.000
812.69	141.667
812.99	138.636
813.29	112.245
813.59	85.714
813.90	110.204
814.20	89.091
814.50	90.769
814.81	102.941
815.11	102.041
815.41	85.246
815.72	138.095
816.02	136.364
816.32	121.429
816.62	117.500
816.93	119.512
817.23	123.810
817.53	106.818
817.84	160.606
818.14	110.870
818.44	122.222
818.74	155.882
819.04	97.500
819.35	151.429
819.65	170.588
819.95	146.429
820.25	205.000
820.56	156.410
820.86	129.545
821.16	125.581
821.46	141.026
821.76	112.000
822.07	154.286
822.37	137.500
822.67	157.576
822.97	103.922
823.27	200.000
823.57	148.649
823.88	142.500
824.18	206.667
824.48	138.095
824.78	200.000
825.08	208.333
825.38	159.459
825.69	126.829
825.99	166.667
826.29	165.517
826.59	144.737
826.89	139.474
827.19	152.941
827.49	177.419
827.79	131.818
828.09	134.091
828.39	121.277
828.70	134.694
829.00	166.667
829.30	161.290
829.60	122.500
829.90	313.333
830.20	182.143
830.50	208.696
830.80	217.391
831.10	203.333
831.40	200.000
831.70	178.261
832.00	203.846
832.30	192.593
832.60	256.250
832.90	210.000
833.20	385.714
833.50	167.742
833.80	165.517
834.10	184.375
834.40	223.077
834.70	261.111
835.00	309.524
835.30	148.571
835.60	338.462
835.90	193.103
836.20	335.714
836.50	179.310
836.80	160.000
837.10	180.556
837.40	290.476
837.70	300.000
838.00	162.963
838.30	200.000
838.60	276.190
838.90	215.385
839.19	190.000
839.49	378.571
839.79	310.000
840.09	270.000
840.39	242.857
840.69	247.826
840.99	194.444
841.29	410.000
841.59	291.667
841.88	350.000
842.18	155.172
842.48	233.333
842.78	190.000
843.08	230.435
843.38	165.625
843.68	750.000
843.97	211.538
844.27	182.759
844.57	271.429
844.87	300.000
845.17	174.074
845.47	1266.667
845.76	366.667
846.06	311.765
846.36	387.500
846.66	414.286
846.96	337.500
847.25	281.818
847.55	327.273
847.85	226.087
848.15	410.000
848.44	414.286
848.74	222.222
849.04	335.294
849.34	520.000
849.63	221.053
849.93	509.091
850.23	1120.000
850.53	357.143
850.82	2300.000
851.12	-4400.000
851.42	5900.000
851.71	275.000
852.01	-1066.667
852.31	208.333
852.61	1500.000
852.90	257.143
853.20	216.000
853.50	323.529
853.79	247.619
854.09	208.333
854.39	293.750
854.68	140.541
854.98	193.548
855.28	130.000
855.57	172.414
855.87	196.296
856.17	215.789
856.46	273.333
856.76	229.412
857.05	186.207
857.35	212.500
857.65	260.000
857.94	204.348
858.24	211.538
858.53	265.000
858.83	218.182
859.13	353.333
859.42	0.000
859.72	422.222
860.01	390.909
860.31	240.909
860.60	284.211
860.90	234.783
861.20	444.444
861.49	491.667
861.79	-4700.000
862.08	512.500
862.38	271.429
862.67	330.769
862.97	305.882
863.26	566.667
863.56	233.333
863.85	358.333
864.15	612.500
864.44	333.333
864.74	850.000
865.03	725.000
865.33	284.211
865.62	354.545
865.92	423.077
866.21	375.000
866.51	0.000
866.80	363.636
867.10	1060.000
867.39	515.385
867.69	427.273
867.98	221.053
868.27	427.273
868.57	331.579
868.86	-3900.000
869.16	343.750
869.45	2300.000
869.75	-2900.000
870.04	508.333
870.33	685.714
870.63	950.000
870.92	2650.000
871.22	757.143
871.51	288.235
871.80	195.238
872.10	342.857
>>>>>End Processed Spectral Data<<<<<
