SpectraSuite Data File
++++++++++++++++++++++++++++++++++++
Date: Wed May 13 16:55:29 PDT 2015
User: schluterlab
Dark Spectrum Present: Yes
Reference Spectrum Present: Yes
Number of Sampled Component Spectra: 1
Spectrometers: USB2E3373
Integration Time (usec): 3000 (USB2E3373)
Spectra Averaged: 3 (USB2E3373)
Boxcar Smoothing: 0 (USB2E3373)
Correct for Electrical Dark: No (USB2E3373)
Strobe/Lamp Enabled: No (USB2E3373)
Correct for Detector Non-linearity: No (USB2E3373)
Correct for Stray Light: No (USB2E3373)
Number of Pixels in Processed Spectrum: 2048
>>>>>Begin Processed Spectral Data<<<<<
178.53	0.000
178.91	-1225.000
179.29	-1275.000
179.67	-288.889
180.04	-1175.000
180.42	2350.000
180.80	1140.000
181.18	-1125.000
181.56	757.143
181.94	0.000
182.31	-685.714
182.69	1800.000
183.07	-587.500
183.45	-577.778
183.83	572.727
184.20	-330.000
184.58	2700.000
184.96	6100.000
185.34	-880.000
185.72	-637.500
186.09	-2400.000
186.47	2350.000
186.85	2200.000
187.23	4700.000
187.61	-1566.667
187.98	1250.000
188.36	581.818
188.74	554.545
189.12	-1160.000
189.49	600.000
189.87	-4500.000
190.25	-1225.000
190.63	421.429
191.00	453.846
191.38	883.333
191.76	-1250.000
192.14	1550.000
192.51	662.500
192.89	1050.000
193.27	600.000
193.65	-1200.000
194.02	530.000
194.40	980.000
194.78	610.000
195.15	533.333
195.53	580.000
195.91	-2500.000
196.29	418.750
196.66	310.526
197.04	-320.000
197.42	0.000
197.79	680.000
198.17	-4700.000
198.55	657.143
198.92	675.000
199.30	1120.000
199.68	0.000
200.05	327.778
200.43	657.143
200.81	5000.000
201.18	1600.000
201.56	-1566.667
201.94	533.333
202.31	733.333
202.69	408.333
203.07	550.000
203.44	0.000
203.82	1300.000
204.19	857.143
204.57	492.857
204.95	675.000
205.32	1600.000
205.70	481.818
206.08	342.857
206.45	3150.000
206.83	381.250
207.20	883.333
207.58	860.000
207.96	311.111
208.33	700.000
208.71	-850.000
209.08	814.286
209.46	588.889
209.84	445.455
210.21	-1466.667
210.59	1600.000
210.96	-575.000
211.34	2650.000
211.71	550.000
212.09	750.000
212.46	0.000
212.84	1900.000
213.22	1275.000
213.59	-4700.000
213.97	816.667
214.34	814.286
214.72	536.364
215.09	1220.000
215.47	-2250.000
215.84	-2500.000
216.22	1700.000
216.59	435.714
216.97	1350.000
217.34	518.182
217.72	-833.333
218.09	0.000
218.47	-4900.000
218.84	677.778
219.22	814.286
219.59	1966.667
219.97	-728.571
220.34	1220.000
220.72	-1533.333
221.09	435.714
221.47	1600.000
221.84	-1050.000
222.22	0.000
222.59	1475.000
222.97	-2750.000
223.34	980.000
223.72	469.231
224.09	1000.000
224.46	1850.000
224.84	-5400.000
225.21	-1080.000
225.59	-5400.000
225.96	700.000
226.34	320.000
226.71	3050.000
227.08	700.000
227.46	470.000
227.83	-975.000
228.21	-2550.000
228.58	711.111
228.95	-2350.000
229.33	-2400.000
229.70	1600.000
230.08	842.857
230.45	-1000.000
230.82	483.333
231.20	883.333
231.57	714.286
231.95	483.333
232.32	222.727
232.69	445.455
233.07	700.000
233.44	407.692
233.81	-1733.333
234.19	300.000
234.56	441.667
234.93	425.000
235.31	490.909
235.68	438.462
236.05	400.000
236.43	227.273
236.80	326.316
237.17	4600.000
237.55	304.762
237.92	282.143
238.29	261.905
238.67	219.355
239.04	265.517
239.41	177.778
239.79	154.348
240.16	178.571
240.53	188.636
240.91	154.902
241.28	144.000
241.65	162.000
242.02	118.841
242.40	130.645
242.77	133.333
243.14	104.301
243.51	115.730
243.89	123.529
244.26	93.333
244.63	102.151
245.00	103.191
245.38	116.832
245.75	101.869
246.12	98.165
246.49	91.241
246.87	104.000
247.24	92.308
247.61	90.000
247.98	87.582
248.36	83.108
248.73	82.166
249.10	81.529
249.47	80.226
249.84	81.283
250.22	77.540
250.59	83.432
250.96	80.808
251.33	76.303
251.70	82.178
252.08	73.810
252.45	74.888
252.82	70.870
253.19	73.617
253.56	75.686
253.94	73.029
254.31	68.750
254.68	74.231
255.05	75.277
255.42	73.577
255.79	69.118
256.16	68.231
256.54	67.845
256.91	70.463
257.28	71.942
257.65	70.627
258.02	71.118
258.39	68.454
258.76	73.913
259.14	64.881
259.51	65.350
259.88	67.702
260.25	68.278
260.62	67.052
260.99	70.186
261.36	69.670
261.73	69.054
262.10	66.860
262.47	67.042
262.85	68.245
263.22	64.957
263.59	65.527
263.96	64.286
264.33	61.619
264.70	63.684
265.07	65.729
265.44	61.111
265.81	61.800
266.18	67.839
266.55	60.732
266.92	67.813
267.29	63.194
267.66	60.550
268.03	63.636
268.40	63.785
268.77	63.962
269.14	63.739
269.51	61.851
269.88	63.403
270.25	65.237
270.62	61.124
270.99	62.581
271.36	58.369
271.73	63.785
272.10	59.783
272.47	61.505
272.84	62.121
273.21	59.958
273.58	60.044
273.95	58.700
274.32	57.231
274.69	62.527
275.06	58.465
275.43	59.787
275.80	59.118
276.17	62.322
276.54	59.875
276.91	57.510
277.28	58.203
277.65	57.060
278.02	59.627
278.39	60.156
278.76	57.455
279.13	57.547
279.50	58.287
279.87	58.765
280.23	58.483
280.60	58.414
280.97	58.780
281.34	58.053
281.71	56.545
282.08	60.269
282.45	58.909
282.82	55.417
283.19	57.932
283.56	57.719
283.92	54.653
284.29	54.674
284.66	56.443
285.03	56.058
285.40	56.338
285.77	56.734
286.14	54.231
286.51	55.167
286.87	55.214
287.24	53.746
287.61	52.648
287.98	53.247
288.35	51.506
288.72	49.844
289.08	54.147
289.45	53.377
289.82	51.707
290.19	51.177
290.56	50.536
290.93	48.640
291.29	49.080
291.66	49.263
292.03	50.291
292.40	48.458
292.77	47.781
293.13	48.955
293.50	46.793
293.87	48.000
294.24	47.556
294.60	45.997
294.97	47.238
295.34	45.134
295.71	45.455
296.08	45.442
296.44	45.254
296.81	45.178
297.18	46.206
297.55	41.293
297.91	44.063
298.28	46.319
298.65	42.950
299.02	44.137
299.38	43.426
299.75	41.644
300.12	42.273
300.48	41.500
300.85	40.814
301.22	41.274
301.59	42.424
301.95	42.317
302.32	41.207
302.69	41.219
303.05	41.697
303.42	39.506
303.79	39.638
304.15	39.744
304.52	39.397
304.89	39.257
305.25	39.211
305.62	40.204
305.99	40.850
306.35	39.709
306.72	41.368
307.09	40.289
307.45	40.090
307.82	38.281
308.19	38.742
308.55	40.237
308.92	39.527
309.29	39.071
309.65	37.646
310.02	38.584
310.38	38.602
310.75	38.226
311.12	37.871
311.48	36.782
311.85	38.889
312.22	39.854
312.58	37.526
312.95	37.698
313.31	36.214
313.68	39.085
314.05	39.152
314.41	36.784
314.78	36.455
315.14	37.537
315.51	38.723
315.87	37.327
316.24	37.537
316.61	36.355
316.97	36.986
317.34	36.399
317.70	36.998
318.07	36.862
318.43	38.454
318.80	37.957
319.16	36.441
319.53	37.711
319.89	36.952
320.26	38.100
320.62	36.706
320.99	37.475
321.35	35.960
321.72	36.242
322.08	37.512
322.45	38.010
322.81	36.822
323.18	37.091
323.54	36.456
323.91	35.660
324.27	37.476
324.64	36.067
325.00	35.347
325.37	36.670
325.73	37.074
326.10	37.070
326.46	35.484
326.83	36.238
327.19	35.952
327.56	35.976
327.92	36.483
328.29	36.557
328.65	36.740
329.01	35.199
329.38	35.708
329.74	35.642
330.11	35.721
330.47	35.721
330.84	35.754
331.20	35.337
331.56	35.138
331.93	35.000
332.29	34.250
332.66	34.956
333.02	35.558
333.38	35.230
333.75	35.294
334.11	35.765
334.48	34.960
334.84	36.581
335.20	34.364
335.57	34.451
335.93	33.661
336.29	34.615
336.66	34.896
337.02	32.941
337.38	35.278
337.75	33.957
338.11	34.020
338.47	34.622
338.84	34.739
339.20	33.394
339.56	33.942
339.93	33.636
340.29	34.511
340.65	34.225
341.02	34.293
341.38	33.541
341.74	34.123
342.11	33.624
342.47	33.216
342.83	33.990
343.20	33.420
343.56	32.350
343.92	32.018
344.28	32.483
344.65	33.792
345.01	33.165
345.37	32.333
345.73	34.010
346.10	33.419
346.46	33.051
346.82	34.020
347.19	32.164
347.55	33.662
347.91	32.605
348.27	33.361
348.63	32.609
349.00	32.443
349.36	30.788
349.72	31.917
350.08	32.658
350.45	33.198
350.81	31.519
351.17	32.982
351.53	32.187
351.89	31.931
352.26	31.571
352.62	31.756
352.98	31.929
353.34	33.196
353.70	31.097
354.07	32.500
354.43	32.381
354.79	30.571
355.15	30.168
355.51	33.014
355.87	31.592
356.24	32.492
356.60	31.917
356.96	31.939
357.32	31.562
357.68	31.181
358.04	31.750
358.40	31.750
358.77	31.064
359.13	31.176
359.49	31.294
359.85	30.397
360.21	30.463
360.57	31.751
360.93	31.769
361.29	31.217
361.66	29.876
362.02	30.970
362.38	30.494
362.74	30.804
363.10	29.904
363.46	30.154
363.82	31.293
364.18	29.369
364.54	31.129
364.90	31.657
365.26	31.765
365.62	30.972
365.98	30.314
366.35	28.940
366.71	30.730
367.07	30.808
367.43	31.350
367.79	31.478
368.15	31.537
368.51	29.724
368.87	30.621
369.23	29.627
369.59	30.920
369.95	30.294
370.31	30.698
370.67	29.493
371.03	31.685
371.39	30.102
371.75	30.588
372.11	29.161
372.47	30.572
372.83	30.403
373.19	29.624
373.55	29.712
373.91	31.370
374.27	29.141
374.63	29.091
374.99	29.661
375.35	29.937
375.71	30.089
376.07	30.384
376.42	30.468
376.78	29.821
377.14	29.444
377.50	30.265
377.86	29.588
378.22	29.962
378.58	29.323
378.94	29.290
379.30	29.898
379.66	30.013
380.02	29.300
380.38	29.387
380.74	29.532
381.09	29.340
381.45	29.441
381.81	28.870
382.17	30.191
382.53	28.742
382.89	29.753
383.25	29.456
383.61	30.050
383.97	29.769
384.32	29.694
384.68	28.191
385.04	29.072
385.40	29.412
385.76	29.115
386.12	28.756
386.48	29.767
386.83	29.955
387.19	29.561
387.55	29.004
387.91	29.625
388.27	29.246
388.62	30.240
388.98	28.870
389.34	29.912
389.70	29.859
390.06	29.975
390.42	29.831
390.77	28.880
391.13	30.121
391.49	29.188
391.85	30.045
392.20	28.391
392.56	29.104
392.92	29.135
393.28	27.988
393.64	29.676
393.99	29.078
394.35	29.467
394.71	28.670
395.07	28.598
395.42	28.925
395.78	29.771
396.14	28.678
396.50	30.514
396.85	28.798
397.21	29.346
397.57	30.068
397.92	29.327
398.28	28.868
398.64	30.048
399.00	29.715
399.35	28.708
399.71	28.704
400.07	29.036
400.42	29.264
400.78	29.493
401.14	28.780
401.49	29.612
401.85	28.736
402.21	29.102
402.57	28.933
402.92	29.067
403.28	29.419
403.63	27.970
403.99	29.809
404.35	29.030
404.70	28.777
405.06	28.072
405.42	30.193
405.77	28.914
406.13	28.668
406.49	29.391
406.84	28.825
407.20	28.428
407.55	28.909
407.91	29.733
408.27	28.717
408.62	29.259
408.98	28.615
409.34	29.766
409.69	28.903
410.05	28.129
410.40	29.480
410.76	29.391
411.11	28.166
411.47	29.521
411.83	29.016
412.18	29.932
412.54	28.518
412.89	29.699
413.25	29.162
413.60	29.216
413.96	28.355
414.31	28.190
414.67	29.151
415.03	27.881
415.38	29.059
415.74	29.839
416.09	30.307
416.45	28.983
416.80	28.354
417.16	28.686
417.51	29.662
417.87	29.094
418.22	29.211
418.58	29.438
418.93	28.501
419.29	29.408
419.64	28.652
420.00	29.146
420.35	28.406
420.71	29.528
421.06	28.640
421.42	28.304
421.77	28.812
422.12	28.411
422.48	27.901
422.83	28.247
423.19	28.895
423.54	28.729
423.90	29.101
424.25	29.146
424.61	28.393
424.96	28.688
425.31	28.516
425.67	28.427
426.02	28.800
426.38	28.877
426.73	28.087
427.09	29.240
427.44	28.465
427.79	29.672
428.15	29.167
428.50	29.842
428.85	28.784
429.21	28.879
429.56	28.927
429.92	27.982
430.27	28.352
430.62	28.418
430.98	28.386
431.33	27.990
431.68	28.586
432.04	28.328
432.39	28.041
432.74	28.665
433.10	29.032
433.45	28.863
433.80	28.492
434.16	28.846
434.51	28.158
434.86	28.848
435.22	28.349
435.57	29.179
435.92	28.613
436.28	28.648
436.63	28.642
436.98	28.163
437.34	28.921
437.69	29.288
438.04	28.668
438.39	29.612
438.75	29.460
439.10	29.441
439.45	29.103
439.81	28.943
440.16	28.007
440.51	28.705
440.86	29.647
441.22	28.031
441.57	28.291
441.92	28.915
442.27	29.225
442.63	27.699
442.98	29.915
443.33	29.457
443.68	28.291
444.03	28.551
444.39	28.043
444.74	28.950
445.09	28.679
445.44	28.267
445.79	28.798
446.15	28.851
446.50	28.810
446.85	28.417
447.20	28.914
447.55	29.257
447.91	28.627
448.26	28.603
448.61	29.226
448.96	28.738
449.31	29.415
449.66	28.813
450.02	28.412
450.37	28.118
450.72	28.765
451.07	29.007
451.42	28.389
451.77	29.771
452.12	28.637
452.47	28.296
452.83	29.312
453.18	29.156
453.53	30.118
453.88	28.766
454.23	28.691
454.58	29.800
454.93	30.579
455.28	29.239
455.63	29.430
455.98	30.536
456.34	29.271
456.69	29.869
457.04	29.164
457.39	29.047
457.74	28.671
458.09	29.327
458.44	29.475
458.79	28.579
459.14	29.176
459.49	29.889
459.84	29.030
460.19	29.641
460.54	28.183
460.89	29.347
461.24	29.751
461.59	30.041
461.94	29.470
462.29	28.902
462.64	29.419
462.99	29.018
463.34	30.267
463.69	29.644
464.04	28.986
464.39	28.928
464.74	28.936
465.09	29.554
465.44	27.978
465.79	28.579
466.14	29.009
466.49	28.532
466.84	29.013
467.19	29.089
467.54	29.813
467.89	28.932
468.24	28.505
468.59	29.548
468.94	28.528
469.29	29.434
469.64	30.187
469.99	30.717
470.34	29.062
470.68	30.675
471.03	28.844
471.38	30.438
471.73	29.980
472.08	30.921
472.43	30.967
472.78	30.217
473.13	29.589
473.48	30.212
473.83	29.390
474.17	29.558
474.52	29.963
474.87	29.597
475.22	29.774
475.57	29.178
475.92	28.996
476.27	29.538
476.61	29.013
476.96	29.302
477.31	28.362
477.66	29.486
478.01	29.169
478.36	30.143
478.70	29.335
479.05	29.712
479.40	28.762
479.75	29.181
480.10	29.026
480.45	29.415
480.79	29.288
481.14	29.697
481.49	28.809
481.84	28.624
482.19	29.487
482.53	28.028
482.88	28.758
483.23	28.551
483.58	28.935
483.92	28.351
484.27	27.538
484.62	28.578
484.97	28.341
485.31	29.589
485.66	28.466
486.01	27.192
486.36	25.620
486.70	24.835
487.05	25.553
487.40	26.047
487.75	26.095
488.09	26.752
488.44	26.684
488.79	27.342
489.13	27.922
489.48	28.303
489.83	28.356
490.17	28.935
490.52	28.299
490.87	28.720
491.22	28.922
491.56	27.790
491.91	29.269
492.26	28.158
492.60	28.249
492.95	28.204
493.30	28.598
493.64	29.351
493.99	28.923
494.34	29.140
494.68	29.121
495.03	29.652
495.37	28.851
495.72	29.532
496.07	29.513
496.41	28.982
496.76	28.056
497.11	28.276
497.45	29.157
497.80	28.311
498.14	28.551
498.49	28.585
498.84	28.763
499.18	29.286
499.53	28.395
499.87	28.285
500.22	29.063
500.56	29.660
500.91	28.990
501.26	28.544
501.60	30.233
501.95	28.598
502.29	29.428
502.64	28.818
502.98	29.032
503.33	29.388
503.67	28.445
504.02	29.093
504.36	28.966
504.71	29.702
505.06	29.398
505.40	28.974
505.75	29.315
506.09	29.252
506.44	29.600
506.78	29.372
507.13	29.985
507.47	29.192
507.82	28.825
508.16	29.433
508.51	30.238
508.85	28.848
509.19	29.541
509.54	29.694
509.88	28.800
510.23	29.717
510.57	30.134
510.92	29.777
511.26	29.702
511.61	29.927
511.95	28.914
512.30	29.480
512.64	29.769
512.98	29.850
513.33	29.764
513.67	30.470
514.02	29.762
514.36	30.366
514.70	30.880
515.05	30.061
515.39	29.950
515.74	30.462
516.08	31.694
516.42	30.577
516.77	30.713
517.11	30.577
517.46	31.772
517.80	30.488
518.14	30.921
518.49	30.688
518.83	30.568
519.17	30.312
519.52	31.466
519.86	30.006
520.20	30.116
520.55	31.059
520.89	30.231
521.23	31.544
521.58	30.792
521.92	32.088
522.26	30.628
522.61	31.589
522.95	30.939
523.29	30.189
523.64	31.951
523.98	31.978
524.32	31.303
524.66	31.750
525.01	30.637
525.35	31.475
525.69	31.219
526.04	31.589
526.38	30.995
526.72	31.350
527.06	31.199
527.41	30.012
527.75	32.090
528.09	31.856
528.43	31.039
528.78	31.469
529.12	30.788
529.46	31.721
529.80	31.002
530.15	31.028
530.49	30.092
530.83	31.835
531.17	31.854
531.51	32.361
531.86	32.194
532.20	32.073
532.54	32.159
532.88	31.451
533.22	30.481
533.57	30.741
533.91	30.765
534.25	31.349
534.59	31.178
534.93	30.637
535.27	30.839
535.62	30.281
535.96	30.822
536.30	30.515
536.64	31.874
536.98	30.392
537.32	31.139
537.66	32.200
538.01	31.468
538.35	31.610
538.69	32.674
539.03	30.799
539.37	30.479
539.71	30.460
540.05	30.915
540.39	30.365
540.73	31.436
541.07	31.473
541.42	31.050
541.76	31.613
542.10	31.242
542.44	30.993
542.78	32.213
543.12	29.814
543.46	31.410
543.80	30.839
544.14	30.488
544.48	31.302
544.82	30.789
545.16	30.514
545.50	30.591
545.84	31.653
546.18	31.448
546.52	31.039
546.86	31.546
547.20	32.232
547.54	31.663
547.88	31.824
548.22	31.320
548.56	30.377
548.90	31.562
549.24	31.582
549.58	30.559
549.92	30.220
550.26	32.528
550.60	31.328
550.94	30.915
551.28	31.017
551.62	32.207
551.96	32.491
552.30	32.218
552.64	31.778
552.98	32.814
553.32	30.411
553.66	32.515
554.00	31.572
554.34	31.194
554.68	32.332
555.02	31.241
555.36	31.872
555.69	30.717
556.03	31.494
556.37	31.310
556.71	30.832
557.05	31.513
557.39	30.511
557.73	31.404
558.07	33.140
558.41	31.983
558.75	32.109
559.08	32.066
559.42	32.124
559.76	32.500
560.10	31.263
560.44	31.866
560.78	30.805
561.12	31.003
561.45	32.464
561.79	30.191
562.13	31.724
562.47	31.899
562.81	31.241
563.15	30.836
563.48	31.499
563.82	30.855
564.16	32.309
564.50	30.013
564.84	31.037
565.17	31.853
565.51	30.927
565.85	31.028
566.19	29.931
566.52	31.792
566.86	30.199
567.20	31.250
567.54	29.623
567.88	29.929
568.21	30.212
568.55	29.575
568.89	30.058
569.23	29.768
569.56	28.785
569.90	28.226
570.24	27.305
570.57	27.746
570.91	26.988
571.25	26.807
571.59	27.128
571.92	26.296
572.26	26.430
572.60	26.486
572.93	26.087
573.27	26.708
573.61	26.717
573.95	26.382
574.28	26.131
574.62	25.948
574.96	25.830
575.29	26.164
575.63	25.661
575.97	25.670
576.30	26.367
576.64	25.752
576.98	25.693
577.31	25.809
577.65	25.776
577.98	25.975
578.32	25.238
578.66	25.241
578.99	25.314
579.33	25.708
579.67	25.030
580.00	25.917
580.34	25.748
580.67	25.550
581.01	25.883
581.35	25.527
581.68	26.148
582.02	25.310
582.35	24.901
582.69	25.659
583.02	25.110
583.36	25.548
583.70	25.524
584.03	25.784
584.37	26.166
584.70	25.836
585.04	25.807
585.37	26.305
585.71	26.175
586.04	25.755
586.38	26.254
586.72	26.843
587.05	26.026
587.39	25.989
587.72	26.385
588.06	26.147
588.39	25.926
588.73	26.342
589.06	26.737
589.40	26.532
589.73	27.068
590.07	26.762
590.40	26.672
590.73	26.737
591.07	28.449
591.40	27.288
591.74	29.004
592.07	27.792
592.41	27.945
592.74	27.753
593.08	27.415
593.41	27.017
593.75	25.734
594.08	26.685
594.41	26.759
594.75	27.209
595.08	27.273
595.42	27.250
595.75	26.781
596.09	27.037
596.42	28.173
596.75	27.649
597.09	27.835
597.42	26.728
597.75	27.641
598.09	27.522
598.42	27.620
598.76	27.240
599.09	27.290
599.42	26.492
599.76	27.160
600.09	26.849
600.42	26.552
600.76	26.643
601.09	26.958
601.42	26.903
601.76	28.046
602.09	27.628
602.42	27.787
602.76	27.570
603.09	27.341
603.42	27.724
603.76	27.706
604.09	26.212
604.42	27.150
604.76	28.174
605.09	27.436
605.42	26.678
605.75	27.856
606.09	27.654
606.42	27.748
606.75	27.416
607.09	27.627
607.42	27.300
607.75	26.751
608.08	26.965
608.42	27.566
608.75	27.998
609.08	27.012
609.41	27.511
609.75	27.632
610.08	28.322
610.41	27.142
610.74	27.862
611.07	28.656
611.41	28.361
611.74	28.356
612.07	28.261
612.40	28.489
612.73	27.316
613.07	28.987
613.40	29.173
613.73	28.946
614.06	28.333
614.39	28.159
614.72	29.211
615.06	28.729
615.39	27.760
615.72	27.965
616.05	28.070
616.38	29.127
616.71	30.166
617.05	28.799
617.38	29.104
617.71	29.489
618.04	29.147
618.37	28.740
618.70	29.558
619.03	30.263
619.36	30.210
619.69	30.986
620.03	30.632
620.36	30.147
620.69	31.507
621.02	30.605
621.35	29.287
621.68	31.776
622.01	30.805
622.34	32.073
622.67	31.407
623.00	30.961
623.33	29.593
623.66	31.022
623.99	30.560
624.32	30.029
624.65	30.791
624.99	29.603
625.32	30.702
625.65	30.579
625.98	31.668
626.31	31.571
626.64	31.020
626.97	32.502
627.30	30.673
627.63	31.665
627.96	31.791
628.29	32.546
628.62	32.754
628.95	33.491
629.28	32.208
629.61	33.364
629.94	33.619
630.26	31.745
630.59	32.507
630.92	31.418
631.25	31.392
631.58	33.534
631.91	31.440
632.24	32.595
632.57	33.578
632.90	34.211
633.23	33.221
633.56	35.819
633.89	34.541
634.22	33.825
634.55	34.793
634.88	33.533
635.20	34.170
635.53	36.024
635.86	33.787
636.19	33.176
636.52	34.025
636.85	34.021
637.18	32.834
637.51	35.106
637.83	32.799
638.16	35.422
638.49	35.768
638.82	36.283
639.15	36.125
639.48	35.162
639.81	36.729
640.13	35.807
640.46	36.913
640.79	36.460
641.12	34.938
641.45	35.335
641.77	37.408
642.10	38.596
642.43	36.787
642.76	38.080
643.09	37.730
643.41	37.785
643.74	38.889
644.07	36.585
644.40	39.264
644.73	37.638
645.05	38.827
645.38	37.915
645.71	36.876
646.04	36.877
646.36	41.569
646.69	40.970
647.02	38.265
647.35	39.347
647.67	40.000
648.00	40.163
648.33	37.954
648.66	37.727
648.98	36.882
649.31	36.771
649.64	36.173
649.96	37.705
650.29	36.019
650.62	36.893
650.94	37.763
651.27	37.838
651.60	38.436
651.92	36.422
652.25	38.274
652.58	35.202
652.90	37.441
653.23	36.672
653.56	36.220
653.88	36.133
654.21	38.863
654.54	37.789
654.86	36.604
655.19	34.730
655.52	24.507
655.84	23.250
656.17	29.744
656.49	38.854
656.82	37.990
657.15	27.756
657.47	20.163
657.80	15.277
658.13	15.715
658.45	23.252
658.78	22.776
659.10	24.101
659.43	24.711
659.75	25.636
660.08	28.987
660.41	32.775
660.73	34.943
661.06	36.943
661.38	42.182
661.71	38.077
662.03	42.604
662.36	39.165
662.68	39.357
663.01	40.606
663.33	40.127
663.66	42.857
663.98	43.413
664.31	41.387
664.63	39.069
664.96	41.449
665.28	41.393
665.61	39.181
665.93	39.235
666.26	39.554
666.58	43.305
666.91	39.535
667.23	41.573
667.56	38.661
667.88	40.385
668.21	40.725
668.53	38.829
668.86	41.558
669.18	42.217
669.50	43.261
669.83	41.830
670.15	42.000
670.48	39.434
670.80	42.241
671.13	40.552
671.45	35.745
671.77	42.566
672.10	39.556
672.42	36.042
672.75	38.474
673.07	37.324
673.39	38.336
673.72	40.039
674.04	37.843
674.37	39.806
674.69	40.491
675.01	39.540
675.34	39.220
675.66	44.211
675.98	41.141
676.31	40.546
676.63	40.764
676.95	41.719
677.28	41.121
677.60	41.538
677.92	43.038
678.25	39.836
678.57	37.849
678.89	37.475
679.22	38.310
679.54	39.122
679.86	42.569
680.18	37.567
680.51	38.298
680.83	38.078
681.15	39.811
681.48	39.319
681.80	38.298
682.12	40.421
682.44	34.816
682.77	39.104
683.09	41.845
683.41	42.350
683.73	38.852
684.06	39.876
684.38	38.356
684.70	40.116
685.02	40.525
685.34	36.813
685.67	34.965
685.99	35.395
686.31	35.666
686.63	34.099
686.96	36.250
687.28	36.462
687.60	35.507
687.92	36.746
688.24	36.882
688.56	40.964
688.89	40.041
689.21	40.175
689.53	37.161
689.85	41.463
690.17	39.959
690.49	39.915
690.82	42.523
691.14	37.946
691.46	38.608
691.78	40.361
692.10	39.669
692.42	39.122
692.74	39.004
693.06	40.213
693.39	39.220
693.71	40.175
694.03	40.632
694.35	38.312
694.67	38.902
694.99	43.171
695.31	41.176
695.63	42.344
695.95	41.809
696.27	40.355
696.59	41.192
696.91	40.933
697.23	38.028
697.56	41.151
697.88	37.423
698.20	38.750
698.52	41.075
698.84	39.198
699.16	40.323
699.48	40.143
699.80	37.198
700.12	46.753
700.44	43.767
700.76	42.818
701.08	45.690
701.40	46.648
701.72	44.898
702.04	50.000
702.36	42.776
702.68	46.176
703.00	42.936
703.32	40.426
703.64	40.214
703.96	44.568
704.28	44.477
704.60	45.161
704.91	47.478
705.23	42.815
705.55	48.837
705.87	49.502
706.19	43.463
706.51	46.106
706.83	44.242
707.15	42.857
707.47	38.636
707.79	42.260
708.11	41.096
708.43	39.048
708.74	38.520
709.06	42.597
709.38	41.207
709.70	45.930
710.02	44.510
710.34	41.515
710.66	43.284
710.98	45.739
711.29	45.058
711.61	49.853
711.93	42.308
712.25	46.302
712.57	48.162
712.89	50.173
713.20	44.073
713.52	50.658
713.84	49.684
714.16	44.207
714.48	41.954
714.80	45.897
715.11	42.651
715.43	42.136
715.75	42.029
716.07	41.214
716.39	43.574
716.70	48.173
717.02	50.000
717.34	46.290
717.66	50.373
717.97	56.972
718.29	47.407
718.61	49.270
718.93	48.162
719.24	47.751
719.56	44.068
719.88	44.746
720.20	48.986
720.51	48.432
720.83	49.814
721.15	43.657
721.46	45.745
721.78	50.179
722.10	48.302
722.42	50.376
722.73	47.940
723.05	48.361
723.37	51.822
723.68	51.737
724.00	52.439
724.32	50.403
724.63	50.000
724.95	48.536
725.27	48.583
725.58	49.219
725.90	51.460
726.22	51.698
726.53	45.833
726.85	44.369
727.16	46.619
727.48	46.454
727.80	47.727
728.11	43.841
728.43	44.615
728.74	47.670
729.06	49.270
729.38	46.691
729.69	47.687
730.01	44.710
730.32	45.139
730.64	43.144
730.96	42.574
731.27	43.377
731.59	46.177
731.90	45.773
732.22	44.720
732.53	40.557
732.85	44.231
733.16	40.836
733.48	46.512
733.80	44.805
734.11	43.631
734.43	41.420
734.74	42.000
735.06	40.974
735.37	41.618
735.69	41.401
736.00	43.791
736.32	45.483
736.63	40.895
736.95	45.687
737.26	39.116
737.58	39.355
737.89	48.495
738.21	46.075
738.52	43.214
738.83	44.528
739.15	43.462
739.46	45.620
739.78	44.097
740.09	40.000
740.41	42.903
740.72	44.251
741.04	45.926
741.35	49.583
741.66	56.444
741.98	41.038
742.29	56.938
742.61	53.879
742.92	53.394
743.23	48.718
743.55	53.200
743.86	50.439
744.18	56.195
744.49	50.718
744.80	54.930
745.12	54.545
745.43	52.863
745.74	53.604
746.06	54.128
746.37	51.570
746.68	48.869
747.00	51.852
747.31	52.857
747.62	53.097
747.94	53.304
748.25	46.809
748.56	56.388
748.88	54.950
749.19	60.500
749.50	48.372
749.82	45.935
750.13	48.163
750.44	48.905
750.75	45.965
751.07	47.267
751.38	42.509
751.69	46.570
752.01	50.752
752.32	45.487
752.63	42.908
752.94	45.902
753.26	51.200
753.57	46.341
753.88	52.344
754.19	48.214
754.51	50.000
754.82	41.877
755.13	51.321
755.44	47.368
755.75	44.161
756.07	47.518
756.38	47.810
756.69	42.617
757.00	41.317
757.31	38.872
757.63	45.614
757.94	39.678
758.25	39.706
758.56	41.481
758.87	37.097
759.18	41.515
759.50	42.320
759.81	42.991
760.12	44.062
760.43	40.974
760.74	41.576
761.05	44.633
761.36	38.503
761.67	42.898
761.99	42.236
762.30	45.833
762.61	46.947
762.92	43.750
763.23	51.681
763.54	46.800
763.85	42.188
764.16	49.231
764.47	48.289
764.78	43.816
765.10	38.608
765.41	41.593
765.72	43.114
766.03	44.828
766.34	48.000
766.65	53.191
766.96	48.291
767.27	55.330
767.58	55.208
767.89	58.421
768.20	62.644
768.51	59.391
768.82	54.128
769.13	49.593
769.44	45.344
769.75	50.215
770.06	44.495
770.37	56.561
770.68	50.463
770.99	48.444
771.30	40.164
771.61	49.327
771.92	48.361
772.23	51.261
772.54	51.795
772.85	54.450
773.16	57.447
773.47	62.500
773.78	56.853
774.09	58.929
774.39	55.556
774.70	58.025
775.01	64.493
775.32	59.477
775.63	65.789
775.94	62.590
776.25	70.079
776.56	70.149
776.87	74.590
777.18	71.875
777.48	66.412
777.79	62.121
778.10	74.815
778.41	70.536
778.72	53.285
779.03	64.430
779.34	61.745
779.65	62.162
779.95	56.442
780.26	70.588
780.57	66.207
780.88	76.563
781.19	63.910
781.50	68.919
781.80	62.893
782.11	54.237
782.42	56.962
782.73	55.215
783.04	61.486
783.34	66.901
783.65	67.123
783.96	67.910
784.27	60.140
784.57	61.151
784.88	68.519
785.19	73.810
785.50	66.981
785.81	59.701
786.11	76.230
786.42	74.419
786.73	69.027
787.04	68.868
787.34	72.321
787.65	84.000
787.96	76.577
788.26	71.074
788.57	70.339
788.88	79.339
789.19	66.667
789.49	70.455
789.80	64.122
790.11	79.048
790.41	77.228
790.72	93.976
791.03	77.174
791.33	90.698
791.64	85.567
791.95	85.149
792.25	83.333
792.56	103.896
792.87	102.564
793.17	89.873
793.48	93.103
793.79	80.460
794.09	87.500
794.40	68.908
794.70	66.176
795.01	68.889
795.32	66.187
795.62	70.079
795.93	68.103
796.23	64.602
796.54	85.882
796.85	94.595
797.15	97.183
797.46	98.485
797.76	80.723
798.07	103.797
798.37	101.538
798.68	103.030
798.99	94.366
799.29	90.909
799.60	79.545
799.90	104.110
800.21	119.403
800.51	122.414
800.82	131.579
801.12	113.115
801.43	110.606
801.73	97.297
802.04	119.048
802.34	93.827
802.65	128.125
802.95	123.729
803.26	123.438
803.56	91.429
803.87	98.462
804.17	117.647
804.48	140.741
804.78	100.000
805.09	100.000
805.39	115.385
805.70	114.286
806.00	119.672
806.30	90.909
806.61	86.585
806.91	87.342
807.22	96.053
807.52	83.582
807.83	92.958
808.13	107.812
808.43	106.667
808.74	94.737
809.04	102.899
809.35	108.955
809.65	105.263
809.95	138.710
810.26	96.610
810.56	101.587
810.86	140.909
811.17	154.762
811.47	121.667
811.77	122.222
812.08	130.909
812.38	166.000
812.69	161.111
812.99	154.545
813.29	144.898
813.59	128.571
813.90	122.449
814.20	100.000
814.50	83.077
814.81	120.588
815.11	144.898
815.41	106.557
815.72	157.143
816.02	145.455
816.32	171.429
816.62	142.500
816.93	148.780
817.23	140.476
817.53	143.182
817.84	200.000
818.14	152.174
818.44	131.111
818.74	217.647
819.04	145.000
819.35	188.571
819.65	185.294
819.95	196.429
820.25	235.000
820.56	171.795
820.86	138.636
821.16	148.837
821.46	148.718
821.76	146.000
822.07	182.857
822.37	142.500
822.67	200.000
822.97	127.451
823.27	221.429
823.57	167.568
823.88	155.000
824.18	243.333
824.48	169.048
824.78	200.000
825.08	204.167
825.38	164.865
825.69	151.220
825.99	245.833
826.29	162.069
826.59	194.737
826.89	157.895
827.19	188.235
827.49	183.871
827.79	172.727
828.09	138.636
828.39	127.660
828.70	138.776
829.00	218.519
829.30	164.516
829.60	162.500
829.90	380.000
830.20	221.429
830.50	247.826
830.80	269.565
831.10	233.333
831.40	210.000
831.70	217.391
832.00	261.538
832.30	181.481
832.60	331.250
832.90	193.333
833.20	421.429
833.50	209.677
833.80	206.897
834.10	212.500
834.40	226.923
834.70	283.333
835.00	323.810
835.30	211.429
835.60	300.000
835.90	237.931
836.20	421.429
836.50	210.345
836.80	224.000
837.10	183.333
837.40	295.238
837.70	317.647
838.00	240.741
838.30	261.905
838.60	304.762
838.90	242.308
839.19	285.000
839.49	378.571
839.79	320.000
840.09	335.000
840.39	271.429
840.69	265.217
840.99	333.333
841.29	500.000
841.59	275.000
841.88	331.250
842.18	200.000
842.48	290.476
842.78	240.000
843.08	269.565
843.38	203.125
843.68	966.667
843.97	211.538
844.27	210.345
844.57	333.333
844.87	362.500
845.17	233.333
845.47	1333.333
845.76	466.667
846.06	376.471
846.36	512.500
846.66	435.714
846.96	300.000
847.25	454.545
847.55	472.727
847.85	260.870
848.15	590.000
848.44	400.000
848.74	266.667
849.04	323.529
849.34	560.000
849.63	252.632
849.93	390.909
850.23	760.000
850.53	464.286
850.82	2250.000
851.12	-3800.000
851.42	5100.000
851.71	280.000
852.01	-1466.667
852.31	216.667
852.61	1866.667
852.90	238.095
853.20	272.000
853.50	288.235
853.79	257.143
854.09	175.000
854.39	350.000
854.68	170.270
854.98	170.968
855.28	166.667
855.57	224.138
855.87	262.963
856.17	278.947
856.46	253.333
856.76	288.235
857.05	213.793
857.35	270.833
857.65	393.333
857.94	221.739
858.24	219.231
858.53	305.000
858.83	245.455
859.13	440.000
859.42	0.000
859.72	555.556
860.01	518.182
860.31	281.818
860.60	273.684
860.90	252.174
861.20	577.778
861.49	533.333
861.79	-4700.000
862.08	737.500
862.38	314.286
862.67	415.385
862.97	352.941
863.26	466.667
863.56	316.667
863.85	516.667
864.15	550.000
864.44	406.667
864.74	966.667
865.03	675.000
865.33	300.000
865.62	427.273
865.92	500.000
866.21	400.000
866.51	0.000
866.80	472.727
867.10	980.000
867.39	469.231
867.69	463.636
867.98	236.842
868.27	445.455
868.57	289.474
868.86	-4600.000
869.16	343.750
869.45	2250.000
869.75	-5300.000
870.04	541.667
870.33	742.857
870.63	1125.000
870.92	2600.000
871.22	885.714
871.51	305.882
871.80	219.048
872.10	264.286
>>>>>End Processed Spectral Data<<<<<
