SpectraSuite Data File
++++++++++++++++++++++++++++++++++++
Date: Wed May 13 16:42:31 PDT 2015
User: schluterlab
Dark Spectrum Present: Yes
Reference Spectrum Present: Yes
Number of Sampled Component Spectra: 1
Spectrometers: USB2E3373
Integration Time (usec): 3000 (USB2E3373)
Spectra Averaged: 3 (USB2E3373)
Boxcar Smoothing: 0 (USB2E3373)
Correct for Electrical Dark: No (USB2E3373)
Strobe/Lamp Enabled: No (USB2E3373)
Correct for Detector Non-linearity: No (USB2E3373)
Correct for Stray Light: No (USB2E3373)
Number of Pixels in Processed Spectrum: 2048
>>>>>Begin Processed Spectral Data<<<<<
178.53	0.000
178.91	-1175.000
179.29	-1400.000
179.67	-244.444
180.04	-1175.000
180.42	2700.000
180.80	1020.000
181.18	-1000.000
181.56	771.429
181.94	0.000
182.31	-700.000
182.69	1400.000
183.07	-487.500
183.45	-511.111
183.83	536.364
184.20	-360.000
184.58	2900.000
184.96	5200.000
185.34	-620.000
185.72	-637.500
186.09	-2800.000
186.47	2400.000
186.85	2050.000
187.23	5600.000
187.61	-1800.000
187.98	1475.000
188.36	518.182
188.74	545.455
189.12	-760.000
189.49	610.000
189.87	-5200.000
190.25	-1250.000
190.63	435.714
191.00	400.000
191.38	950.000
191.76	-1400.000
192.14	1475.000
192.51	575.000
192.89	950.000
193.27	562.500
193.65	-1300.000
194.02	520.000
194.40	1060.000
194.78	520.000
195.15	483.333
195.53	620.000
195.91	-2100.000
196.29	293.750
196.66	278.947
197.04	-370.000
197.42	0.000
197.79	570.000
198.17	-4500.000
198.55	685.714
198.92	612.500
199.30	820.000
199.68	0.000
200.05	327.778
200.43	742.857
200.81	3800.000
201.18	1766.667
201.56	-1733.333
201.94	588.889
202.31	600.000
202.69	466.667
203.07	680.000
203.44	0.000
203.82	1050.000
204.19	757.143
204.57	421.429
204.95	625.000
205.32	1433.333
205.70	490.909
206.08	407.143
206.45	2250.000
206.83	306.250
207.20	816.667
207.58	680.000
207.96	294.444
208.33	750.000
208.71	-733.333
209.08	700.000
209.46	655.556
209.84	427.273
210.21	-1266.667
210.59	1300.000
210.96	-575.000
211.34	2700.000
211.71	510.000
212.09	783.333
212.46	0.000
212.84	1666.667
213.22	1450.000
213.59	-4200.000
213.97	816.667
214.34	757.143
214.72	636.364
215.09	1000.000
215.47	-2150.000
215.84	-2350.000
216.22	1766.667
216.59	421.429
216.97	1500.000
217.34	490.909
217.72	-783.333
218.09	0.000
218.47	-4800.000
218.84	622.222
219.22	742.857
219.59	1666.667
219.97	-600.000
220.34	840.000
220.72	-1666.667
221.09	414.286
221.47	1400.000
221.84	-950.000
222.22	0.000
222.59	1325.000
222.97	-2300.000
223.34	1200.000
223.72	369.231
224.09	1020.000
224.46	2500.000
224.84	-5200.000
225.21	-860.000
225.59	-4800.000
225.96	650.000
226.34	295.000
226.71	2650.000
227.08	512.500
227.46	550.000
227.83	-975.000
228.21	-2550.000
228.58	633.333
228.95	-2550.000
229.33	-2100.000
229.70	1733.333
230.08	757.143
230.45	-920.000
230.82	483.333
231.20	1000.000
231.57	714.286
231.95	491.667
232.32	240.909
232.69	427.273
233.07	800.000
233.44	376.923
233.81	-1533.333
234.19	257.895
234.56	400.000
234.93	408.333
235.31	454.545
235.68	346.154
236.05	307.143
236.43	169.697
236.80	247.368
237.17	5000.000
237.55	209.524
237.92	185.714
238.29	252.381
238.67	177.419
239.04	168.966
239.41	130.556
239.79	117.391
240.16	145.238
240.53	111.364
240.91	76.471
241.28	98.000
241.65	88.000
242.02	75.362
242.40	90.323
242.77	63.333
243.14	70.968
243.51	60.674
243.89	63.529
244.26	45.556
244.63	52.688
245.00	53.191
245.38	52.475
245.75	35.514
246.12	41.284
246.49	49.635
246.87	54.400
247.24	46.923
247.61	33.571
247.98	39.869
248.36	29.054
248.73	27.389
249.10	34.395
249.47	24.294
249.84	28.877
250.22	24.064
250.59	30.769
250.96	26.263
251.33	31.754
251.70	33.663
252.08	21.905
252.45	26.457
252.82	20.435
253.19	26.809
253.56	20.392
253.94	23.651
254.31	23.047
254.68	18.846
255.05	22.878
255.42	20.732
255.79	22.426
256.16	21.300
256.54	15.901
256.91	16.370
257.28	12.230
257.65	17.822
258.02	15.528
258.39	17.666
258.76	15.050
259.14	18.750
259.51	17.629
259.88	10.870
260.25	17.221
260.62	14.451
260.99	14.596
261.36	15.916
261.73	13.467
262.10	13.953
262.47	16.056
262.85	14.206
263.22	11.681
263.59	15.100
263.96	11.538
264.33	15.927
264.70	14.737
265.07	13.555
265.44	12.626
265.81	13.139
266.18	12.814
266.55	10.976
266.92	10.074
267.29	14.815
267.66	12.615
268.03	11.818
268.40	12.383
268.77	12.172
269.14	11.712
269.51	14.447
269.88	13.054
270.25	11.738
270.62	11.236
270.99	13.118
271.36	12.017
271.73	9.112
272.10	13.478
272.47	12.043
272.84	12.338
273.21	12.579
273.58	9.607
273.95	9.853
274.32	9.298
274.69	12.420
275.06	10.236
275.43	11.702
275.80	10.822
276.17	10.591
276.54	11.227
276.91	12.055
277.28	8.789
277.65	11.605
278.02	8.696
278.39	12.109
278.76	10.727
279.13	12.075
279.50	10.056
279.87	10.558
280.23	9.581
280.60	9.284
280.97	7.948
281.34	10.265
281.71	10.545
282.08	9.981
282.45	9.091
282.82	8.881
283.19	6.774
283.56	10.877
283.92	10.152
284.29	9.700
284.66	7.985
285.03	9.765
285.40	8.451
285.77	10.101
286.14	8.981
286.51	10.500
286.87	8.718
287.24	10.261
287.61	8.347
287.98	10.714
288.35	8.716
288.72	8.100
289.08	8.764
289.45	7.908
289.82	9.106
290.19	7.692
290.56	9.648
290.93	6.949
291.29	8.282
291.66	8.997
292.03	10.901
292.40	10.132
292.77	6.953
293.13	9.254
293.50	8.017
293.87	8.296
294.24	7.556
294.60	6.841
294.97	7.849
295.34	10.719
295.71	8.523
296.08	7.835
296.44	7.290
296.81	8.454
297.18	7.859
297.55	6.596
297.91	6.860
298.28	8.032
298.65	10.052
299.02	8.827
299.38	6.773
299.75	6.334
300.12	8.812
300.48	7.000
300.85	8.385
301.22	6.369
301.59	7.702
301.95	7.053
302.32	7.831
302.69	8.363
303.05	6.788
303.42	5.926
303.79	6.116
304.15	6.876
304.52	6.373
304.89	6.039
305.25	6.729
305.62	6.682
305.99	7.792
306.35	6.823
306.72	7.175
307.09	6.992
307.45	7.432
307.82	6.585
308.19	6.843
308.55	7.551
308.92	7.411
309.29	6.969
309.65	6.893
310.02	7.400
310.38	7.312
310.75	7.181
311.12	7.574
311.48	7.628
311.85	7.547
312.22	7.596
312.58	8.004
312.95	7.709
313.31	7.087
313.68	6.965
314.05	8.185
314.41	8.744
314.78	7.251
315.14	6.554
315.51	6.797
315.87	6.832
316.24	7.746
316.61	6.140
316.97	6.947
317.34	6.164
317.70	7.266
318.07	7.315
318.43	5.773
318.80	7.216
319.16	7.062
319.53	7.036
319.89	7.905
320.26	7.200
320.62	7.440
320.99	7.374
321.35	7.677
321.72	7.700
322.08	8.885
322.45	8.159
322.81	7.267
323.18	8.285
323.54	8.720
323.91	7.925
324.27	6.692
324.64	7.829
325.00	6.492
325.37	9.008
325.73	7.540
326.10	6.973
326.46	6.541
326.83	8.628
327.19	7.003
327.56	8.537
327.92	7.174
328.29	8.429
328.65	6.630
329.01	7.491
329.38	7.771
329.74	6.741
330.11	7.446
330.47	7.622
330.84	8.088
331.20	7.013
331.56	7.890
331.93	7.222
332.29	7.808
332.66	8.319
333.02	7.678
333.38	7.678
333.75	8.289
334.11	7.651
334.48	7.276
334.84	7.169
335.20	7.000
335.57	6.890
335.93	6.607
336.29	6.868
336.66	7.484
337.02	6.063
337.38	8.426
337.75	6.684
338.11	6.804
338.47	6.262
338.84	7.974
339.20	5.596
339.56	7.573
339.93	6.091
340.29	7.518
340.65	6.595
341.02	6.894
341.38	7.384
341.74	6.053
342.11	7.249
342.47	7.048
342.83	6.507
343.20	6.926
343.56	6.318
343.92	5.702
344.28	6.548
344.65	7.137
345.01	6.145
345.37	5.660
345.73	7.360
346.10	6.991
346.46	6.186
346.82	6.590
347.19	5.180
347.55	6.486
347.91	6.634
348.27	7.231
348.63	7.358
349.00	6.796
349.36	6.814
349.72	6.576
350.08	5.835
350.45	6.347
350.81	6.174
351.17	6.159
351.53	6.143
351.89	6.188
352.26	7.340
352.62	6.656
352.98	5.592
353.34	6.327
353.70	5.728
354.07	6.935
354.43	5.556
354.79	5.953
355.15	5.986
355.51	7.594
355.87	6.776
356.24	7.003
356.60	5.694
356.96	5.390
357.32	6.541
357.68	6.220
358.04	6.413
358.40	6.255
358.77	6.964
359.13	5.525
359.49	5.490
359.85	5.952
360.21	5.423
360.57	7.004
360.93	6.077
361.29	6.727
361.66	5.882
362.02	6.343
362.38	5.779
362.74	5.804
363.10	5.107
363.46	5.649
363.82	5.367
364.18	6.167
364.54	5.721
364.90	7.436
365.26	4.926
365.62	6.209
365.98	5.844
366.35	5.158
366.71	6.580
367.07	5.317
367.43	5.298
367.79	6.067
368.15	6.825
368.51	5.596
368.87	6.210
369.23	5.633
369.59	6.445
369.95	6.397
370.31	6.481
370.67	5.580
371.03	6.367
371.39	5.466
371.75	5.735
372.11	6.117
372.47	7.405
372.83	6.628
373.19	5.202
373.55	6.504
373.91	7.511
374.27	6.598
374.63	5.091
374.99	6.003
375.35	5.304
375.71	5.894
376.07	6.379
376.42	5.640
376.78	5.964
377.14	5.631
377.50	6.821
377.86	4.787
378.22	6.700
378.58	5.075
378.94	5.531
379.30	5.089
379.66	5.520
380.02	6.204
380.38	5.889
380.74	5.762
381.09	6.479
381.45	6.454
381.81	6.204
382.17	6.497
382.53	5.723
382.89	5.556
383.25	5.629
383.61	6.258
383.97	6.191
384.32	6.488
384.68	5.328
385.04	5.778
385.40	6.130
385.76	5.713
386.12	6.282
386.48	6.860
386.83	5.837
387.19	6.926
387.55	6.122
387.91	6.167
388.27	6.193
388.62	7.130
388.98	6.265
389.34	6.508
389.70	6.315
390.06	6.971
390.42	5.966
390.77	7.506
391.13	6.318
391.49	6.345
391.85	5.729
392.20	4.921
392.56	5.934
392.92	6.357
393.28	5.740
393.64	6.295
393.99	7.086
394.35	5.893
394.71	7.026
395.07	6.231
395.42	6.489
395.78	6.234
396.14	6.394
396.50	6.454
396.85	6.548
397.21	5.919
397.57	6.386
397.92	6.671
398.28	5.605
398.64	7.288
399.00	6.100
399.35	5.979
399.71	6.076
400.07	5.973
400.42	6.074
400.78	6.212
401.14	5.610
401.49	5.851
401.85	5.929
402.21	5.749
402.57	5.984
402.92	5.864
403.28	6.246
403.63	6.312
403.99	5.987
404.35	6.182
404.70	5.935
405.06	5.183
405.42	5.490
405.77	5.086
406.13	5.813
406.49	6.091
406.84	5.611
407.20	5.969
407.55	6.126
407.91	5.733
408.27	4.850
408.62	6.081
408.98	5.331
409.34	5.289
409.69	5.548
410.05	5.452
410.40	5.505
410.76	5.615
411.11	5.669
411.47	6.326
411.83	5.742
412.18	5.442
412.54	5.978
412.89	6.024
413.25	5.077
413.60	5.930
413.96	6.072
414.31	6.744
414.67	6.464
415.03	5.629
415.38	6.314
415.74	5.338
416.09	5.944
416.45	6.225
416.80	6.874
417.16	6.501
417.51	5.839
417.87	5.331
418.22	6.246
418.58	6.327
418.93	6.450
419.29	5.856
419.64	6.108
420.00	5.854
420.35	5.739
420.71	6.336
421.06	5.609
421.42	6.316
421.77	6.110
422.12	5.390
422.48	5.127
422.83	5.300
423.19	5.635
423.54	5.862
423.90	6.145
424.25	5.751
424.61	5.714
424.96	5.656
425.31	5.869
425.67	5.843
426.02	5.429
426.38	6.349
426.73	5.442
427.09	6.140
427.44	5.463
427.79	5.118
428.15	5.893
428.50	5.559
428.85	5.840
429.21	5.577
429.56	5.391
429.92	5.687
430.27	5.313
430.62	4.711
430.98	5.034
431.33	5.412
431.68	5.288
432.04	5.698
432.39	5.197
432.74	6.104
433.10	5.546
433.45	5.598
433.80	5.876
434.16	5.342
434.51	5.579
434.86	5.701
435.22	5.336
435.57	6.018
435.92	5.266
436.28	5.753
436.63	6.071
436.98	5.323
437.34	6.023
437.69	5.251
438.04	4.947
438.39	5.672
438.75	5.811
439.10	5.866
439.45	5.726
439.81	5.619
440.16	5.477
440.51	5.682
440.86	6.022
441.22	5.562
441.57	5.255
441.92	6.039
442.27	5.544
442.63	5.161
442.98	5.859
443.33	5.435
443.68	5.111
444.03	5.417
444.39	4.869
444.74	5.357
445.09	5.606
445.44	6.452
445.79	6.037
446.15	6.458
446.50	5.762
446.85	5.601
447.20	5.762
447.55	5.304
447.91	5.626
448.26	5.008
448.61	5.540
448.96	6.423
449.31	5.793
449.66	6.021
450.02	5.515
450.37	5.839
450.72	5.415
451.07	5.789
451.42	5.410
451.77	6.518
452.12	5.427
452.47	5.721
452.83	6.061
453.18	5.623
453.53	6.061
453.88	5.257
454.23	6.216
454.58	6.602
454.93	6.548
455.28	5.549
455.63	5.947
455.98	6.310
456.34	5.905
456.69	6.011
457.04	6.502
457.39	5.260
457.74	5.107
458.09	5.750
458.44	5.644
458.79	5.477
459.14	5.982
459.49	5.838
459.84	5.596
460.19	5.598
460.54	5.382
460.89	5.321
461.24	6.679
461.59	6.740
461.94	5.364
462.29	6.053
462.64	6.063
462.99	5.921
463.34	6.133
463.69	5.941
464.04	5.507
464.39	5.739
464.74	6.239
465.09	6.031
465.44	5.706
465.79	5.257
466.14	5.857
466.49	6.118
466.84	5.838
467.19	6.035
467.54	6.562
467.89	6.122
468.24	6.457
468.59	6.044
468.94	6.536
469.29	6.170
469.64	6.091
469.99	5.954
470.34	6.077
470.68	6.250
471.03	6.054
471.38	5.351
471.73	6.396
472.08	6.447
472.43	5.967
472.78	6.452
473.13	6.996
473.48	6.554
473.83	5.976
474.17	5.912
474.52	5.707
474.87	5.546
475.22	6.326
475.57	5.750
475.92	5.736
476.27	5.242
476.61	5.736
476.96	5.772
477.31	5.599
477.66	5.361
478.01	5.489
478.36	5.235
478.70	5.400
479.05	5.911
479.40	5.629
479.75	5.338
480.10	5.268
480.45	4.950
480.79	4.873
481.14	4.941
481.49	5.411
481.84	5.304
482.19	4.998
482.53	5.275
482.88	5.677
483.23	5.421
483.58	5.323
483.92	5.155
484.27	4.837
484.62	5.259
484.97	5.006
485.31	4.829
485.66	4.007
486.01	3.537
486.36	3.303
486.70	3.459
487.05	3.834
487.40	4.188
487.75	4.272
488.09	4.216
488.44	4.136
488.79	4.340
489.13	5.195
489.48	4.608
489.83	4.489
490.17	5.085
490.52	5.359
490.87	4.749
491.22	5.412
491.56	4.647
491.91	5.026
492.26	4.502
492.60	5.760
492.95	4.771
493.30	5.421
493.64	4.573
493.99	5.153
494.34	5.643
494.68	4.899
495.03	5.310
495.37	5.491
495.72	4.581
496.07	4.965
496.41	4.823
496.76	5.409
497.11	4.953
497.45	5.356
497.80	5.566
498.14	5.024
498.49	5.024
498.84	5.177
499.18	5.048
499.53	5.508
499.87	5.312
500.22	5.370
500.56	5.437
500.91	4.904
501.26	5.880
501.60	5.268
501.95	4.675
502.29	5.389
502.64	5.493
502.98	5.376
503.33	4.982
503.67	5.244
504.02	5.566
504.36	5.054
504.71	4.885
505.06	5.012
505.40	5.493
505.75	5.063
506.09	5.394
506.44	5.476
506.78	5.066
507.13	5.704
507.47	5.202
507.82	5.674
508.16	5.167
508.51	5.784
508.85	5.065
509.19	5.255
509.54	5.306
509.88	4.894
510.23	5.501
510.57	6.140
510.92	5.955
511.26	5.807
511.61	5.550
511.95	5.167
512.30	4.825
512.64	5.642
512.98	5.627
513.33	6.263
513.67	5.656
514.02	5.628
514.36	5.680
514.70	5.977
515.05	5.633
515.39	5.889
515.74	6.081
516.08	6.205
516.42	6.770
516.77	6.187
517.11	5.771
517.46	6.433
517.80	5.691
518.14	5.848
518.49	5.659
518.83	6.420
519.17	5.658
519.52	5.942
519.86	6.389
520.20	6.474
520.55	6.224
520.89	6.144
521.23	5.971
521.58	5.822
521.92	6.185
522.26	5.918
522.61	5.981
522.95	5.709
523.29	5.965
523.64	6.280
523.98	5.915
524.32	6.454
524.66	6.494
525.01	6.924
525.35	6.320
525.69	6.034
526.04	6.231
526.38	5.796
526.72	6.503
527.06	6.717
527.41	5.198
527.75	6.559
528.09	6.358
528.43	6.820
528.78	6.269
529.12	5.939
529.46	6.981
529.80	6.683
530.15	6.729
530.49	6.215
530.83	5.633
531.17	6.136
531.51	7.782
531.86	6.839
532.20	6.780
532.54	6.598
532.88	6.483
533.22	6.059
533.57	6.852
533.91	6.623
534.25	6.197
534.59	6.528
534.93	5.889
535.27	6.095
535.62	6.105
535.96	5.901
536.30	6.039
536.64	6.568
536.98	6.105
537.32	6.188
537.66	7.133
538.01	6.320
538.35	6.723
538.69	7.211
539.03	5.523
539.37	5.815
539.71	5.185
540.05	5.490
540.39	5.847
540.73	6.468
541.07	7.268
541.42	5.740
541.76	6.968
542.10	6.404
542.44	5.563
542.78	7.378
543.12	5.374
543.46	6.623
543.80	6.506
544.14	6.290
544.48	6.032
544.82	6.286
545.16	6.246
545.50	6.041
545.84	6.183
546.18	7.138
546.52	6.538
546.86	5.704
547.20	6.339
547.54	6.613
547.88	6.378
548.22	6.164
548.56	6.541
548.90	5.954
549.24	5.589
549.58	6.617
549.92	6.250
550.26	6.321
550.60	6.777
550.94	6.690
551.28	5.925
551.62	6.326
551.96	6.035
552.30	6.280
552.64	6.356
552.98	6.644
553.32	7.013
553.66	7.226
554.00	6.726
554.34	6.280
554.68	6.581
555.02	6.911
555.36	6.820
555.69	6.563
556.03	6.662
556.37	6.617
556.71	6.276
557.05	5.672
557.39	6.508
557.73	7.198
558.07	7.179
558.41	6.223
558.75	6.613
559.08	6.562
559.42	6.047
559.76	7.426
560.10	6.424
560.44	5.800
560.78	6.387
561.12	6.662
561.45	7.236
561.79	6.922
562.13	6.304
562.47	6.284
562.81	6.346
563.15	6.221
563.48	6.565
563.82	5.871
564.16	6.279
564.50	5.339
564.84	6.068
565.17	5.727
565.51	5.751
565.85	6.155
566.19	5.322
566.52	5.003
566.86	5.546
567.20	5.896
567.54	5.936
567.88	5.486
568.21	5.979
568.55	6.117
568.89	4.864
569.23	5.303
569.56	4.899
569.90	4.868
570.24	4.844
570.57	4.420
570.91	4.008
571.25	4.077
571.59	4.389
571.92	3.946
572.26	4.362
572.60	4.414
572.93	4.318
573.27	4.525
573.61	4.104
573.95	4.522
574.28	3.995
574.62	4.082
574.96	3.680
575.29	3.880
575.63	3.836
575.97	4.140
576.30	4.355
576.64	3.867
576.98	3.938
577.31	3.812
577.65	3.887
577.98	3.538
578.32	3.475
578.66	3.753
578.99	3.675
579.33	4.164
579.67	3.576
580.00	3.884
580.34	3.844
580.67	4.042
581.01	4.003
581.35	3.886
581.68	3.831
582.02	3.358
582.35	3.400
582.69	3.657
583.02	3.704
583.36	3.828
583.70	3.671
584.03	3.997
584.37	4.348
584.70	3.997
585.04	4.061
585.37	3.891
585.71	3.783
586.04	3.793
586.38	3.971
586.72	4.060
587.05	3.912
587.39	3.799
587.72	3.813
588.06	3.682
588.39	4.060
588.73	3.843
589.06	4.394
589.40	4.175
589.73	3.872
590.07	4.733
590.40	4.311
590.73	4.723
591.07	4.884
591.40	5.314
591.74	5.238
592.07	5.105
592.41	4.919
592.74	4.532
593.08	4.763
593.41	4.176
593.75	4.091
594.08	4.492
594.41	4.666
594.75	4.436
595.08	4.510
595.42	4.939
595.75	4.701
596.09	4.581
596.42	5.108
596.75	4.686
597.09	5.368
597.42	4.722
597.75	4.657
598.09	5.000
598.42	4.983
598.76	4.216
599.09	4.751
599.42	4.585
599.76	4.868
600.09	4.226
600.42	4.383
600.76	4.500
601.09	4.590
601.42	4.300
601.76	4.554
602.09	4.308
602.42	4.936
602.76	4.998
603.09	4.799
603.42	4.686
603.76	4.230
604.09	4.110
604.42	5.014
604.76	5.272
605.09	4.500
605.42	4.874
605.75	5.215
606.09	4.717
606.42	4.577
606.75	4.479
607.09	5.316
607.42	4.365
607.75	4.726
608.08	4.516
608.42	5.424
608.75	4.959
609.08	4.810
609.41	4.998
609.75	5.193
610.08	5.702
610.41	4.609
610.74	5.061
611.07	4.200
611.41	4.269
611.74	6.083
612.07	5.383
612.40	5.456
612.73	5.158
613.07	5.119
613.40	5.371
613.73	5.034
614.06	5.161
614.39	5.558
614.72	5.316
615.06	5.725
615.39	5.308
615.72	5.317
616.05	4.413
616.38	5.725
616.71	5.760
617.05	5.889
617.38	5.232
617.71	5.526
618.04	5.709
618.37	5.855
618.70	5.912
619.03	6.645
619.36	6.110
619.69	5.986
620.03	5.975
620.36	7.086
620.69	6.644
621.02	6.637
621.35	5.638
621.68	6.542
622.01	6.502
622.34	7.262
622.67	6.084
623.00	5.723
623.33	5.933
623.66	6.290
623.99	6.333
624.32	6.847
624.65	6.215
624.99	5.241
625.32	5.793
625.65	6.461
625.98	6.303
626.31	6.998
626.64	6.612
626.97	7.315
627.30	5.486
627.63	8.039
627.96	7.653
628.29	6.999
628.62	7.136
628.95	7.453
629.28	7.117
629.61	7.974
629.94	6.952
630.26	7.245
630.59	8.198
630.92	6.513
631.25	6.120
631.58	7.508
631.91	7.404
632.24	8.333
632.57	7.030
632.90	7.785
633.23	7.606
633.56	8.927
633.89	8.381
634.22	7.719
634.55	8.757
634.88	7.904
635.20	8.841
635.53	7.831
635.86	8.663
636.19	9.176
636.52	8.420
636.85	9.049
637.18	7.719
637.51	8.983
637.83	5.795
638.16	8.824
638.49	9.068
638.82	8.470
639.15	9.250
639.48	8.603
639.81	9.920
640.13	10.026
640.46	9.933
640.79	9.379
641.12	7.840
641.45	8.380
641.77	10.162
642.10	9.795
642.43	9.910
642.76	8.514
643.09	9.969
643.41	9.408
643.74	12.809
644.07	10.518
644.40	10.583
644.73	12.283
645.05	11.569
645.38	11.532
645.71	8.696
646.04	9.967
646.36	13.856
646.69	11.371
647.02	10.714
647.35	11.684
647.67	12.212
648.00	11.545
648.33	11.056
648.66	8.788
648.98	11.094
649.31	7.922
649.64	9.865
649.96	10.879
650.29	9.953
650.62	9.061
650.94	11.507
651.27	11.824
651.60	12.479
651.92	11.821
652.25	9.446
652.58	10.436
652.90	9.163
653.23	8.629
653.56	10.079
653.88	10.935
654.21	11.374
654.54	9.241
654.86	10.592
655.19	9.865
655.52	4.483
655.84	2.631
656.17	2.870
656.49	3.725
656.82	3.794
657.15	3.044
657.47	2.300
657.80	2.036
658.13	2.069
658.45	3.248
658.78	3.273
659.10	3.779
659.43	4.221
659.75	4.600
660.08	5.190
660.41	6.704
660.73	10.292
661.06	11.306
661.38	12.545
661.71	13.462
662.03	13.215
662.36	10.736
662.68	12.048
663.01	13.737
663.33	12.102
663.66	10.924
663.98	13.823
664.31	12.395
664.63	11.741
664.96	10.262
665.28	13.525
665.61	12.671
665.93	9.859
666.26	10.345
666.58	13.808
666.91	14.588
667.23	13.483
667.56	13.175
667.88	15.812
668.21	15.352
668.53	11.714
668.86	12.338
669.18	13.646
669.50	12.391
669.83	16.122
670.15	15.778
670.48	14.597
670.80	12.716
671.13	14.437
671.45	11.489
671.77	13.238
672.10	12.939
672.42	12.367
672.75	12.106
673.07	10.035
673.39	9.584
673.72	11.133
674.04	9.608
674.37	13.592
674.69	10.429
675.01	12.552
675.34	16.016
675.66	14.526
675.98	12.627
676.31	11.765
676.63	12.739
676.95	11.740
677.28	11.682
677.60	10.769
677.92	14.346
678.25	14.784
678.57	11.554
678.89	12.224
679.22	11.984
679.54	11.069
679.86	11.560
680.18	10.018
680.51	10.638
680.83	12.278
681.15	12.642
681.48	11.342
681.80	11.412
682.12	12.452
682.44	9.865
682.77	13.646
683.09	15.665
683.41	13.304
683.73	13.024
684.06	14.669
684.38	13.112
684.70	12.597
685.02	12.008
685.34	9.707
685.67	9.615
685.99	10.481
686.31	11.092
686.63	10.247
686.96	10.536
687.28	10.469
687.60	9.964
687.92	12.614
688.24	12.357
688.56	13.454
688.89	13.693
689.21	12.445
689.53	12.109
689.85	13.082
690.17	10.973
690.49	15.287
690.82	12.850
691.14	12.723
691.46	10.549
691.78	13.454
692.10	13.843
692.42	14.371
692.74	9.751
693.06	13.830
693.39	12.731
693.71	12.882
694.03	13.053
694.35	11.688
694.67	12.815
694.99	16.098
695.31	11.765
695.63	15.789
695.95	14.914
696.27	11.421
696.59	12.435
696.91	15.803
697.23	11.737
697.56	14.286
697.88	10.020
698.20	12.083
698.52	11.613
698.84	12.027
699.16	13.134
699.48	12.352
699.80	16.667
700.12	17.143
700.44	16.711
700.76	16.022
701.08	14.655
701.40	16.201
701.72	14.869
702.04	19.602
702.36	14.164
702.68	17.564
703.00	17.729
703.32	15.691
703.64	17.426
703.96	14.763
704.28	15.116
704.60	14.956
704.91	17.211
705.23	20.821
705.55	16.611
705.87	18.272
706.19	16.608
706.51	19.315
706.83	18.182
707.15	18.768
707.47	12.374
707.79	15.233
708.11	14.384
708.43	13.810
708.74	11.990
709.06	15.325
709.38	15.223
709.70	17.733
710.02	15.430
710.34	13.939
710.66	18.507
710.98	20.170
711.29	16.860
711.61	20.354
711.93	16.026
712.25	19.936
712.57	15.441
712.89	17.647
713.20	21.581
713.52	18.092
713.84	18.354
714.16	18.598
714.48	16.379
714.80	19.757
715.11	15.562
715.43	16.914
715.75	16.232
716.07	16.933
716.39	14.107
716.70	20.266
717.02	17.986
717.34	18.728
717.66	20.522
717.97	18.725
718.29	20.000
718.61	18.978
718.93	19.118
719.24	18.339
719.56	20.339
719.88	21.017
720.20	18.243
720.51	19.512
720.83	21.561
721.15	19.776
721.46	21.986
721.78	20.430
722.10	21.132
722.42	21.429
722.73	19.850
723.05	17.623
723.37	19.838
723.68	22.008
724.00	19.106
724.32	19.758
724.63	21.951
724.95	20.921
725.27	26.316
725.58	21.094
725.90	24.088
726.22	21.887
726.53	20.139
726.85	21.502
727.16	19.929
727.48	21.986
727.80	18.561
728.11	24.638
728.43	20.000
728.74	18.638
729.06	21.168
729.38	21.691
729.69	20.641
730.01	17.065
730.32	19.444
730.64	20.736
730.96	19.472
731.27	20.199
731.59	17.431
731.90	16.618
732.22	15.217
732.53	17.337
732.85	20.513
733.16	17.042
733.48	17.940
733.80	19.481
734.11	19.108
734.43	17.751
734.74	14.571
735.06	15.759
735.37	17.341
735.69	15.287
736.00	21.242
736.32	21.184
736.63	17.572
736.95	19.169
737.26	12.245
737.58	17.097
737.89	19.398
738.21	21.160
738.52	22.143
738.83	21.509
739.15	23.846
739.46	24.453
739.78	19.792
740.09	19.692
740.41	19.355
740.72	18.815
741.04	17.407
741.35	22.083
741.66	28.889
741.98	22.170
742.29	26.316
742.61	31.034
742.92	22.624
743.23	22.222
743.55	20.000
743.86	25.000
744.18	26.106
744.49	23.445
744.80	25.822
745.12	26.818
745.43	21.145
745.74	28.829
746.06	23.394
746.37	28.251
746.68	27.149
747.00	30.093
747.31	29.048
747.62	21.681
747.94	19.383
748.25	19.574
748.56	28.634
748.88	27.228
749.19	32.000
749.50	23.721
749.82	23.984
750.13	23.265
750.44	22.993
750.75	22.105
751.07	21.543
751.38	21.951
751.69	19.856
752.01	18.797
752.32	17.329
752.63	18.440
752.94	22.131
753.26	23.600
753.57	18.699
753.88	25.391
754.19	18.214
754.51	22.222
754.82	19.856
755.13	22.264
755.44	22.180
755.75	19.708
756.07	18.085
756.38	17.153
756.69	21.141
757.00	16.467
757.31	20.178
757.63	15.497
757.94	12.869
758.25	14.216
758.56	12.346
758.87	13.978
759.18	20.606
759.50	18.182
759.81	17.134
760.12	15.937
760.43	18.338
760.74	14.674
761.05	19.492
761.36	15.241
761.67	17.045
761.99	16.770
762.30	20.486
762.61	19.466
762.92	24.609
763.23	24.370
763.54	26.000
763.85	20.703
764.16	27.308
764.47	28.137
764.78	16.961
765.10	16.139
765.41	18.879
765.72	18.862
766.03	17.555
766.34	20.000
766.65	25.532
766.96	24.786
767.27	31.472
767.58	29.688
767.89	33.684
768.20	25.862
768.51	27.411
768.82	27.064
769.13	19.919
769.44	24.696
769.75	20.601
770.06	18.349
770.37	25.339
770.68	26.389
770.99	23.556
771.30	23.361
771.61	21.973
771.92	25.820
772.23	27.731
772.54	22.564
772.85	32.461
773.16	25.532
773.47	35.326
773.78	31.472
774.09	27.381
774.39	32.164
774.70	33.951
775.01	34.783
775.32	34.641
775.63	38.816
775.94	37.410
776.25	40.945
776.56	45.522
776.87	39.344
777.18	45.313
777.48	37.405
777.79	43.182
778.10	36.296
778.41	45.536
778.72	34.307
779.03	34.228
779.34	32.886
779.65	34.459
779.95	31.902
780.26	33.987
780.57	35.172
780.88	45.312
781.19	42.105
781.50	38.514
781.80	35.220
782.11	32.203
782.42	24.051
782.73	31.902
783.04	39.189
783.34	35.211
783.65	45.890
783.96	46.269
784.27	29.371
784.57	31.655
784.88	29.630
785.19	49.206
785.50	33.019
785.81	50.746
786.11	47.541
786.42	48.837
786.73	45.133
787.04	55.660
787.34	50.893
787.65	50.000
787.96	39.640
788.26	42.149
788.57	46.610
788.88	44.628
789.19	44.444
789.49	43.182
789.80	42.748
790.11	51.429
790.41	58.416
790.72	54.217
791.03	59.783
791.33	62.791
791.64	50.515
791.95	52.475
792.25	73.333
792.56	63.636
792.87	65.385
793.17	74.684
793.48	57.471
793.79	59.770
794.09	56.818
794.40	40.336
794.70	49.265
795.01	34.815
795.32	36.691
795.62	44.882
795.93	40.517
796.23	44.248
796.54	55.294
796.85	64.865
797.15	87.324
797.46	66.667
797.76	72.289
798.07	60.759
798.37	63.077
798.68	83.333
798.99	61.972
799.29	68.831
799.60	45.455
799.90	84.932
800.21	67.164
800.51	68.966
800.82	89.474
801.12	73.770
801.43	89.394
801.73	72.973
802.04	77.778
802.34	88.889
802.65	84.375
802.95	98.305
803.26	89.063
803.56	64.286
803.87	76.923
804.17	77.941
804.48	101.852
804.78	75.862
805.09	80.882
805.39	75.000
805.70	82.143
806.00	86.885
806.30	81.818
806.61	70.732
806.91	58.228
807.22	63.158
807.52	61.194
807.83	78.873
808.13	76.563
808.43	88.333
808.74	56.579
809.04	82.609
809.35	80.597
809.65	93.421
809.95	72.581
810.26	94.915
810.56	84.127
810.86	111.364
811.17	126.190
811.47	96.667
811.77	92.593
812.08	87.273
812.38	118.000
812.69	122.222
812.99	129.545
813.29	106.122
813.59	102.381
813.90	136.735
814.20	89.091
814.50	70.769
814.81	110.294
815.11	97.959
815.41	85.246
815.72	119.048
816.02	110.909
816.32	126.190
816.62	107.500
816.93	136.585
817.23	111.905
817.53	122.727
817.84	154.545
818.14	121.739
818.44	108.889
818.74	152.941
819.04	112.500
819.35	125.714
819.65	173.529
819.95	132.143
820.25	210.000
820.56	141.026
820.86	120.455
821.16	146.512
821.46	120.513
821.76	112.000
822.07	137.143
822.37	147.500
822.67	124.242
822.97	90.196
823.27	214.286
823.57	156.757
823.88	147.500
824.18	150.000
824.48	150.000
824.78	180.000
825.08	170.833
825.38	135.135
825.69	119.512
825.99	200.000
826.29	141.379
826.59	131.579
826.89	134.211
827.19	161.765
827.49	161.290
827.79	131.818
828.09	125.000
828.39	91.489
828.70	118.367
829.00	122.222
829.30	125.806
829.60	120.000
829.90	300.000
830.20	167.857
830.50	169.565
830.80	195.652
831.10	160.000
831.40	160.000
831.70	156.522
832.00	207.692
832.30	155.556
832.60	293.750
832.90	163.333
833.20	335.714
833.50	170.968
833.80	155.172
834.10	215.625
834.40	192.308
834.70	272.222
835.00	223.810
835.30	174.286
835.60	261.538
835.90	200.000
836.20	257.143
836.50	200.000
836.80	208.000
837.10	169.444
837.40	271.429
837.70	305.882
838.00	192.593
838.30	204.762
838.60	276.190
838.90	203.846
839.19	250.000
839.49	407.143
839.79	285.000
840.09	290.000
840.39	200.000
840.69	247.826
840.99	194.444
841.29	330.000
841.59	341.667
841.88	312.500
842.18	165.517
842.48	223.810
842.78	163.333
843.08	273.913
843.38	200.000
843.68	750.000
843.97	211.538
844.27	144.828
844.57	295.238
844.87	306.250
845.17	188.889
845.47	1300.000
845.76	488.889
846.06	300.000
846.36	575.000
846.66	328.571
846.96	312.500
847.25	363.636
847.55	500.000
847.85	260.870
848.15	420.000
848.44	378.571
848.74	261.111
849.04	305.882
849.34	520.000
849.63	289.474
849.93	418.182
850.23	1000.000
850.53	421.429
850.82	2350.000
851.12	-5200.000
851.42	3800.000
851.71	240.000
852.01	-1300.000
852.31	254.167
852.61	2000.000
852.90	238.095
853.20	216.000
853.50	329.412
853.79	209.524
854.09	162.500
854.39	243.750
854.68	140.541
854.98	154.839
855.28	183.333
855.57	186.207
855.87	203.704
856.17	273.684
856.46	173.333
856.76	335.294
857.05	237.931
857.35	229.167
857.65	340.000
857.94	226.087
858.24	215.385
858.53	295.000
858.83	240.909
859.13	373.333
859.42	0.000
859.72	500.000
860.01	381.818
860.31	245.455
860.60	242.105
860.90	208.696
861.20	655.556
861.49	483.333
861.79	-5200.000
862.08	725.000
862.38	257.143
862.67	269.231
862.97	358.824
863.26	611.111
863.56	244.444
863.85	441.667
864.15	512.500
864.44	413.333
864.74	816.667
865.03	612.500
865.33	294.737
865.62	400.000
865.92	407.692
866.21	325.000
866.51	0.000
866.80	418.182
867.10	1020.000
867.39	453.846
867.69	445.455
867.98	263.158
868.27	500.000
868.57	300.000
868.86	-3900.000
869.16	368.750
869.45	2100.000
869.75	-4700.000
870.04	475.000
870.33	657.143
870.63	1175.000
870.92	2450.000
871.22	828.571
871.51	305.882
871.80	219.048
872.10	364.286
>>>>>End Processed Spectral Data<<<<<
