SpectraSuite Data File
++++++++++++++++++++++++++++++++++++
Date: Wed May 13 16:40:49 PDT 2015
User: schluterlab
Dark Spectrum Present: Yes
Reference Spectrum Present: Yes
Number of Sampled Component Spectra: 1
Spectrometers: USB2E3373
Integration Time (usec): 3000 (USB2E3373)
Spectra Averaged: 3 (USB2E3373)
Boxcar Smoothing: 0 (USB2E3373)
Correct for Electrical Dark: No (USB2E3373)
Strobe/Lamp Enabled: No (USB2E3373)
Correct for Detector Non-linearity: No (USB2E3373)
Correct for Stray Light: No (USB2E3373)
Number of Pixels in Processed Spectrum: 2048
>>>>>Begin Processed Spectral Data<<<<<
178.53	0.000
178.91	-1175.000
179.29	-1375.000
179.67	-261.111
180.04	-1425.000
180.42	3050.000
180.80	1000.000
181.18	-1200.000
181.56	571.429
181.94	0.000
182.31	-600.000
182.69	1833.333
183.07	-637.500
183.45	-522.222
183.83	554.545
184.20	-450.000
184.58	2450.000
184.96	4700.000
185.34	-700.000
185.72	-650.000
186.09	-2200.000
186.47	2450.000
186.85	2400.000
187.23	5700.000
187.61	-1900.000
187.98	1450.000
188.36	500.000
188.74	481.818
189.12	-860.000
189.49	650.000
189.87	-5600.000
190.25	-1275.000
190.63	392.857
191.00	476.923
191.38	816.667
191.76	-1225.000
192.14	1325.000
192.51	650.000
192.89	1016.667
193.27	700.000
193.65	-1150.000
194.02	630.000
194.40	1000.000
194.78	550.000
195.15	516.667
195.53	650.000
195.91	-2450.000
196.29	306.250
196.66	342.105
197.04	-430.000
197.42	0.000
197.79	690.000
198.17	-4600.000
198.55	685.714
198.92	637.500
199.30	940.000
199.68	0.000
200.05	350.000
200.43	671.429
200.81	5000.000
201.18	1933.333
201.56	-1566.667
201.94	600.000
202.31	633.333
202.69	466.667
203.07	540.000
203.44	0.000
203.82	1200.000
204.19	814.286
204.57	442.857
204.95	687.500
205.32	1533.333
205.70	500.000
206.08	407.143
206.45	2600.000
206.83	400.000
207.20	816.667
207.58	760.000
207.96	361.111
208.33	725.000
208.71	-833.333
209.08	728.571
209.46	577.778
209.84	463.636
210.21	-1566.667
210.59	1550.000
210.96	-437.500
211.34	2700.000
211.71	610.000
212.09	900.000
212.46	0.000
212.84	1833.333
213.22	1350.000
213.59	-3900.000
213.97	883.333
214.34	900.000
214.72	563.636
215.09	1160.000
215.47	-2400.000
215.84	-2400.000
216.22	1633.333
216.59	407.143
216.97	1300.000
217.34	509.091
217.72	-666.667
218.09	0.000
218.47	-5000.000
218.84	588.889
219.22	871.429
219.59	1900.000
219.97	-714.286
220.34	960.000
220.72	-1900.000
221.09	428.571
221.47	1500.000
221.84	-900.000
222.22	0.000
222.59	1325.000
222.97	-2450.000
223.34	1080.000
223.72	400.000
224.09	1180.000
224.46	2400.000
224.84	-4700.000
225.21	-780.000
225.59	-4700.000
225.96	620.000
226.34	325.000
226.71	2800.000
227.08	675.000
227.46	580.000
227.83	-1250.000
228.21	-2000.000
228.58	533.333
228.95	-2350.000
229.33	-2350.000
229.70	2033.333
230.08	871.429
230.45	-960.000
230.82	441.667
231.20	866.667
231.57	657.143
231.95	466.667
232.32	222.727
232.69	445.455
233.07	728.571
233.44	400.000
233.81	-1600.000
234.19	315.789
234.56	441.667
234.93	400.000
235.31	445.455
235.68	415.385
236.05	342.857
236.43	193.939
236.80	263.158
237.17	5400.000
237.55	233.333
237.92	214.286
238.29	209.524
238.67	174.194
239.04	175.862
239.41	152.778
239.79	110.870
240.16	147.619
240.53	143.182
240.91	113.725
241.28	112.000
241.65	106.000
242.02	89.855
242.40	96.774
242.77	86.667
243.14	69.892
243.51	67.416
243.89	69.412
244.26	56.667
244.63	56.989
245.00	53.191
245.38	60.396
245.75	56.075
246.12	48.624
246.49	60.584
246.87	47.200
247.24	48.462
247.61	52.857
247.98	49.673
248.36	40.541
248.73	43.312
249.10	43.949
249.47	40.113
249.84	46.524
250.22	37.433
250.59	34.320
250.96	33.838
251.33	36.967
251.70	39.604
252.08	34.762
252.45	35.874
252.82	34.348
253.19	33.617
253.56	32.549
253.94	32.365
254.31	30.078
254.68	33.846
255.05	29.889
255.42	28.455
255.79	30.515
256.16	29.603
256.54	32.155
256.91	31.673
257.28	24.460
257.65	26.403
258.02	25.155
258.39	27.129
258.76	26.087
259.14	28.869
259.51	26.140
259.88	23.913
260.25	26.586
260.62	24.277
260.99	24.534
261.36	29.429
261.73	23.209
262.10	25.000
262.47	26.761
262.85	23.120
263.22	21.937
263.59	25.356
263.96	26.099
264.33	25.065
264.70	23.947
265.07	25.064
265.44	22.475
265.81	21.168
266.18	23.869
266.55	20.732
266.92	24.324
267.29	24.074
267.66	23.165
268.03	22.500
268.40	24.299
268.77	22.434
269.14	21.847
269.51	24.379
269.88	22.378
270.25	23.025
270.62	21.124
270.99	20.860
271.36	23.391
271.73	20.794
272.10	21.739
272.47	22.151
272.84	21.429
273.21	23.270
273.58	19.432
273.95	19.706
274.32	20.455
274.69	20.557
275.06	20.276
275.43	20.213
275.80	18.637
276.17	19.959
276.54	22.245
276.91	20.356
277.28	19.141
277.65	20.696
278.02	19.255
278.39	22.070
278.76	18.545
279.13	20.943
279.50	18.994
279.87	17.131
280.23	19.361
280.60	18.569
280.97	19.224
281.34	21.416
281.71	19.636
282.08	19.002
282.45	18.545
282.82	19.538
283.19	19.251
283.56	20.175
283.92	17.766
284.29	17.108
284.66	18.330
285.03	16.998
285.40	18.838
285.77	17.340
286.14	17.617
286.51	19.667
286.87	18.632
287.24	19.055
287.61	17.657
287.98	17.045
288.35	17.433
288.72	16.822
289.08	19.718
289.45	18.287
289.82	18.211
290.19	16.484
290.56	15.008
290.93	16.314
291.29	16.871
291.66	17.552
292.03	19.041
292.40	17.327
292.77	15.828
293.13	17.463
293.50	15.889
293.87	14.815
294.24	16.296
294.60	14.119
294.97	15.843
295.34	16.502
295.71	16.761
296.08	15.527
296.44	14.168
296.81	14.399
297.18	14.770
297.55	13.193
297.91	13.984
298.28	16.734
298.65	15.274
299.02	13.966
299.38	11.819
299.75	12.129
300.12	12.899
300.48	13.875
300.85	12.947
301.22	15.032
301.59	12.626
301.95	15.491
302.32	13.350
302.69	13.978
303.05	12.848
303.42	13.210
303.79	13.817
304.15	11.655
304.52	13.441
304.89	13.821
305.25	12.413
305.62	13.477
305.99	14.876
306.35	12.975
306.72	13.341
307.09	12.542
307.45	14.640
307.82	12.277
308.19	13.907
308.55	14.455
308.92	14.071
309.29	13.305
309.65	12.937
310.02	12.474
310.38	13.226
310.75	13.200
311.12	13.920
311.48	13.375
311.85	13.103
312.22	13.319
312.58	13.410
312.95	12.566
313.31	11.262
313.68	13.721
314.05	15.187
314.41	13.266
314.78	14.199
315.14	14.101
315.51	14.212
315.87	13.861
316.24	13.704
316.61	13.938
316.97	14.188
317.34	14.873
317.70	15.966
318.07	14.918
318.43	15.753
318.80	15.276
319.16	15.443
319.53	14.259
319.89	17.238
320.26	18.200
320.62	17.460
320.99	17.273
321.35	18.283
321.72	19.815
322.08	19.842
322.45	19.900
322.81	21.996
323.18	20.424
323.54	20.315
323.91	22.075
324.27	23.709
324.64	21.901
325.00	21.641
325.37	23.840
325.73	24.596
326.10	25.772
326.46	26.165
326.83	26.661
327.19	25.534
327.56	27.613
327.92	27.997
328.29	29.281
328.65	30.203
329.01	30.596
329.38	30.897
329.74	30.748
330.11	31.951
330.47	32.048
330.84	32.629
331.20	32.149
331.56	32.385
331.93	33.611
332.29	34.073
332.66	34.956
333.02	33.821
333.38	33.514
333.75	35.294
334.11	34.609
334.48	35.226
334.84	36.305
335.20	36.091
335.57	34.270
335.93	36.786
336.29	35.073
336.66	35.798
337.02	34.842
337.38	36.111
337.75	34.848
338.11	35.989
338.47	35.267
338.84	37.580
339.20	36.514
339.56	37.682
339.93	36.636
340.29	36.504
340.65	36.542
341.02	37.173
341.38	37.456
341.74	37.632
342.11	38.428
342.47	36.916
342.83	37.842
343.20	37.229
343.56	36.563
343.92	36.842
344.28	37.075
344.65	37.747
345.01	35.774
345.37	35.077
345.73	36.125
346.10	37.681
346.46	37.542
346.82	37.974
347.19	36.591
347.55	37.110
347.91	37.864
348.27	38.702
348.63	37.625
349.00	36.489
349.36	37.110
349.72	37.049
350.08	36.062
350.45	36.290
350.81	37.693
351.17	38.250
351.53	37.101
351.89	36.716
352.26	37.648
352.62	38.492
352.98	36.872
353.34	38.209
353.70	38.380
354.07	38.871
354.43	36.032
354.79	37.570
355.15	37.350
355.51	37.650
355.87	38.612
356.24	38.274
356.60	37.289
356.96	38.455
357.32	38.594
357.68	37.402
358.04	37.609
358.40	38.401
358.77	38.732
359.13	37.569
359.49	38.118
359.85	38.571
360.21	37.321
360.57	38.755
360.93	37.769
361.29	37.415
361.66	38.080
362.02	38.284
362.38	38.023
362.74	39.509
363.10	38.416
363.46	37.711
363.82	38.624
364.18	39.060
364.54	39.896
364.90	37.323
365.26	39.706
365.62	39.299
365.98	38.568
366.35	38.037
366.71	39.624
367.07	39.257
367.43	39.985
367.79	39.971
368.15	39.871
368.51	38.372
368.87	40.257
369.23	40.015
369.59	40.188
369.95	38.676
370.31	38.604
370.67	39.420
371.03	39.925
371.39	40.743
371.75	40.956
372.11	40.398
372.47	41.276
372.83	41.427
373.19	40.679
373.55	41.242
373.91	41.532
374.27	40.069
374.63	39.855
374.99	42.090
375.35	40.614
375.71	40.918
376.07	41.221
376.42	41.884
376.78	41.882
377.14	41.927
377.50	42.583
377.86	40.492
378.22	41.909
378.58	40.414
378.94	40.918
379.30	42.239
379.66	41.942
380.02	42.199
380.38	42.380
380.74	42.737
381.09	42.237
381.45	42.348
381.81	43.366
382.17	42.739
382.53	41.950
382.89	43.519
383.25	42.902
383.61	44.300
383.97	43.340
384.32	42.857
384.68	43.432
385.04	43.823
385.40	41.548
385.76	43.366
386.12	43.394
386.48	43.549
386.83	44.580
387.19	44.156
387.55	44.218
387.91	44.619
388.27	42.735
388.62	43.147
388.98	43.673
389.34	43.179
389.70	43.777
390.06	44.867
390.42	44.423
390.77	44.593
391.13	43.650
391.49	44.860
391.85	43.157
392.20	43.785
392.56	44.949
392.92	44.556
393.28	43.787
393.64	44.544
393.99	43.677
394.35	43.797
394.71	43.664
395.07	43.738
395.42	44.376
395.78	44.020
396.14	43.451
396.50	45.677
396.85	45.010
397.21	44.636
397.57	42.715
397.92	44.351
398.28	43.666
398.64	44.863
399.00	44.208
399.35	41.794
399.71	43.287
400.07	44.175
400.42	43.926
400.78	44.632
401.14	44.085
401.49	44.836
401.85	43.315
402.21	43.473
402.57	44.232
402.92	43.758
403.28	43.223
403.63	43.998
403.99	44.204
404.35	43.758
404.70	43.046
405.06	43.157
405.42	43.481
405.77	43.371
406.13	43.397
406.49	43.643
406.84	43.178
407.20	42.258
407.55	44.097
407.91	44.600
408.27	44.671
408.62	43.046
408.98	42.034
409.34	42.743
409.69	42.839
410.05	42.875
410.40	43.303
410.76	42.891
411.11	42.340
411.47	42.748
411.83	44.227
412.18	42.857
412.54	43.400
412.89	42.410
413.25	43.093
413.60	43.113
413.96	42.744
414.31	42.588
414.67	42.522
415.03	42.781
415.38	42.526
415.74	42.958
416.09	43.044
416.45	43.440
416.80	43.358
417.16	43.164
417.51	44.061
417.87	42.389
418.22	42.208
418.58	43.577
418.93	42.998
419.29	43.539
419.64	44.018
420.00	42.622
420.35	43.362
420.71	43.216
421.06	42.005
421.42	42.573
421.77	42.209
422.12	42.223
422.48	41.554
422.83	42.400
423.19	42.597
423.54	43.877
423.90	42.725
424.25	42.546
424.61	43.095
424.96	41.808
425.31	42.691
425.67	41.348
426.02	42.057
426.38	44.078
426.73	42.657
427.09	42.736
427.44	42.783
427.79	41.806
428.15	42.738
428.50	43.476
428.85	43.802
429.21	42.573
429.56	42.613
429.92	42.224
430.27	41.807
430.62	41.321
430.98	42.034
431.33	42.165
431.68	42.723
432.04	41.640
432.39	42.661
432.74	43.088
433.10	43.294
433.45	43.907
433.80	42.849
434.16	42.682
434.51	42.158
434.86	43.273
435.22	43.969
435.57	42.979
435.92	42.774
436.28	43.060
436.63	43.046
436.98	42.816
437.34	43.113
437.69	43.407
438.04	44.126
438.39	42.925
438.75	43.696
439.10	43.128
439.45	43.329
439.81	43.867
440.16	43.196
440.51	42.999
440.86	44.065
441.22	42.992
441.57	43.577
441.92	41.709
442.27	42.949
442.63	42.759
442.98	43.380
443.33	43.478
443.68	42.695
444.03	42.997
444.39	41.529
444.74	43.506
445.09	42.480
445.44	42.810
445.79	43.840
446.15	42.986
446.50	42.703
446.85	42.549
447.20	42.631
447.55	42.881
447.91	43.078
448.26	43.183
448.61	43.245
448.96	44.574
449.31	44.488
449.66	43.613
450.02	43.844
450.37	43.311
450.72	43.204
451.07	43.632
451.42	41.945
451.77	44.216
452.12	43.360
452.47	43.408
452.83	43.240
453.18	43.643
453.53	43.599
453.88	42.410
454.23	43.515
454.58	45.003
454.93	43.929
455.28	43.080
455.63	43.568
455.98	45.238
456.34	43.342
456.69	43.206
457.04	43.715
457.39	43.951
457.74	43.471
458.09	43.818
458.44	42.930
458.79	41.866
459.14	43.567
459.49	43.841
459.84	42.881
460.19	42.133
460.54	41.840
460.89	42.457
461.24	43.230
461.59	42.824
461.94	42.170
462.29	43.739
462.64	43.012
462.99	42.681
463.34	43.733
463.69	43.089
464.04	43.652
464.39	42.783
464.74	42.068
465.09	42.340
465.44	41.828
465.79	41.946
466.14	41.762
466.49	41.713
466.84	42.323
467.19	41.219
467.54	41.688
467.89	42.137
468.24	42.699
468.59	42.552
468.94	42.089
469.29	43.123
469.64	43.106
469.99	44.249
470.34	42.008
470.68	43.606
471.03	41.973
471.38	43.711
471.73	43.571
472.08	43.882
472.43	42.274
472.78	43.120
473.13	42.619
473.48	42.821
473.83	41.646
474.17	42.377
474.52	43.362
474.87	43.374
475.22	41.904
475.57	40.838
475.92	41.370
476.27	42.221
476.61	41.589
476.96	41.726
477.31	41.078
477.66	42.670
478.01	40.826
478.36	41.830
478.70	41.433
479.05	41.800
479.40	42.119
479.75	41.281
480.10	41.700
480.45	41.218
480.79	41.089
481.14	40.705
481.49	41.338
481.84	40.512
482.19	41.209
482.53	40.367
482.88	40.856
483.23	40.561
483.58	40.946
483.92	41.987
484.27	39.739
484.62	40.043
484.97	39.535
485.31	40.103
485.66	39.381
486.01	36.864
486.36	35.611
486.70	34.517
487.05	35.679
487.40	37.130
487.75	37.788
488.09	38.247
488.44	38.759
488.79	40.506
489.13	40.413
489.48	41.069
489.83	40.268
490.17	40.202
490.52	39.947
490.87	39.937
491.22	39.882
491.56	40.000
491.91	39.786
492.26	39.320
492.60	40.507
492.95	39.476
493.30	39.626
493.64	40.271
493.99	39.786
494.34	39.500
494.68	39.652
495.03	40.555
495.37	39.181
495.72	39.912
496.07	40.603
496.41	39.115
496.76	39.446
497.11	39.847
497.45	38.891
497.80	40.355
498.14	40.145
498.49	40.683
498.84	38.782
499.18	38.905
499.53	39.459
499.87	38.816
500.22	40.085
500.56	40.097
500.91	39.663
501.26	39.118
501.60	40.152
501.95	38.726
502.29	39.878
502.64	39.106
502.98	39.271
503.33	38.665
503.67	38.840
504.02	39.008
504.36	39.214
504.71	39.814
505.06	39.373
505.40	39.183
505.75	38.332
506.09	38.824
506.44	39.467
506.78	38.529
507.13	39.980
507.47	40.152
507.82	38.602
508.16	39.108
508.51	39.574
508.85	38.977
509.19	38.827
509.54	38.980
509.88	38.846
510.23	38.766
510.57	39.370
510.92	39.772
511.26	38.643
511.61	39.108
511.95	39.040
512.30	39.077
512.64	40.355
512.98	39.014
513.33	39.882
513.67	38.847
514.02	38.582
514.36	40.197
514.70	40.177
515.05	39.208
515.39	39.091
515.74	39.583
516.08	40.693
516.42	39.234
516.77	39.967
517.11	38.957
517.46	39.391
517.80	40.012
518.14	38.332
518.49	39.265
518.83	39.261
519.17	39.723
519.52	39.162
519.86	39.532
520.20	39.595
520.55	40.096
520.89	40.633
521.23	40.109
521.58	39.376
521.92	40.171
522.26	38.804
522.61	40.436
522.95	39.779
523.29	39.684
523.64	40.305
523.98	39.803
524.32	38.299
524.66	39.687
525.01	39.461
525.35	39.467
525.69	38.485
526.04	39.813
526.38	39.353
526.72	38.589
527.06	40.176
527.41	37.686
527.75	39.743
528.09	40.270
528.43	39.133
528.78	39.336
529.12	38.545
529.46	39.375
529.80	39.480
530.15	38.754
530.49	38.215
530.83	38.481
531.17	40.144
531.51	40.402
531.86	39.419
532.20	39.113
532.54	39.142
532.88	39.602
533.22	38.663
533.57	37.840
533.91	38.290
534.25	38.578
534.59	37.889
534.93	36.347
535.27	37.115
535.62	37.668
535.96	38.293
536.30	38.080
536.64	37.991
536.98	38.023
537.32	38.183
537.66	38.400
538.01	37.525
538.35	38.526
538.69	38.736
539.03	37.622
539.37	37.444
539.71	35.904
540.05	38.301
540.39	38.140
540.73	37.646
541.07	38.157
541.42	38.291
541.76	38.194
542.10	37.646
542.44	37.020
542.78	38.538
543.12	36.852
543.46	38.230
543.80	37.541
544.14	38.062
544.48	37.397
544.82	36.818
545.16	37.020
545.50	37.853
545.84	37.970
546.18	37.710
546.52	38.403
546.86	37.526
547.20	38.233
547.54	38.009
547.88	37.436
548.22	35.803
548.56	36.352
548.90	36.236
549.24	36.229
549.58	37.312
549.92	37.431
550.26	39.347
550.60	37.621
550.94	38.028
551.28	37.089
551.62	37.527
551.96	36.491
552.30	37.952
552.64	37.120
552.98	37.763
553.32	37.964
553.66	37.628
554.00	36.994
554.34	35.956
554.68	38.054
555.02	37.165
555.36	37.439
555.69	35.792
556.03	36.137
556.37	37.585
556.71	35.471
557.05	37.395
557.39	37.369
557.73	36.556
558.07	37.346
558.41	36.541
558.75	36.370
559.08	37.435
559.42	36.810
559.76	37.353
560.10	36.188
560.44	36.967
560.78	35.196
561.12	36.082
561.45	35.984
561.79	36.256
562.13	35.815
562.47	36.544
562.81	36.750
563.15	35.652
563.48	36.340
563.82	35.682
564.16	35.775
564.50	35.221
564.84	35.651
565.17	35.328
565.51	35.144
565.85	35.787
566.19	35.003
566.52	35.972
566.86	35.142
567.20	35.259
567.54	34.247
567.88	33.786
568.21	34.497
568.55	33.873
568.89	33.755
569.23	32.442
569.56	31.377
569.90	31.472
570.24	30.965
570.57	30.738
570.91	30.769
571.25	30.049
571.59	29.867
571.92	30.069
572.26	29.636
572.60	29.910
572.93	29.985
573.27	30.494
573.61	30.290
573.95	29.767
574.28	28.794
574.62	29.276
574.96	28.937
575.29	28.661
575.63	28.633
575.97	29.055
576.30	29.580
576.64	29.265
576.98	29.509
577.31	28.766
577.65	28.382
577.98	27.945
578.32	28.018
578.66	28.050
578.99	29.103
579.33	29.000
579.67	28.582
580.00	28.698
580.34	29.022
580.67	29.095
581.01	28.334
581.35	28.186
581.68	27.934
582.02	27.584
582.35	27.577
582.69	27.591
583.02	27.956
583.36	29.237
583.70	28.846
584.03	28.971
584.37	29.012
584.70	29.754
585.04	28.816
585.37	28.635
585.71	28.125
586.04	28.461
586.38	29.206
586.72	29.495
587.05	28.634
587.39	28.443
587.72	28.755
588.06	28.842
588.39	28.944
588.73	29.510
589.06	30.383
589.40	30.000
589.73	30.025
590.07	30.142
590.40	28.973
590.73	30.757
591.07	31.095
591.40	30.325
591.74	31.299
592.07	31.457
592.41	30.178
592.74	29.625
593.08	29.114
593.41	28.757
593.75	28.420
594.08	28.729
594.41	29.551
594.75	29.834
595.08	28.883
595.42	29.492
595.75	29.131
596.09	29.478
596.42	29.784
596.75	30.604
597.09	30.823
597.42	29.637
597.75	30.272
598.09	30.826
598.42	30.112
598.76	29.793
599.09	28.772
599.42	29.076
599.76	29.026
600.09	28.488
600.42	28.232
600.76	28.607
601.09	28.342
601.42	29.110
601.76	28.994
602.09	28.735
602.42	29.100
602.76	29.182
603.09	28.914
603.42	28.895
603.76	28.925
604.09	28.422
604.42	29.026
604.76	30.156
605.09	29.795
605.42	29.585
605.75	29.719
606.09	29.077
606.42	29.751
606.75	29.034
607.09	28.882
607.42	28.969
607.75	28.312
608.08	29.440
608.42	29.449
608.75	29.306
609.08	29.047
609.41	29.177
609.75	30.205
610.08	29.783
610.41	29.004
610.74	30.558
611.07	30.089
611.41	30.422
611.74	30.266
612.07	30.176
612.40	30.483
612.73	30.158
613.07	31.034
613.40	30.068
613.73	29.470
614.06	29.194
614.39	30.624
614.72	29.421
615.06	30.567
615.39	29.406
615.72	29.294
616.05	30.197
616.38	29.850
616.71	31.413
617.05	31.802
617.38	31.088
617.71	30.811
618.04	31.310
618.37	31.106
618.70	31.301
619.03	31.579
619.36	31.772
619.69	31.197
620.03	32.074
620.36	30.949
620.69	31.712
621.02	32.227
621.35	32.968
621.68	32.009
622.01	31.734
622.34	32.526
622.67	31.331
623.00	31.328
623.33	31.523
623.66	30.951
623.99	30.928
624.32	30.599
624.65	32.627
624.99	31.586
625.32	29.833
625.65	32.156
625.98	33.436
626.31	32.271
626.64	33.469
626.97	33.500
627.30	31.505
627.63	33.388
627.96	32.464
628.29	33.596
628.62	34.126
628.95	35.377
629.28	33.759
629.61	32.814
629.94	33.143
630.26	33.174
630.59	33.556
630.92	33.621
631.25	33.564
631.58	33.233
631.91	33.874
632.24	32.806
632.57	35.047
632.90	35.746
633.23	35.235
633.56	35.706
633.89	34.881
634.22	34.847
634.55	35.858
634.88	35.928
635.20	35.842
635.53	37.831
635.86	36.757
636.19	35.294
636.52	36.563
636.85	35.395
637.18	33.871
637.51	35.697
637.83	33.292
638.16	36.445
638.49	36.902
638.82	38.432
639.15	35.750
639.48	36.160
639.81	35.389
640.13	36.849
640.46	36.242
640.79	36.460
641.12	34.525
641.45	35.615
641.77	36.524
642.10	36.404
642.43	38.589
642.76	38.080
643.09	37.883
643.41	38.240
643.74	37.809
644.07	37.805
644.40	40.491
644.73	39.370
645.05	38.193
645.38	38.863
645.71	39.452
646.04	40.033
646.36	40.902
646.69	40.134
647.02	38.265
647.35	39.863
647.67	39.115
648.00	38.537
648.33	36.469
648.66	37.576
648.98	36.432
649.31	36.323
649.64	36.472
649.96	35.171
650.29	39.021
650.62	36.246
650.94	38.250
651.27	40.034
651.60	40.266
651.92	37.061
652.25	35.179
652.58	36.137
652.90	38.389
653.23	35.285
653.56	36.063
653.88	37.718
654.21	35.861
654.54	37.459
654.86	37.850
655.19	33.243
655.52	23.252
655.84	19.317
656.17	24.760
656.49	33.441
656.82	34.315
657.15	26.535
657.47	19.925
657.80	15.667
658.13	16.846
658.45	25.076
658.78	25.939
659.10	27.193
659.43	29.170
659.75	30.773
660.08	33.038
660.41	37.244
660.73	39.136
661.06	38.854
661.38	41.091
661.71	39.615
662.03	39.842
662.36	39.364
662.68	40.562
663.01	41.616
663.33	38.854
663.66	39.286
663.98	39.525
664.31	39.496
664.63	37.652
664.96	37.827
665.28	39.139
665.61	36.842
665.93	38.431
666.26	39.148
666.58	40.377
666.91	39.535
667.23	41.348
667.56	39.741
667.88	41.453
668.21	43.497
668.53	40.564
668.86	40.043
669.18	41.365
669.50	38.478
669.83	42.919
670.15	43.111
670.48	37.691
670.80	42.241
671.13	43.737
671.45	40.213
671.77	38.697
672.10	39.002
672.42	36.396
672.75	33.831
673.07	35.739
673.39	37.071
673.72	36.133
674.04	34.902
674.37	38.252
674.69	39.877
675.01	40.377
675.34	37.577
675.66	40.211
675.98	38.493
676.31	39.706
676.63	40.552
676.95	38.365
677.28	39.019
677.60	40.000
677.92	40.295
678.25	37.988
678.57	36.056
678.89	38.277
679.22	36.739
679.54	37.214
679.86	36.147
680.18	35.063
680.51	37.057
680.83	37.544
681.15	36.792
681.48	37.996
681.80	37.911
682.12	36.398
682.44	37.331
682.77	37.678
683.09	40.129
683.41	40.355
683.73	39.073
684.06	37.603
684.38	37.769
684.70	38.178
685.02	38.086
685.34	36.630
685.67	31.294
685.99	33.505
686.31	33.276
686.63	35.866
686.96	35.893
687.28	33.935
687.60	34.783
687.92	37.477
688.24	37.262
688.56	35.743
688.89	37.759
689.21	37.773
689.53	38.622
689.85	39.690
690.17	37.267
690.49	40.977
690.82	38.785
691.14	34.821
691.46	36.920
691.78	37.751
692.10	39.463
692.42	36.128
692.74	35.892
693.06	36.809
693.39	37.372
693.71	37.118
694.03	37.895
694.35	35.065
694.67	32.494
694.99	40.976
695.31	39.706
695.63	39.234
695.95	40.587
696.27	37.056
696.59	41.969
696.91	41.969
697.23	37.559
697.56	36.674
697.88	31.902
698.20	35.417
698.52	34.194
698.84	39.421
699.16	37.327
699.48	37.292
699.80	41.063
700.12	43.117
700.44	43.501
700.76	39.779
701.08	41.954
701.40	40.503
701.72	44.023
702.04	47.443
702.36	40.510
702.68	41.076
703.00	40.997
703.32	36.436
703.64	36.193
703.96	40.669
704.28	41.860
704.60	43.402
704.91	40.059
705.23	42.522
705.55	45.515
705.87	46.512
706.19	43.110
706.51	43.614
706.83	41.818
707.15	39.216
707.47	35.859
707.79	38.821
708.11	38.356
708.43	35.714
708.74	34.694
709.06	39.481
709.38	42.257
709.70	42.733
710.02	40.356
710.34	38.485
710.66	41.493
710.98	40.625
711.29	40.988
711.61	46.608
711.93	42.949
712.25	43.087
712.57	41.912
712.89	42.907
713.20	44.377
713.52	42.763
713.84	37.658
714.16	40.549
714.48	39.655
714.80	46.201
715.11	40.346
715.43	37.685
715.75	37.101
716.07	38.658
716.39	40.752
716.70	42.857
717.02	46.043
717.34	40.636
717.66	45.896
717.97	43.825
718.29	45.185
718.61	44.891
718.93	40.809
719.24	43.599
719.56	41.356
719.88	42.712
720.20	41.554
720.51	42.857
720.83	44.981
721.15	45.896
721.46	45.390
721.78	47.670
722.10	46.038
722.42	48.496
722.73	44.569
723.05	42.213
723.37	44.939
723.68	44.788
724.00	44.715
724.32	47.177
724.63	42.276
724.95	47.699
725.27	44.534
725.58	45.312
725.90	44.526
726.22	43.396
726.53	41.319
726.85	40.956
727.16	44.128
727.48	40.426
727.80	48.485
728.11	43.116
728.43	40.769
728.74	40.143
729.06	46.350
729.38	45.588
729.69	41.637
730.01	36.860
730.32	42.014
730.64	37.458
730.96	38.944
731.27	41.722
731.59	40.061
731.90	38.484
732.22	40.062
732.53	36.842
732.85	37.500
733.16	33.762
733.48	38.870
733.80	41.234
734.11	39.809
734.43	37.870
734.74	34.000
735.06	33.238
735.37	40.173
735.69	37.261
736.00	39.542
736.32	37.383
736.63	38.978
736.95	40.256
737.26	34.014
737.58	40.323
737.89	41.472
738.21	42.662
738.52	40.714
738.83	38.491
739.15	39.231
739.46	40.876
739.78	39.236
740.09	39.385
740.41	39.032
740.72	39.373
741.04	42.593
741.35	43.750
741.66	49.778
741.98	46.226
742.29	49.282
742.61	46.121
742.92	48.416
743.23	49.145
743.55	40.400
743.86	50.000
744.18	44.248
744.49	50.718
744.80	55.869
745.12	55.455
745.43	43.612
745.74	46.847
746.06	44.037
746.37	47.085
746.68	43.439
747.00	47.222
747.31	45.238
747.62	44.248
747.94	44.493
748.25	44.681
748.56	49.780
748.88	48.020
749.19	50.000
749.50	46.977
749.82	38.211
750.13	42.857
750.44	43.431
750.75	40.702
751.07	41.801
751.38	36.585
751.69	39.350
752.01	43.609
752.32	41.516
752.63	40.071
752.94	42.623
753.26	47.200
753.57	42.683
753.88	48.438
754.19	38.571
754.51	42.014
754.82	37.906
755.13	40.000
755.44	40.602
755.75	42.701
756.07	38.298
756.38	33.577
756.69	39.597
757.00	33.234
757.31	37.685
757.63	32.749
757.94	34.316
758.25	33.578
758.56	30.617
758.87	32.527
759.18	37.273
759.50	36.364
759.81	38.629
760.12	37.187
760.43	34.384
760.74	35.054
761.05	33.333
761.36	33.690
761.67	36.648
761.99	32.919
762.30	34.028
762.61	39.313
762.92	42.188
763.23	42.017
763.54	42.400
763.85	36.719
764.16	46.538
764.47	42.586
764.78	38.163
765.10	36.076
765.41	33.333
765.72	33.234
766.03	33.856
766.34	35.667
766.65	45.532
766.96	44.872
767.27	47.208
767.58	53.125
767.89	49.474
768.20	52.299
768.51	47.208
768.82	45.413
769.13	37.805
769.44	39.676
769.75	42.060
770.06	41.743
770.37	44.796
770.68	44.907
770.99	42.667
771.30	38.115
771.61	43.946
771.92	45.492
772.23	44.538
772.54	48.205
772.85	46.597
773.16	53.191
773.47	50.000
773.78	46.193
774.09	57.143
774.39	53.216
774.70	53.086
775.01	58.696
775.32	53.595
775.63	54.605
775.94	51.079
776.25	63.780
776.56	64.179
776.87	61.475
777.18	59.375
777.48	68.702
777.79	64.394
778.10	63.704
778.41	67.857
778.72	49.635
779.03	51.678
779.34	55.705
779.65	52.703
779.95	56.442
780.26	58.170
780.57	55.172
780.88	60.937
781.19	60.902
781.50	58.108
781.80	50.943
782.11	47.458
782.42	46.835
782.73	47.853
783.04	46.622
783.34	52.113
783.65	64.384
783.96	57.463
784.27	50.350
784.57	52.518
784.88	54.630
785.19	65.873
785.50	57.547
785.81	64.925
786.11	71.311
786.42	60.465
786.73	65.487
787.04	75.472
787.34	66.964
787.65	68.000
787.96	67.568
788.26	60.331
788.57	69.492
788.88	67.769
789.19	58.333
789.49	65.909
789.80	62.595
790.11	76.190
790.41	69.307
790.72	79.518
791.03	79.348
791.33	74.419
791.64	68.041
791.95	75.248
792.25	75.556
792.56	89.610
792.87	89.744
793.17	83.544
793.48	86.207
793.79	88.506
794.09	64.773
794.40	64.706
794.70	54.412
795.01	53.333
795.32	51.079
795.62	58.268
795.93	62.069
796.23	73.451
796.54	85.882
796.85	81.081
797.15	104.225
797.46	87.879
797.76	89.157
798.07	92.405
798.37	84.615
798.68	101.515
798.99	81.690
799.29	80.519
799.60	71.591
799.90	84.932
800.21	101.493
800.51	101.724
800.82	110.526
801.12	91.803
801.43	103.030
801.73	90.541
802.04	93.651
802.34	93.827
802.65	103.125
802.95	111.864
803.26	109.375
803.56	88.571
803.87	96.923
804.17	83.824
804.48	129.630
804.78	108.621
805.09	100.000
805.39	98.077
805.70	125.000
806.00	119.672
806.30	101.515
806.61	85.366
806.91	74.684
807.22	89.474
807.52	79.104
807.83	88.732
808.13	114.062
808.43	98.333
808.74	94.737
809.04	113.043
809.35	100.000
809.65	96.053
809.95	106.452
810.26	113.559
810.56	106.349
810.86	159.091
811.17	123.810
811.47	116.667
811.77	122.222
812.08	114.545
812.38	126.000
812.69	175.000
812.99	150.000
813.29	124.490
813.59	123.810
813.90	151.020
814.20	116.364
814.50	89.231
814.81	111.765
815.11	120.408
815.41	104.918
815.72	140.476
816.02	120.000
816.32	147.619
816.62	130.000
816.93	148.780
817.23	164.286
817.53	134.091
817.84	203.030
818.14	141.304
818.44	140.000
818.74	173.529
819.04	142.500
819.35	205.714
819.65	200.000
819.95	210.714
820.25	210.000
820.56	171.795
820.86	145.455
821.16	169.767
821.46	164.103
821.76	126.000
822.07	151.429
822.37	162.500
822.67	178.788
822.97	109.804
823.27	210.714
823.57	162.162
823.88	195.000
824.18	190.000
824.48	171.429
824.78	228.000
825.08	195.833
825.38	156.757
825.69	158.537
825.99	262.500
826.29	189.655
826.59	173.684
826.89	165.789
827.19	188.235
827.49	167.742
827.79	150.000
828.09	159.091
828.39	125.532
828.70	128.571
829.00	214.815
829.30	167.742
829.60	150.000
829.90	353.333
830.20	203.571
830.50	230.435
830.80	269.565
831.10	196.667
831.40	203.333
831.70	217.391
832.00	207.692
832.30	211.111
832.60	375.000
832.90	223.333
833.20	464.286
833.50	183.871
833.80	179.310
834.10	209.375
834.40	280.769
834.70	288.889
835.00	361.905
835.30	182.857
835.60	415.385
835.90	196.552
836.20	364.286
836.50	217.241
836.80	228.000
837.10	197.222
837.40	271.429
837.70	358.824
838.00	229.630
838.30	276.190
838.60	319.048
838.90	257.692
839.19	235.000
839.49	471.429
839.79	340.000
840.09	275.000
840.39	276.190
840.69	226.087
840.99	283.333
841.29	540.000
841.59	333.333
841.88	362.500
842.18	217.241
842.48	309.524
842.78	226.667
843.08	282.609
843.38	200.000
843.68	933.333
843.97	207.692
844.27	179.310
844.57	242.857
844.87	400.000
845.17	214.815
845.47	1433.333
845.76	522.222
846.06	347.059
846.36	562.500
846.66	435.714
846.96	325.000
847.25	418.182
847.55	481.818
847.85	265.217
848.15	490.000
848.44	407.143
848.74	261.111
849.04	329.412
849.34	510.000
849.63	294.737
849.93	454.545
850.23	1100.000
850.53	385.714
850.82	2000.000
851.12	-5100.000
851.42	4600.000
851.71	315.000
852.01	-1500.000
852.31	300.000
852.61	1600.000
852.90	323.810
853.20	228.000
853.50	341.176
853.79	304.762
854.09	220.833
854.39	393.750
854.68	151.351
854.98	196.774
855.28	200.000
855.57	231.034
855.87	218.519
856.17	252.632
856.46	273.333
856.76	305.882
857.05	217.241
857.35	258.333
857.65	346.667
857.94	265.217
858.24	207.692
858.53	305.000
858.83	272.727
859.13	340.000
859.42	0.000
859.72	522.222
860.01	445.455
860.31	300.000
860.60	284.211
860.90	234.783
861.20	577.778
861.49	525.000
861.79	-3700.000
862.08	712.500
862.38	238.095
862.67	392.308
862.97	329.412
863.26	577.778
863.56	316.667
863.85	458.333
864.15	550.000
864.44	433.333
864.74	1016.667
865.03	662.500
865.33	284.211
865.62	472.727
865.92	446.154
866.21	375.000
866.51	0.000
866.80	527.273
867.10	940.000
867.39	384.615
867.69	400.000
867.98	273.684
868.27	536.364
868.57	305.263
868.86	-4600.000
869.16	381.250
869.45	2350.000
869.75	-4400.000
870.04	441.667
870.33	542.857
870.63	1000.000
870.92	2550.000
871.22	771.429
871.51	364.706
871.80	238.095
872.10	385.714
>>>>>End Processed Spectral Data<<<<<
