SpectraSuite Data File
++++++++++++++++++++++++++++++++++++
Date: Wed May 13 16:45:23 PDT 2015
User: schluterlab
Dark Spectrum Present: Yes
Reference Spectrum Present: Yes
Number of Sampled Component Spectra: 1
Spectrometers: USB2E3373
Integration Time (usec): 3000 (USB2E3373)
Spectra Averaged: 3 (USB2E3373)
Boxcar Smoothing: 0 (USB2E3373)
Correct for Electrical Dark: No (USB2E3373)
Strobe/Lamp Enabled: No (USB2E3373)
Correct for Detector Non-linearity: No (USB2E3373)
Correct for Stray Light: No (USB2E3373)
Number of Pixels in Processed Spectrum: 2048
>>>>>Begin Processed Spectral Data<<<<<
178.53	0.000
178.91	-1100.000
179.29	-1300.000
179.67	-233.333
180.04	-1325.000
180.42	2650.000
180.80	940.000
181.18	-900.000
181.56	600.000
181.94	0.000
182.31	-628.571
182.69	1666.667
183.07	-525.000
183.45	-555.556
183.83	554.545
184.20	-430.000
184.58	2450.000
184.96	5500.000
185.34	-980.000
185.72	-637.500
186.09	-2200.000
186.47	2450.000
186.85	2350.000
187.23	5000.000
187.61	-1666.667
187.98	1450.000
188.36	545.455
188.74	472.727
189.12	-960.000
189.49	580.000
189.87	-5300.000
190.25	-1225.000
190.63	392.857
191.00	407.692
191.38	833.333
191.76	-1050.000
192.14	1300.000
192.51	600.000
192.89	966.667
193.27	637.500
193.65	-1050.000
194.02	460.000
194.40	920.000
194.78	490.000
195.15	483.333
195.53	730.000
195.91	-2050.000
196.29	337.500
196.66	363.158
197.04	-340.000
197.42	0.000
197.79	670.000
198.17	-4500.000
198.55	628.571
198.92	700.000
199.30	880.000
199.68	0.000
200.05	305.556
200.43	728.571
200.81	3900.000
201.18	1500.000
201.56	-1433.333
201.94	611.111
202.31	555.556
202.69	450.000
203.07	520.000
203.44	0.000
203.82	1250.000
204.19	714.286
204.57	492.857
204.95	600.000
205.32	1533.333
205.70	463.636
206.08	392.857
206.45	2600.000
206.83	362.500
207.20	766.667
207.58	980.000
207.96	294.444
208.33	800.000
208.71	-966.667
209.08	871.429
209.46	644.444
209.84	500.000
210.21	-1366.667
210.59	1450.000
210.96	-512.500
211.34	2400.000
211.71	590.000
212.09	833.333
212.46	0.000
212.84	1766.667
213.22	1400.000
213.59	-5700.000
213.97	883.333
214.34	871.429
214.72	572.727
215.09	960.000
215.47	-2200.000
215.84	-2800.000
216.22	1966.667
216.59	435.714
216.97	1350.000
217.34	472.727
217.72	-583.333
218.09	0.000
218.47	-5100.000
218.84	666.667
219.22	700.000
219.59	1600.000
219.97	-700.000
220.34	960.000
220.72	-1366.667
221.09	400.000
221.47	1425.000
221.84	-883.333
222.22	0.000
222.59	1225.000
222.97	-2750.000
223.34	1060.000
223.72	423.077
224.09	1220.000
224.46	2300.000
224.84	-4500.000
225.21	-940.000
225.59	-5100.000
225.96	560.000
226.34	290.000
226.71	2700.000
227.08	662.500
227.46	500.000
227.83	-775.000
228.21	-2550.000
228.58	622.222
228.95	-2400.000
229.33	-2200.000
229.70	1666.667
230.08	757.143
230.45	-780.000
230.82	475.000
231.20	766.667
231.57	657.143
231.95	483.333
232.32	195.455
232.69	427.273
233.07	585.714
233.44	392.308
233.81	-1466.667
234.19	294.737
234.56	375.000
234.93	433.333
235.31	500.000
235.68	253.846
236.05	400.000
236.43	169.697
236.80	268.421
237.17	4300.000
237.55	204.762
237.92	221.429
238.29	319.048
238.67	222.581
239.04	255.172
239.41	183.333
239.79	143.478
240.16	171.429
240.53	136.364
240.91	127.451
241.28	136.000
241.65	146.000
242.02	121.739
242.40	104.839
242.77	128.333
243.14	98.925
243.51	103.371
243.89	101.176
244.26	93.333
244.63	95.699
245.00	86.170
245.38	95.050
245.75	69.159
246.12	84.404
246.49	89.051
246.87	80.800
247.24	73.846
247.61	76.429
247.98	80.392
248.36	68.919
248.73	68.790
249.10	79.618
249.47	66.667
249.84	65.241
250.22	67.380
250.59	73.964
250.96	68.182
251.33	65.403
251.70	65.347
252.08	68.571
252.45	60.987
252.82	61.304
253.19	65.106
253.56	62.745
253.94	63.071
254.31	62.109
254.68	61.154
255.05	55.720
255.42	65.854
255.79	59.926
256.16	61.372
256.54	58.304
256.91	63.345
257.28	53.597
257.65	57.096
258.02	53.416
258.39	58.675
258.76	57.525
259.14	56.548
259.51	56.231
259.88	54.658
260.25	51.964
260.62	54.913
260.99	54.969
261.36	56.156
261.73	52.149
262.10	56.686
262.47	56.056
262.85	54.596
263.22	52.137
263.59	57.835
263.96	52.198
264.33	52.219
264.70	53.421
265.07	56.010
265.44	53.030
265.81	50.365
266.18	52.764
266.55	51.951
266.92	54.054
267.29	51.620
267.66	50.000
268.03	52.273
268.40	50.234
268.77	49.165
269.14	53.153
269.51	52.144
269.88	52.448
270.25	49.887
270.62	51.011
270.99	50.753
271.36	48.712
271.73	51.869
272.10	50.870
272.47	53.118
272.84	50.866
273.21	49.686
273.58	50.218
273.95	51.153
274.32	50.620
274.69	51.820
275.06	47.835
275.43	50.213
275.80	47.094
276.17	49.287
276.54	50.520
276.91	49.802
277.28	44.922
277.65	50.290
278.02	49.068
278.39	50.000
278.76	48.364
279.13	50.566
279.50	48.603
279.87	46.813
280.23	50.100
280.60	48.356
280.97	48.614
281.34	46.549
281.71	47.636
282.08	49.904
282.45	47.636
282.82	47.602
283.19	46.881
283.56	45.263
283.92	47.547
284.29	45.855
284.66	44.465
285.03	47.378
285.40	47.711
285.77	47.811
286.14	45.250
286.51	45.667
286.87	44.103
287.24	47.557
287.61	44.944
287.98	44.481
288.35	43.740
288.72	42.056
289.08	43.349
289.45	43.163
289.82	42.927
290.19	41.130
290.56	41.654
290.93	39.728
291.29	43.252
291.66	42.330
292.03	41.424
292.40	40.529
292.77	39.497
293.13	40.000
293.50	41.691
293.87	39.852
294.24	39.407
294.60	38.865
294.97	39.826
295.34	40.480
295.71	38.920
296.08	37.607
296.44	36.039
296.81	36.460
297.18	37.398
297.55	37.731
297.91	35.356
298.28	37.483
298.65	35.248
299.02	36.891
299.38	37.052
299.75	35.849
300.12	35.249
300.48	35.250
300.85	36.868
301.22	35.414
301.59	34.470
301.95	34.635
302.32	36.714
302.69	32.975
303.05	34.061
303.42	35.062
303.79	34.994
304.15	33.333
304.52	33.140
304.89	33.217
305.25	34.455
305.62	33.862
305.99	33.884
306.35	34.787
306.72	33.632
307.09	32.297
307.45	34.685
307.82	32.366
308.19	32.671
308.55	33.765
308.92	33.298
309.29	32.207
309.65	33.404
310.02	32.770
310.38	34.731
310.75	33.263
311.12	32.958
311.48	33.333
311.85	33.229
312.22	32.986
312.58	32.536
312.95	34.847
313.31	32.913
313.68	35.031
314.05	35.306
314.41	33.367
314.78	32.830
315.14	33.466
315.51	34.398
315.87	33.861
316.24	33.168
316.61	33.041
316.97	33.464
317.34	32.779
317.70	34.417
318.07	34.937
318.43	36.301
318.80	35.333
319.16	36.817
319.53	33.677
319.89	34.857
320.26	36.800
320.62	35.417
320.99	35.657
321.35	37.475
321.72	37.064
322.08	37.808
322.45	37.214
322.81	36.919
323.18	36.513
323.54	38.776
323.91	38.208
324.27	38.145
324.64	38.117
325.00	37.962
325.37	38.944
325.73	39.946
326.10	38.923
326.46	37.545
326.83	38.827
327.19	39.880
327.56	40.679
327.92	40.507
328.29	40.373
328.65	40.700
329.01	41.065
329.38	42.183
329.74	40.813
330.11	41.282
330.47	41.414
330.84	41.636
331.20	40.528
331.56	41.009
331.93	43.056
332.29	41.083
332.66	41.504
333.02	40.676
333.38	42.728
333.75	42.157
334.11	40.836
334.48	40.728
334.84	41.544
335.20	41.727
335.57	42.702
335.93	39.554
336.29	42.033
336.66	41.208
337.02	41.086
337.38	40.463
337.75	42.157
338.11	41.003
338.47	42.357
338.84	41.430
339.20	39.725
339.56	42.427
339.93	40.364
340.29	41.214
340.65	41.533
341.02	40.838
341.38	41.993
341.74	41.053
342.11	42.183
342.47	42.819
342.83	41.781
343.20	41.558
343.56	40.185
343.92	42.193
344.28	41.156
344.65	42.132
345.01	40.657
345.37	41.252
345.73	41.540
346.10	42.285
346.46	41.271
346.82	41.351
347.19	41.186
347.55	39.901
347.91	41.019
348.27	43.057
348.63	40.635
349.00	40.615
349.36	41.297
349.72	40.978
350.08	39.870
350.45	41.579
350.81	41.186
351.17	41.491
351.53	41.605
351.89	40.429
352.26	41.673
352.62	40.978
352.98	40.924
353.34	41.578
353.70	40.835
354.07	40.565
354.43	40.397
354.79	40.064
355.15	41.500
355.51	41.327
355.87	42.286
356.24	42.834
356.60	40.658
356.96	42.076
357.32	42.518
357.68	40.630
358.04	41.172
358.40	41.489
358.77	41.941
359.13	40.726
359.49	41.333
359.85	41.429
360.21	41.627
360.57	41.868
360.93	42.462
361.29	40.816
361.66	41.563
362.02	42.164
362.38	41.825
362.74	41.220
363.10	41.377
363.46	41.746
363.82	41.799
364.18	42.364
364.54	43.165
364.90	41.926
365.26	43.015
365.62	44.704
365.98	41.928
366.35	41.261
366.71	43.601
367.07	43.044
367.43	44.049
367.79	44.111
368.15	43.894
368.51	42.369
368.87	43.183
369.23	43.672
369.59	44.026
369.95	43.897
370.31	42.949
370.67	43.841
371.03	44.419
371.39	44.606
371.75	43.676
372.11	43.030
372.47	45.381
372.83	45.101
373.19	43.208
373.55	44.568
373.91	44.919
374.27	43.711
374.63	45.018
374.99	45.904
375.35	45.429
375.71	43.729
376.07	45.885
376.42	46.286
376.78	45.461
377.14	45.183
377.50	46.424
377.86	45.612
378.22	46.776
378.58	44.987
378.94	46.386
379.30	46.183
379.66	47.335
380.02	47.666
380.38	47.116
380.74	47.359
381.09	47.677
381.45	48.433
381.81	47.666
382.17	49.936
382.53	48.742
382.89	49.444
383.25	48.468
383.61	49.009
383.97	50.657
384.32	49.033
384.68	49.628
385.04	50.031
385.40	49.598
385.76	50.369
386.12	50.000
386.48	51.038
386.83	52.919
387.19	52.628
387.55	51.268
387.91	51.632
388.27	51.993
388.62	51.629
388.98	50.123
389.34	52.378
389.70	51.380
390.06	52.788
390.42	53.567
390.77	53.308
391.13	54.116
391.49	54.569
391.85	53.660
392.20	54.385
392.56	53.220
392.92	54.267
393.28	53.195
393.64	54.197
393.99	53.879
394.35	55.273
394.71	54.642
395.07	53.333
395.42	54.265
395.78	55.471
396.14	55.431
396.50	55.451
396.85	56.834
397.21	54.932
397.57	55.859
397.92	56.010
398.28	54.989
398.64	55.615
399.00	54.952
399.35	56.176
399.71	55.961
400.07	55.411
400.42	55.828
400.78	56.514
401.14	56.890
401.49	56.776
401.85	56.019
402.21	55.868
402.57	57.866
402.92	57.945
403.28	58.089
403.63	57.797
403.99	57.580
404.35	56.909
404.70	57.494
405.06	57.892
405.42	58.266
405.77	57.029
406.13	57.280
406.49	57.540
406.84	56.586
407.20	57.506
407.55	58.073
407.91	59.067
408.27	59.732
408.62	58.037
408.98	59.252
409.34	58.856
409.69	58.968
410.05	58.798
410.40	58.043
410.76	58.542
411.11	57.780
411.47	58.850
411.83	58.766
412.18	59.369
412.54	58.842
412.89	58.133
413.25	59.209
413.60	59.975
413.96	56.831
414.31	57.837
414.67	59.696
415.03	59.272
415.38	60.245
415.74	60.707
416.09	61.332
416.45	59.371
416.80	60.740
417.16	60.992
417.51	60.053
417.87	59.794
418.22	61.325
418.58	59.845
418.93	60.319
419.29	60.153
419.64	61.020
420.00	60.122
420.35	59.188
420.71	61.267
421.06	59.129
421.42	59.474
421.77	61.435
422.12	60.415
422.48	59.471
422.83	59.930
423.19	60.663
423.54	60.360
423.90	61.275
424.25	61.251
424.61	60.774
424.96	61.691
425.31	60.410
425.67	58.820
426.02	60.286
426.38	61.661
426.73	60.562
427.09	61.155
427.44	60.955
427.79	60.955
428.15	59.881
428.50	61.088
428.85	61.323
429.21	59.912
429.56	60.394
429.92	60.040
430.27	60.228
430.62	59.959
430.98	61.287
431.33	59.536
431.68	61.518
432.04	58.999
432.39	61.736
432.74	61.341
433.10	62.535
433.45	62.332
433.80	60.421
434.16	60.951
434.51	60.947
434.86	59.863
435.22	61.367
435.57	62.188
435.92	60.737
436.28	61.210
436.63	61.203
436.98	60.790
437.34	61.658
437.69	62.135
438.04	60.877
438.39	62.567
438.75	62.987
439.10	62.570
439.45	62.102
439.81	61.148
440.16	61.265
440.51	61.219
440.86	61.726
441.22	61.568
441.57	62.102
441.92	62.385
442.27	61.087
442.63	60.927
442.98	61.915
443.33	61.250
443.68	61.900
444.03	60.957
444.39	60.565
444.74	61.851
445.09	61.240
445.44	61.017
445.79	60.465
446.15	60.879
446.50	60.959
446.85	62.179
447.20	61.550
447.55	62.256
447.91	61.390
448.26	61.603
448.61	60.599
448.96	62.957
449.31	62.092
449.66	60.270
450.02	61.560
450.37	62.018
450.72	61.760
451.07	60.390
451.42	61.702
451.77	63.006
452.12	61.028
452.47	61.878
452.83	61.772
453.18	61.369
453.53	62.771
453.88	61.961
454.23	62.582
454.58	61.781
454.93	62.365
455.28	62.344
455.63	62.075
455.98	63.571
456.34	61.307
456.69	62.743
457.04	61.734
457.39	61.660
457.74	60.882
458.09	62.335
458.44	61.802
458.79	60.358
459.14	61.343
459.49	62.639
459.84	60.997
460.19	61.520
460.54	60.127
460.89	61.492
461.24	61.324
461.59	62.173
461.94	61.221
462.29	62.196
462.64	60.944
462.99	61.679
463.34	61.667
463.69	62.039
464.04	61.101
464.39	59.652
464.74	61.141
465.09	61.942
465.44	60.554
465.79	60.515
466.14	60.153
466.49	59.232
466.84	60.829
467.19	60.410
467.54	61.188
467.89	60.444
468.24	60.093
468.59	61.050
468.94	59.988
469.29	60.219
469.64	61.580
469.99	61.637
470.34	59.709
470.68	63.147
471.03	61.633
471.38	62.543
471.73	60.493
472.08	62.500
472.43	61.369
472.78	60.500
473.13	61.040
473.48	60.799
473.83	60.549
474.17	59.490
474.52	61.600
474.87	60.479
475.22	60.186
475.57	60.881
475.92	59.904
476.27	60.710
476.61	59.735
476.96	60.913
477.31	59.498
477.66	60.941
478.01	58.965
478.36	59.968
478.70	60.073
479.05	59.585
479.40	59.775
479.75	59.431
480.10	59.195
480.45	58.306
480.79	58.481
481.14	59.491
481.49	59.279
481.84	59.488
482.19	59.609
482.53	58.761
482.88	59.097
483.23	59.907
483.58	58.690
483.92	58.903
484.27	57.691
484.62	58.405
484.97	57.548
485.31	60.445
485.66	59.292
486.01	57.296
486.36	54.560
486.70	53.075
487.05	53.631
487.40	54.699
487.75	54.628
488.09	55.111
488.44	55.237
488.79	57.649
489.13	57.563
489.48	57.504
489.83	58.136
490.17	58.045
490.52	57.396
490.87	57.983
491.22	58.072
491.56	57.175
491.91	57.515
492.26	57.327
492.60	56.866
492.95	57.905
493.30	57.430
493.64	57.303
493.99	58.357
494.34	57.262
494.68	58.562
495.03	57.425
495.37	56.538
495.72	59.211
496.07	58.005
496.41	55.929
496.76	56.948
497.11	56.461
497.45	56.684
497.80	57.006
498.14	56.763
498.49	57.512
498.84	56.520
499.18	56.905
499.53	56.600
499.87	57.409
500.22	56.382
500.56	57.961
500.91	56.442
501.26	57.752
501.60	57.760
501.95	55.362
502.29	56.842
502.64	57.402
502.98	56.615
503.33	55.073
503.67	56.613
504.02	55.706
504.36	55.030
504.71	56.277
505.06	56.867
505.40	56.830
505.75	54.773
506.09	55.539
506.44	56.635
506.78	57.087
507.13	56.689
507.47	57.071
507.82	56.738
508.16	57.244
508.51	57.230
508.85	56.207
509.19	55.357
509.54	56.531
509.88	55.178
510.23	57.275
510.57	57.585
510.92	55.308
511.26	56.269
511.61	55.654
511.95	56.159
512.30	56.151
512.64	57.281
512.98	57.878
513.33	56.424
513.67	55.603
514.02	56.223
514.36	58.001
514.70	57.333
515.05	55.717
515.39	56.141
515.74	57.883
516.08	56.792
516.42	56.659
516.77	57.079
517.11	56.271
517.46	56.151
517.80	57.549
518.14	57.441
518.49	57.818
518.83	56.648
519.17	57.794
519.52	56.310
519.86	55.334
520.20	56.590
520.55	56.553
520.89	57.543
521.23	57.660
521.58	56.122
521.92	57.195
522.26	55.644
522.61	57.819
522.95	56.967
523.29	57.273
523.64	58.537
523.98	57.979
524.32	56.574
524.66	56.705
525.01	56.311
525.35	56.134
525.69	55.419
526.04	56.386
526.38	56.437
526.72	55.276
527.06	57.878
527.41	54.950
527.75	56.977
528.09	57.290
528.43	56.087
528.78	56.792
529.12	55.394
529.46	55.236
529.80	56.621
530.15	56.012
530.49	55.200
530.83	55.886
531.17	59.269
531.51	57.717
531.86	54.774
532.20	57.432
532.54	56.374
532.88	57.381
533.22	55.465
533.57	55.123
533.91	53.883
534.25	54.982
534.59	55.766
534.93	53.659
535.27	54.496
535.62	54.701
535.96	55.744
536.30	55.118
536.64	54.862
536.98	56.603
537.32	54.575
537.66	55.867
538.01	56.353
538.35	54.363
538.69	55.967
539.03	53.346
539.37	53.419
539.71	53.467
540.05	54.902
540.39	55.150
540.73	54.334
541.07	55.613
541.42	56.099
541.76	54.645
542.10	54.269
542.44	55.629
542.78	55.534
543.12	53.359
543.46	54.689
543.80	54.652
544.14	54.557
544.48	54.286
544.82	52.919
545.16	54.457
545.50	53.535
545.84	52.823
546.18	54.411
546.52	54.783
546.86	55.464
547.20	55.091
547.54	53.841
547.88	54.911
548.22	52.989
548.56	53.962
548.90	53.521
549.24	54.343
549.58	55.116
549.92	53.365
550.26	55.043
550.60	53.112
550.94	54.507
551.28	53.914
551.62	55.787
551.96	54.316
552.30	54.812
552.64	54.970
552.98	53.831
553.32	52.798
553.66	53.715
554.00	52.986
554.34	52.933
554.68	54.006
555.02	53.738
555.36	54.349
555.69	52.774
556.03	53.096
556.37	52.797
556.71	52.183
557.05	53.711
557.39	52.764
557.73	51.870
558.07	54.822
558.41	52.533
558.75	53.196
559.08	55.257
559.42	53.817
559.76	54.118
560.10	52.819
560.44	52.900
560.78	52.362
561.12	52.441
561.45	52.477
561.79	52.208
562.13	52.448
562.47	52.186
562.81	52.929
563.15	52.776
563.48	51.724
563.82	52.381
564.16	52.714
564.50	51.953
564.84	52.086
565.17	52.510
565.51	52.332
565.85	52.284
566.19	53.037
566.52	52.502
566.86	51.537
567.20	52.005
567.54	51.084
567.88	49.810
568.21	51.376
568.55	49.747
568.89	50.292
569.23	50.490
569.56	49.474
569.90	49.094
570.24	48.834
570.57	47.705
570.91	47.414
571.25	47.004
571.59	47.541
571.92	46.832
572.26	47.256
572.60	47.177
572.93	46.387
573.27	46.880
573.61	47.655
573.95	47.003
574.28	46.482
574.62	46.501
574.96	46.141
575.29	45.732
575.63	45.808
575.97	46.004
576.30	46.256
576.64	46.222
576.98	45.795
577.31	45.633
577.65	46.450
577.98	45.939
578.32	44.837
578.66	45.304
578.99	45.697
579.33	44.662
579.67	45.196
580.00	45.984
580.34	45.823
580.67	45.379
581.01	46.076
581.35	45.613
581.68	46.141
582.02	44.691
582.35	45.081
582.69	44.609
583.02	45.051
583.36	44.731
583.70	45.105
584.03	44.958
584.37	45.534
584.70	46.761
585.04	44.667
585.37	45.200
585.71	45.606
586.04	45.083
586.38	45.507
586.72	45.899
587.05	45.151
587.39	45.594
587.72	45.323
588.06	45.037
588.39	45.405
588.73	45.732
589.06	45.746
589.40	46.700
589.73	46.322
590.07	46.335
590.40	45.890
590.73	47.151
591.07	46.764
591.40	46.183
591.74	47.922
592.07	46.291
592.41	46.383
592.74	46.442
593.08	46.769
593.41	45.745
593.75	44.129
594.08	45.189
594.41	46.412
594.75	46.728
595.08	45.276
595.42	46.655
595.75	45.655
596.09	46.001
596.42	46.090
596.75	46.982
597.09	45.974
597.42	45.953
597.75	46.184
598.09	45.565
598.42	44.716
598.76	45.683
599.09	45.268
599.42	45.015
599.76	45.132
600.09	44.481
600.42	44.339
600.76	44.357
601.09	44.226
601.42	44.673
601.76	44.137
602.09	45.059
602.42	45.143
602.76	45.990
603.09	45.201
603.42	45.802
603.76	44.741
604.09	45.522
604.42	45.128
604.76	45.171
605.09	45.566
605.42	45.105
605.75	45.861
606.09	45.181
606.42	45.607
606.75	45.251
607.09	44.789
607.42	45.785
607.75	45.190
608.08	44.637
608.42	45.719
608.75	44.590
609.08	45.421
609.41	44.788
609.75	44.926
610.08	45.994
610.41	45.251
610.74	46.358
611.07	46.097
611.41	45.191
611.74	47.210
612.07	46.584
612.40	45.855
612.73	45.211
613.07	45.959
613.40	45.445
613.73	45.097
614.06	45.430
614.39	46.303
614.72	45.105
615.06	45.116
615.39	45.594
615.72	44.990
616.05	45.774
616.38	45.414
616.71	46.496
617.05	46.113
617.38	46.061
617.71	46.126
618.04	46.454
618.37	46.600
618.70	45.924
619.03	47.434
619.36	47.522
619.69	46.972
620.03	48.008
620.36	47.193
620.69	46.849
621.02	46.313
621.35	46.124
621.68	46.340
622.01	47.523
622.34	48.790
622.67	48.137
623.00	46.515
623.33	47.605
623.66	47.605
623.99	48.601
624.32	46.362
624.65	45.763
624.99	46.034
625.32	46.995
625.65	46.356
625.98	47.425
626.31	48.678
626.64	48.408
626.97	48.961
627.30	49.127
627.63	47.744
627.96	47.435
628.29	46.894
628.62	47.392
628.95	50.943
629.28	47.445
629.61	49.129
629.94	49.333
630.26	49.762
630.59	48.808
630.92	50.575
631.25	47.483
631.58	48.749
631.91	50.304
632.24	47.996
632.57	48.478
632.90	49.013
633.23	50.224
633.56	48.701
633.89	48.584
634.22	50.170
634.55	51.834
634.88	51.257
635.20	50.299
635.53	50.120
635.86	51.980
636.19	48.941
636.52	50.980
636.85	48.797
637.18	49.424
637.51	49.527
637.83	48.705
638.16	51.662
638.49	51.259
638.82	50.822
639.15	50.375
639.48	49.875
639.81	50.402
640.13	50.911
640.46	50.067
640.79	50.991
641.12	50.757
641.45	51.257
641.77	52.430
642.10	51.754
642.43	50.000
642.76	52.167
643.09	52.147
643.41	51.138
643.74	53.395
644.07	51.982
644.40	52.301
644.73	53.228
645.05	53.566
645.38	51.659
645.71	51.208
646.04	52.658
646.36	56.093
646.69	54.348
647.02	51.020
647.35	53.608
647.67	53.274
648.00	53.171
648.33	52.805
648.66	50.606
648.98	52.174
649.31	47.833
649.64	51.868
649.96	50.373
650.29	50.553
650.62	51.294
650.94	51.864
651.27	52.365
651.60	49.251
651.92	51.118
652.25	51.629
652.58	51.869
652.90	53.081
653.23	50.385
653.56	51.969
653.88	50.238
654.21	54.502
654.54	52.475
654.86	50.000
655.19	48.243
655.52	37.537
655.84	36.841
656.17	47.049
656.49	62.333
656.82	61.942
657.15	45.344
657.47	33.673
657.80	26.109
658.13	26.730
658.45	38.925
658.78	38.590
659.10	39.086
659.43	41.014
659.75	43.323
660.08	44.177
660.41	50.372
660.73	50.953
661.06	51.274
661.38	55.273
661.71	51.346
662.03	53.057
662.36	49.304
662.68	52.811
663.01	53.333
663.33	53.291
663.66	51.891
663.98	52.916
664.31	52.311
664.63	51.619
664.96	52.716
665.28	53.689
665.61	50.292
665.93	53.722
666.26	52.130
666.58	55.021
666.91	53.700
667.23	55.056
667.56	52.916
667.88	54.701
668.21	55.011
668.53	53.796
668.86	53.030
669.18	55.011
669.50	54.783
669.83	56.427
670.15	56.889
670.48	52.723
670.80	50.862
671.13	54.565
671.45	51.915
671.77	52.546
672.10	50.832
672.42	49.647
672.75	51.575
673.07	51.937
673.39	50.814
673.72	53.906
674.04	51.961
674.37	51.068
674.69	51.738
675.01	53.347
675.34	54.209
675.66	54.526
675.98	51.324
676.31	50.630
676.63	53.715
676.95	53.249
677.28	52.570
677.60	52.308
677.92	54.641
678.25	51.745
678.57	52.789
678.89	54.108
679.22	52.652
679.54	50.382
679.86	51.927
680.18	48.301
680.51	49.468
680.83	50.534
681.15	50.566
681.48	48.393
681.80	51.451
682.12	52.107
682.44	47.776
682.77	50.509
683.09	52.361
683.41	52.106
683.73	52.097
684.06	53.719
684.38	48.728
684.70	52.326
685.02	50.094
685.34	49.817
685.67	48.427
685.99	48.797
686.31	45.563
686.63	47.880
686.96	48.750
687.28	48.556
687.60	49.638
687.92	50.640
688.24	50.190
688.56	53.414
688.89	51.037
689.21	53.712
689.53	51.566
689.85	52.993
690.17	49.689
690.49	52.229
690.82	53.505
691.14	52.232
691.46	51.899
691.78	51.406
692.10	52.479
692.42	47.505
692.74	48.963
693.06	51.277
693.39	48.871
693.71	51.747
694.03	49.684
694.35	50.216
694.67	49.657
694.99	52.195
695.31	52.451
695.63	50.718
695.95	51.589
696.27	51.777
696.59	54.145
696.91	52.073
697.23	48.826
697.56	49.254
697.88	48.466
698.20	47.083
698.52	47.527
698.84	52.339
699.16	52.535
699.48	51.544
699.80	50.725
700.12	56.104
700.44	55.438
700.76	57.459
701.08	54.885
701.40	55.307
701.72	49.271
702.04	61.080
702.36	51.558
702.68	53.824
703.00	54.571
703.32	49.734
703.64	52.279
703.96	54.039
704.28	52.616
704.60	54.252
704.91	55.786
705.23	54.839
705.55	61.462
705.87	61.462
706.19	62.544
706.51	54.206
706.83	57.879
707.15	58.543
707.47	53.788
707.79	54.054
708.11	50.685
708.43	49.524
708.74	52.551
709.06	52.727
709.38	55.906
709.70	53.488
710.02	54.896
710.34	53.030
710.66	55.224
710.98	54.830
711.29	52.326
711.61	55.457
711.93	57.692
712.25	56.270
712.57	62.868
712.89	57.093
713.20	51.976
713.52	57.895
713.84	54.430
714.16	54.268
714.48	52.874
714.80	61.702
715.11	55.043
715.43	55.193
715.75	52.174
716.07	59.425
716.39	52.978
716.70	55.814
717.02	60.072
717.34	51.237
717.66	57.836
717.97	62.550
718.29	57.407
718.61	56.934
718.93	59.559
719.24	53.287
719.56	56.610
719.88	56.949
720.20	56.081
720.51	56.098
720.83	62.454
721.15	56.343
721.46	52.837
721.78	57.706
722.10	59.623
722.42	56.767
722.73	59.925
723.05	58.197
723.37	59.514
723.68	60.232
724.00	59.350
724.32	54.839
724.63	57.317
724.95	56.904
725.27	57.490
725.58	62.109
725.90	55.839
726.22	58.113
726.53	54.167
726.85	59.386
727.16	54.804
727.48	54.965
727.80	56.061
728.11	57.246
728.43	62.692
728.74	54.480
729.06	61.679
729.38	61.765
729.69	56.940
730.01	53.925
730.32	55.208
730.64	51.505
730.96	50.495
731.27	52.649
731.59	55.046
731.90	51.603
732.22	54.969
732.53	51.084
732.85	55.128
733.16	54.984
733.48	54.485
733.80	54.870
734.11	57.325
734.43	52.071
734.74	47.429
735.06	50.430
735.37	53.757
735.69	53.503
736.00	52.288
736.32	55.452
736.63	53.674
736.95	54.633
737.26	51.020
737.58	49.032
737.89	54.515
738.21	54.266
738.52	56.071
738.83	52.830
739.15	53.462
739.46	54.380
739.78	54.861
740.09	48.308
740.41	53.871
740.72	51.916
741.04	57.778
741.35	55.833
741.66	63.111
741.98	59.434
742.29	63.636
742.61	56.466
742.92	61.086
743.23	57.692
743.55	57.200
743.86	57.895
744.18	62.832
744.49	59.809
744.80	68.545
745.12	66.818
745.43	57.269
745.74	63.964
746.06	62.385
746.37	56.951
746.68	61.086
747.00	67.130
747.31	63.810
747.62	56.637
747.94	62.115
748.25	52.766
748.56	61.674
748.88	60.396
749.19	67.000
749.50	60.465
749.82	55.285
750.13	59.592
750.44	54.745
750.75	54.386
751.07	54.984
751.38	56.098
751.69	57.401
752.01	55.263
752.32	55.596
752.63	56.383
752.94	56.557
753.26	62.400
753.57	54.065
753.88	61.328
754.19	54.286
754.51	53.472
754.82	49.819
755.13	53.585
755.44	55.639
755.75	56.569
756.07	53.901
756.38	52.920
756.69	52.685
757.00	48.204
757.31	51.335
757.63	52.047
757.94	50.938
758.25	49.265
758.56	45.432
758.87	50.538
759.18	50.000
759.50	48.276
759.81	51.090
760.12	52.500
760.43	52.722
760.74	48.370
761.05	52.825
761.36	48.930
761.67	51.989
761.99	51.863
762.30	51.736
762.61	52.290
762.92	53.516
763.23	58.824
763.54	59.600
763.85	54.688
764.16	57.308
764.47	53.992
764.78	53.710
765.10	50.949
765.41	50.147
765.72	53.293
766.03	52.978
766.34	51.333
766.65	61.702
766.96	55.128
767.27	63.959
767.58	60.938
767.89	64.211
768.20	60.920
768.51	60.914
768.82	57.798
769.13	52.846
769.44	55.061
769.75	56.652
770.06	51.376
770.37	64.253
770.68	58.796
770.99	56.444
771.30	50.000
771.61	61.883
771.92	57.787
772.23	59.244
772.54	63.590
772.85	60.733
773.16	66.489
773.47	63.043
773.78	64.467
774.09	62.500
774.39	61.404
774.70	62.346
775.01	80.435
775.32	65.359
775.63	73.026
775.94	57.554
776.25	71.654
776.56	81.343
776.87	77.049
777.18	70.313
777.48	79.389
777.79	76.515
778.10	70.370
778.41	78.571
778.72	68.613
779.03	66.443
779.34	64.430
779.65	66.892
779.95	63.190
780.26	75.817
780.57	68.966
780.88	78.125
781.19	60.902
781.50	70.270
781.80	67.925
782.11	63.277
782.42	68.987
782.73	63.804
783.04	75.000
783.34	75.352
783.65	78.767
783.96	76.119
784.27	72.727
784.57	62.590
784.88	68.519
785.19	73.810
785.50	82.075
785.81	77.612
786.11	80.328
786.42	73.643
786.73	66.372
787.04	93.396
787.34	71.429
787.65	82.000
787.96	69.369
788.26	68.595
788.57	78.814
788.88	83.471
789.19	73.611
789.49	75.000
789.80	69.466
790.11	90.476
790.41	94.059
790.72	86.747
791.03	91.304
791.33	89.535
791.64	78.351
791.95	82.178
792.25	93.333
792.56	101.299
792.87	94.872
793.17	103.797
793.48	101.149
793.79	95.402
794.09	92.045
794.40	73.109
794.70	78.676
795.01	70.370
795.32	68.345
795.62	74.016
795.93	78.448
796.23	77.876
796.54	88.235
796.85	82.432
797.15	104.225
797.46	90.909
797.76	103.614
798.07	101.266
798.37	118.462
798.68	121.212
798.99	108.451
799.29	112.987
799.60	87.500
799.90	102.740
800.21	111.940
800.51	118.966
800.82	122.807
801.12	103.279
801.43	107.576
801.73	93.243
802.04	117.460
802.34	93.827
802.65	115.625
802.95	125.424
803.26	120.313
803.56	84.286
803.87	98.462
804.17	98.529
804.48	127.778
804.78	122.414
805.09	108.824
805.39	125.000
805.70	123.214
806.00	137.705
806.30	113.636
806.61	84.146
806.91	79.747
807.22	98.684
807.52	95.522
807.83	109.859
808.13	125.000
808.43	125.000
808.74	85.526
809.04	113.043
809.35	110.448
809.65	101.316
809.95	133.871
810.26	98.305
810.56	131.746
810.86	156.818
811.17	166.667
811.47	135.000
811.77	122.222
812.08	121.818
812.38	156.000
812.69	180.556
812.99	177.273
813.29	122.449
813.59	130.952
813.90	142.857
814.20	114.545
814.50	110.769
814.81	122.059
815.11	128.571
815.41	103.279
815.72	133.333
816.02	147.273
816.32	152.381
816.62	130.000
816.93	146.341
817.23	157.143
817.53	143.182
817.84	200.000
818.14	154.348
818.44	135.556
818.74	164.706
819.04	157.500
819.35	180.000
819.65	179.412
819.95	228.571
820.25	320.000
820.56	212.821
820.86	150.000
821.16	141.860
821.46	143.590
821.76	136.000
822.07	177.143
822.37	160.000
822.67	181.818
822.97	125.490
823.27	178.571
823.57	183.784
823.88	192.500
824.18	196.667
824.48	185.714
824.78	200.000
825.08	191.667
825.38	189.189
825.69	146.341
825.99	245.833
826.29	206.897
826.59	178.947
826.89	168.421
827.19	208.824
827.49	203.226
827.79	150.000
828.09	163.636
828.39	142.553
828.70	130.612
829.00	170.370
829.30	209.677
829.60	162.500
829.90	380.000
830.20	210.714
830.50	247.826
830.80	221.739
831.10	193.333
831.40	183.333
831.70	204.348
832.00	238.462
832.30	200.000
832.60	356.250
832.90	226.667
833.20	364.286
833.50	187.097
833.80	175.862
834.10	209.375
834.40	238.462
834.70	311.111
835.00	304.762
835.30	188.571
835.60	276.923
835.90	224.138
836.20	400.000
836.50	206.897
836.80	212.000
837.10	183.333
837.40	271.429
837.70	317.647
838.00	262.963
838.30	252.381
838.60	342.857
838.90	219.231
839.19	265.000
839.49	435.714
839.79	305.000
840.09	280.000
840.39	300.000
840.69	278.261
840.99	283.333
841.29	520.000
841.59	350.000
841.88	293.750
842.18	179.310
842.48	295.238
842.78	210.000
843.08	234.783
843.38	212.500
843.68	750.000
843.97	230.769
844.27	182.759
844.57	285.714
844.87	362.500
845.17	181.481
845.47	1400.000
845.76	455.556
846.06	317.647
846.36	587.500
846.66	385.714
846.96	356.250
847.25	481.818
847.55	418.182
847.85	286.957
848.15	480.000
848.44	400.000
848.74	238.889
849.04	300.000
849.34	560.000
849.63	252.632
849.93	400.000
850.23	1080.000
850.53	392.857
850.82	2350.000
851.12	-4500.000
851.42	4600.000
851.71	315.000
852.01	-1166.667
852.31	208.333
852.61	1700.000
852.90	266.667
853.20	212.000
853.50	376.471
853.79	266.667
854.09	245.833
854.39	306.250
854.68	162.162
854.98	196.774
855.28	173.333
855.57	224.138
855.87	229.630
856.17	278.947
856.46	300.000
856.76	347.059
857.05	196.552
857.35	229.167
857.65	360.000
857.94	226.087
858.24	265.385
858.53	325.000
858.83	281.818
859.13	393.333
859.42	0.000
859.72	588.889
860.01	463.636
860.31	227.273
860.60	294.737
860.90	247.826
861.20	588.889
861.49	491.667
861.79	-5000.000
862.08	700.000
862.38	285.714
862.67	376.923
862.97	370.588
863.26	566.667
863.56	305.556
863.85	450.000
864.15	662.500
864.44	373.333
864.74	1000.000
865.03	675.000
865.33	315.789
865.62	454.545
865.92	400.000
866.21	425.000
866.51	0.000
866.80	463.636
867.10	1160.000
867.39	461.538
867.69	418.182
867.98	263.158
868.27	454.545
868.57	310.526
868.86	-5700.000
869.16	312.500
869.45	1900.000
869.75	-4200.000
870.04	366.667
870.33	657.143
870.63	1025.000
870.92	2700.000
871.22	757.143
871.51	300.000
871.80	257.143
872.10	371.429
>>>>>End Processed Spectral Data<<<<<
