SpectraSuite Data File
++++++++++++++++++++++++++++++++++++
Date: Wed May 13 16:31:08 PDT 2015
User: schluterlab
Dark Spectrum Present: Yes
Reference Spectrum Present: Yes
Number of Sampled Component Spectra: 1
Spectrometers: USB2E3373
Integration Time (usec): 3000 (USB2E3373)
Spectra Averaged: 3 (USB2E3373)
Boxcar Smoothing: 0 (USB2E3373)
Correct for Electrical Dark: No (USB2E3373)
Strobe/Lamp Enabled: No (USB2E3373)
Correct for Detector Non-linearity: No (USB2E3373)
Correct for Stray Light: No (USB2E3373)
Number of Pixels in Processed Spectrum: 2048
>>>>>Begin Processed Spectral Data<<<<<
178.53	0.000
178.91	-1175.000
179.29	-1250.000
179.67	-177.778
180.04	-1250.000
180.42	2150.000
180.80	860.000
181.18	-925.000
181.56	557.143
181.94	0.000
182.31	-542.857
182.69	1733.333
183.07	-475.000
183.45	-444.444
183.83	436.364
184.20	-280.000
184.58	1900.000
184.96	5700.000
185.34	-720.000
185.72	-450.000
186.09	-2400.000
186.47	2200.000
186.85	2150.000
187.23	4700.000
187.61	-1666.667
187.98	1250.000
188.36	572.727
188.74	400.000
189.12	-840.000
189.49	580.000
189.87	-4700.000
190.25	-1425.000
190.63	457.143
191.00	392.308
191.38	883.333
191.76	-1175.000
192.14	1400.000
192.51	562.500
192.89	883.333
193.27	475.000
193.65	-1000.000
194.02	510.000
194.40	740.000
194.78	420.000
195.15	483.333
195.53	560.000
195.91	-1800.000
196.29	381.250
196.66	252.632
197.04	-250.000
197.42	0.000
197.79	520.000
198.17	-4200.000
198.55	571.429
198.92	637.500
199.30	760.000
199.68	0.000
200.05	272.222
200.43	585.714
200.81	4100.000
201.18	1266.667
201.56	-1200.000
201.94	400.000
202.31	511.111
202.69	450.000
203.07	450.000
203.44	0.000
203.82	1450.000
204.19	657.143
204.57	414.286
204.95	587.500
205.32	1233.333
205.70	454.545
206.08	378.571
206.45	2000.000
206.83	343.750
207.20	966.667
207.58	780.000
207.96	327.778
208.33	525.000
208.71	-850.000
209.08	700.000
209.46	522.222
209.84	381.818
210.21	-1433.333
210.59	1150.000
210.96	-550.000
211.34	2150.000
211.71	430.000
212.09	616.667
212.46	0.000
212.84	1700.000
213.22	1250.000
213.59	-3600.000
213.97	900.000
214.34	728.571
214.72	572.727
215.09	920.000
215.47	-1650.000
215.84	-1950.000
216.22	1266.667
216.59	328.571
216.97	1225.000
217.34	400.000
217.72	-666.667
218.09	0.000
218.47	-4100.000
218.84	566.667
219.22	628.571
219.59	1366.667
219.97	-628.571
220.34	1040.000
220.72	-1700.000
221.09	371.429
221.47	1250.000
221.84	-900.000
222.22	0.000
222.59	1100.000
222.97	-2350.000
223.34	1160.000
223.72	423.077
224.09	1020.000
224.46	2300.000
224.84	-4600.000
225.21	-980.000
225.59	-4100.000
225.96	500.000
226.34	300.000
226.71	2900.000
227.08	550.000
227.46	580.000
227.83	-1000.000
228.21	-2200.000
228.58	522.222
228.95	-2000.000
229.33	-1800.000
229.70	1666.667
230.08	814.286
230.45	-660.000
230.82	425.000
231.20	850.000
231.57	485.714
231.95	450.000
232.32	236.364
232.69	345.455
233.07	471.429
233.44	330.769
233.81	-1400.000
234.19	231.579
234.56	358.333
234.93	333.333
235.31	336.364
235.68	323.077
236.05	307.143
236.43	142.424
236.80	226.316
237.17	4500.000
237.55	228.571
237.92	164.286
238.29	180.952
238.67	145.161
239.04	162.069
239.41	108.333
239.79	76.087
240.16	95.238
240.53	104.545
240.91	74.510
241.28	80.000
241.65	92.000
242.02	69.565
242.40	62.903
242.77	73.333
243.14	51.613
243.51	68.539
243.89	57.647
244.26	48.889
244.63	54.839
245.00	38.298
245.38	45.545
245.75	36.449
246.12	50.459
246.49	45.985
246.87	53.600
247.24	41.538
247.61	35.000
247.98	37.255
248.36	25.000
248.73	27.389
249.10	36.943
249.47	33.333
249.84	32.620
250.22	29.412
250.59	24.852
250.96	29.293
251.33	29.384
251.70	31.683
252.08	25.238
252.45	27.803
252.82	19.130
253.19	24.255
253.56	26.275
253.94	26.141
254.31	21.094
254.68	24.231
255.05	25.830
255.42	21.545
255.79	24.632
256.16	22.022
256.54	18.021
256.91	20.996
257.28	19.065
257.65	19.472
258.02	21.429
258.39	19.874
258.76	20.067
259.14	22.619
259.51	17.933
259.88	16.770
260.25	17.825
260.62	18.208
260.99	17.391
261.36	20.420
261.73	16.619
262.10	13.663
262.47	19.437
262.85	16.713
263.22	16.239
263.59	17.094
263.96	17.033
264.33	14.883
264.70	16.316
265.07	17.903
265.44	15.909
265.81	14.599
266.18	15.075
266.55	13.171
266.92	13.022
267.29	17.361
267.66	17.661
268.03	18.409
268.40	17.757
268.77	14.797
269.14	15.090
269.51	15.124
269.88	17.483
270.25	14.221
270.62	15.506
270.99	17.849
271.36	16.309
271.73	13.551
272.10	14.565
272.47	16.989
272.84	15.584
273.21	15.933
273.58	13.755
273.95	12.369
274.32	11.570
274.69	14.133
275.06	13.780
275.43	12.979
275.80	14.830
276.17	14.664
276.54	11.435
276.91	13.043
277.28	12.109
277.65	12.959
278.02	14.286
278.39	14.453
278.76	11.636
279.13	13.774
279.50	13.780
279.87	11.554
280.23	11.776
280.60	12.186
280.97	13.309
281.34	13.982
281.71	14.182
282.08	12.284
282.45	11.273
282.82	12.078
283.19	11.408
283.56	12.807
283.92	13.706
284.29	13.051
284.66	11.978
285.03	10.850
285.40	11.092
285.77	10.943
286.14	11.572
286.51	13.000
286.87	11.966
287.24	12.215
287.61	11.075
287.98	12.338
288.35	10.777
288.72	12.461
289.08	12.520
289.45	11.203
289.82	11.545
290.19	9.576
290.56	10.720
290.93	10.121
291.29	11.656
291.66	10.472
292.03	11.628
292.40	12.922
292.77	11.243
293.13	11.940
293.50	9.621
293.87	10.222
294.24	9.333
294.60	10.335
294.97	11.628
295.34	11.425
295.71	10.511
296.08	9.544
296.44	8.941
296.81	10.172
297.18	10.434
297.55	9.763
297.91	10.158
298.28	10.843
298.65	10.444
299.02	10.013
299.38	8.632
299.75	8.356
300.12	8.174
300.48	9.375
300.85	10.234
301.22	9.299
301.59	9.470
301.95	8.942
302.32	9.371
302.69	9.677
303.05	9.697
303.42	9.383
303.79	10.419
304.15	9.790
304.52	8.111
304.89	9.292
305.25	8.701
305.62	10.306
305.99	10.626
306.35	10.179
306.72	10.538
307.09	11.432
307.45	11.712
307.82	9.263
308.19	10.375
308.55	10.248
308.92	9.237
309.29	11.193
309.65	11.029
310.02	10.359
310.38	10.968
310.75	10.032
311.12	12.487
311.48	11.808
311.85	13.103
312.22	11.759
312.58	11.123
312.95	12.249
313.31	12.913
313.68	13.098
314.05	14.201
314.41	12.462
314.78	12.588
315.14	13.108
315.51	14.418
315.87	13.663
316.24	13.803
316.61	14.425
316.97	13.699
317.34	13.503
317.70	16.157
318.07	15.784
318.43	15.166
318.80	15.651
319.16	16.290
319.53	15.291
319.89	16.000
320.26	17.100
320.62	16.766
320.99	17.374
321.35	17.071
321.72	18.994
322.08	18.855
322.45	20.000
322.81	19.767
323.18	19.268
323.54	20.408
323.91	20.566
324.27	21.415
324.64	21.156
325.00	20.108
325.37	23.112
325.73	22.801
326.10	22.507
326.46	22.849
326.83	23.037
327.19	23.228
327.56	23.780
327.92	24.059
328.29	24.667
328.65	26.888
329.01	24.819
329.38	24.699
329.74	23.638
330.11	26.202
330.47	25.987
330.84	26.838
331.20	25.228
331.56	26.606
331.93	25.833
332.29	26.176
332.66	25.752
333.02	25.960
333.38	26.829
333.75	26.916
334.11	26.779
334.48	25.732
334.84	26.746
335.20	27.545
335.57	25.748
335.93	25.714
336.29	26.374
336.66	26.330
337.02	24.977
337.38	26.019
337.75	25.579
338.11	25.515
338.47	26.703
338.84	26.948
339.20	25.963
339.56	27.099
339.93	25.636
340.29	24.728
340.65	25.223
341.02	26.353
341.38	26.068
341.74	25.000
342.11	25.677
342.47	25.374
342.83	25.257
343.20	26.667
343.56	25.695
343.92	24.912
344.28	25.680
344.65	26.053
345.01	24.663
345.37	25.815
345.73	25.550
346.10	26.002
346.46	26.525
346.82	24.217
347.19	24.561
347.55	24.795
347.91	26.294
348.27	26.376
348.63	25.251
349.00	25.647
349.36	24.877
349.72	25.261
350.08	25.122
350.45	25.712
350.81	25.102
351.17	25.527
351.53	25.061
351.89	26.073
352.26	25.099
352.62	24.940
352.98	25.365
353.34	24.979
353.70	25.859
354.07	24.355
354.43	24.762
354.79	25.101
355.15	25.459
355.51	25.739
355.87	25.224
356.24	25.326
356.60	25.742
356.96	26.307
357.32	25.675
357.68	25.984
358.04	25.099
358.40	25.416
358.77	25.978
359.13	25.967
359.49	26.039
359.85	24.127
360.21	26.236
360.57	25.525
360.93	26.308
361.29	25.624
361.66	25.619
362.02	26.269
362.38	26.768
362.74	26.488
363.10	25.019
363.46	26.192
363.82	25.472
364.18	25.477
364.54	26.746
364.90	26.771
365.26	25.147
365.62	27.100
365.98	27.246
366.35	25.430
366.71	26.030
367.07	25.637
367.43	27.431
367.79	27.409
368.15	27.945
368.51	26.308
368.87	27.552
369.23	26.628
369.59	26.937
369.95	27.132
370.31	27.137
370.67	27.174
371.03	27.865
371.39	27.114
371.75	27.721
372.11	26.671
372.47	29.472
372.83	27.954
373.19	27.746
373.55	28.455
373.91	29.234
374.27	27.698
374.63	28.000
374.99	28.531
375.35	27.634
375.71	28.718
376.07	28.944
376.42	28.336
376.78	28.231
377.14	29.376
377.50	31.192
377.86	28.723
378.22	28.698
378.58	28.759
378.94	29.290
379.30	29.389
379.66	29.822
380.02	30.283
380.38	30.237
380.74	30.312
381.09	30.685
381.45	29.687
381.81	31.143
382.17	29.936
382.53	31.195
382.89	31.852
383.25	30.644
383.61	31.970
383.97	32.083
384.32	31.878
384.68	31.165
385.04	31.776
385.40	31.889
385.76	32.740
386.12	32.513
386.48	32.788
386.83	33.355
387.19	33.086
387.55	32.529
387.91	32.648
388.27	31.760
388.62	33.497
388.98	32.371
389.34	33.605
389.70	33.047
390.06	35.044
390.42	33.463
390.77	34.097
391.13	34.014
391.49	33.312
391.85	33.291
392.20	33.375
392.56	35.164
392.92	33.431
393.28	33.905
393.64	32.974
393.99	33.598
394.35	33.623
394.71	33.375
395.07	33.956
395.42	34.487
395.78	34.415
396.14	33.954
396.50	34.774
396.85	35.664
397.21	33.600
397.57	34.656
397.92	34.916
398.28	33.969
398.64	35.006
399.00	34.751
399.35	33.503
399.71	34.375
400.07	34.299
400.42	34.601
400.78	35.042
401.14	35.061
401.49	34.985
401.85	34.362
402.21	34.491
402.57	35.287
402.92	35.561
403.28	35.728
403.63	34.282
403.99	34.586
404.35	34.970
404.70	33.933
405.06	34.945
405.42	34.934
405.77	34.800
406.13	34.424
406.49	34.772
406.84	34.377
407.20	34.220
407.55	34.333
407.91	35.467
408.27	34.269
408.62	35.340
408.98	35.355
409.34	34.440
409.69	34.839
410.05	34.758
410.40	33.884
410.76	34.409
411.11	35.223
411.47	34.377
411.83	34.209
412.18	33.704
412.54	33.499
412.89	34.940
413.25	34.711
413.60	35.516
413.96	33.030
414.31	34.508
414.67	34.411
415.03	33.444
415.38	34.536
415.74	33.891
416.09	33.769
416.45	33.735
416.80	34.038
417.16	35.255
417.51	34.837
417.87	33.526
418.22	36.025
418.58	34.797
418.93	35.319
419.29	34.564
419.64	35.139
420.00	34.268
420.35	33.913
420.71	34.848
421.06	33.234
421.42	34.444
421.77	34.137
422.12	33.015
422.48	32.758
422.83	34.537
423.19	34.641
423.54	34.939
423.90	34.725
424.25	34.227
424.61	34.345
424.96	34.227
425.31	33.832
425.67	33.371
426.02	33.486
426.38	35.104
426.73	33.294
427.09	34.468
427.44	32.547
427.79	33.755
428.15	34.464
428.50	33.411
428.85	35.518
429.21	34.180
429.56	33.800
429.92	33.115
430.27	32.820
430.62	33.436
430.98	33.887
431.33	33.041
431.68	33.089
432.04	33.387
432.39	34.723
432.74	34.111
433.10	34.409
433.45	34.111
433.80	34.368
434.16	33.654
434.51	34.053
434.86	34.607
435.22	34.186
435.57	35.502
435.92	33.411
436.28	34.520
436.63	33.720
436.98	33.200
437.34	35.063
437.69	33.956
438.04	34.120
438.39	34.567
438.75	34.863
439.10	33.073
439.45	34.888
439.81	34.079
440.16	34.557
440.51	34.095
440.86	34.279
441.22	34.483
441.57	33.439
441.92	34.237
442.27	34.876
442.63	34.597
442.98	34.817
443.33	33.696
443.68	34.383
444.03	33.773
444.39	33.642
444.74	33.550
445.09	34.447
445.44	33.844
445.79	33.993
446.15	33.880
446.50	34.303
446.85	32.682
447.20	33.605
447.55	34.506
447.91	33.149
448.26	34.001
448.61	33.748
448.96	34.939
449.31	34.308
449.66	33.708
450.02	33.872
450.37	32.937
450.72	33.954
451.07	33.272
451.42	33.070
451.77	34.645
452.12	33.025
452.47	34.577
452.83	33.508
453.18	33.863
453.53	34.137
453.88	33.727
454.23	33.473
454.58	35.070
454.93	35.410
455.28	34.414
455.63	33.495
455.98	34.643
456.34	33.480
456.69	34.690
457.04	34.303
457.39	34.191
457.74	33.894
458.09	33.583
458.44	33.238
458.79	33.134
459.14	33.521
459.49	33.450
459.84	33.850
460.19	32.999
460.54	32.581
460.89	33.077
461.24	33.212
461.59	34.689
461.94	33.477
462.29	34.777
462.64	33.504
462.99	32.986
463.34	33.267
463.69	33.208
464.04	32.870
464.39	32.986
464.74	32.739
465.09	33.052
465.44	32.188
465.79	32.494
466.14	32.293
466.49	31.702
466.84	32.691
467.19	32.951
467.54	33.562
467.89	32.533
468.24	32.519
468.59	33.394
468.94	31.949
469.29	33.226
469.64	32.999
469.99	34.235
470.34	32.563
470.68	32.974
471.03	33.061
471.38	33.982
471.73	32.512
472.08	33.224
472.43	33.291
472.78	31.995
473.13	33.055
473.48	32.896
473.83	32.317
474.17	31.923
474.52	33.065
474.87	33.041
475.22	33.140
475.57	31.274
475.92	31.174
476.27	31.229
476.61	32.101
476.96	31.941
477.31	32.496
477.66	32.440
478.01	31.469
478.36	31.941
478.70	31.516
479.05	32.055
479.40	32.088
479.75	31.927
480.10	31.610
480.45	31.033
480.79	31.534
481.14	30.773
481.49	31.467
481.84	31.230
482.19	31.440
482.53	31.009
482.88	31.177
483.23	31.028
483.58	30.619
483.92	31.396
484.27	29.499
484.62	30.690
484.97	30.035
485.31	31.027
485.66	29.916
486.01	28.998
486.36	27.908
486.70	27.233
487.05	28.191
487.40	28.805
487.75	28.779
488.09	29.299
488.44	29.453
488.79	30.850
489.13	30.099
489.48	30.057
489.83	30.255
490.17	30.951
490.52	30.204
490.87	30.303
491.22	30.059
491.56	29.932
491.91	29.642
492.26	29.169
492.60	30.000
492.95	29.794
493.30	30.514
493.64	30.098
493.99	29.712
494.34	30.204
494.68	29.716
495.03	30.122
495.37	29.362
495.72	29.971
496.07	29.930
496.41	29.204
496.76	30.343
497.11	29.041
497.45	29.530
497.80	29.702
498.14	29.469
498.49	29.463
498.84	29.674
499.18	29.714
499.53	29.155
499.87	29.077
500.22	29.063
500.56	30.534
500.91	29.663
501.26	29.161
501.60	30.090
501.95	29.056
502.29	29.803
502.64	29.143
502.98	29.079
503.33	28.611
503.67	28.817
504.02	29.326
504.36	28.638
504.71	29.507
505.06	29.301
505.40	29.266
505.75	29.219
506.09	28.814
506.44	28.515
506.78	29.226
507.13	29.430
507.47	29.596
507.82	30.091
508.16	29.230
508.51	29.122
508.85	29.494
509.19	29.592
509.54	28.776
509.88	28.851
510.23	28.946
510.57	29.721
510.92	29.052
511.26	29.496
511.61	29.668
511.95	29.123
512.30	28.632
512.64	29.930
512.98	29.850
513.33	30.139
513.67	28.495
514.02	28.788
514.36	29.437
514.70	29.386
515.05	28.277
515.39	29.277
515.74	29.054
516.08	29.346
516.42	30.355
516.77	29.766
517.11	29.356
517.46	29.458
517.80	29.733
518.14	29.010
518.49	29.988
518.83	29.148
519.17	28.811
519.52	29.428
519.86	28.922
520.20	29.422
520.55	30.580
520.89	29.623
521.23	30.760
521.58	29.772
521.92	30.251
522.26	28.493
522.61	29.595
522.95	29.220
523.29	29.641
523.64	29.390
523.98	30.191
524.32	29.916
524.66	29.705
525.01	29.596
525.35	28.934
525.69	28.818
526.04	29.159
526.38	30.018
526.72	29.141
527.06	29.253
527.41	28.094
527.75	29.839
528.09	29.223
528.43	30.210
528.78	29.502
529.12	29.273
529.46	29.761
529.80	29.332
530.15	29.346
530.49	28.308
530.83	29.557
531.17	30.483
531.51	30.156
531.86	29.419
532.20	29.726
532.54	29.789
532.88	29.397
533.22	27.733
533.57	29.815
533.91	29.079
534.25	28.372
534.59	28.249
534.93	28.257
535.27	29.390
535.62	28.755
535.96	29.002
536.30	29.434
536.64	28.654
536.98	28.202
537.32	28.571
537.66	29.000
538.01	29.164
538.35	29.412
538.69	29.611
539.03	28.590
539.37	27.604
539.71	28.127
540.05	28.954
540.39	29.103
540.73	28.525
541.07	29.526
541.42	28.898
541.76	28.903
542.10	28.590
542.44	28.146
542.78	28.393
543.12	27.639
543.46	27.934
543.80	27.391
544.14	27.086
544.48	27.556
544.82	28.223
545.16	28.692
545.50	28.470
545.84	28.562
546.18	28.418
546.52	27.873
546.86	28.522
547.20	28.186
547.54	28.190
547.88	28.699
548.22	27.958
548.56	27.547
548.90	27.401
549.24	28.215
549.58	27.763
549.92	28.365
550.26	29.119
550.60	28.147
550.94	28.028
551.28	27.140
551.62	29.116
551.96	28.842
552.30	27.850
552.64	28.195
552.98	28.136
553.32	27.916
553.66	29.516
554.00	28.346
554.34	28.088
554.68	28.755
555.02	28.702
555.36	28.323
555.69	27.943
556.03	28.264
556.37	27.558
556.71	27.080
557.05	28.011
557.39	27.502
557.73	27.452
558.07	27.411
558.41	27.641
558.75	27.700
559.08	28.039
559.42	29.101
559.76	28.824
560.10	27.837
560.44	26.765
560.78	27.611
561.12	28.100
561.45	27.836
561.79	27.291
562.13	28.169
562.47	27.186
562.81	27.755
563.15	27.157
563.48	26.724
563.82	27.462
564.16	27.731
564.50	26.823
564.84	27.560
565.17	27.027
565.51	28.243
565.85	26.586
566.19	27.364
566.52	27.676
566.86	27.064
567.20	27.653
567.54	26.484
567.88	26.779
568.21	26.508
568.55	26.997
568.89	26.751
569.23	25.758
569.56	25.668
569.90	25.585
570.24	24.973
570.57	24.685
570.91	24.887
571.25	24.460
571.59	24.359
571.92	23.819
572.26	24.206
572.60	25.345
572.93	24.408
573.27	24.874
573.61	24.595
573.95	24.367
574.28	24.246
574.62	24.004
574.96	23.297
575.29	23.739
575.63	24.085
575.97	23.900
576.30	24.349
576.64	23.755
576.98	24.453
577.31	23.729
577.65	23.974
577.98	23.643
578.32	23.451
578.66	23.564
578.99	23.465
579.33	23.481
579.67	23.279
580.00	24.023
580.34	23.849
580.67	23.942
581.01	24.219
581.35	23.747
581.68	23.415
582.02	23.002
582.35	23.309
582.69	23.479
583.02	23.582
583.36	24.349
583.70	23.901
584.03	24.190
584.37	24.321
584.70	24.321
585.04	23.850
585.37	24.278
585.71	24.225
586.04	23.653
586.38	23.955
586.72	24.551
587.05	23.472
587.39	23.562
587.72	24.092
588.06	23.853
588.39	23.841
588.73	24.934
589.06	24.681
589.40	24.882
589.73	24.182
590.07	24.947
590.40	25.100
590.73	24.785
591.07	25.682
591.40	25.390
591.74	25.758
592.07	25.698
592.41	25.341
592.74	24.869
593.08	24.717
593.41	24.676
593.75	23.548
594.08	24.170
594.41	24.284
594.75	24.843
595.08	24.159
595.42	25.289
595.75	24.323
596.09	25.009
596.42	24.872
596.75	25.285
597.09	25.195
597.42	23.862
597.75	25.097
598.09	24.870
598.42	25.000
598.76	24.483
599.09	24.743
599.42	23.690
599.76	24.524
600.09	24.044
600.42	24.507
600.76	24.071
601.09	23.898
601.42	24.429
601.76	24.630
602.09	24.229
602.42	24.005
602.76	25.433
603.09	25.098
603.42	25.068
603.76	24.162
604.09	23.963
604.42	25.520
604.76	25.559
605.09	25.251
605.42	24.754
605.75	25.124
606.09	24.034
606.42	24.969
606.75	24.927
607.09	23.734
607.42	25.203
607.75	24.262
608.08	24.099
608.42	25.190
608.75	24.572
609.08	24.283
609.41	25.369
609.75	24.964
610.08	25.165
610.41	25.140
610.74	24.740
611.07	25.395
611.41	24.926
611.74	25.540
612.07	26.242
612.40	25.131
612.73	25.000
613.07	25.269
613.40	25.329
613.73	24.174
614.06	25.269
614.39	25.380
614.72	24.895
615.06	25.053
615.39	24.841
615.72	24.847
616.05	25.093
616.38	25.181
616.71	25.772
617.05	26.443
617.38	25.616
617.71	25.465
618.04	26.022
618.37	26.138
618.70	26.011
619.03	26.382
619.36	27.359
619.69	26.338
620.03	27.198
620.36	26.404
620.69	26.644
621.02	26.401
621.35	25.920
621.68	26.947
622.01	27.245
622.34	27.837
622.67	26.996
623.00	26.412
623.33	25.661
623.66	27.949
623.99	26.878
624.32	26.819
624.65	26.412
624.99	25.708
625.32	25.996
625.65	26.521
625.98	27.364
626.31	26.516
626.64	27.673
626.97	27.348
627.30	27.598
627.63	27.400
627.96	28.091
628.29	28.084
628.62	28.637
628.95	29.245
629.28	27.099
629.61	28.231
629.94	29.048
630.26	28.122
630.59	28.313
630.92	27.778
631.25	28.332
631.58	27.628
631.91	28.905
632.24	28.270
632.57	29.591
632.90	29.057
633.23	30.984
633.56	30.169
633.89	28.879
634.22	29.285
634.55	31.124
634.88	28.982
635.20	30.108
635.53	30.361
635.86	30.074
636.19	29.647
636.52	30.219
636.85	29.439
637.18	27.880
637.51	31.442
637.83	28.607
638.16	30.051
638.49	28.841
638.82	28.192
639.15	30.750
639.48	29.925
639.81	30.563
640.13	29.688
640.46	30.067
640.79	30.515
641.12	30.812
641.45	30.028
641.77	31.370
642.10	30.409
642.43	30.931
642.76	31.269
643.09	31.902
643.41	32.170
643.74	32.099
644.07	30.335
644.40	31.902
644.73	34.016
645.05	32.805
645.38	31.912
645.71	31.079
646.04	31.063
646.36	34.558
646.69	33.779
647.02	31.463
647.35	32.474
647.67	33.805
648.00	33.333
648.33	31.023
648.66	31.515
648.98	31.184
649.31	29.297
649.64	29.148
649.96	29.359
650.29	30.016
650.62	29.450
650.94	31.767
651.27	33.953
651.60	32.779
651.92	30.990
652.25	30.456
652.58	29.907
652.90	32.543
653.23	31.125
653.56	30.236
653.88	31.379
654.21	31.754
654.54	29.373
654.86	30.841
655.19	28.108
655.52	21.578
655.84	19.678
656.17	25.193
656.49	33.975
656.82	34.442
657.15	25.924
657.47	19.280
657.80	14.938
658.13	15.510
658.45	23.233
658.78	23.325
659.10	24.366
659.43	25.459
659.75	26.530
660.08	29.937
660.41	32.030
660.73	33.037
661.06	31.051
661.38	34.364
661.71	33.846
662.03	35.700
662.36	29.423
662.68	31.526
663.01	32.525
663.33	33.121
663.66	32.563
663.98	32.397
664.31	30.462
664.63	30.364
664.96	30.181
665.28	34.221
665.61	33.723
665.93	31.791
666.26	30.832
666.58	32.427
666.91	33.827
667.23	35.955
667.56	34.773
667.88	33.974
668.21	34.542
668.53	32.972
668.86	36.797
669.18	35.181
669.50	35.652
669.83	35.948
670.15	35.333
670.48	32.680
670.80	33.621
671.13	30.786
671.45	35.532
671.77	33.605
672.10	33.641
672.42	30.565
672.75	31.675
673.07	29.577
673.39	31.826
673.72	33.398
674.04	34.118
674.37	31.456
674.69	31.084
675.01	31.590
675.34	36.140
675.66	35.579
675.98	34.420
676.31	35.714
676.63	32.272
676.95	31.656
677.28	30.841
677.60	35.824
677.92	35.654
678.25	33.470
678.57	35.458
678.89	32.064
679.22	32.417
679.54	31.107
679.86	31.009
680.18	29.338
680.51	31.915
680.83	29.537
681.15	34.528
681.48	32.325
681.80	30.368
682.12	33.525
682.44	29.207
682.77	34.827
683.09	36.052
683.41	35.033
683.73	37.086
684.06	32.025
684.38	31.311
684.70	30.620
685.02	31.895
685.34	32.234
685.67	30.944
685.99	29.725
686.31	29.352
686.63	28.975
686.96	30.179
687.28	30.144
687.60	32.065
687.92	29.250
688.24	31.939
688.56	32.932
688.89	32.573
689.21	33.406
689.53	31.315
689.85	35.255
690.17	31.056
690.49	32.696
690.82	33.645
691.14	31.696
691.46	32.068
691.78	30.723
692.10	32.438
692.42	32.136
692.74	31.743
693.06	34.255
693.39	33.060
693.71	31.004
694.03	31.579
694.35	32.251
694.67	30.664
694.99	34.878
695.31	32.843
695.63	32.536
695.95	33.252
696.27	30.964
696.59	33.420
696.91	33.938
697.23	30.047
697.56	35.181
697.88	32.106
698.20	29.792
698.52	33.118
698.84	30.735
699.16	32.719
699.48	32.304
699.80	32.367
700.12	40.000
700.44	31.300
700.76	35.635
701.08	35.345
701.40	35.754
701.72	36.443
702.04	40.057
702.36	32.861
702.68	35.694
703.00	37.119
703.32	32.979
703.64	31.903
703.96	33.983
704.28	37.209
704.60	36.070
704.91	35.608
705.23	38.416
705.55	39.203
705.87	40.199
706.19	36.749
706.51	37.695
706.83	34.848
707.15	37.535
707.47	29.798
707.79	33.170
708.11	34.703
708.43	35.952
708.74	33.673
709.06	33.766
709.38	32.546
709.70	38.081
710.02	39.169
710.34	33.030
710.66	37.015
710.98	33.239
711.29	34.012
711.61	35.693
711.93	36.859
712.25	40.836
712.57	42.279
712.89	40.830
713.20	39.514
713.52	36.842
713.84	33.544
714.16	38.720
714.48	34.483
714.80	41.641
715.11	35.735
715.43	36.795
715.75	36.812
716.07	35.463
716.39	38.871
716.70	38.538
717.02	34.892
717.34	40.989
717.66	36.194
717.97	41.434
718.29	35.556
718.61	36.861
718.93	41.544
719.24	38.062
719.56	34.576
719.88	36.949
720.20	40.203
720.51	37.631
720.83	42.007
721.15	32.836
721.46	39.362
721.78	43.011
722.10	41.887
722.42	38.346
722.73	39.700
723.05	41.393
723.37	38.462
723.68	36.293
724.00	41.870
724.32	41.532
724.63	44.309
724.95	39.331
725.27	42.915
725.58	42.188
725.90	43.431
726.22	40.000
726.53	38.889
726.85	40.956
727.16	39.146
727.48	35.461
727.80	35.606
728.11	37.681
728.43	38.846
728.74	38.710
729.06	42.336
729.38	39.338
729.69	40.214
730.01	37.884
730.32	35.417
730.64	36.789
730.96	34.653
731.27	39.073
731.59	37.309
731.90	33.819
732.22	36.957
732.53	37.461
732.85	35.577
733.16	34.405
733.48	34.884
733.80	33.442
734.11	37.580
734.43	36.391
734.74	32.571
735.06	35.817
735.37	35.838
735.69	32.484
736.00	38.562
736.32	38.006
736.63	33.866
736.95	35.144
737.26	32.993
737.58	31.935
737.89	36.120
738.21	35.836
738.52	37.857
738.83	38.868
739.15	37.308
739.46	39.416
739.78	37.153
740.09	35.077
740.41	38.387
740.72	34.843
741.04	39.630
741.35	40.000
741.66	46.222
741.98	39.151
742.29	47.368
742.61	47.845
742.92	40.724
743.23	41.453
743.55	45.600
743.86	44.298
744.18	42.035
744.49	47.368
744.80	44.131
745.12	46.364
745.43	36.123
745.74	42.342
746.06	44.495
746.37	46.188
746.68	46.606
747.00	43.519
747.31	49.048
747.62	41.593
747.94	43.172
748.25	36.170
748.56	46.256
748.88	42.574
749.19	42.000
749.50	43.256
749.82	33.740
750.13	37.143
750.44	39.051
750.75	37.544
751.07	35.691
751.38	40.418
751.69	37.545
752.01	40.226
752.32	35.740
752.63	35.816
752.94	43.443
753.26	38.400
753.57	32.520
753.88	39.063
754.19	39.643
754.51	40.972
754.82	38.267
755.13	39.245
755.44	37.970
755.75	35.036
756.07	36.879
756.38	33.212
756.69	37.584
757.00	33.234
757.31	34.718
757.63	35.088
757.94	31.367
758.25	32.353
758.56	34.568
758.87	33.333
759.18	37.273
759.50	31.661
759.81	33.022
760.12	32.500
760.43	35.530
760.74	34.783
761.05	36.441
761.36	31.283
761.67	34.659
761.99	33.540
762.30	36.806
762.61	39.695
762.92	41.016
763.23	38.655
763.54	47.200
763.85	38.672
764.16	41.154
764.47	38.783
764.78	34.276
765.10	27.848
765.41	31.858
765.72	33.533
766.03	35.423
766.34	33.333
766.65	39.149
766.96	38.034
767.27	47.208
767.58	38.542
767.89	42.105
768.20	45.402
768.51	46.193
768.82	38.532
769.13	41.057
769.44	38.462
769.75	40.773
770.06	36.239
770.37	42.081
770.68	43.519
770.99	39.556
771.30	33.197
771.61	45.291
771.92	37.705
772.23	44.118
772.54	46.667
772.85	48.168
773.16	45.745
773.47	44.565
773.78	49.239
774.09	51.786
774.39	49.123
774.70	50.000
775.01	50.725
775.32	56.209
775.63	51.974
775.94	50.360
776.25	56.693
776.56	57.463
776.87	58.197
777.18	57.031
777.48	54.198
777.79	53.788
778.10	54.815
778.41	60.714
778.72	45.985
779.03	41.611
779.34	53.691
779.65	40.541
779.95	52.147
780.26	45.098
780.57	50.345
780.88	59.375
781.19	45.113
781.50	58.784
781.80	51.572
782.11	45.763
782.42	46.835
782.73	44.172
783.04	52.703
783.34	55.634
783.65	55.479
783.96	55.970
784.27	54.545
784.57	42.446
784.88	46.296
785.19	67.460
785.50	71.698
785.81	60.448
786.11	68.852
786.42	60.465
786.73	53.097
787.04	65.094
787.34	56.250
787.65	62.000
787.96	69.369
788.26	56.198
788.57	58.475
788.88	66.116
789.19	56.250
789.49	64.394
789.80	59.542
790.11	76.190
790.41	64.356
790.72	77.108
791.03	59.783
791.33	65.116
791.64	61.856
791.95	67.327
792.25	76.667
792.56	66.234
792.87	84.615
793.17	88.608
793.48	77.011
793.79	68.966
794.09	68.182
794.40	60.504
794.70	59.559
795.01	54.815
795.32	53.957
795.62	62.205
795.93	59.483
796.23	65.487
796.54	64.706
796.85	78.378
797.15	91.549
797.46	75.758
797.76	91.566
798.07	70.886
798.37	78.462
798.68	63.636
798.99	73.239
799.29	67.532
799.60	76.136
799.90	83.562
800.21	95.522
800.51	89.655
800.82	100.000
801.12	114.754
801.43	100.000
801.73	82.432
802.04	82.540
802.34	81.481
802.65	82.813
802.95	89.831
803.26	96.875
803.56	75.714
803.87	86.154
804.17	85.294
804.48	107.407
804.78	81.034
805.09	79.412
805.39	103.846
805.70	114.286
806.00	90.164
806.30	92.424
806.61	74.390
806.91	68.354
807.22	76.316
807.52	77.612
807.83	83.099
808.13	104.688
808.43	100.000
808.74	69.737
809.04	100.000
809.35	89.552
809.65	94.737
809.95	116.129
810.26	66.102
810.56	98.413
810.86	140.909
811.17	133.333
811.47	88.333
811.77	94.444
812.08	105.455
812.38	114.000
812.69	116.667
812.99	145.455
813.29	110.204
813.59	83.333
813.90	122.449
814.20	98.182
814.50	67.692
814.81	83.824
815.11	112.245
815.41	91.803
815.72	140.476
816.02	120.000
816.32	130.952
816.62	132.500
816.93	129.268
817.23	126.190
817.53	118.182
817.84	154.545
818.14	128.261
818.44	106.667
818.74	155.882
819.04	112.500
819.35	140.000
819.65	155.882
819.95	160.714
820.25	220.000
820.56	138.462
820.86	134.091
821.16	125.581
821.46	143.590
821.76	128.000
822.07	148.571
822.37	157.500
822.67	142.424
822.97	101.961
823.27	178.571
823.57	145.946
823.88	142.500
824.18	206.667
824.48	159.524
824.78	212.000
825.08	175.000
825.38	116.216
825.69	134.146
825.99	195.833
826.29	165.517
826.59	134.211
826.89	147.368
827.19	173.529
827.49	141.935
827.79	113.636
828.09	129.545
828.39	134.043
828.70	130.612
829.00	144.444
829.30	116.129
829.60	125.000
829.90	226.667
830.20	150.000
830.50	208.696
830.80	160.870
831.10	190.000
831.40	153.333
831.70	143.478
832.00	184.615
832.30	181.481
832.60	306.250
832.90	153.333
833.20	314.286
833.50	161.290
833.80	186.207
834.10	156.250
834.40	226.923
834.70	272.222
835.00	328.571
835.30	168.571
835.60	369.231
835.90	182.759
836.20	342.857
836.50	168.966
836.80	196.000
837.10	169.444
837.40	261.905
837.70	294.118
838.00	218.519
838.30	176.190
838.60	247.619
838.90	207.692
839.19	270.000
839.49	385.714
839.79	310.000
840.09	190.000
840.39	219.048
840.69	243.478
840.99	272.222
841.29	390.000
841.59	333.333
841.88	325.000
842.18	162.069
842.48	238.095
842.78	183.333
843.08	221.739
843.38	171.875
843.68	716.667
843.97	211.538
844.27	148.276
844.57	295.238
844.87	325.000
845.17	174.074
845.47	1600.000
845.76	288.889
846.06	223.529
846.36	475.000
846.66	350.000
846.96	250.000
847.25	400.000
847.55	390.909
847.85	273.913
848.15	460.000
848.44	328.571
848.74	205.556
849.04	288.235
849.34	420.000
849.63	263.158
849.93	418.182
850.23	900.000
850.53	428.571
850.82	2450.000
851.12	-4300.000
851.42	4300.000
851.71	220.000
852.01	-1100.000
852.31	225.000
852.61	1333.333
852.90	266.667
853.20	212.000
853.50	317.647
853.79	233.333
854.09	179.167
854.39	325.000
854.68	164.865
854.98	141.935
855.28	150.000
855.57	179.310
855.87	185.185
856.17	257.895
856.46	260.000
856.76	247.059
857.05	200.000
857.35	220.833
857.65	326.667
857.94	269.565
858.24	230.769
858.53	285.000
858.83	209.091
859.13	306.667
859.42	0.000
859.72	566.667
860.01	427.273
860.31	213.636
860.60	289.474
860.90	208.696
861.20	455.556
861.49	483.333
861.79	-3300.000
862.08	612.500
862.38	261.905
862.67	238.462
862.97	270.588
863.26	477.778
863.56	222.222
863.85	283.333
864.15	562.500
864.44	333.333
864.74	733.333
865.03	662.500
865.33	300.000
865.62	427.273
865.92	453.846
866.21	333.333
866.51	0.000
866.80	381.818
867.10	1100.000
867.39	376.923
867.69	481.818
867.98	252.632
868.27	427.273
868.57	278.947
868.86	-3800.000
869.16	268.750
869.45	1850.000
869.75	-3800.000
870.04	433.333
870.33	514.286
870.63	850.000
870.92	2250.000
871.22	685.714
871.51	247.059
871.80	223.810
872.10	350.000
>>>>>End Processed Spectral Data<<<<<
