SpectraSuite Data File
++++++++++++++++++++++++++++++++++++
Date: Wed May 13 16:42:12 PDT 2015
User: schluterlab
Dark Spectrum Present: Yes
Reference Spectrum Present: Yes
Number of Sampled Component Spectra: 1
Spectrometers: USB2E3373
Integration Time (usec): 3000 (USB2E3373)
Spectra Averaged: 3 (USB2E3373)
Boxcar Smoothing: 0 (USB2E3373)
Correct for Electrical Dark: No (USB2E3373)
Strobe/Lamp Enabled: No (USB2E3373)
Correct for Detector Non-linearity: No (USB2E3373)
Correct for Stray Light: No (USB2E3373)
Number of Pixels in Processed Spectrum: 2048
>>>>>Begin Processed Spectral Data<<<<<
178.53	0.000
178.91	-1400.000
179.29	-1300.000
179.67	-294.444
180.04	-1250.000
180.42	2700.000
180.80	1040.000
181.18	-1300.000
181.56	642.857
181.94	0.000
182.31	-642.857
182.69	1766.667
183.07	-575.000
183.45	-577.778
183.83	581.818
184.20	-410.000
184.58	2650.000
184.96	5200.000
185.34	-860.000
185.72	-650.000
186.09	-2450.000
186.47	2500.000
186.85	2600.000
187.23	5100.000
187.61	-1966.667
187.98	1350.000
188.36	563.636
188.74	536.364
189.12	-760.000
189.49	570.000
189.87	-5500.000
190.25	-1000.000
190.63	478.571
191.00	392.308
191.38	933.333
191.76	-1375.000
192.14	1500.000
192.51	575.000
192.89	916.667
193.27	625.000
193.65	-1175.000
194.02	530.000
194.40	1000.000
194.78	530.000
195.15	533.333
195.53	610.000
195.91	-1950.000
196.29	331.250
196.66	305.263
197.04	-390.000
197.42	0.000
197.79	670.000
198.17	-4900.000
198.55	585.714
198.92	737.500
199.30	1020.000
199.68	0.000
200.05	333.333
200.43	671.429
200.81	4400.000
201.18	1600.000
201.56	-1600.000
201.94	622.222
202.31	544.444
202.69	475.000
203.07	560.000
203.44	0.000
203.82	1200.000
204.19	828.571
204.57	457.143
204.95	575.000
205.32	1400.000
205.70	454.545
206.08	321.429
206.45	2350.000
206.83	375.000
207.20	983.333
207.58	800.000
207.96	322.222
208.33	675.000
208.71	-783.333
209.08	814.286
209.46	633.333
209.84	472.727
210.21	-1566.667
210.59	1200.000
210.96	-550.000
211.34	2700.000
211.71	620.000
212.09	716.667
212.46	0.000
212.84	1500.000
213.22	1350.000
213.59	-5300.000
213.97	866.667
214.34	657.143
214.72	581.818
215.09	1020.000
215.47	-2200.000
215.84	-2150.000
216.22	1566.667
216.59	385.714
216.97	1125.000
217.34	418.182
217.72	-816.667
218.09	0.000
218.47	-4500.000
218.84	777.778
219.22	771.429
219.59	1433.333
219.97	-585.714
220.34	1060.000
220.72	-1700.000
221.09	357.143
221.47	1425.000
221.84	-866.667
222.22	0.000
222.59	1450.000
222.97	-2450.000
223.34	1200.000
223.72	453.846
224.09	1120.000
224.46	2200.000
224.84	-4600.000
225.21	-880.000
225.59	-4100.000
225.96	540.000
226.34	285.000
226.71	2200.000
227.08	612.500
227.46	620.000
227.83	-1225.000
228.21	-2200.000
228.58	533.333
228.95	-2250.000
229.33	-2150.000
229.70	1600.000
230.08	742.857
230.45	-920.000
230.82	391.667
231.20	883.333
231.57	585.714
231.95	433.333
232.32	277.273
232.69	454.545
233.07	542.857
233.44	392.308
233.81	-1633.333
234.19	347.368
234.56	475.000
234.93	375.000
235.31	536.364
235.68	276.923
236.05	357.143
236.43	163.636
236.80	263.158
237.17	4000.000
237.55	261.905
237.92	200.000
238.29	290.476
238.67	158.065
239.04	244.828
239.41	172.222
239.79	139.130
240.16	140.476
240.53	159.091
240.91	111.765
241.28	118.000
241.65	100.000
242.02	94.203
242.40	87.097
242.77	95.000
243.14	68.817
243.51	93.258
243.89	74.118
244.26	65.556
244.63	67.742
245.00	60.638
245.38	70.297
245.75	59.813
246.12	53.211
246.49	58.394
246.87	72.000
247.24	58.462
247.61	58.571
247.98	58.170
248.36	47.973
248.73	50.955
249.10	52.866
249.47	50.282
249.84	45.989
250.22	47.059
250.59	44.970
250.96	43.434
251.33	43.128
251.70	46.040
252.08	40.476
252.45	43.946
252.82	40.435
253.19	42.553
253.56	45.098
253.94	42.324
254.31	39.453
254.68	42.692
255.05	41.697
255.42	36.585
255.79	37.500
256.16	40.072
256.54	32.155
256.91	35.943
257.28	30.576
257.65	37.624
258.02	35.404
258.39	37.224
258.76	33.779
259.14	33.929
259.51	33.739
259.88	33.540
260.25	35.650
260.62	33.526
260.99	31.366
261.36	29.429
261.73	31.232
262.10	34.012
262.47	34.930
262.85	33.983
263.22	28.775
263.59	33.903
263.96	31.868
264.33	32.115
264.70	30.526
265.07	31.969
265.44	32.828
265.81	28.954
266.18	31.407
266.55	30.732
266.92	30.958
267.29	29.861
267.66	29.128
268.03	29.091
268.40	30.140
268.77	28.640
269.14	28.153
269.51	29.797
269.88	31.002
270.25	27.765
270.62	32.135
270.99	28.817
271.36	29.185
271.73	27.570
272.10	29.130
272.47	29.032
272.84	27.922
273.21	27.883
273.58	27.074
273.95	28.092
274.32	24.380
274.69	29.122
275.06	26.378
275.43	29.787
275.80	26.854
276.17	28.513
276.54	27.235
276.91	27.866
277.28	28.516
277.65	28.627
278.02	27.743
278.39	31.250
278.76	25.273
279.13	26.792
279.50	26.071
279.87	24.303
280.23	26.946
280.60	25.532
280.97	24.584
281.34	25.664
281.71	27.273
282.08	26.871
282.45	26.909
282.82	27.531
283.19	25.312
283.56	26.140
283.92	26.734
284.29	22.928
284.66	25.227
285.03	24.412
285.40	26.585
285.77	25.421
286.14	21.934
286.51	25.500
286.87	26.496
287.24	23.616
287.61	23.756
287.98	25.325
288.35	23.613
288.72	22.586
289.08	24.570
289.45	22.241
289.82	24.390
290.19	22.449
290.56	21.593
290.93	23.414
291.29	22.393
291.66	21.829
292.03	22.820
292.40	24.229
292.77	21.598
293.13	22.836
293.50	19.971
293.87	21.926
294.24	19.852
294.60	20.233
294.97	20.349
295.34	21.721
295.71	22.017
296.08	18.519
296.44	21.733
296.81	20.211
297.18	21.680
297.55	19.921
297.91	20.053
298.28	20.348
298.65	19.582
299.02	20.685
299.38	19.655
299.75	19.003
300.12	16.731
300.48	18.375
300.85	19.975
301.22	19.873
301.59	17.929
301.95	17.758
302.32	18.870
302.69	17.204
303.05	19.030
303.42	19.012
303.79	18.347
304.15	16.783
304.52	17.497
304.89	16.492
305.25	16.589
305.62	19.253
305.99	19.362
306.35	17.562
306.72	18.834
307.09	18.091
307.45	18.243
307.82	17.969
308.19	17.991
308.55	18.986
308.92	17.186
309.29	18.163
309.65	17.709
310.02	18.710
310.38	18.172
310.75	17.635
311.12	17.298
311.48	17.659
311.85	17.505
312.22	16.129
312.58	17.879
312.95	18.374
313.31	17.184
313.68	17.256
314.05	19.822
314.41	16.884
314.78	18.228
315.14	16.981
315.51	16.993
315.87	18.614
316.24	16.385
316.61	17.057
316.97	17.025
317.34	17.515
317.70	17.782
318.07	17.613
318.43	18.591
318.80	16.776
319.16	17.608
319.53	16.417
319.89	17.524
320.26	18.000
320.62	17.956
320.99	17.071
321.35	18.586
321.72	17.351
322.08	17.572
322.45	17.612
322.81	17.442
323.18	17.630
323.54	16.883
323.91	17.925
324.27	16.635
324.64	15.937
325.00	15.509
325.37	16.652
325.73	17.864
326.10	16.681
326.46	16.577
326.83	17.515
327.19	16.652
327.56	17.160
327.92	17.235
328.29	16.948
328.65	17.680
329.01	16.336
329.38	17.946
329.74	16.620
330.11	16.588
330.47	17.355
330.84	18.015
331.20	16.485
331.56	16.606
331.93	17.222
332.29	18.279
332.66	17.168
333.02	15.814
333.38	16.712
333.75	16.934
334.11	17.438
334.48	16.770
334.84	16.820
335.20	17.273
335.57	16.682
335.93	16.786
336.29	17.857
336.66	17.583
337.02	15.837
337.38	15.833
337.75	16.310
338.11	15.846
338.47	15.562
338.84	16.590
339.20	16.239
339.56	17.518
339.93	16.273
340.29	17.210
340.65	16.488
341.02	16.928
341.38	16.459
341.74	15.439
342.11	16.594
342.47	16.476
342.83	15.582
343.20	15.844
343.56	16.428
343.92	16.228
344.28	15.476
344.65	16.165
345.01	15.572
345.37	15.009
345.73	14.890
346.10	15.686
346.46	16.186
346.82	15.157
347.19	15.121
347.55	15.599
347.91	15.939
348.27	16.270
348.63	16.054
349.00	14.725
349.36	15.928
349.72	15.878
350.08	15.154
350.45	16.111
350.81	15.516
351.17	14.830
351.53	14.906
351.89	15.347
352.26	16.575
352.62	15.798
352.98	15.154
353.34	15.612
353.70	15.057
354.07	15.323
354.43	15.873
354.79	14.722
355.15	15.483
355.51	15.907
355.87	14.531
356.24	15.309
356.60	14.114
356.96	15.447
357.32	15.781
357.68	16.063
358.04	15.756
358.40	14.964
358.77	15.023
359.13	15.470
359.49	14.980
359.85	14.444
360.21	14.833
360.57	15.953
360.93	15.077
361.29	15.042
361.66	13.932
362.02	15.299
362.38	15.057
362.74	14.658
363.10	13.916
363.46	13.646
363.82	14.890
364.18	15.051
364.54	15.825
364.90	14.589
365.26	14.853
365.62	15.340
365.98	12.564
366.35	13.324
366.71	14.823
367.07	14.348
367.43	14.586
367.79	15.132
368.15	15.230
368.51	14.244
368.87	14.490
369.23	15.069
369.59	15.062
369.95	13.676
370.31	15.242
370.67	14.493
371.03	16.479
371.39	13.557
371.75	14.338
372.11	14.296
372.47	14.956
372.83	15.994
373.19	14.017
373.55	14.339
373.91	15.390
374.27	14.296
374.63	13.673
374.99	14.901
375.35	13.887
375.71	14.873
376.07	13.923
376.42	13.893
376.78	15.043
377.14	13.840
377.50	13.974
377.86	14.029
378.22	14.475
378.58	12.970
378.94	13.514
379.30	14.440
379.66	14.657
380.02	14.251
380.38	13.479
380.74	14.406
381.09	14.548
381.45	14.628
381.81	13.882
382.17	14.395
382.53	14.277
382.89	14.568
383.25	14.321
383.61	14.002
383.97	14.009
384.32	14.099
384.68	14.188
385.04	15.181
385.40	14.118
385.76	14.189
386.12	14.508
386.48	14.663
386.83	14.689
387.19	15.275
387.55	14.348
387.91	14.208
388.27	14.654
388.62	15.366
388.98	13.452
389.34	14.831
389.70	14.224
390.06	14.829
390.42	14.462
390.77	15.013
391.13	13.784
391.49	15.292
391.85	14.640
392.20	13.691
392.56	14.015
392.92	14.656
393.28	13.787
393.64	13.969
393.99	14.600
394.35	14.268
394.71	14.178
395.07	13.645
395.42	14.153
395.78	14.313
396.14	14.091
396.50	14.975
396.85	13.986
397.21	13.933
397.57	14.631
397.92	14.062
398.28	13.901
398.64	15.233
399.00	14.382
399.35	13.311
399.71	14.236
400.07	14.488
400.42	14.356
400.78	15.320
401.14	14.207
401.49	14.269
401.85	13.430
402.21	14.132
402.57	14.497
402.92	14.376
403.28	14.428
403.63	14.728
403.99	14.459
404.35	14.667
404.70	13.489
405.06	13.628
405.42	13.911
405.77	13.886
406.13	13.318
406.49	14.311
406.84	14.235
407.20	13.652
407.55	14.040
407.91	14.333
408.27	14.359
408.62	13.967
408.98	14.890
409.34	13.961
409.69	14.258
410.05	13.631
410.40	14.373
410.76	14.516
411.11	14.234
411.47	13.930
411.83	14.111
412.18	13.358
412.54	14.010
412.89	14.759
413.25	14.109
413.60	14.268
413.96	14.026
414.31	14.277
414.67	14.385
415.03	13.510
415.38	14.820
415.74	14.212
416.09	14.304
416.45	14.324
416.80	14.276
417.16	14.611
417.51	14.864
417.87	14.644
418.22	14.953
418.58	14.590
418.93	14.558
419.29	14.831
419.64	14.610
420.00	14.695
420.35	14.725
420.71	13.987
421.06	13.783
421.42	14.678
421.77	14.910
422.12	13.700
422.48	13.168
422.83	14.444
423.19	13.591
423.54	13.871
423.90	14.087
424.25	14.126
424.61	14.226
424.96	13.878
425.31	14.175
425.67	14.607
426.02	14.286
426.38	14.713
426.73	13.926
427.09	14.347
427.44	13.801
427.79	13.859
428.15	14.821
428.50	14.394
428.85	13.528
429.21	14.136
429.56	14.049
429.92	13.890
430.27	13.654
430.62	13.313
430.98	13.233
431.33	13.557
431.68	14.293
432.04	14.111
432.39	13.821
432.74	14.004
433.10	14.827
433.45	14.752
433.80	13.692
434.16	14.423
434.51	14.421
434.86	14.880
435.22	14.063
435.57	14.772
435.92	14.628
436.28	14.472
436.63	14.238
436.98	13.681
437.34	14.669
437.69	14.877
438.04	14.221
438.39	14.209
438.75	14.352
439.10	14.525
439.45	14.640
439.81	14.018
440.16	14.173
440.51	14.353
440.86	14.534
441.22	14.294
441.57	14.119
441.92	14.432
442.27	13.778
442.63	14.271
442.98	15.155
443.33	14.457
443.68	14.455
444.03	14.739
444.39	13.827
444.74	14.123
445.09	14.232
445.44	14.926
445.79	14.349
446.15	15.140
446.50	13.409
446.85	13.772
447.20	14.890
447.55	13.959
447.91	14.065
448.26	14.802
448.61	14.415
448.96	14.396
449.31	14.567
449.66	14.012
450.02	13.649
450.37	14.172
450.72	14.100
451.07	14.381
451.42	14.529
451.77	15.737
452.12	14.550
452.47	14.117
452.83	14.510
453.18	15.037
453.53	15.523
453.88	14.826
454.23	15.182
454.58	14.476
454.93	15.385
455.28	14.900
455.63	14.867
455.98	15.595
456.34	14.887
456.69	15.654
457.04	15.232
457.39	14.319
457.74	14.742
458.09	14.836
458.44	14.367
458.79	14.154
459.14	14.278
459.49	14.769
459.84	13.961
460.19	14.437
460.54	14.641
460.89	14.591
461.24	14.754
461.59	15.689
461.94	14.673
462.29	15.905
462.64	14.805
462.99	14.314
463.34	15.933
463.69	15.009
464.04	15.826
464.39	15.362
464.74	15.270
465.09	14.897
465.44	13.961
465.79	14.206
466.14	14.559
466.49	14.349
466.84	15.353
467.19	14.967
467.54	15.313
467.89	14.526
468.24	14.951
468.59	14.957
468.94	14.417
469.29	15.681
469.64	16.332
469.99	14.817
470.34	14.993
470.68	16.020
471.03	14.694
471.38	15.775
471.73	15.057
472.08	16.250
472.43	15.138
472.78	15.010
473.13	15.212
473.48	16.105
473.83	14.817
474.17	15.308
474.52	15.943
474.87	15.645
475.22	14.626
475.57	14.831
475.92	14.657
476.27	14.543
476.61	14.837
476.96	14.788
477.31	14.233
477.66	15.098
478.01	14.428
478.36	15.124
478.70	13.863
479.05	15.122
479.40	15.097
479.75	14.184
480.10	14.264
480.45	13.993
480.79	14.047
481.14	14.922
481.49	14.381
481.84	14.632
482.19	14.266
482.53	14.495
482.88	14.705
483.23	14.860
483.58	14.513
483.92	14.948
484.27	13.551
484.62	14.397
484.97	13.953
485.31	14.726
485.66	12.930
486.01	12.270
486.36	11.763
486.70	11.475
487.05	11.931
487.40	12.819
487.75	12.185
488.09	12.981
488.44	13.142
488.79	14.213
489.13	14.362
489.48	14.356
489.83	14.458
490.17	13.985
490.52	14.349
490.87	13.840
491.22	14.598
491.56	13.485
491.91	14.472
492.26	14.148
492.60	15.023
492.95	14.546
493.30	14.112
493.64	13.859
493.99	13.835
494.34	15.079
494.68	14.377
495.03	14.850
495.37	14.705
495.72	14.425
496.07	15.128
496.41	13.363
496.76	13.720
497.11	14.048
497.45	14.811
497.80	14.779
498.14	14.589
498.49	14.585
498.84	14.861
499.18	14.524
499.53	14.150
499.87	14.725
500.22	14.178
500.56	15.049
500.91	14.087
501.26	13.845
501.60	15.662
501.95	14.436
502.29	15.089
502.64	15.549
502.98	14.119
503.33	14.488
503.67	14.478
504.02	14.874
504.36	15.208
504.71	14.558
505.06	15.422
505.40	14.584
505.75	15.092
506.09	14.772
506.44	15.244
506.78	15.246
507.13	14.387
507.47	14.596
507.82	14.539
508.16	14.894
508.51	14.764
508.85	14.995
509.19	14.439
509.54	15.000
509.88	14.889
510.23	15.167
510.57	15.944
510.92	15.898
511.26	14.594
511.61	15.508
511.95	15.292
512.30	15.164
512.64	14.992
512.98	15.541
513.33	15.792
513.67	15.155
514.02	14.719
514.36	15.674
514.70	15.053
515.05	14.780
515.39	16.096
515.74	15.597
516.08	15.428
516.42	16.537
516.77	16.276
517.11	15.316
517.46	17.381
517.80	16.086
518.14	14.823
518.49	16.394
518.83	15.625
519.17	15.762
519.52	16.016
519.86	16.315
520.20	16.763
520.55	16.218
520.89	15.754
521.23	16.224
521.58	16.687
521.92	16.779
522.26	15.985
522.61	16.885
522.95	16.513
523.29	16.433
523.64	16.585
523.98	15.650
524.32	16.285
524.66	16.296
525.01	16.422
525.35	16.295
525.69	14.963
526.04	16.698
526.38	15.741
526.72	16.196
527.06	16.573
527.41	15.656
527.75	17.878
528.09	16.442
528.43	16.762
528.78	16.288
529.12	16.364
529.46	16.534
529.80	16.646
530.15	16.636
530.49	16.308
530.83	17.215
531.17	17.559
531.51	18.158
531.86	16.581
532.20	18.383
532.54	17.425
532.88	16.560
533.22	16.177
533.57	16.790
533.91	16.315
534.25	16.221
534.59	16.718
534.93	16.538
535.27	15.932
535.62	16.972
535.96	16.321
536.30	15.893
536.64	17.128
536.98	16.523
537.32	16.853
537.66	16.333
538.01	17.117
538.35	17.065
538.69	17.103
539.03	16.374
539.37	17.188
539.71	16.137
540.05	16.209
540.39	16.877
540.73	16.429
541.07	17.586
541.42	17.547
541.76	17.613
542.10	16.559
542.44	16.623
542.78	17.852
543.12	16.379
543.46	17.574
543.80	17.176
544.14	15.982
544.48	17.206
544.82	16.421
545.16	17.632
545.50	16.774
545.84	16.935
546.18	16.431
546.52	17.619
546.86	16.495
547.20	17.869
547.54	17.502
547.88	17.730
548.22	17.559
548.56	17.170
548.90	16.709
549.24	16.700
549.58	17.531
549.92	17.926
550.26	16.832
550.60	17.082
550.94	17.958
551.28	16.020
551.62	17.613
551.96	16.842
552.30	18.635
552.64	17.039
552.98	17.356
553.32	17.262
553.66	17.178
554.00	17.708
554.34	16.770
554.68	18.240
555.02	17.983
555.36	16.841
555.69	17.185
556.03	17.766
556.37	16.712
556.71	16.712
557.05	17.997
557.39	16.865
557.73	17.925
558.07	16.751
558.41	17.728
558.75	17.487
559.08	18.121
559.42	17.234
559.76	17.794
560.10	17.702
560.44	17.470
560.78	17.299
561.12	17.282
561.45	17.405
561.79	16.744
562.13	17.572
562.47	17.623
562.81	17.434
563.15	16.722
563.48	17.440
563.82	17.221
564.16	16.743
564.50	17.122
564.84	16.877
565.17	17.632
565.51	17.125
565.85	16.624
566.19	16.719
566.52	17.416
566.86	16.395
567.20	17.512
567.54	16.667
567.88	15.807
568.21	16.296
568.55	16.330
568.89	15.661
569.23	15.374
569.56	14.615
569.90	15.245
570.24	15.178
570.57	14.723
570.91	14.480
571.25	14.392
571.59	14.197
571.92	14.487
572.26	14.934
572.60	14.474
572.93	14.213
573.27	14.611
573.61	14.210
573.95	14.393
574.28	13.794
574.62	13.824
574.96	13.668
575.29	13.603
575.63	13.974
575.97	13.668
576.30	14.020
576.64	14.102
576.98	13.612
577.31	13.886
577.65	13.855
577.98	13.611
578.32	13.523
578.66	13.795
578.99	13.239
579.33	13.266
579.67	13.549
580.00	14.001
580.34	13.621
580.67	14.157
581.01	13.830
581.35	14.195
581.68	13.930
582.02	13.259
582.35	13.146
582.69	13.701
583.02	13.392
583.36	13.950
583.70	14.236
584.03	14.289
584.37	14.361
584.70	14.368
585.04	14.261
585.37	13.840
585.71	14.027
586.04	14.013
586.38	14.159
586.72	13.560
587.05	13.936
587.39	14.090
587.72	13.965
588.06	13.927
588.39	13.909
588.73	14.286
589.06	14.677
589.40	14.916
589.73	14.995
590.07	14.377
590.40	14.213
590.73	15.183
591.07	15.547
591.40	15.310
591.74	15.671
592.07	15.140
592.41	15.378
592.74	14.757
593.08	14.224
593.41	14.363
593.75	14.116
594.08	14.449
594.41	14.952
594.75	15.305
595.08	15.354
595.42	14.676
595.75	14.815
596.09	15.246
596.42	15.521
596.75	14.816
597.09	16.104
597.42	14.713
597.75	15.567
598.09	15.478
598.42	15.034
598.76	14.876
599.09	14.443
599.42	14.629
599.76	14.458
600.09	14.317
600.42	13.842
600.76	14.214
601.09	14.645
601.42	14.307
601.76	14.459
602.09	14.506
602.42	15.605
602.76	15.357
603.09	15.421
603.42	15.463
603.76	14.596
604.09	14.889
604.42	15.043
604.76	15.521
605.09	14.766
605.42	14.835
605.75	15.066
606.09	14.803
606.42	14.385
606.75	15.222
607.09	15.195
607.42	14.463
607.75	15.148
608.08	14.546
608.42	15.195
608.75	15.239
609.08	15.449
609.41	15.516
609.75	15.484
610.08	15.080
610.41	15.037
610.74	14.901
611.07	15.613
611.41	16.045
611.74	16.038
612.07	16.097
612.40	16.055
612.73	15.474
613.07	16.272
613.40	16.008
613.73	15.732
614.06	15.108
614.39	15.836
614.72	15.947
615.06	16.229
615.39	15.446
615.72	15.133
616.05	16.055
616.38	16.287
616.71	16.390
617.05	16.961
617.38	15.875
617.71	15.916
618.04	16.827
618.37	15.849
618.70	15.930
619.03	16.513
619.36	16.497
619.69	16.549
620.03	16.896
620.36	15.909
620.69	17.740
621.02	18.215
621.35	18.559
621.68	17.134
622.01	17.183
622.34	18.230
622.67	17.414
623.00	16.654
623.33	16.512
623.66	17.370
623.99	17.010
624.32	16.120
624.65	15.890
624.99	15.864
625.32	17.524
625.65	17.656
625.98	16.679
626.31	18.196
626.64	17.551
626.97	17.623
627.30	17.789
627.63	17.801
627.96	18.671
628.29	17.148
628.62	19.122
628.95	19.057
629.28	19.161
629.61	20.165
629.94	17.524
630.26	17.922
630.59	19.161
630.92	18.487
631.25	17.572
631.58	18.719
631.91	19.168
632.24	17.616
632.57	19.832
632.90	20.285
633.23	19.911
633.56	20.678
633.89	20.045
634.22	18.502
634.55	21.657
634.88	19.042
635.20	20.908
635.53	20.361
635.86	21.040
636.19	20.118
636.52	22.030
636.85	20.504
637.18	19.240
637.51	19.504
637.83	20.099
638.16	19.054
638.49	21.411
638.82	21.618
639.15	20.250
639.48	20.698
639.81	20.107
640.13	20.964
640.46	21.745
640.79	21.136
641.12	19.257
641.45	20.251
641.77	22.091
642.10	21.637
642.43	20.571
642.76	22.136
643.09	21.779
643.41	20.030
643.74	22.377
644.07	22.409
644.40	23.620
644.73	24.567
645.05	24.564
645.38	22.433
645.71	20.290
646.04	21.761
646.36	22.871
646.69	24.916
647.02	22.109
647.35	23.711
647.67	22.478
648.00	22.276
648.33	21.287
648.66	22.273
648.98	22.939
649.31	19.880
649.64	21.824
649.96	22.355
650.29	20.379
650.62	21.036
650.94	23.825
651.27	23.649
651.60	22.629
651.92	20.927
652.25	21.987
652.58	22.430
652.90	22.275
653.23	20.339
653.56	20.472
653.88	22.979
654.21	22.275
654.54	23.102
654.86	23.053
655.19	19.459
655.52	13.150
655.84	11.154
656.17	13.764
656.49	18.642
656.82	18.936
657.15	14.171
657.47	10.701
657.80	8.296
658.13	8.946
658.45	13.203
658.78	13.376
659.10	14.323
659.43	14.942
659.75	16.302
660.08	18.165
660.41	20.205
660.73	21.982
661.06	23.408
661.38	24.182
661.71	24.615
662.03	25.444
662.36	24.453
662.68	26.908
663.01	26.667
663.33	25.902
663.66	23.950
663.98	22.462
664.31	25.840
664.63	25.506
664.96	22.736
665.28	25.205
665.61	21.442
665.93	22.133
666.26	23.935
666.58	25.732
666.91	27.061
667.23	26.517
667.56	24.406
667.88	28.632
668.21	26.439
668.53	24.729
668.86	23.377
669.18	23.881
669.50	25.000
669.83	27.451
670.15	26.889
670.48	24.183
670.80	24.784
671.13	25.478
671.45	23.830
671.77	25.051
672.10	25.693
672.42	22.615
672.75	22.222
673.07	20.951
673.39	19.349
673.72	23.438
674.04	23.922
674.37	22.330
674.69	22.904
675.01	23.013
675.34	28.131
675.66	26.737
675.98	27.291
676.31	23.319
676.63	23.992
676.95	21.803
677.28	25.234
677.60	24.176
677.92	24.262
678.25	22.382
678.57	25.100
678.89	23.647
679.22	23.576
679.54	25.573
679.86	23.119
680.18	21.467
680.51	23.227
680.83	21.886
681.15	22.642
681.48	22.306
681.80	23.211
682.12	22.989
682.44	20.503
682.77	24.236
683.09	25.751
683.41	25.499
683.73	25.166
684.06	25.207
684.38	24.462
684.70	25.581
685.02	23.452
685.34	19.780
685.67	20.280
685.99	20.619
686.31	21.843
686.63	20.848
686.96	20.179
687.28	22.022
687.60	20.471
687.92	23.218
688.24	24.335
688.56	22.892
688.89	24.896
689.21	24.017
689.53	21.921
689.85	27.938
690.17	24.017
690.49	27.389
690.82	25.701
691.14	24.554
691.46	22.574
691.78	23.695
692.10	25.000
692.42	24.551
692.74	21.992
693.06	22.979
693.39	24.641
693.71	22.926
694.03	24.000
694.35	23.810
694.67	24.027
694.99	29.756
695.31	25.490
695.63	24.402
695.95	24.205
696.27	24.873
696.59	28.756
696.91	26.425
697.23	23.005
697.56	23.667
697.88	20.245
698.20	23.958
698.52	23.441
698.84	25.612
699.16	23.502
699.48	22.565
699.80	25.604
700.12	28.052
700.44	28.382
700.76	29.006
701.08	27.586
701.40	29.330
701.72	27.114
702.04	30.114
702.36	23.796
702.68	26.629
703.00	27.147
703.32	28.723
703.64	27.078
703.96	27.577
704.28	26.453
704.60	27.273
704.91	28.487
705.23	28.739
705.55	28.239
705.87	33.887
706.19	32.862
706.51	30.530
706.83	32.727
707.15	32.213
707.47	24.242
707.79	26.536
708.11	25.342
708.43	23.571
708.74	24.490
709.06	26.753
709.38	27.822
709.70	29.360
710.02	30.267
710.34	29.394
710.66	29.851
710.98	25.568
711.29	30.233
711.61	33.628
711.93	28.846
712.25	28.939
712.57	32.353
712.89	33.910
713.20	27.964
713.52	27.961
713.84	27.532
714.16	28.354
714.48	27.586
714.80	32.827
715.11	29.107
715.43	26.113
715.75	31.594
716.07	29.393
716.39	26.332
716.70	31.561
717.02	26.978
717.34	32.862
717.66	32.090
717.97	38.247
718.29	30.000
718.61	31.387
718.93	30.147
719.24	31.834
719.56	30.847
719.88	30.847
720.20	30.743
720.51	28.223
720.83	31.599
721.15	29.104
721.46	29.787
721.78	32.975
722.10	36.226
722.42	34.211
722.73	35.206
723.05	34.016
723.37	33.198
723.68	32.432
724.00	32.927
724.32	35.484
724.63	31.707
724.95	33.054
725.27	36.032
725.58	33.594
725.90	31.022
726.22	29.434
726.53	31.597
726.85	32.765
727.16	33.808
727.48	32.979
727.80	30.682
728.11	29.348
728.43	34.615
728.74	27.957
729.06	36.131
729.38	37.500
729.69	34.164
730.01	27.304
730.32	27.431
730.64	31.773
730.96	26.403
731.27	34.106
731.59	32.416
731.90	28.280
732.22	27.950
732.53	26.006
732.85	29.487
733.16	27.010
733.48	30.565
733.80	29.221
734.11	34.713
734.43	27.811
734.74	28.286
735.06	27.507
735.37	28.613
735.69	25.796
736.00	28.758
736.32	28.660
736.63	26.198
736.95	28.754
737.26	25.170
737.58	26.774
737.89	28.763
738.21	29.693
738.52	30.000
738.83	28.302
739.15	30.000
739.46	35.401
739.78	31.597
740.09	32.923
740.41	29.032
740.72	28.223
741.04	32.222
741.35	35.000
741.66	39.111
741.98	33.962
742.29	40.191
742.61	40.948
742.92	37.104
743.23	37.179
743.55	35.600
743.86	33.333
744.18	35.398
744.49	35.885
744.80	41.784
745.12	44.091
745.43	37.445
745.74	37.838
746.06	36.239
746.37	34.529
746.68	38.914
747.00	41.204
747.31	37.619
747.62	33.628
747.94	34.361
748.25	32.766
748.56	38.767
748.88	33.663
749.19	42.000
749.50	34.419
749.82	35.772
750.13	28.163
750.44	30.657
750.75	31.930
751.07	32.476
751.38	28.920
751.69	28.881
752.01	33.835
752.32	32.130
752.63	32.624
752.94	30.738
753.26	34.000
753.57	26.829
753.88	33.984
754.19	28.214
754.51	27.778
754.82	25.271
755.13	35.094
755.44	30.075
755.75	35.401
756.07	28.723
756.38	29.927
756.69	27.181
757.00	29.042
757.31	28.190
757.63	29.240
757.94	26.810
758.25	25.245
758.56	22.222
758.87	26.882
759.18	27.273
759.50	27.900
759.81	29.283
760.12	27.500
760.43	28.940
760.74	25.000
761.05	29.661
761.36	27.540
761.67	29.830
761.99	27.950
762.30	31.944
762.61	31.679
762.92	36.328
763.23	31.513
763.54	36.000
763.85	30.859
764.16	31.538
764.47	30.798
764.78	31.802
765.10	26.582
765.41	26.844
765.72	29.641
766.03	27.900
766.34	26.333
766.65	30.638
766.96	33.761
767.27	37.563
767.58	41.667
767.89	39.474
768.20	48.276
768.51	43.147
768.82	36.697
769.13	30.894
769.44	31.579
769.75	38.197
770.06	33.028
770.37	41.629
770.68	35.185
770.99	36.889
771.30	27.459
771.61	36.323
771.92	36.475
772.23	36.134
772.54	40.000
772.85	41.361
773.16	37.234
773.47	41.304
773.78	41.624
774.09	40.476
774.39	39.181
774.70	45.679
775.01	48.551
775.32	53.595
775.63	55.921
775.94	45.324
776.25	62.992
776.56	53.731
776.87	57.377
777.18	53.125
777.48	58.015
777.79	55.303
778.10	54.815
778.41	56.250
778.72	45.985
779.03	46.309
779.34	47.651
779.65	38.514
779.95	39.264
780.26	52.288
780.57	56.552
780.88	62.500
781.19	51.880
781.50	50.676
781.80	43.396
782.11	38.418
782.42	43.671
782.73	49.080
783.04	45.946
783.34	52.817
783.65	47.260
783.96	50.746
784.27	43.357
784.57	41.727
784.88	57.407
785.19	57.937
785.50	58.491
785.81	59.701
786.11	53.279
786.42	48.837
786.73	55.752
787.04	65.094
787.34	62.500
787.65	56.000
787.96	54.955
788.26	53.719
788.57	59.322
788.88	60.331
789.19	54.861
789.49	57.576
789.80	51.908
790.11	70.476
790.41	64.356
790.72	68.675
791.03	60.870
791.33	63.953
791.64	68.041
791.95	58.416
792.25	67.778
792.56	79.221
792.87	83.333
793.17	106.329
793.48	80.460
793.79	74.713
794.09	65.909
794.40	58.824
794.70	57.353
795.01	40.000
795.32	44.604
795.62	47.244
795.93	55.172
796.23	53.097
796.54	69.412
796.85	82.432
797.15	80.282
797.46	77.273
797.76	79.518
798.07	84.810
798.37	84.615
798.68	90.909
798.99	70.423
799.29	83.117
799.60	70.455
799.90	84.932
800.21	94.030
800.51	87.931
800.82	91.228
801.12	95.082
801.43	98.485
801.73	85.135
802.04	96.825
802.34	80.247
802.65	93.750
802.95	91.525
803.26	89.063
803.56	65.714
803.87	84.615
804.17	82.353
804.48	103.704
804.78	70.690
805.09	86.765
805.39	113.462
805.70	92.857
806.00	98.361
806.30	78.788
806.61	80.488
806.91	83.544
807.22	72.368
807.52	83.582
807.83	77.465
808.13	95.312
808.43	81.667
808.74	75.000
809.04	85.507
809.35	92.537
809.65	88.158
809.95	108.065
810.26	91.525
810.56	85.714
810.86	102.273
811.17	142.857
811.47	126.667
811.77	124.074
812.08	112.727
812.38	120.000
812.69	158.333
812.99	152.273
813.29	120.408
813.59	102.381
813.90	128.571
814.20	89.091
814.50	78.462
814.81	107.353
815.11	118.367
815.41	101.639
815.72	147.619
816.02	105.455
816.32	142.857
816.62	130.000
816.93	129.268
817.23	126.190
817.53	131.818
817.84	145.455
818.14	134.783
818.44	133.333
818.74	123.529
819.04	135.000
819.35	134.286
819.65	194.118
819.95	146.429
820.25	225.000
820.56	128.205
820.86	145.455
821.16	139.535
821.46	141.026
821.76	120.000
822.07	157.143
822.37	155.000
822.67	163.636
822.97	100.000
823.27	175.000
823.57	135.135
823.88	172.500
824.18	213.333
824.48	169.048
824.78	208.000
825.08	175.000
825.38	167.568
825.69	158.537
825.99	220.833
826.29	186.207
826.59	157.895
826.89	152.632
827.19	147.059
827.49	212.903
827.79	156.818
828.09	125.000
828.39	127.660
828.70	122.449
829.00	166.667
829.30	170.968
829.60	145.000
829.90	346.667
830.20	192.857
830.50	200.000
830.80	252.174
831.10	213.333
831.40	180.000
831.70	200.000
832.00	215.385
832.30	192.593
832.60	343.750
832.90	206.667
833.20	400.000
833.50	170.968
833.80	162.069
834.10	187.500
834.40	211.538
834.70	288.889
835.00	271.429
835.30	180.000
835.60	346.154
835.90	193.103
836.20	371.429
836.50	213.793
836.80	200.000
837.10	172.222
837.40	219.048
837.70	323.529
838.00	237.037
838.30	228.571
838.60	242.857
838.90	207.692
839.19	265.000
839.49	435.714
839.79	290.000
840.09	270.000
840.39	290.476
840.69	247.826
840.99	266.667
841.29	530.000
841.59	341.667
841.88	287.500
842.18	182.759
842.48	323.810
842.78	206.667
843.08	247.826
843.38	193.750
843.68	783.333
843.97	226.923
844.27	175.862
844.57	319.048
844.87	325.000
845.17	211.111
845.47	1633.333
845.76	455.556
846.06	352.941
846.36	412.500
846.66	371.429
846.96	281.250
847.25	527.273
847.55	481.818
847.85	260.870
848.15	630.000
848.44	350.000
848.74	261.111
849.04	323.529
849.34	460.000
849.63	231.579
849.93	445.455
850.23	820.000
850.53	464.286
850.82	2200.000
851.12	-4600.000
851.42	5000.000
851.71	255.000
852.01	-1600.000
852.31	258.333
852.61	1700.000
852.90	276.190
853.20	208.000
853.50	341.176
853.79	290.476
854.09	233.333
854.39	343.750
854.68	175.676
854.98	209.677
855.28	163.333
855.57	196.552
855.87	170.370
856.17	247.368
856.46	313.333
856.76	282.353
857.05	210.345
857.35	204.167
857.65	346.667
857.94	247.826
858.24	253.846
858.53	295.000
858.83	245.455
859.13	360.000
859.42	0.000
859.72	544.444
860.01	563.636
860.31	240.909
860.60	268.421
860.90	204.348
861.20	600.000
861.49	525.000
861.79	-4100.000
862.08	637.500
862.38	300.000
862.67	276.923
862.97	300.000
863.26	666.667
863.56	250.000
863.85	325.000
864.15	687.500
864.44	420.000
864.74	883.333
865.03	587.500
865.33	289.474
865.62	436.364
865.92	376.923
866.21	366.667
866.51	0.000
866.80	463.636
867.10	820.000
867.39	392.308
867.69	463.636
867.98	294.737
868.27	445.455
868.57	284.211
868.86	-3500.000
869.16	375.000
869.45	2000.000
869.75	-4500.000
870.04	441.667
870.33	685.714
870.63	800.000
870.92	2400.000
871.22	757.143
871.51	294.118
871.80	204.762
872.10	407.143
>>>>>End Processed Spectral Data<<<<<
