SpectraSuite Data File
++++++++++++++++++++++++++++++++++++
Date: Wed May 13 16:32:06 PDT 2015
User: schluterlab
Dark Spectrum Present: Yes
Reference Spectrum Present: Yes
Number of Sampled Component Spectra: 1
Spectrometers: USB2E3373
Integration Time (usec): 3000 (USB2E3373)
Spectra Averaged: 3 (USB2E3373)
Boxcar Smoothing: 0 (USB2E3373)
Correct for Electrical Dark: No (USB2E3373)
Strobe/Lamp Enabled: No (USB2E3373)
Correct for Detector Non-linearity: No (USB2E3373)
Correct for Stray Light: No (USB2E3373)
Number of Pixels in Processed Spectrum: 2048
>>>>>Begin Processed Spectral Data<<<<<
178.53	0.000
178.91	-1175.000
179.29	-1300.000
179.67	-244.444
180.04	-1050.000
180.42	2550.000
180.80	1000.000
181.18	-1125.000
181.56	542.857
181.94	0.000
182.31	-542.857
182.69	1566.667
183.07	-387.500
183.45	-366.667
183.83	463.636
184.20	-400.000
184.58	2600.000
184.96	5300.000
185.34	-700.000
185.72	-412.500
186.09	-2050.000
186.47	2200.000
186.85	2250.000
187.23	5400.000
187.61	-1700.000
187.98	1225.000
188.36	554.545
188.74	472.727
189.12	-780.000
189.49	560.000
189.87	-4300.000
190.25	-1275.000
190.63	364.286
191.00	430.769
191.38	833.333
191.76	-975.000
192.14	1300.000
192.51	525.000
192.89	783.333
193.27	500.000
193.65	-925.000
194.02	500.000
194.40	1000.000
194.78	510.000
195.15	433.333
195.53	560.000
195.91	-1800.000
196.29	325.000
196.66	294.737
197.04	-390.000
197.42	0.000
197.79	490.000
198.17	-5600.000
198.55	614.286
198.92	675.000
199.30	860.000
199.68	0.000
200.05	305.556
200.43	557.143
200.81	3800.000
201.18	1400.000
201.56	-1333.333
201.94	511.111
202.31	655.556
202.69	366.667
203.07	530.000
203.44	0.000
203.82	1075.000
204.19	500.000
204.57	371.429
204.95	587.500
205.32	1233.333
205.70	445.455
206.08	385.714
206.45	2050.000
206.83	337.500
207.20	816.667
207.58	520.000
207.96	266.667
208.33	612.500
208.71	-666.667
209.08	657.143
209.46	644.444
209.84	427.273
210.21	-1366.667
210.59	1275.000
210.96	-425.000
211.34	2350.000
211.71	560.000
212.09	733.333
212.46	0.000
212.84	1333.333
213.22	1200.000
213.59	-3100.000
213.97	616.667
214.34	728.571
214.72	518.182
215.09	940.000
215.47	-2100.000
215.84	-2700.000
216.22	1233.333
216.59	428.571
216.97	1275.000
217.34	363.636
217.72	-666.667
218.09	0.000
218.47	-3800.000
218.84	600.000
219.22	642.857
219.59	1733.333
219.97	-628.571
220.34	860.000
220.72	-1366.667
221.09	400.000
221.47	1425.000
221.84	-800.000
222.22	0.000
222.59	1500.000
222.97	-2500.000
223.34	980.000
223.72	361.538
224.09	920.000
224.46	1450.000
224.84	-4800.000
225.21	-780.000
225.59	-4800.000
225.96	510.000
226.34	245.000
226.71	2350.000
227.08	637.500
227.46	430.000
227.83	-1050.000
228.21	-1950.000
228.58	522.222
228.95	-2700.000
229.33	-2000.000
229.70	1566.667
230.08	800.000
230.45	-680.000
230.82	391.667
231.20	666.667
231.57	614.286
231.95	425.000
232.32	209.091
232.69	336.364
233.07	514.286
233.44	269.231
233.81	-1400.000
234.19	257.895
234.56	358.333
234.93	350.000
235.31	345.455
235.68	361.538
236.05	378.571
236.43	160.606
236.80	210.526
237.17	3200.000
237.55	190.476
237.92	192.857
238.29	219.048
238.67	132.258
239.04	151.724
239.41	116.667
239.79	93.478
240.16	114.286
240.53	100.000
240.91	88.235
241.28	86.000
241.65	86.000
242.02	73.913
242.40	77.419
242.77	56.667
243.14	67.742
243.51	61.798
243.89	50.588
244.26	40.000
244.63	40.860
245.00	51.064
245.38	45.545
245.75	36.449
246.12	33.945
246.49	42.336
246.87	49.600
247.24	44.615
247.61	42.143
247.98	35.948
248.36	27.703
248.73	28.662
249.10	36.943
249.47	30.508
249.84	29.947
250.22	33.690
250.59	29.586
250.96	25.758
251.33	27.014
251.70	28.713
252.08	22.857
252.45	23.318
252.82	25.217
253.19	22.979
253.56	25.098
253.94	25.726
254.31	25.391
254.68	20.769
255.05	23.247
255.42	21.951
255.79	20.956
256.16	20.578
256.54	20.141
256.91	22.776
257.28	15.468
257.65	16.502
258.02	22.671
258.39	17.981
258.76	18.060
259.14	18.155
259.51	17.629
259.88	17.702
260.25	18.731
260.62	19.364
260.99	14.907
261.36	19.520
261.73	17.479
262.10	14.244
262.47	15.493
262.85	16.992
263.22	11.681
263.59	16.524
263.96	15.385
264.33	15.666
264.70	13.947
265.07	16.368
265.44	15.909
265.81	12.652
266.18	16.080
266.55	14.634
266.92	15.233
267.29	17.824
267.66	14.450
268.03	15.227
268.40	11.916
268.77	12.888
269.14	15.090
269.51	14.898
269.88	14.219
270.25	16.479
270.62	12.360
270.99	13.118
271.36	15.021
271.73	10.981
272.10	11.957
272.47	13.763
272.84	13.853
273.21	15.304
273.58	12.227
273.95	10.901
274.32	14.050
274.69	12.848
275.06	12.795
275.43	10.213
275.80	12.826
276.17	13.238
276.54	13.098
276.91	12.055
277.28	13.477
277.65	14.120
278.02	11.594
278.39	13.086
278.76	13.091
279.13	14.906
279.50	13.222
279.87	11.753
280.23	12.774
280.60	13.733
280.97	11.091
281.34	13.982
281.71	13.091
282.08	11.708
282.45	10.545
282.82	12.433
283.19	9.982
283.56	10.175
283.92	12.690
284.29	10.406
284.66	11.797
285.03	10.669
285.40	11.092
285.77	12.626
286.14	10.190
286.51	11.333
286.87	10.598
287.24	11.564
287.61	10.594
287.98	12.500
288.35	11.410
288.72	9.190
289.08	11.268
289.45	10.873
289.82	13.008
290.19	10.047
290.56	8.270
290.93	9.517
291.29	10.736
291.66	9.440
292.03	11.628
292.40	11.160
292.77	9.320
293.13	10.000
293.50	11.370
293.87	9.333
294.24	8.593
294.60	9.898
294.97	9.593
295.34	11.283
295.71	10.511
296.08	9.117
296.44	9.216
296.81	8.190
297.18	10.569
297.55	8.047
297.91	8.707
298.28	10.174
298.65	10.183
299.02	8.827
299.38	9.695
299.75	5.930
300.12	9.195
300.48	8.500
300.85	9.618
301.22	8.917
301.59	7.197
301.95	9.446
302.32	8.472
302.69	8.363
303.05	7.758
303.42	7.654
303.79	8.607
304.15	6.993
304.52	8.343
304.89	8.014
305.25	7.425
305.62	9.400
305.99	8.146
306.35	9.284
306.72	8.296
307.09	8.990
307.45	9.347
307.82	8.259
308.19	8.609
308.55	8.846
308.92	8.485
309.29	8.131
309.65	8.802
310.02	8.562
310.38	7.527
310.75	8.025
311.12	9.110
311.48	8.046
311.85	9.224
312.22	7.700
312.58	8.836
312.95	9.609
313.31	7.476
313.68	8.316
314.05	10.454
314.41	8.442
314.78	8.862
315.14	8.342
315.51	9.784
315.87	8.812
316.24	8.342
316.61	8.577
316.97	8.415
317.34	7.339
317.70	10.421
318.07	7.988
318.43	10.078
318.80	10.122
319.16	9.605
319.53	8.912
319.89	10.000
320.26	9.800
320.62	9.921
320.99	10.101
321.35	9.798
321.72	11.191
322.08	10.661
322.45	11.841
322.81	10.853
323.18	11.272
323.54	11.039
323.91	11.509
324.27	11.377
324.64	10.531
325.00	10.280
325.37	11.465
325.73	13.285
326.10	12.004
326.46	12.276
326.83	12.511
327.19	12.724
327.56	12.021
327.92	12.248
328.29	13.576
328.65	12.983
329.01	13.899
329.38	11.841
329.74	12.927
330.11	12.630
330.47	12.856
330.84	14.246
331.20	12.022
331.56	12.569
331.93	13.704
332.29	14.108
332.66	14.336
333.02	13.254
333.38	12.827
333.75	14.260
334.11	13.345
334.48	13.310
334.84	13.327
335.20	13.455
335.57	14.053
335.93	13.393
336.29	12.912
336.66	14.157
337.02	12.760
337.38	13.241
337.75	14.171
338.11	13.518
338.47	13.076
338.84	13.382
339.20	12.385
339.56	14.599
339.93	12.545
340.29	13.496
340.65	12.210
341.02	14.660
341.38	13.345
341.74	13.596
342.11	14.236
342.47	13.392
342.83	13.699
343.20	13.680
343.56	12.553
343.92	12.982
344.28	13.435
344.65	14.617
345.01	13.636
345.37	13.208
345.73	14.129
346.10	13.214
346.46	14.407
346.82	14.086
347.19	12.531
347.55	13.547
347.91	14.482
348.27	15.119
348.63	13.796
349.00	13.916
349.36	13.711
349.72	13.553
350.08	13.938
350.45	14.076
350.81	14.460
351.17	13.614
351.53	13.514
351.89	13.119
352.26	14.049
352.62	14.114
352.98	13.938
353.34	13.147
353.70	13.339
354.07	14.758
354.43	12.937
354.79	13.355
355.15	13.168
355.51	15.028
355.87	13.143
356.24	13.844
356.60	13.392
356.96	14.401
357.32	13.655
357.68	13.622
358.04	13.222
358.40	15.519
358.77	14.163
359.13	13.260
359.49	14.353
359.85	12.619
360.21	13.796
360.57	14.942
360.93	14.154
361.29	13.605
361.66	12.771
362.02	14.179
362.38	14.525
362.74	14.509
363.10	13.620
363.46	13.206
363.82	14.512
364.18	13.803
364.54	14.710
364.90	15.439
365.26	14.559
365.62	14.025
365.98	14.098
366.35	13.897
366.71	15.112
367.07	14.202
367.43	14.514
367.79	15.061
368.15	15.517
368.51	14.244
368.87	14.918
369.23	14.631
369.59	15.424
369.95	15.809
370.31	15.670
370.67	14.855
371.03	16.479
371.39	15.598
371.75	14.926
372.11	14.936
372.47	16.422
372.83	15.850
373.19	15.824
373.55	15.743
373.91	15.169
374.27	14.914
374.63	15.564
374.99	16.102
375.35	15.003
375.71	16.038
376.07	16.049
376.42	15.887
376.78	16.700
377.14	14.993
377.50	16.556
377.86	15.891
378.22	15.866
378.58	15.288
378.94	16.342
379.30	15.840
379.66	16.688
380.02	16.830
380.38	16.879
380.74	16.987
381.09	17.054
381.45	17.701
381.81	16.769
382.17	17.006
382.53	16.541
382.89	17.160
383.25	16.323
383.61	17.658
383.97	17.699
384.32	17.155
384.68	17.100
385.04	17.210
385.40	18.019
385.76	17.445
386.12	18.653
386.48	18.439
386.83	18.666
387.19	18.491
387.55	19.048
387.91	18.622
388.27	18.271
388.62	18.931
388.98	18.243
389.34	17.647
389.70	19.068
390.06	19.392
390.42	18.742
390.77	18.702
391.13	19.017
391.49	18.972
391.85	17.314
392.20	18.612
392.56	19.571
392.92	18.717
393.28	18.284
393.64	18.225
393.99	19.181
394.35	19.231
394.71	18.821
395.07	18.442
395.42	18.727
395.78	19.784
396.14	19.988
396.50	19.298
396.85	19.644
397.21	18.866
397.57	19.467
397.92	19.291
398.28	18.666
398.64	19.773
399.00	19.026
399.35	19.007
399.71	18.866
400.07	19.752
400.42	20.245
400.78	18.878
401.14	19.817
401.49	19.164
401.85	19.359
402.21	19.281
402.57	19.556
402.92	19.798
403.28	19.550
403.63	19.059
403.99	18.854
404.35	19.152
404.70	18.525
405.06	18.812
405.42	19.464
405.77	18.971
406.13	19.413
406.49	19.515
406.84	19.728
407.20	18.853
407.55	20.102
407.91	19.600
408.27	20.357
408.62	19.025
408.98	19.669
409.34	18.881
409.69	19.806
410.05	19.888
410.40	19.205
410.76	20.370
411.11	19.421
411.47	19.489
411.83	19.548
412.18	19.109
412.54	20.361
412.89	20.120
413.25	19.421
413.60	19.704
413.96	19.126
414.31	19.380
414.67	19.962
415.03	19.735
415.38	21.005
415.74	19.743
416.09	19.726
416.45	19.880
416.80	19.498
417.16	20.643
417.51	19.708
417.87	18.882
418.22	20.505
418.58	20.142
418.93	19.840
419.29	20.496
419.64	20.025
420.00	19.634
420.35	20.058
420.71	20.143
421.06	19.153
421.42	19.357
421.77	19.395
422.12	19.540
422.48	19.212
422.83	19.744
423.19	19.061
423.54	20.255
423.90	19.826
424.25	19.542
424.61	19.583
424.96	20.117
425.31	20.377
425.67	19.775
426.02	19.029
426.38	20.391
426.73	19.251
427.09	19.514
427.44	20.012
427.79	18.861
428.15	20.119
428.50	19.251
428.85	20.381
429.21	19.602
429.56	19.855
429.92	19.728
430.27	19.464
430.62	19.611
430.98	19.720
431.33	19.381
431.68	20.105
432.04	19.595
432.39	19.989
432.74	20.227
433.10	20.147
433.45	20.000
433.80	19.457
434.16	20.566
434.51	20.368
434.86	20.068
435.22	19.455
435.57	20.608
435.92	20.070
436.28	19.751
436.63	20.364
436.98	19.519
437.34	20.036
437.69	20.187
438.04	19.843
438.39	19.582
438.75	20.046
439.10	20.335
439.45	20.484
439.81	19.517
440.16	20.440
440.51	19.977
440.86	20.266
441.22	19.800
441.57	20.170
441.92	20.471
442.27	20.129
442.63	19.642
442.98	20.845
443.33	20.435
443.68	19.670
444.03	19.668
444.39	19.523
444.74	20.292
445.09	19.569
445.44	20.066
445.79	19.990
446.15	20.593
446.50	19.763
446.85	19.990
447.20	20.143
447.55	20.491
447.91	20.243
448.26	19.922
448.61	20.407
448.96	20.266
449.31	20.247
449.66	20.540
450.02	19.666
450.37	20.181
450.72	20.361
451.07	21.389
451.42	20.000
451.77	20.493
452.12	20.727
452.47	21.206
452.83	19.872
453.18	20.232
453.53	20.470
453.88	20.142
454.23	20.383
454.58	20.896
454.93	22.695
455.28	20.885
455.63	19.842
455.98	21.488
456.34	20.666
456.69	21.227
457.04	20.186
457.39	20.281
457.74	20.488
458.09	21.162
458.44	20.296
458.79	19.848
459.14	20.937
459.49	20.841
459.84	20.055
460.19	19.387
460.54	19.965
460.89	20.790
461.24	20.583
461.59	20.628
461.94	20.654
462.29	21.187
462.64	20.613
462.99	20.039
463.34	21.467
463.69	21.076
464.04	21.739
464.39	20.812
464.74	20.618
465.09	20.507
465.44	19.778
465.79	19.799
466.14	19.704
466.49	19.633
466.84	19.731
467.19	20.398
467.54	20.750
467.89	20.048
468.24	20.012
468.59	21.368
468.94	19.853
469.29	21.144
469.64	20.683
469.99	21.177
470.34	20.872
470.68	20.833
471.03	21.088
471.38	21.265
471.73	20.453
472.08	21.513
472.43	20.980
472.78	20.211
473.13	20.603
473.48	21.286
473.83	21.280
474.17	19.415
474.52	20.471
474.87	20.607
475.22	20.429
475.57	19.506
475.92	19.649
476.27	20.237
476.61	20.463
476.96	20.616
477.31	20.199
477.66	20.241
478.01	20.648
478.36	20.624
478.70	20.301
479.05	20.128
479.40	19.857
479.75	20.386
480.10	20.527
480.45	19.419
480.79	19.494
481.14	19.178
481.49	19.839
481.84	19.662
482.19	19.718
482.53	19.908
482.88	19.963
483.23	19.439
483.58	19.973
483.92	19.494
484.27	18.954
484.62	20.000
484.97	18.565
485.31	19.658
485.66	18.437
486.01	17.539
486.36	16.565
486.70	16.618
487.05	17.366
487.40	17.875
487.75	18.319
488.09	18.380
488.44	17.879
488.79	19.349
489.13	19.404
489.48	19.250
489.83	18.861
490.17	19.377
490.52	19.531
490.87	19.584
491.22	19.736
491.56	18.861
491.91	19.172
492.26	18.879
492.60	18.894
492.95	18.803
493.30	19.159
493.64	19.272
493.99	19.034
494.34	19.103
494.68	19.505
495.03	19.690
495.37	19.404
495.72	19.347
496.07	19.814
496.41	18.363
496.76	19.305
497.11	18.505
497.45	18.957
497.80	18.522
498.14	19.420
498.49	20.293
498.84	19.799
499.18	19.190
499.53	19.136
499.87	19.991
500.22	19.736
500.56	20.049
500.91	19.423
501.26	19.251
501.60	20.028
501.95	19.248
502.29	19.634
502.64	19.926
502.98	19.869
503.33	19.561
503.67	19.026
504.02	19.598
504.36	19.794
504.71	19.394
505.06	19.566
505.40	19.349
505.75	19.286
506.09	19.388
506.44	20.326
506.78	19.143
507.13	19.485
507.47	19.848
507.82	19.959
508.16	19.858
508.51	19.736
508.85	18.918
509.19	20.051
509.54	19.694
509.88	19.990
510.23	19.486
510.57	20.846
510.92	19.938
511.26	19.990
511.61	20.695
511.95	19.624
512.30	19.459
512.64	20.043
512.98	20.686
513.33	19.540
513.67	19.744
514.02	19.535
514.36	20.754
514.70	19.867
515.05	19.632
515.39	20.022
515.74	19.820
516.08	21.409
516.42	20.366
516.77	20.792
517.11	20.144
517.46	21.050
517.80	21.138
518.14	20.672
518.49	22.054
518.83	21.193
519.17	20.612
519.52	20.770
519.86	22.019
520.20	21.503
520.55	21.424
520.89	21.655
521.23	21.411
521.58	21.128
521.92	21.188
522.26	20.683
522.61	20.872
522.95	20.872
523.29	20.511
523.64	22.195
523.98	21.627
524.32	21.532
524.66	21.708
525.01	21.752
525.35	21.437
525.69	21.182
526.04	21.121
526.38	21.843
526.72	21.656
527.06	21.846
527.41	20.978
527.75	21.865
528.09	22.608
528.43	21.989
528.78	21.696
529.12	20.485
529.46	21.127
529.80	21.906
530.15	22.243
530.49	20.985
530.83	22.911
531.17	22.324
531.51	22.503
531.86	21.871
532.20	22.686
532.54	23.126
532.88	21.759
533.22	21.112
533.57	21.667
533.91	21.854
534.25	22.236
534.59	21.538
534.93	20.642
535.27	21.123
535.62	21.368
535.96	21.971
536.30	21.615
536.64	22.923
536.98	21.964
537.32	21.791
537.66	22.267
538.01	21.791
538.35	22.301
538.69	22.272
539.03	21.702
539.37	20.575
539.71	21.192
540.05	22.418
540.39	21.462
540.73	21.669
541.07	21.544
541.42	21.265
541.76	21.935
542.10	21.928
542.44	21.788
542.78	23.057
543.12	21.177
543.46	21.115
543.80	22.056
544.14	21.502
544.48	21.905
544.82	21.424
545.16	20.755
545.50	21.401
545.84	21.640
546.18	21.886
546.52	21.817
546.86	21.512
547.20	21.848
547.54	21.443
547.88	22.130
548.22	21.108
548.56	20.818
548.90	20.679
549.24	20.943
549.58	21.146
549.92	22.184
550.26	21.165
550.60	21.992
550.94	21.901
551.28	21.141
551.62	22.214
551.96	21.474
552.30	21.843
552.64	21.771
552.98	21.559
553.32	22.050
553.66	21.609
554.00	21.826
554.34	21.877
554.68	22.532
555.02	22.426
555.36	21.364
555.69	21.042
556.03	21.332
556.37	21.214
556.71	22.306
557.05	21.289
557.39	21.903
557.73	22.018
558.07	21.247
558.41	21.201
558.75	21.675
559.08	22.222
559.42	21.920
559.76	21.544
560.10	21.984
560.44	20.475
560.78	20.426
561.12	21.042
561.45	21.578
561.79	21.028
562.13	21.395
562.47	21.516
562.81	21.478
563.15	20.936
563.48	21.286
563.82	21.265
564.16	21.256
564.50	19.661
564.84	20.670
565.17	20.721
565.51	21.789
565.85	21.129
566.19	20.225
566.52	20.773
566.86	20.494
567.20	21.285
567.54	20.833
567.88	19.283
568.21	19.788
568.55	19.919
568.89	19.212
569.23	19.786
569.56	18.907
569.90	18.453
570.24	18.227
570.57	17.715
570.91	17.873
571.25	17.943
571.59	17.820
571.92	17.742
572.26	17.562
572.60	17.658
572.93	17.991
573.27	18.515
573.61	18.537
573.95	18.036
574.28	17.337
574.62	17.468
574.96	17.180
575.29	16.925
575.63	17.962
575.97	17.287
576.30	17.738
576.64	17.690
576.98	17.890
577.31	16.867
577.65	17.134
577.98	17.350
578.32	16.779
578.66	16.771
578.99	17.211
579.33	17.260
579.67	16.711
580.00	17.478
580.34	17.371
580.67	17.277
581.01	17.383
581.35	16.936
581.68	17.333
582.02	16.617
582.35	16.582
582.69	16.771
583.02	17.054
583.36	17.524
583.70	17.557
584.03	17.738
584.37	18.024
584.70	18.103
585.04	17.735
585.37	17.381
585.71	17.810
586.04	17.420
586.38	17.764
586.72	17.923
587.05	17.522
587.39	17.335
587.72	17.676
588.06	17.209
588.39	17.613
588.73	17.424
589.06	17.981
589.40	18.384
589.73	18.092
590.07	18.149
590.40	17.757
590.73	18.618
591.07	18.966
591.40	19.190
591.74	19.394
592.07	18.717
592.41	18.809
592.74	18.277
593.08	17.622
593.41	17.906
593.75	17.552
594.08	17.700
594.41	17.886
594.75	18.447
595.08	18.146
595.42	18.144
595.75	18.198
596.09	18.513
596.42	19.057
596.75	19.206
597.09	18.831
597.42	18.297
597.75	19.103
598.09	18.609
598.42	18.299
598.76	18.525
599.09	18.130
599.42	18.304
599.76	18.302
600.09	17.923
600.42	18.188
600.76	18.393
601.09	17.705
601.42	18.265
601.76	18.330
602.09	18.221
602.42	18.869
602.76	18.863
603.09	17.781
603.42	18.235
603.76	17.683
604.09	18.224
604.42	18.386
604.76	18.937
605.09	18.785
605.42	18.256
605.75	18.088
606.09	18.056
606.42	18.226
606.75	18.208
607.09	18.334
607.42	18.143
607.75	18.228
608.08	18.584
608.42	18.422
608.75	18.711
609.08	18.733
609.41	18.610
609.75	18.914
610.08	18.567
610.41	18.529
610.74	18.401
611.07	19.713
611.41	18.597
611.74	19.306
612.07	19.255
612.40	19.098
612.73	18.842
613.07	19.127
613.40	19.431
613.73	18.196
614.06	19.032
614.39	19.297
614.72	18.895
615.06	19.118
615.39	19.002
615.72	19.172
616.05	18.607
616.38	19.455
616.71	19.062
617.05	19.317
617.38	19.062
617.71	19.399
618.04	19.531
618.37	19.397
618.70	20.348
619.03	20.855
619.36	19.756
619.69	20.493
620.03	21.291
620.36	19.920
620.69	20.411
621.02	20.723
621.35	20.360
621.68	20.327
622.01	20.666
622.34	20.953
622.67	20.760
623.00	19.883
623.33	19.800
623.66	20.515
623.99	21.281
624.32	20.542
624.65	20.480
624.99	19.476
625.32	19.913
625.65	19.459
625.98	20.215
626.31	21.229
626.64	20.735
626.97	21.031
627.30	21.613
627.63	21.493
627.96	21.531
628.29	20.822
628.62	23.056
628.95	24.057
629.28	22.993
629.61	21.907
629.94	20.952
630.26	21.830
630.59	22.212
630.92	21.935
631.25	21.027
631.58	21.822
631.91	21.298
632.24	22.574
632.57	23.610
632.90	22.368
633.23	22.707
633.56	25.311
633.89	22.877
634.22	24.177
634.55	24.024
634.88	24.072
635.20	22.939
635.53	23.133
635.86	24.505
636.19	22.824
636.52	22.953
636.85	23.139
637.18	22.581
637.51	23.877
637.83	21.455
638.16	23.657
638.49	24.937
638.82	23.641
639.15	23.000
639.48	25.187
639.81	25.067
640.13	23.958
640.46	23.221
640.79	24.439
641.12	24.209
641.45	25.000
641.77	24.300
642.10	26.170
642.43	22.973
642.76	23.839
643.09	24.233
643.41	25.038
643.74	26.389
644.07	25.457
644.40	26.074
644.73	26.457
645.05	27.100
645.38	24.645
645.71	24.799
646.04	25.249
646.36	27.546
646.69	27.592
647.02	25.170
647.35	26.460
647.67	27.434
648.00	27.967
648.33	23.432
648.66	25.000
648.98	24.888
649.31	25.262
649.64	23.169
649.96	25.931
650.29	26.224
650.62	22.977
650.94	26.904
651.27	25.676
651.60	25.624
651.92	26.518
652.25	23.290
652.58	26.324
652.90	27.014
653.23	23.729
653.56	24.724
653.88	26.624
654.21	26.224
654.54	25.083
654.86	26.791
655.19	22.432
655.52	15.780
655.84	13.346
656.17	17.135
656.49	22.503
656.82	23.578
657.15	17.741
657.47	13.035
657.80	10.264
658.13	10.681
658.45	16.489
658.78	16.385
659.10	17.468
659.43	18.618
659.75	20.634
660.08	22.278
660.41	23.371
660.73	25.794
661.06	25.796
661.38	29.091
661.71	28.269
662.03	28.994
662.36	25.845
662.68	26.506
663.01	26.869
663.33	27.601
663.66	25.000
663.98	26.782
664.31	26.891
664.63	25.506
664.96	24.950
665.28	28.689
665.61	26.511
665.93	25.151
666.26	26.369
666.58	27.197
666.91	30.867
667.23	30.112
667.56	26.998
667.88	28.419
668.21	30.917
668.53	27.766
668.86	30.303
669.18	30.064
669.50	25.652
669.83	30.937
670.15	30.000
670.48	28.976
670.80	31.466
671.13	27.813
671.45	25.957
671.77	28.513
672.10	27.357
672.42	27.208
672.75	24.378
673.07	23.944
673.39	23.508
673.72	25.391
674.04	25.882
674.37	25.631
674.69	27.403
675.01	24.059
675.34	30.390
675.66	29.474
675.98	29.124
676.31	29.832
676.63	28.450
676.95	27.673
677.28	27.336
677.60	28.132
677.92	29.958
678.25	27.105
678.57	25.896
678.89	26.653
679.22	24.558
679.54	24.237
679.86	25.505
680.18	24.150
680.51	25.887
680.83	25.445
681.15	26.792
681.48	27.599
681.80	23.985
682.12	27.011
682.44	23.404
682.77	26.069
683.09	28.541
683.41	30.820
683.73	27.815
684.06	27.686
684.38	26.419
684.70	25.194
685.02	26.829
685.34	23.993
685.67	22.203
685.99	23.883
686.31	24.232
686.63	25.795
686.96	25.357
687.28	27.256
687.60	24.094
687.92	24.863
688.24	26.426
688.56	28.514
688.89	28.216
689.21	27.293
689.53	26.722
689.85	27.938
690.17	24.224
690.49	28.450
690.82	27.570
691.14	27.679
691.46	28.481
691.78	28.112
692.10	26.653
692.42	26.747
692.74	24.066
693.06	26.809
693.39	26.283
693.71	28.603
694.03	28.000
694.35	25.541
694.67	27.689
694.99	28.780
695.31	25.980
695.63	28.708
695.95	28.362
696.27	27.919
696.59	26.943
696.91	30.311
697.23	25.117
697.56	27.079
697.88	22.290
698.20	24.167
698.52	26.667
698.84	27.171
699.16	26.498
699.48	26.128
699.80	30.918
700.12	29.091
700.44	28.647
700.76	29.282
701.08	29.598
701.40	28.212
701.72	30.612
702.04	32.670
702.36	29.178
702.68	31.161
703.00	30.748
703.32	27.926
703.64	29.223
703.96	30.362
704.28	28.779
704.60	32.551
704.91	34.421
705.23	31.965
705.55	32.890
705.87	35.216
706.19	31.095
706.51	32.087
706.83	33.333
707.15	28.291
707.47	28.535
707.79	28.747
708.11	26.256
708.43	26.190
708.74	26.276
709.06	28.571
709.38	27.559
709.70	27.616
710.02	29.674
710.34	26.061
710.66	33.731
710.98	29.545
711.29	34.302
711.61	32.448
711.93	28.846
712.25	30.868
712.57	32.353
712.89	30.104
713.20	28.267
713.52	31.908
713.84	30.696
714.16	30.488
714.48	30.747
714.80	31.003
715.11	32.277
715.43	27.596
715.75	29.855
716.07	32.588
716.39	30.094
716.70	31.561
717.02	32.014
717.34	30.742
717.66	36.567
717.97	36.255
718.29	31.481
718.61	30.657
718.93	40.809
719.24	31.834
719.56	31.186
719.88	27.797
720.20	35.473
720.51	33.101
720.83	35.688
721.15	32.463
721.46	32.624
721.78	34.767
722.10	32.453
722.42	34.962
722.73	34.831
723.05	32.377
723.37	34.008
723.68	30.502
724.00	34.553
724.32	34.677
724.63	30.488
724.95	33.054
725.27	38.057
725.58	38.281
725.90	36.131
726.22	34.717
726.53	31.944
726.85	29.693
727.16	35.231
727.48	32.979
727.80	30.682
728.11	31.884
728.43	32.308
728.74	29.749
729.06	37.226
729.38	33.456
729.69	35.587
730.01	28.328
730.32	32.639
730.64	31.773
730.96	30.693
731.27	31.788
731.59	29.052
731.90	31.778
732.22	32.609
732.53	26.935
732.85	29.167
733.16	27.974
733.48	33.887
733.80	30.519
734.11	32.484
734.43	27.811
734.74	24.857
735.06	24.069
735.37	31.503
735.69	25.796
736.00	33.660
736.32	33.333
736.63	30.990
736.95	30.671
737.26	28.231
737.58	25.484
737.89	33.445
738.21	31.741
738.52	32.143
738.83	30.943
739.15	33.462
739.46	35.401
739.78	29.514
740.09	28.308
740.41	31.613
740.72	29.617
741.04	35.185
741.35	30.000
741.66	37.778
741.98	38.208
742.29	37.321
742.61	42.672
742.92	31.674
743.23	31.197
743.55	38.400
743.86	35.526
744.18	39.381
744.49	39.713
744.80	38.028
745.12	41.364
745.43	31.278
745.74	40.991
746.06	39.450
746.37	41.704
746.68	38.914
747.00	39.352
747.31	40.000
747.62	34.513
747.94	29.956
748.25	30.213
748.56	33.480
748.88	33.168
749.19	44.000
749.50	35.349
749.82	30.488
750.13	31.837
750.44	32.847
750.75	33.333
751.07	38.264
751.38	36.585
751.69	29.964
752.01	29.699
752.32	33.574
752.63	29.433
752.94	36.475
753.26	37.600
753.57	30.488
753.88	37.109
754.19	30.357
754.51	33.681
754.82	28.881
755.13	32.453
755.44	34.962
755.75	27.372
756.07	30.496
756.38	27.372
756.69	28.859
757.00	26.347
757.31	28.190
757.63	28.363
757.94	27.882
758.25	25.735
758.56	22.469
758.87	25.806
759.18	30.303
759.50	27.900
759.81	26.480
760.12	23.437
760.43	28.080
760.74	27.717
761.05	26.554
761.36	26.738
761.67	28.693
761.99	27.640
762.30	32.986
762.61	31.298
762.92	34.766
763.23	32.353
763.54	40.400
763.85	32.422
764.16	36.923
764.47	28.517
764.78	28.975
765.10	24.684
765.41	30.678
765.72	28.144
766.03	30.721
766.34	29.667
766.65	34.468
766.96	41.453
767.27	38.071
767.58	39.062
767.89	37.895
768.20	42.529
768.51	37.563
768.82	37.156
769.13	33.333
769.44	33.198
769.75	32.189
770.06	33.028
770.37	38.914
770.68	37.037
770.99	34.222
771.30	27.869
771.61	39.462
771.92	33.607
772.23	39.076
772.54	41.026
772.85	31.937
773.16	38.830
773.47	42.935
773.78	39.086
774.09	31.548
774.39	39.766
774.70	40.741
775.01	42.754
775.32	41.830
775.63	45.395
775.94	50.360
776.25	44.094
776.56	47.015
776.87	49.180
777.18	52.344
777.48	58.779
777.79	46.970
778.10	52.593
778.41	55.357
778.72	45.985
779.03	42.282
779.34	44.295
779.65	44.595
779.95	35.583
780.26	43.791
780.57	48.966
780.88	59.375
781.19	42.105
781.50	50.000
781.80	40.881
782.11	40.113
782.42	35.443
782.73	38.650
783.04	40.541
783.34	45.775
783.65	58.219
783.96	58.209
784.27	39.161
784.57	40.288
784.88	43.519
785.19	54.762
785.50	53.774
785.81	50.746
786.11	57.377
786.42	51.163
786.73	60.177
787.04	57.547
787.34	53.571
787.65	68.000
787.96	45.946
788.26	47.934
788.57	52.542
788.88	47.107
789.19	48.611
789.49	53.030
789.80	56.489
790.11	70.476
790.41	66.337
790.72	67.470
791.03	69.565
791.33	53.488
791.64	64.948
791.95	64.356
792.25	67.778
792.56	70.130
792.87	80.769
793.17	86.076
793.48	70.115
793.79	71.264
794.09	60.227
794.40	52.941
794.70	52.206
795.01	46.667
795.32	35.252
795.62	48.819
795.93	49.138
796.23	53.097
796.54	57.647
796.85	72.973
797.15	94.366
797.46	71.212
797.76	81.928
798.07	64.557
798.37	70.769
798.68	80.303
798.99	64.789
799.29	71.429
799.60	57.955
799.90	80.822
800.21	73.134
800.51	84.483
800.82	85.965
801.12	90.164
801.43	86.364
801.73	70.270
802.04	95.238
802.34	79.012
802.65	79.687
802.95	84.746
803.26	98.438
803.56	70.000
803.87	63.077
804.17	57.353
804.48	101.852
804.78	89.655
805.09	80.882
805.39	90.385
805.70	94.643
806.00	81.967
806.30	69.697
806.61	86.585
806.91	62.025
807.22	68.421
807.52	56.716
807.83	81.690
808.13	95.312
808.43	78.333
808.74	65.789
809.04	82.609
809.35	83.582
809.65	69.737
809.95	87.097
810.26	83.051
810.56	80.952
810.86	115.909
811.17	164.286
811.47	101.667
811.77	87.037
812.08	103.636
812.38	130.000
812.69	136.111
812.99	111.364
813.29	100.000
813.59	71.429
813.90	118.367
814.20	89.091
814.50	72.308
814.81	76.471
815.11	114.286
815.41	93.443
815.72	133.333
816.02	107.273
816.32	123.810
816.62	90.000
816.93	121.951
817.23	109.524
817.53	118.182
817.84	163.636
818.14	123.913
818.44	97.778
818.74	135.294
819.04	122.500
819.35	128.571
819.65	141.176
819.95	160.714
820.25	185.000
820.56	135.897
820.86	127.273
821.16	144.186
821.46	133.333
821.76	132.000
822.07	120.000
822.37	162.500
822.67	160.606
822.97	111.765
823.27	192.857
823.57	148.649
823.88	140.000
824.18	176.667
824.48	147.619
824.78	200.000
825.08	158.333
825.38	129.730
825.69	119.512
825.99	208.333
826.29	120.690
826.59	157.895
826.89	147.368
827.19	155.882
827.49	164.516
827.79	161.364
828.09	122.727
828.39	125.532
828.70	104.082
829.00	111.111
829.30	154.839
829.60	112.500
829.90	300.000
830.20	200.000
830.50	160.870
830.80	217.391
831.10	163.333
831.40	173.333
831.70	165.217
832.00	215.385
832.30	200.000
832.60	306.250
832.90	176.667
833.20	357.143
833.50	183.871
833.80	165.517
834.10	171.875
834.40	200.000
834.70	233.333
835.00	261.905
835.30	122.857
835.60	315.385
835.90	213.793
836.20	285.714
836.50	189.655
836.80	184.000
837.10	150.000
837.40	223.810
837.70	305.882
838.00	218.519
838.30	219.048
838.60	261.905
838.90	203.846
839.19	245.000
839.49	335.714
839.79	305.000
840.09	240.000
840.39	223.810
840.69	260.870
840.99	266.667
841.29	510.000
841.59	266.667
841.88	381.250
842.18	137.931
842.48	242.857
842.78	180.000
843.08	234.783
843.38	159.375
843.68	716.667
843.97	219.231
844.27	165.517
844.57	295.238
844.87	306.250
845.17	174.074
845.47	1633.333
845.76	444.444
846.06	235.294
846.36	387.500
846.66	342.857
846.96	300.000
847.25	445.455
847.55	309.091
847.85	239.130
848.15	530.000
848.44	350.000
848.74	238.889
849.04	270.588
849.34	400.000
849.63	236.842
849.93	463.636
850.23	840.000
850.53	371.429
850.82	1900.000
851.12	-3800.000
851.42	3700.000
851.71	270.000
852.01	-933.333
852.31	191.667
852.61	1566.667
852.90	233.333
853.20	232.000
853.50	311.765
853.79	228.571
854.09	158.333
854.39	275.000
854.68	183.784
854.98	164.516
855.28	160.000
855.57	196.552
855.87	166.667
856.17	210.526
856.46	213.333
856.76	205.882
857.05	182.759
857.35	187.500
857.65	260.000
857.94	226.087
858.24	223.077
858.53	240.000
858.83	218.182
859.13	260.000
859.42	0.000
859.72	500.000
860.01	390.909
860.31	236.364
860.60	268.421
860.90	213.043
861.20	500.000
861.49	441.667
861.79	-3600.000
862.08	500.000
862.38	228.571
862.67	330.769
862.97	258.824
863.26	388.889
863.56	255.556
863.85	283.333
864.15	437.500
864.44	286.667
864.74	733.333
865.03	600.000
865.33	247.368
865.62	481.818
865.92	407.692
866.21	325.000
866.51	0.000
866.80	354.545
867.10	920.000
867.39	361.538
867.69	427.273
867.98	268.421
868.27	490.909
868.57	236.842
868.86	-3500.000
869.16	306.250
869.45	2050.000
869.75	-4300.000
870.04	416.667
870.33	485.714
870.63	1075.000
870.92	2350.000
871.22	600.000
871.51	264.706
871.80	180.952
872.10	364.286
>>>>>End Processed Spectral Data<<<<<
