SpectraSuite Data File
++++++++++++++++++++++++++++++++++++
Date: Wed May 13 16:38:45 PDT 2015
User: schluterlab
Dark Spectrum Present: Yes
Reference Spectrum Present: Yes
Number of Sampled Component Spectra: 1
Spectrometers: USB2E3373
Integration Time (usec): 3000 (USB2E3373)
Spectra Averaged: 3 (USB2E3373)
Boxcar Smoothing: 0 (USB2E3373)
Correct for Electrical Dark: No (USB2E3373)
Strobe/Lamp Enabled: No (USB2E3373)
Correct for Detector Non-linearity: No (USB2E3373)
Correct for Stray Light: No (USB2E3373)
Number of Pixels in Processed Spectrum: 2048
>>>>>Begin Processed Spectral Data<<<<<
178.53	0.000
178.91	-1125.000
179.29	-1525.000
179.67	-266.667
180.04	-1225.000
180.42	2900.000
180.80	1160.000
181.18	-1200.000
181.56	614.286
181.94	0.000
182.31	-571.429
182.69	1500.000
183.07	-650.000
183.45	-444.444
183.83	545.455
184.20	-490.000
184.58	2650.000
184.96	4900.000
185.34	-880.000
185.72	-675.000
186.09	-2350.000
186.47	2700.000
186.85	2450.000
187.23	5200.000
187.61	-1833.333
187.98	1450.000
188.36	481.818
188.74	500.000
189.12	-1000.000
189.49	560.000
189.87	-4500.000
190.25	-1150.000
190.63	414.286
191.00	446.154
191.38	666.667
191.76	-1200.000
192.14	1475.000
192.51	737.500
192.89	916.667
193.27	512.500
193.65	-975.000
194.02	560.000
194.40	1000.000
194.78	590.000
195.15	550.000
195.53	560.000
195.91	-2800.000
196.29	387.500
196.66	310.526
197.04	-360.000
197.42	0.000
197.79	690.000
198.17	-5400.000
198.55	628.571
198.92	725.000
199.30	900.000
199.68	0.000
200.05	294.444
200.43	700.000
200.81	4400.000
201.18	1666.667
201.56	-1866.667
201.94	555.556
202.31	566.667
202.69	466.667
203.07	550.000
203.44	0.000
203.82	1500.000
204.19	914.286
204.57	450.000
204.95	675.000
205.32	1666.667
205.70	536.364
206.08	400.000
206.45	2900.000
206.83	337.500
207.20	983.333
207.58	620.000
207.96	305.556
208.33	775.000
208.71	-766.667
209.08	671.429
209.46	633.333
209.84	518.182
210.21	-1800.000
210.59	1500.000
210.96	-462.500
211.34	2650.000
211.71	650.000
212.09	883.333
212.46	0.000
212.84	1700.000
213.22	1500.000
213.59	-4200.000
213.97	866.667
214.34	857.143
214.72	545.455
215.09	1000.000
215.47	-2500.000
215.84	-2250.000
216.22	1666.667
216.59	407.143
216.97	1450.000
217.34	536.364
217.72	-850.000
218.09	0.000
218.47	-4900.000
218.84	622.222
219.22	700.000
219.59	2066.667
219.97	-542.857
220.34	1020.000
220.72	-1600.000
221.09	442.857
221.47	1450.000
221.84	-900.000
222.22	0.000
222.59	1325.000
222.97	-2800.000
223.34	1160.000
223.72	407.692
224.09	1100.000
224.46	2350.000
224.84	-5000.000
225.21	-1060.000
225.59	-3900.000
225.96	600.000
226.34	275.000
226.71	3300.000
227.08	737.500
227.46	560.000
227.83	-925.000
228.21	-2350.000
228.58	555.556
228.95	-2800.000
229.33	-2450.000
229.70	1833.333
230.08	828.571
230.45	-820.000
230.82	491.667
231.20	883.333
231.57	528.571
231.95	466.667
232.32	281.818
232.69	418.182
233.07	871.429
233.44	430.769
233.81	-1800.000
234.19	273.684
234.56	416.667
234.93	383.333
235.31	436.364
235.68	307.692
236.05	385.714
236.43	154.545
236.80	289.474
237.17	5500.000
237.55	247.619
237.92	207.143
238.29	223.810
238.67	158.065
239.04	220.690
239.41	175.000
239.79	97.826
240.16	152.381
240.53	129.545
240.91	92.157
241.28	114.000
241.65	110.000
242.02	102.899
242.40	87.097
242.77	91.667
243.14	77.419
243.51	79.775
243.89	71.765
244.26	66.667
244.63	65.591
245.00	59.574
245.38	56.436
245.75	63.551
246.12	63.303
246.49	61.314
246.87	66.400
247.24	66.154
247.61	47.857
247.98	49.020
248.36	43.919
248.73	45.223
249.10	50.955
249.47	47.458
249.84	53.476
250.22	45.989
250.59	46.746
250.96	45.455
251.33	39.336
251.70	43.564
252.08	40.952
252.45	34.529
252.82	38.261
253.19	43.404
253.56	42.745
253.94	36.929
254.31	37.109
254.68	42.692
255.05	36.900
255.42	33.740
255.79	38.603
256.16	36.101
256.54	31.802
256.91	33.808
257.28	29.137
257.65	33.993
258.02	35.093
258.39	31.861
258.76	32.441
259.14	33.631
259.51	32.827
259.88	31.988
260.25	32.024
260.62	31.792
260.99	32.298
261.36	30.030
261.73	28.653
262.10	30.523
262.47	34.366
262.85	33.148
263.22	26.211
263.59	29.915
263.96	28.571
264.33	30.548
264.70	30.000
265.07	30.946
265.44	29.293
265.81	27.251
266.18	28.894
266.55	28.049
266.92	25.553
267.29	29.861
267.66	28.899
268.03	25.682
268.40	27.103
268.77	26.492
269.14	26.802
269.51	27.765
269.88	29.371
270.25	27.088
270.62	26.966
270.99	27.957
271.36	27.253
271.73	25.234
272.10	25.217
272.47	28.172
272.84	26.623
273.21	27.673
273.58	27.511
273.95	27.044
274.32	24.380
274.69	26.338
275.06	25.984
275.43	27.234
275.80	26.453
276.17	26.273
276.54	26.403
276.91	25.296
277.28	25.586
277.65	29.594
278.02	25.259
278.39	25.977
278.76	24.364
279.13	25.283
279.50	25.885
279.87	23.904
280.23	25.948
280.60	24.178
280.97	25.139
281.34	24.779
281.71	27.455
282.08	24.760
282.45	24.182
282.82	23.801
283.19	22.638
283.56	24.386
283.92	26.227
284.29	22.928
284.66	24.501
285.03	24.593
285.40	24.296
285.77	22.896
286.14	21.934
286.51	25.000
286.87	22.735
287.24	24.104
287.61	22.953
287.98	22.727
288.35	21.553
288.72	20.872
289.08	23.787
289.45	23.064
289.82	24.065
290.19	22.606
290.56	21.593
290.93	19.940
291.29	20.706
291.66	22.271
292.03	23.110
292.40	24.523
292.77	20.266
293.13	21.791
293.50	20.408
293.87	21.037
294.24	19.259
294.60	18.486
294.97	20.349
295.34	20.169
295.71	21.449
296.08	18.803
296.44	19.395
296.81	19.419
297.18	20.732
297.55	18.338
297.91	19.525
298.28	19.946
298.65	19.582
299.02	18.709
299.38	19.522
299.75	17.251
300.12	17.625
300.48	18.750
300.85	17.633
301.22	18.599
301.59	17.551
301.95	17.884
302.32	18.614
302.69	18.638
303.05	17.333
303.42	18.519
303.79	18.460
304.15	16.900
304.52	17.613
304.89	16.841
305.25	17.285
305.62	17.894
305.99	16.293
306.35	18.009
306.72	17.713
307.09	18.535
307.45	17.230
307.82	16.629
308.19	17.550
308.55	18.015
308.92	17.938
309.29	15.945
309.65	17.497
310.02	17.759
310.38	18.172
310.75	16.895
311.12	17.605
311.48	17.241
311.85	18.868
312.22	17.586
312.58	17.672
312.95	18.057
313.31	18.835
313.68	17.879
314.05	19.724
314.41	18.693
314.78	17.623
315.14	17.180
315.51	18.847
315.87	17.228
316.24	18.769
316.61	16.764
316.97	17.515
317.34	17.319
317.70	19.407
318.07	18.864
318.43	18.591
318.80	20.619
319.16	19.586
319.53	19.325
319.89	18.667
320.26	19.700
320.62	19.643
320.99	20.707
321.35	19.596
321.72	20.431
322.08	20.138
322.45	21.095
322.81	20.543
323.18	21.484
323.54	21.800
323.91	21.415
324.27	22.275
324.64	20.503
325.00	20.830
325.37	20.837
325.73	21.724
326.10	21.359
326.46	20.609
326.83	22.088
327.19	21.349
327.56	22.387
327.92	22.485
328.29	21.207
328.65	21.823
329.01	22.112
329.38	22.109
329.74	21.237
330.11	21.866
330.47	22.590
330.84	24.173
331.20	21.676
331.56	21.560
331.93	22.685
332.29	21.739
332.66	21.858
333.02	21.846
333.38	22.584
333.75	22.014
334.11	21.797
334.48	22.538
334.84	22.518
335.20	22.909
335.57	21.668
335.93	21.250
336.29	22.619
336.66	22.633
337.02	22.172
337.38	22.963
337.75	21.034
338.11	22.381
338.47	21.915
338.84	21.998
339.20	21.835
339.56	22.901
339.93	21.909
340.29	21.649
340.65	22.103
341.02	21.379
341.38	21.708
341.74	22.281
342.11	21.572
342.47	22.291
342.83	21.490
343.20	22.771
343.56	21.061
343.92	21.404
344.28	22.194
344.65	21.582
345.01	20.707
345.37	20.840
345.73	22.420
346.10	23.188
346.46	21.441
346.82	21.993
347.19	21.805
347.55	21.100
347.91	21.926
348.27	22.268
348.63	21.656
349.00	21.359
349.36	22.167
349.72	21.893
350.08	22.042
350.45	22.457
350.81	21.284
351.17	21.313
351.53	22.359
351.89	21.122
352.26	21.705
352.62	22.855
352.98	22.366
353.34	23.090
353.70	21.931
354.07	21.532
354.43	21.032
354.79	19.952
355.15	21.229
355.51	22.142
355.87	22.939
356.24	21.417
356.60	21.973
356.96	22.526
357.32	23.303
357.68	22.362
358.04	22.486
358.40	22.803
358.77	22.692
359.13	22.021
359.49	21.961
359.85	21.190
360.21	21.850
360.57	22.646
360.93	21.385
361.29	21.693
361.66	22.291
362.02	22.985
362.38	22.357
362.74	21.652
363.10	21.466
363.46	22.157
363.82	22.298
364.18	22.687
364.54	22.437
364.90	22.946
365.26	22.721
365.62	22.936
365.98	22.863
366.35	21.777
366.71	23.210
367.07	22.433
367.43	23.367
367.79	22.984
368.15	24.066
368.51	22.820
368.87	24.126
369.23	23.555
369.59	23.678
369.95	22.794
370.31	23.718
370.67	22.246
371.03	24.869
371.39	24.417
371.75	23.750
372.11	23.115
372.47	24.194
372.83	23.703
373.19	23.627
373.55	24.760
373.91	25.479
374.27	23.711
374.63	24.000
374.99	24.647
375.35	23.308
375.71	24.537
376.07	24.760
376.42	25.172
376.78	25.050
377.14	24.423
377.50	24.106
377.86	24.069
378.22	24.968
378.58	23.872
378.94	24.450
379.30	25.064
379.66	25.508
380.02	25.553
380.38	25.015
380.74	26.651
381.09	26.284
381.45	27.228
381.81	26.658
382.17	26.306
382.53	25.975
382.89	27.222
383.25	26.767
383.61	26.828
383.97	26.704
384.32	27.199
384.68	26.394
385.04	26.921
385.40	26.130
385.76	27.518
386.12	26.943
386.48	28.383
386.83	27.774
387.19	28.200
387.55	27.396
387.91	27.207
388.27	27.590
388.62	27.720
388.98	26.536
389.34	28.035
389.70	27.713
390.06	28.771
390.42	28.859
390.77	28.499
391.13	28.909
391.49	27.919
391.85	28.135
392.20	27.508
392.56	28.157
392.92	28.193
393.28	26.805
393.64	27.878
393.99	27.917
394.35	27.543
394.71	28.607
395.07	28.349
395.42	29.234
395.78	27.481
396.14	27.995
396.50	29.198
396.85	29.561
397.21	28.298
397.57	28.394
397.92	28.966
398.28	26.962
398.64	28.734
399.00	28.316
399.35	27.862
399.71	28.819
400.07	28.918
400.42	28.282
400.78	29.735
401.14	27.683
401.49	29.254
401.85	28.131
402.21	27.425
402.57	27.822
402.92	28.562
403.28	28.982
403.63	28.651
403.99	28.917
404.35	28.909
404.70	28.177
405.06	27.956
405.42	28.634
405.77	27.143
406.13	27.652
406.49	28.149
406.84	28.470
407.20	26.655
407.55	28.590
407.91	29.933
408.27	27.569
408.62	28.116
408.98	28.002
409.34	27.983
409.69	28.387
410.05	27.261
410.40	27.706
410.76	27.957
411.11	27.141
411.47	27.987
411.83	27.734
412.18	27.520
412.54	28.518
412.89	27.229
413.25	28.099
413.60	29.092
413.96	27.019
414.31	27.947
414.67	28.517
415.03	28.675
415.38	28.608
415.74	28.939
416.09	29.327
416.45	28.246
416.80	28.685
417.16	29.155
417.51	29.064
417.87	28.003
418.22	28.391
418.58	28.986
418.93	28.624
419.29	28.326
419.64	28.589
420.00	27.988
420.35	28.290
420.71	28.571
421.06	28.520
421.42	27.953
421.77	28.307
422.12	27.962
422.48	27.631
422.83	28.305
423.19	28.066
423.54	28.207
423.90	28.812
424.25	27.973
424.61	28.452
424.96	28.513
425.31	28.018
425.67	27.865
426.02	27.543
426.38	28.755
426.73	28.906
427.09	28.511
427.44	27.430
427.79	28.350
428.15	28.988
428.50	28.672
428.85	28.248
429.21	27.719
429.56	27.786
429.92	28.334
430.27	27.855
430.62	27.240
430.98	27.763
431.33	27.216
431.68	27.906
432.04	28.381
432.39	28.784
432.74	28.665
433.10	28.693
433.45	28.980
433.80	27.882
434.16	28.793
434.51	28.579
434.86	29.076
435.22	29.127
435.57	28.693
435.92	28.496
436.28	29.359
436.63	29.470
436.98	28.334
437.34	29.219
437.69	30.163
438.04	29.342
438.39	29.075
438.75	29.053
439.10	29.441
439.45	29.634
439.81	28.640
440.16	28.063
440.51	29.408
440.86	30.400
441.22	28.365
441.57	29.299
441.92	29.632
442.27	28.687
442.63	27.857
442.98	29.859
443.33	29.946
443.68	28.911
444.03	29.380
444.39	28.286
444.74	29.545
445.09	28.518
445.44	29.142
445.79	28.303
446.15	28.851
446.50	29.295
446.85	29.496
447.20	29.016
447.55	30.151
447.91	29.399
448.26	29.382
448.61	28.434
448.96	29.845
449.31	29.584
449.66	29.600
450.02	28.858
450.37	28.571
450.72	28.990
451.07	28.885
451.42	29.058
451.77	30.182
452.12	29.908
452.47	29.540
452.83	30.012
453.18	29.462
453.53	30.118
453.88	28.175
454.23	29.289
454.58	29.982
454.93	30.070
455.28	30.050
455.63	30.036
455.98	29.881
456.34	29.460
456.69	29.869
457.04	29.969
457.39	30.041
457.74	28.729
458.09	29.500
458.44	29.704
458.79	29.013
459.14	29.571
459.49	29.597
459.84	29.418
460.19	29.110
460.54	28.646
460.89	28.908
461.24	29.083
461.59	29.924
461.94	29.593
462.29	30.267
462.64	29.164
462.99	28.172
463.34	30.867
463.69	29.331
464.04	29.739
464.39	29.507
464.74	28.461
465.09	28.830
465.44	29.086
465.79	28.468
466.14	28.681
466.49	28.031
466.84	29.247
467.19	29.994
467.54	29.813
467.89	29.172
468.24	28.738
468.59	29.304
468.94	29.016
469.29	29.306
469.64	30.388
469.99	30.311
470.34	29.987
470.68	30.963
471.03	30.068
471.38	29.812
471.73	29.780
472.08	29.737
472.43	29.146
472.78	29.756
473.13	29.525
473.48	29.151
473.83	29.756
474.17	28.749
474.52	29.777
474.87	29.656
475.22	27.974
475.57	27.727
475.92	28.465
476.27	28.467
476.61	28.847
476.96	28.477
477.31	28.833
477.66	28.611
478.01	27.496
478.36	29.244
478.70	27.362
479.05	28.435
479.40	27.892
479.75	28.876
480.10	27.485
480.45	27.844
480.79	27.138
481.14	27.789
481.49	28.429
481.84	28.075
482.19	27.624
482.53	27.523
482.88	28.385
483.23	27.523
483.58	28.071
483.92	28.304
484.27	26.885
484.62	27.543
484.97	27.119
485.31	27.534
485.66	25.787
486.01	24.079
486.36	23.074
486.70	22.639
487.05	23.839
487.40	25.051
487.75	25.438
488.09	26.145
488.44	26.918
488.79	27.233
489.13	27.617
489.48	27.773
489.83	27.881
490.17	27.444
490.52	26.794
490.87	27.182
491.22	27.103
491.56	26.560
491.91	27.687
492.26	26.872
492.60	26.590
492.95	26.614
493.30	26.542
493.64	27.438
493.99	26.416
494.34	26.457
494.68	27.335
495.03	27.397
495.37	27.222
495.72	27.242
496.07	27.378
496.41	26.018
496.76	26.561
497.11	27.195
497.45	26.502
497.80	27.111
498.14	26.908
498.49	27.415
498.84	27.133
499.18	26.619
499.53	27.588
499.87	26.841
500.22	26.472
500.56	27.816
500.91	26.875
501.26	26.932
501.60	27.765
501.95	26.535
502.29	27.835
502.64	27.142
502.98	26.975
503.33	25.868
503.67	27.007
504.02	25.959
504.36	26.392
504.71	26.624
505.06	26.940
505.40	27.273
505.75	26.519
506.09	27.357
506.44	26.542
506.78	27.180
507.13	26.805
507.47	27.576
507.82	27.761
508.16	27.001
508.51	27.144
508.85	27.309
509.19	26.786
509.54	27.041
509.88	27.460
510.23	27.198
510.57	27.606
510.92	27.550
511.26	27.338
511.61	27.282
511.95	27.349
512.30	27.253
512.64	28.211
512.98	28.135
513.33	28.158
513.67	27.428
514.02	26.894
514.36	27.526
514.70	27.615
515.05	27.552
515.39	28.267
515.74	27.646
516.08	27.501
516.42	28.135
516.77	29.376
517.11	27.747
517.46	27.427
517.80	28.862
518.14	27.562
518.49	28.471
518.83	27.443
519.17	28.580
519.52	27.900
519.86	27.952
520.20	28.671
520.55	29.503
520.89	28.771
521.23	29.433
521.58	29.112
521.92	27.557
522.26	27.334
522.61	27.601
522.95	28.300
523.29	27.815
523.64	28.232
523.98	28.281
524.32	28.106
524.66	27.721
525.01	28.248
525.35	29.244
525.69	27.956
526.04	28.723
526.38	28.066
526.72	27.853
527.06	27.935
527.41	27.970
527.75	28.424
528.09	28.452
528.43	29.127
528.78	28.826
529.12	27.636
529.46	28.536
529.80	28.094
530.15	28.162
530.49	27.262
530.83	28.101
531.17	29.308
531.51	29.572
531.86	28.000
532.20	28.879
532.54	29.596
532.88	28.049
533.22	27.358
533.57	27.840
533.91	27.333
534.25	27.400
534.59	28.188
534.93	27.008
535.27	27.640
535.62	26.679
535.96	28.123
536.30	27.273
536.64	27.753
536.98	28.600
537.32	27.913
537.66	28.333
538.01	28.703
538.35	28.442
538.69	28.526
539.03	27.096
539.37	26.837
539.71	26.248
540.05	27.582
540.39	27.243
540.73	27.426
541.07	27.774
541.42	27.723
541.76	28.065
542.10	27.749
542.44	27.152
542.78	27.997
543.12	26.615
543.46	26.623
543.80	27.912
544.14	26.893
544.48	26.349
544.82	27.133
545.16	27.066
545.50	26.671
545.84	27.285
546.18	27.811
546.52	28.286
546.86	27.560
547.20	27.984
547.54	27.255
547.88	28.316
548.22	25.965
548.56	25.786
548.90	26.889
549.24	25.926
549.58	27.558
549.92	27.610
550.26	28.338
550.60	28.147
550.94	27.746
551.28	27.286
551.62	27.390
551.96	27.298
552.30	27.577
552.64	26.437
552.98	28.542
553.32	26.972
553.66	26.653
554.00	27.934
554.34	26.570
554.68	28.183
555.02	27.151
555.36	27.279
555.69	26.252
556.03	26.918
556.37	26.944
556.71	27.149
557.05	26.261
557.39	28.272
557.73	27.594
558.07	26.831
558.41	27.931
558.75	28.361
559.08	27.442
559.42	28.042
559.76	27.353
560.10	27.195
560.44	27.114
560.78	25.882
561.12	26.847
561.45	27.184
561.79	25.445
562.13	26.425
562.47	25.615
562.81	25.662
563.15	26.488
563.48	26.326
563.82	26.549
564.16	25.376
564.50	25.651
564.84	26.549
565.17	26.512
565.51	26.518
565.85	25.444
566.19	25.047
566.52	25.269
566.86	24.593
567.20	25.708
567.54	24.543
567.88	24.117
568.21	24.974
568.55	24.772
568.89	24.270
569.23	23.663
569.56	22.915
569.90	22.302
570.24	22.461
570.57	22.951
570.91	21.170
571.25	21.248
571.59	21.561
571.92	20.853
572.26	21.375
572.60	21.532
572.93	21.709
573.27	21.739
573.61	21.385
573.95	21.034
574.28	20.628
574.62	20.554
574.96	20.287
575.29	20.514
575.63	20.833
575.97	21.062
576.30	21.588
576.64	20.596
576.98	20.442
577.31	20.494
577.65	20.087
577.98	19.903
578.32	19.698
578.66	20.335
578.99	20.361
579.33	20.963
579.67	20.579
580.00	20.619
580.34	20.740
580.67	20.326
581.01	20.935
581.35	20.290
581.68	19.862
582.02	19.171
582.35	19.675
582.69	20.087
583.02	20.130
583.36	20.567
583.70	20.829
584.03	21.264
584.37	21.950
584.70	21.630
585.04	20.597
585.37	20.783
585.71	20.724
586.04	20.101
586.38	21.055
586.72	21.403
587.05	20.782
587.39	20.792
587.72	21.000
588.06	21.025
588.39	20.521
588.73	20.857
589.06	22.001
589.40	21.785
589.73	21.612
590.07	22.206
590.40	22.104
590.73	22.404
591.07	23.118
591.40	22.860
591.74	22.771
592.07	22.339
592.41	22.695
592.74	21.723
593.08	21.419
593.41	20.879
593.75	19.956
594.08	21.555
594.41	21.350
594.75	21.294
595.08	22.047
595.42	21.506
595.75	22.222
596.09	21.930
596.42	22.908
596.75	22.288
597.09	22.468
597.42	22.260
597.75	22.380
598.09	21.957
598.42	21.778
598.76	21.929
599.09	21.627
599.42	20.888
599.76	21.816
600.09	21.311
600.42	20.709
600.76	20.536
601.09	20.947
601.42	21.233
601.76	21.670
602.09	21.897
602.42	21.616
602.76	21.604
603.09	22.069
603.42	21.710
603.76	21.456
604.09	21.055
604.42	22.340
604.76	21.889
605.09	22.368
605.42	21.804
605.75	22.061
606.09	22.041
606.42	22.027
606.75	21.568
607.09	21.850
607.42	22.122
607.75	21.603
608.08	21.103
608.42	21.605
608.75	22.227
609.08	21.739
609.41	21.752
609.75	22.201
610.08	21.960
610.41	21.276
610.74	22.044
611.07	22.875
611.41	22.915
611.74	22.423
612.07	22.412
612.40	23.505
612.73	21.579
613.07	22.791
613.40	22.749
613.73	22.129
614.06	22.581
614.39	23.230
614.72	22.632
615.06	22.637
615.39	22.505
615.72	21.728
616.05	22.275
616.38	23.124
616.71	22.743
617.05	23.145
617.38	22.790
617.71	23.303
618.04	23.197
618.37	22.827
618.70	24.269
619.03	24.934
619.36	23.489
619.69	24.225
620.03	24.725
620.36	25.000
620.69	25.137
621.02	25.959
621.35	24.745
621.68	23.364
622.01	25.077
622.34	25.038
622.67	25.095
623.00	23.331
623.33	24.518
623.66	24.160
623.99	24.448
624.32	24.394
624.65	23.870
624.99	23.229
625.32	23.461
625.65	24.793
625.98	24.212
626.31	25.428
626.64	25.959
626.97	26.101
627.30	25.603
627.63	26.169
627.96	26.661
628.29	25.284
628.62	27.081
628.95	27.925
629.28	25.821
629.61	26.673
629.94	26.095
630.26	25.929
630.59	27.741
630.92	25.670
631.25	25.074
631.58	27.227
631.91	26.166
632.24	26.055
632.57	26.863
632.90	27.083
633.23	27.629
633.56	28.588
633.89	28.766
634.22	28.944
634.55	28.757
634.88	28.144
635.20	29.749
635.53	29.880
635.86	27.723
636.19	28.353
636.52	28.258
636.85	28.981
637.18	26.613
637.51	28.605
637.83	26.880
638.16	28.517
638.49	28.589
638.82	29.456
639.15	29.625
639.48	29.052
639.81	29.223
640.13	29.557
640.46	30.201
640.79	28.930
641.12	29.986
641.45	29.609
641.77	30.339
642.10	29.532
642.43	31.081
642.76	31.269
643.09	32.822
643.41	30.197
643.74	30.093
644.07	29.268
644.40	30.521
644.73	31.339
645.05	30.745
645.38	31.912
645.71	31.562
646.04	32.392
646.36	33.723
646.69	31.940
647.02	30.102
647.35	33.677
647.67	31.327
648.00	32.846
648.33	30.528
648.66	30.000
648.98	31.334
649.31	29.447
649.64	30.643
649.96	30.551
650.29	30.806
650.62	29.773
650.94	32.739
651.27	34.628
651.60	32.446
651.92	31.789
652.25	29.153
652.58	29.283
652.90	31.438
653.23	31.741
653.56	30.709
653.88	30.903
654.21	30.648
654.54	30.033
654.86	29.595
655.19	27.297
655.52	17.633
655.84	13.759
656.17	17.245
656.49	23.818
656.82	25.318
657.15	19.861
657.47	15.165
657.80	11.867
658.13	12.923
658.45	19.605
658.78	20.250
659.10	21.485
659.43	22.566
659.75	24.386
660.08	27.722
660.41	30.540
660.73	31.131
661.06	31.369
661.38	33.091
661.71	31.923
662.03	34.517
662.36	29.225
662.68	34.137
663.01	33.939
663.33	35.032
663.66	34.244
663.98	32.397
664.31	34.244
664.63	34.008
664.96	31.590
665.28	32.377
665.61	32.943
665.93	32.394
666.26	34.483
666.58	30.335
666.91	33.827
667.23	33.708
667.56	33.045
667.88	37.393
668.21	34.115
668.53	33.189
668.86	32.251
669.18	34.542
669.50	35.217
669.83	34.423
670.15	34.667
670.48	31.155
670.80	34.698
671.13	33.333
671.45	31.277
671.77	36.049
672.10	31.423
672.42	30.565
672.75	30.348
673.07	29.401
673.39	30.922
673.72	30.078
674.04	32.549
674.37	31.650
674.69	31.697
675.01	28.661
675.34	35.524
675.66	34.105
675.98	29.735
676.31	32.773
676.63	34.607
676.95	32.495
677.28	31.776
677.60	34.066
677.92	33.333
678.25	33.881
678.57	30.876
678.89	33.066
679.22	32.417
679.54	29.962
679.86	31.743
680.18	32.200
680.51	29.255
680.83	32.028
681.15	31.321
681.48	29.112
681.80	30.368
682.12	31.801
682.44	30.368
682.77	32.383
683.09	34.120
683.41	33.703
683.73	34.437
684.06	33.884
684.38	30.137
684.70	30.814
685.02	32.083
685.34	28.388
685.67	27.098
685.99	28.351
686.31	30.546
686.63	27.208
686.96	27.857
687.28	29.242
687.60	30.435
687.92	30.713
688.24	30.038
688.56	32.731
688.89	33.402
689.21	36.026
689.53	32.359
689.85	31.707
690.17	32.712
690.49	33.546
690.82	36.682
691.14	31.696
691.46	29.114
691.78	33.735
692.10	31.818
692.42	31.537
692.74	30.498
693.06	31.915
693.39	31.828
693.71	31.659
694.03	34.316
694.35	30.087
694.67	31.579
694.99	34.634
695.31	32.598
695.63	33.971
695.95	34.230
696.27	31.218
696.59	34.456
696.91	34.715
697.23	29.343
697.56	32.196
697.88	26.585
698.20	29.792
698.52	33.118
698.84	32.962
699.16	33.641
699.48	33.967
699.80	32.850
700.12	37.662
700.44	35.279
700.76	36.740
701.08	34.195
701.40	34.078
701.72	37.901
702.04	41.477
702.36	30.595
702.68	37.394
703.00	35.180
703.32	30.851
703.64	36.729
703.96	38.162
704.28	36.337
704.60	38.710
704.91	34.421
705.23	38.710
705.55	41.196
705.87	41.860
706.19	36.749
706.51	40.187
706.83	38.485
707.15	36.415
707.47	32.828
707.79	34.644
708.11	32.420
708.43	30.952
708.74	31.122
709.06	33.506
709.38	33.858
709.70	38.081
710.02	36.499
710.34	38.182
710.66	36.418
710.98	36.080
711.29	36.628
711.61	41.593
711.93	38.141
712.25	38.264
712.57	43.015
712.89	39.100
713.20	42.857
713.52	36.842
713.84	38.291
714.16	36.280
714.48	36.782
714.80	37.082
715.11	34.582
715.43	34.421
715.75	37.101
716.07	40.256
716.39	37.304
716.70	36.877
717.02	42.086
717.34	36.042
717.66	41.791
717.97	43.825
718.29	40.370
718.61	40.146
718.93	41.176
719.24	42.215
719.56	34.915
719.88	34.576
720.20	42.230
720.51	37.979
720.83	38.290
721.15	36.567
721.46	36.525
721.78	40.502
722.10	36.981
722.42	40.226
722.73	38.202
723.05	40.574
723.37	40.081
723.68	40.927
724.00	37.805
724.32	41.129
724.63	38.211
724.95	39.331
725.27	44.939
725.58	35.547
725.90	42.336
726.22	38.113
726.53	37.153
726.85	37.201
727.16	36.299
727.48	41.844
727.80	39.773
728.11	39.855
728.43	35.385
728.74	37.634
729.06	42.336
729.38	43.015
729.69	43.060
730.01	32.765
730.32	38.542
730.64	37.458
730.96	32.673
731.27	37.086
731.59	33.028
731.90	37.026
732.22	36.335
732.53	32.198
732.85	34.615
733.16	32.476
733.48	37.874
733.80	36.688
734.11	36.306
734.43	32.249
734.74	33.714
735.06	31.232
735.37	37.283
735.69	35.350
736.00	37.255
736.32	37.072
736.63	30.990
736.95	36.102
737.26	29.932
737.58	32.258
737.89	34.114
738.21	37.884
738.52	40.000
738.83	34.717
739.15	38.462
739.46	39.416
739.78	38.542
740.09	37.846
740.41	35.806
740.72	33.798
741.04	37.778
741.35	39.583
741.66	46.667
741.98	38.679
742.29	51.675
742.61	43.966
742.92	34.842
743.23	39.316
743.55	42.800
743.86	41.228
744.18	48.230
744.49	45.455
744.80	48.357
745.12	48.636
745.43	38.767
745.74	44.144
746.06	42.202
746.37	44.395
746.68	39.367
747.00	50.463
747.31	41.905
747.62	41.593
747.94	44.934
748.25	37.447
748.56	43.172
748.88	44.554
749.19	49.500
749.50	40.930
749.82	36.179
750.13	35.918
750.44	36.496
750.75	40.000
751.07	40.193
751.38	32.404
751.69	36.823
752.01	37.218
752.32	36.462
752.63	39.362
752.94	39.754
753.26	44.000
753.57	34.146
753.88	42.969
754.19	33.214
754.51	38.542
754.82	32.852
755.13	38.113
755.44	37.970
755.75	36.496
756.07	33.688
756.38	34.672
756.69	37.248
757.00	32.335
757.31	33.531
757.63	30.994
757.94	28.418
758.25	30.392
758.56	30.617
758.87	32.796
759.18	32.424
759.50	35.423
759.81	32.710
760.12	30.625
760.43	32.092
760.74	29.891
761.05	31.921
761.36	33.155
761.67	34.943
761.99	29.814
762.30	38.542
762.61	38.168
762.92	39.062
763.23	43.697
763.54	38.400
763.85	37.891
764.16	36.923
764.47	39.163
764.78	33.216
765.10	31.329
765.41	33.333
765.72	31.737
766.03	36.050
766.34	33.667
766.65	40.426
766.96	41.453
767.27	46.701
767.58	45.312
767.89	48.421
768.20	48.851
768.51	46.701
768.82	43.119
769.13	38.618
769.44	38.057
769.75	42.060
770.06	34.862
770.37	45.701
770.68	43.056
770.99	38.667
771.30	39.754
771.61	38.565
771.92	38.115
772.23	45.378
772.54	42.051
772.85	49.738
773.16	51.596
773.47	49.457
773.78	44.670
774.09	48.810
774.39	46.784
774.70	50.617
775.01	59.420
775.32	54.248
775.63	57.895
775.94	58.273
776.25	61.417
776.56	58.209
776.87	59.016
777.18	61.719
777.48	64.885
777.79	53.788
778.10	57.037
778.41	61.607
778.72	47.445
779.03	46.980
779.34	48.322
779.65	53.378
779.95	50.307
780.26	50.327
780.57	55.862
780.88	67.188
781.19	53.383
781.50	55.405
781.80	46.541
782.11	45.763
782.42	48.734
782.73	47.853
783.04	56.081
783.34	55.634
783.65	58.904
783.96	50.000
784.27	47.552
784.57	46.043
784.88	46.296
785.19	64.286
785.50	67.925
785.81	64.179
786.11	63.934
786.42	58.915
786.73	63.717
787.04	75.472
787.34	68.750
787.65	66.000
787.96	62.162
788.26	63.636
788.57	64.407
788.88	64.463
789.19	50.694
789.49	65.909
789.80	58.015
790.11	71.429
790.41	72.277
790.72	63.855
791.03	77.174
791.33	67.442
791.64	71.134
791.95	81.188
792.25	80.000
792.56	90.909
792.87	110.256
793.17	86.076
793.48	81.609
793.79	73.563
794.09	65.909
794.40	63.866
794.70	56.618
795.01	55.556
795.32	55.396
795.62	47.244
795.93	59.483
796.23	61.062
796.54	67.059
796.85	74.324
797.15	94.366
797.46	72.727
797.76	86.747
798.07	87.342
798.37	92.308
798.68	78.788
798.99	83.099
799.29	83.117
799.60	79.545
799.90	89.041
800.21	113.433
800.51	101.724
800.82	103.509
801.12	96.721
801.43	98.485
801.73	77.027
802.04	112.698
802.34	85.185
802.65	107.812
802.95	106.780
803.26	106.250
803.56	87.143
803.87	89.231
804.17	97.059
804.48	129.630
804.78	98.276
805.09	88.235
805.39	119.231
805.70	123.214
806.00	104.918
806.30	86.364
806.61	75.610
806.91	86.076
807.22	81.579
807.52	85.075
807.83	91.549
808.13	100.000
808.43	96.667
808.74	69.737
809.04	91.304
809.35	97.015
809.65	85.526
809.95	112.903
810.26	101.695
810.56	98.413
810.86	152.273
811.17	161.905
811.47	100.000
811.77	118.519
812.08	120.000
812.38	134.000
812.69	163.889
812.99	150.000
813.29	114.286
813.59	126.190
813.90	112.245
814.20	120.000
814.50	87.692
814.81	94.118
815.11	128.571
815.41	113.115
815.72	166.667
816.02	125.455
816.32	123.810
816.62	125.000
816.93	124.390
817.23	138.095
817.53	140.909
817.84	181.818
818.14	163.043
818.44	131.111
818.74	182.353
819.04	155.000
819.35	168.571
819.65	179.412
819.95	203.571
820.25	280.000
820.56	151.282
820.86	131.818
821.16	144.186
821.46	146.154
821.76	134.000
822.07	177.143
822.37	140.000
822.67	169.697
822.97	113.725
823.27	157.143
823.57	137.838
823.88	167.500
824.18	196.667
824.48	152.381
824.78	240.000
825.08	208.333
825.38	135.135
825.69	129.268
825.99	225.000
826.29	151.724
826.59	155.263
826.89	152.632
827.19	197.059
827.49	187.097
827.79	143.182
828.09	140.909
828.39	117.021
828.70	120.408
829.00	140.741
829.30	161.290
829.60	167.500
829.90	346.667
830.20	167.857
830.50	200.000
830.80	213.043
831.10	203.333
831.40	186.667
831.70	226.087
832.00	223.077
832.30	192.593
832.60	275.000
832.90	203.333
833.20	400.000
833.50	174.194
833.80	213.793
834.10	237.500
834.40	226.923
834.70	338.889
835.00	361.905
835.30	182.857
835.60	330.769
835.90	186.207
836.20	385.714
836.50	193.103
836.80	228.000
837.10	172.222
837.40	319.048
837.70	382.353
838.00	225.926
838.30	242.857
838.60	319.048
838.90	292.308
839.19	280.000
839.49	385.714
839.79	370.000
840.09	255.000
840.39	300.000
840.69	256.522
840.99	372.222
841.29	500.000
841.59	408.333
841.88	425.000
842.18	189.655
842.48	266.667
842.78	220.000
843.08	278.261
843.38	206.250
843.68	783.333
843.97	246.154
844.27	213.793
844.57	304.762
844.87	368.750
845.17	207.407
845.47	1633.333
845.76	477.778
846.06	411.765
846.36	537.500
846.66	400.000
846.96	256.250
847.25	409.091
847.55	454.545
847.85	265.217
848.15	500.000
848.44	321.429
848.74	283.333
849.04	358.824
849.34	520.000
849.63	257.895
849.93	400.000
850.23	1160.000
850.53	407.143
850.82	2450.000
851.12	-4300.000
851.42	4000.000
851.71	320.000
852.01	-1200.000
852.31	266.667
852.61	1666.667
852.90	280.952
853.20	216.000
853.50	352.941
853.79	233.333
854.09	250.000
854.39	400.000
854.68	172.973
854.98	174.194
855.28	186.667
855.57	213.793
855.87	240.741
856.17	263.158
856.46	326.667
856.76	294.118
857.05	203.448
857.35	216.667
857.65	340.000
857.94	243.478
858.24	265.385
858.53	290.000
858.83	263.636
859.13	366.667
859.42	0.000
859.72	577.778
860.01	472.727
860.31	240.909
860.60	289.474
860.90	252.174
861.20	522.222
861.49	450.000
861.79	-4500.000
862.08	725.000
862.38	323.810
862.67	400.000
862.97	288.235
863.26	588.889
863.56	277.778
863.85	441.667
864.15	562.500
864.44	366.667
864.74	850.000
865.03	687.500
865.33	273.684
865.62	445.455
865.92	561.538
866.21	350.000
866.51	0.000
866.80	481.818
867.10	1180.000
867.39	500.000
867.69	500.000
867.98	268.421
868.27	509.091
868.57	305.263
868.86	-5000.000
869.16	406.250
869.45	2000.000
869.75	-3300.000
870.04	500.000
870.33	685.714
870.63	1025.000
870.92	2350.000
871.22	771.429
871.51	347.059
871.80	233.333
872.10	364.286
>>>>>End Processed Spectral Data<<<<<
