SpectraSuite Data File
++++++++++++++++++++++++++++++++++++
Date: Wed May 13 16:53:42 PDT 2015
User: schluterlab
Dark Spectrum Present: Yes
Reference Spectrum Present: Yes
Number of Sampled Component Spectra: 1
Spectrometers: USB2E3373
Integration Time (usec): 3000 (USB2E3373)
Spectra Averaged: 3 (USB2E3373)
Boxcar Smoothing: 0 (USB2E3373)
Correct for Electrical Dark: No (USB2E3373)
Strobe/Lamp Enabled: No (USB2E3373)
Correct for Detector Non-linearity: No (USB2E3373)
Correct for Stray Light: No (USB2E3373)
Number of Pixels in Processed Spectrum: 2048
>>>>>Begin Processed Spectral Data<<<<<
178.53	0.000
178.91	-1375.000
179.29	-1200.000
179.67	-222.222
180.04	-1175.000
180.42	2500.000
180.80	1080.000
181.18	-1050.000
181.56	700.000
181.94	0.000
182.31	-785.714
182.69	1900.000
183.07	-650.000
183.45	-444.444
183.83	609.091
184.20	-490.000
184.58	2150.000
184.96	5500.000
185.34	-740.000
185.72	-600.000
186.09	-2300.000
186.47	2650.000
186.85	3050.000
187.23	4500.000
187.61	-1733.333
187.98	1525.000
188.36	545.455
188.74	563.636
189.12	-1200.000
189.49	520.000
189.87	-4700.000
190.25	-1225.000
190.63	471.429
191.00	415.385
191.38	733.333
191.76	-1100.000
192.14	1325.000
192.51	637.500
192.89	966.667
193.27	562.500
193.65	-1150.000
194.02	550.000
194.40	840.000
194.78	530.000
195.15	500.000
195.53	540.000
195.91	-2350.000
196.29	318.750
196.66	278.947
197.04	-380.000
197.42	0.000
197.79	630.000
198.17	-4800.000
198.55	814.286
198.92	637.500
199.30	1220.000
199.68	0.000
200.05	344.444
200.43	785.714
200.81	4700.000
201.18	1800.000
201.56	-1566.667
201.94	655.556
202.31	500.000
202.69	466.667
203.07	560.000
203.44	0.000
203.82	1250.000
204.19	614.286
204.57	435.714
204.95	750.000
205.32	1600.000
205.70	490.909
206.08	371.429
206.45	2600.000
206.83	343.750
207.20	766.667
207.58	760.000
207.96	366.667
208.33	687.500
208.71	-850.000
209.08	928.571
209.46	711.111
209.84	490.909
210.21	-1600.000
210.59	1350.000
210.96	-587.500
211.34	2550.000
211.71	600.000
212.09	866.667
212.46	0.000
212.84	1466.667
213.22	1300.000
213.59	-4400.000
213.97	950.000
214.34	871.429
214.72	554.545
215.09	1060.000
215.47	-2650.000
215.84	-2600.000
216.22	1766.667
216.59	371.429
216.97	1000.000
217.34	418.182
217.72	-650.000
218.09	0.000
218.47	-4600.000
218.84	666.667
219.22	842.857
219.59	1866.667
219.97	-585.714
220.34	960.000
220.72	-1900.000
221.09	335.714
221.47	1400.000
221.84	-1066.667
222.22	0.000
222.59	1525.000
222.97	-2850.000
223.34	920.000
223.72	453.846
224.09	1000.000
224.46	2250.000
224.84	-5200.000
225.21	-1120.000
225.59	-4500.000
225.96	640.000
226.34	315.000
226.71	3000.000
227.08	650.000
227.46	570.000
227.83	-1225.000
228.21	-2050.000
228.58	588.889
228.95	-2350.000
229.33	-2500.000
229.70	1566.667
230.08	685.714
230.45	-900.000
230.82	450.000
231.20	916.667
231.57	585.714
231.95	441.667
232.32	236.364
232.69	418.182
233.07	557.143
233.44	315.385
233.81	-1433.333
234.19	289.474
234.56	425.000
234.93	341.667
235.31	472.727
235.68	338.462
236.05	314.286
236.43	181.818
236.80	263.158
237.17	4800.000
237.55	180.952
237.92	189.286
238.29	209.524
238.67	193.548
239.04	193.103
239.41	125.000
239.79	97.826
240.16	126.190
240.53	113.636
240.91	88.235
241.28	96.000
241.65	100.000
242.02	95.652
242.40	61.290
242.77	76.667
243.14	60.215
243.51	80.899
243.89	50.588
244.26	54.444
244.63	47.312
245.00	54.255
245.38	45.545
245.75	42.056
246.12	40.367
246.49	48.905
246.87	49.600
247.24	45.385
247.61	32.857
247.98	31.373
248.36	25.000
248.73	31.210
249.10	28.662
249.47	34.463
249.84	29.947
250.22	32.620
250.59	23.669
250.96	24.747
251.33	27.014
251.70	31.683
252.08	20.952
252.45	24.215
252.82	19.130
253.19	25.532
253.56	22.353
253.94	24.481
254.31	20.703
254.68	21.154
255.05	21.033
255.42	18.699
255.79	19.485
256.16	21.661
256.54	14.134
256.91	20.996
257.28	13.309
257.65	14.851
258.02	18.323
258.39	15.773
258.76	16.722
259.14	14.881
259.51	16.109
259.88	17.391
260.25	16.314
260.62	15.607
260.99	16.460
261.36	15.315
261.73	15.473
262.10	12.500
262.47	12.958
262.85	15.042
263.22	13.960
263.59	14.530
263.96	11.813
264.33	14.883
264.70	12.895
265.07	16.624
265.44	12.626
265.81	11.192
266.18	11.055
266.55	13.171
266.92	12.531
267.29	13.194
267.66	11.927
268.03	12.045
268.40	11.215
268.77	11.217
269.14	10.811
269.51	13.093
269.88	13.287
270.25	11.738
270.62	12.135
270.99	13.978
271.36	14.378
271.73	9.813
272.10	11.957
272.47	11.828
272.84	13.636
273.21	13.417
273.58	12.227
273.95	10.482
274.32	12.603
274.69	11.349
275.06	8.268
275.43	12.979
275.80	12.224
276.17	11.609
276.54	9.563
276.91	10.474
277.28	9.961
277.65	11.605
278.02	9.731
278.39	12.695
278.76	10.545
279.13	13.585
279.50	11.732
279.87	10.359
280.23	9.780
280.60	9.478
280.97	8.688
281.34	10.973
281.71	10.545
282.08	10.365
282.45	9.091
282.82	9.414
283.19	8.734
283.56	9.474
283.92	10.321
284.29	10.406
284.66	9.982
285.03	8.137
285.40	8.627
285.77	8.923
286.14	7.599
286.51	9.500
286.87	10.940
287.24	10.098
287.61	9.310
287.98	10.552
288.35	9.192
288.72	8.255
289.08	8.294
289.45	9.390
289.82	7.642
290.19	6.279
290.56	9.648
290.93	6.798
291.29	7.362
291.66	7.965
292.03	10.029
292.40	10.573
292.77	8.136
293.13	9.403
293.50	7.726
293.87	8.593
294.24	7.407
294.60	6.550
294.97	9.593
295.34	7.898
295.71	7.812
296.08	8.262
296.44	6.878
296.81	7.794
297.18	8.130
297.55	5.409
297.91	6.464
298.28	7.363
298.65	8.486
299.02	8.037
299.38	8.101
299.75	4.852
300.12	6.386
300.48	6.875
300.85	6.782
301.22	7.261
301.59	6.313
301.95	6.045
302.32	6.675
302.69	8.244
303.05	7.030
303.42	6.543
303.79	7.701
304.15	6.177
304.52	6.373
304.89	7.549
305.25	8.121
305.62	7.135
305.99	7.202
306.35	6.600
306.72	7.623
307.09	7.658
307.45	7.658
307.82	6.250
308.19	8.389
308.55	7.983
308.92	8.056
309.29	7.392
309.65	7.529
310.02	8.668
310.38	6.989
310.75	7.181
311.12	7.165
311.48	8.359
311.85	8.595
312.22	8.741
312.58	8.524
312.95	8.976
313.31	7.087
313.68	8.420
314.05	10.059
314.41	8.643
314.78	9.366
315.14	9.533
315.51	9.578
315.87	9.703
316.24	10.228
316.61	8.674
316.97	10.568
317.34	9.295
317.70	10.038
318.07	10.876
318.43	10.568
318.80	11.528
319.16	11.111
319.53	11.163
319.89	12.381
320.26	12.000
320.62	13.393
320.99	13.737
321.35	13.636
321.72	14.476
322.08	14.906
322.45	14.925
322.81	16.473
323.18	15.607
323.54	15.213
323.91	17.075
324.27	16.730
324.64	16.682
325.00	16.050
325.37	17.834
325.73	20.108
326.10	19.329
326.46	19.355
326.83	20.362
327.19	21.862
327.56	20.993
327.92	21.347
328.29	22.183
328.65	22.192
329.01	24.007
329.38	22.479
329.74	23.915
330.11	24.694
330.47	24.242
330.84	26.011
331.20	24.226
331.56	25.138
331.93	25.000
332.29	23.248
332.66	25.664
333.02	27.331
333.38	25.745
333.75	26.560
334.11	26.068
334.48	26.353
334.84	26.471
335.20	25.364
335.57	25.204
335.93	24.732
336.29	25.092
336.66	27.142
337.02	25.701
337.38	27.500
337.75	26.381
338.11	26.321
338.47	26.519
338.84	27.223
339.20	25.229
339.56	27.099
339.93	25.545
340.29	26.812
340.65	26.560
341.02	27.225
341.38	26.690
341.74	26.842
342.11	26.900
342.47	26.784
342.83	27.226
343.20	26.840
343.56	26.453
343.92	27.368
344.28	26.531
344.65	27.515
345.01	27.020
345.37	26.672
345.73	26.650
346.10	26.684
346.46	27.288
346.82	27.348
347.19	25.647
347.55	26.273
347.91	27.346
348.27	27.938
348.63	25.920
349.00	26.942
349.36	25.944
349.72	26.624
350.08	25.689
350.45	27.828
350.81	26.645
351.17	27.634
351.53	27.273
351.89	26.403
352.26	27.309
352.62	26.784
352.98	26.661
353.34	27.773
353.70	26.268
354.07	26.855
354.43	25.952
354.79	25.986
355.15	26.337
355.51	28.058
355.87	28.327
356.24	27.280
356.60	26.864
356.96	26.870
357.32	27.310
357.68	27.638
358.04	27.158
358.40	27.712
358.77	27.230
359.13	26.519
359.49	27.137
359.85	24.921
360.21	26.954
360.57	27.549
360.93	27.692
361.29	26.531
361.66	26.625
362.02	27.612
362.38	27.681
362.74	27.232
363.10	26.647
363.46	26.559
363.82	27.891
364.18	27.239
364.54	27.786
364.90	27.904
365.26	27.206
365.62	27.831
365.98	27.611
366.35	27.364
366.71	26.681
367.07	27.677
367.43	27.794
367.79	27.123
368.15	28.017
368.51	27.108
368.87	28.694
369.23	28.676
369.59	28.458
369.95	27.868
370.31	27.920
370.67	27.899
371.03	28.689
371.39	28.134
371.75	28.382
372.11	28.947
372.47	28.739
372.83	29.035
373.19	27.095
373.55	29.860
373.91	29.676
374.27	27.973
374.63	29.236
374.99	29.732
375.35	28.053
375.71	29.267
376.07	29.287
376.42	30.193
376.78	28.893
377.14	29.444
377.50	29.868
377.86	29.588
378.22	29.204
378.58	28.509
378.94	29.290
379.30	29.517
379.66	29.822
380.02	29.853
380.38	29.144
380.74	29.952
381.09	29.707
381.45	30.670
381.81	31.450
382.17	29.682
382.53	29.434
382.89	30.247
383.25	30.582
383.61	30.793
383.97	30.644
384.32	30.193
384.68	30.793
385.04	31.407
385.40	30.279
385.76	31.143
386.12	29.922
386.48	31.403
386.83	30.853
387.19	30.736
387.55	30.303
387.91	31.137
388.27	30.779
388.62	31.469
388.98	30.713
389.34	31.289
389.70	31.330
390.06	31.115
390.42	31.712
390.77	31.489
391.13	31.461
391.49	31.789
391.85	31.636
392.20	30.599
392.56	31.313
392.92	31.313
393.28	29.882
393.64	30.396
393.99	31.704
394.35	31.576
394.71	31.619
395.07	31.028
395.42	31.520
395.78	31.743
396.14	30.106
396.50	32.456
396.85	31.723
397.21	31.134
397.57	31.246
397.92	31.250
398.28	30.549
398.64	31.541
399.00	30.218
399.35	30.231
399.71	30.440
400.07	30.455
400.42	30.613
400.78	30.639
401.14	30.854
401.49	30.985
401.85	30.672
402.21	30.659
402.57	30.352
402.92	31.274
403.28	31.668
403.63	30.631
403.99	30.955
404.35	30.909
404.70	30.216
405.06	29.819
405.42	30.942
405.77	29.543
406.13	30.192
406.49	30.278
406.84	30.715
407.20	30.201
407.55	30.057
407.91	30.467
408.27	30.121
408.62	29.741
408.98	30.637
409.34	30.320
409.69	30.323
410.05	29.988
410.40	30.520
410.76	30.346
411.11	29.735
411.47	29.073
411.83	30.483
412.18	30.303
412.54	29.888
412.89	29.759
413.25	29.693
413.60	29.833
413.96	29.205
414.31	29.405
414.67	30.482
415.03	29.073
415.38	30.412
415.74	29.711
416.09	30.895
416.45	29.786
416.80	30.073
417.16	30.697
417.51	29.993
417.87	28.966
418.22	29.968
418.58	30.794
418.93	31.020
419.29	30.045
419.64	29.912
420.00	30.061
420.35	30.145
420.71	29.886
421.06	30.131
421.42	29.415
421.77	28.700
422.12	29.029
422.48	29.142
422.83	29.936
423.19	29.282
423.54	29.425
423.90	30.087
424.25	29.034
424.61	29.464
424.96	28.863
425.31	29.181
425.67	28.764
426.02	28.971
426.38	29.487
426.73	29.491
427.09	28.693
427.44	29.787
427.79	28.867
428.15	28.155
428.50	29.198
428.85	30.095
429.21	27.830
429.56	29.186
429.92	28.888
430.27	28.749
430.62	28.827
430.98	28.957
431.33	27.990
431.68	28.482
432.04	28.914
432.39	30.211
432.74	28.546
433.10	28.693
433.45	28.688
433.80	28.991
434.16	28.793
434.51	28.368
434.86	28.506
435.22	29.572
435.57	30.091
435.92	28.555
436.28	29.359
436.63	29.525
436.98	28.449
437.34	29.756
437.69	29.580
438.04	29.230
438.39	29.373
438.75	29.518
439.10	28.994
439.45	29.398
439.81	28.520
440.16	28.741
440.51	28.002
440.86	29.415
441.22	27.809
441.57	28.875
441.92	28.659
442.27	28.794
442.63	28.067
442.98	30.141
443.33	29.076
443.68	28.085
444.03	29.039
444.39	27.459
444.74	28.950
445.09	28.625
445.44	28.486
445.79	28.006
446.15	28.057
446.50	28.864
446.85	28.828
447.20	28.047
447.55	29.257
447.91	27.468
448.26	28.325
448.61	28.886
448.96	28.848
449.31	28.628
449.66	28.644
450.02	27.577
450.37	27.778
450.72	28.821
451.07	27.422
451.42	27.112
451.77	27.246
452.12	28.176
452.47	28.296
452.83	29.079
453.18	28.729
453.53	29.314
453.88	28.175
454.23	27.794
454.58	28.770
454.93	28.798
455.28	27.681
455.63	28.883
455.98	29.048
456.34	27.198
456.69	28.303
457.04	28.483
457.39	27.469
457.74	27.278
458.09	27.372
458.44	28.734
458.79	26.139
459.14	28.104
459.49	27.963
459.84	28.033
460.19	27.225
460.54	27.373
460.89	27.976
461.24	27.990
461.59	29.111
461.94	26.634
462.29	27.359
462.64	28.143
462.99	27.456
463.34	29.400
463.69	27.642
464.04	27.768
464.39	27.420
464.74	27.154
465.09	27.865
465.44	27.258
465.79	27.125
466.14	26.820
466.49	27.141
466.84	27.262
467.19	26.433
467.54	28.000
467.89	27.431
468.24	26.585
468.59	26.923
468.94	26.451
469.29	26.478
469.64	27.979
469.99	27.402
470.34	28.005
470.68	27.371
471.03	27.075
471.38	27.033
471.73	27.182
472.08	28.026
472.43	27.701
472.78	26.531
473.13	26.508
473.48	26.841
473.83	26.951
474.17	26.571
474.52	26.179
474.87	27.671
475.22	26.814
475.57	26.115
475.92	26.341
476.27	26.607
476.61	25.538
476.96	25.618
477.31	25.170
477.66	26.477
478.01	25.196
478.36	26.758
478.70	26.116
479.05	26.677
479.40	26.254
479.75	26.182
480.10	25.746
480.45	25.036
480.79	25.084
481.14	26.125
481.49	26.293
481.84	25.423
482.19	25.443
482.53	25.550
482.88	26.105
483.23	25.374
483.58	25.705
483.92	25.820
484.27	24.793
484.62	25.517
484.97	25.345
485.31	25.685
485.66	25.147
486.01	24.060
486.36	22.752
486.70	22.548
487.05	22.733
487.40	23.034
487.75	23.193
488.09	23.749
488.44	23.783
488.79	24.810
489.13	25.134
489.48	24.429
489.83	24.385
490.17	25.427
490.52	24.358
490.87	25.011
491.22	24.557
491.56	23.781
491.91	25.035
492.26	24.116
492.60	24.700
492.95	24.743
493.30	24.673
493.64	24.078
493.99	24.095
494.34	24.746
494.68	25.504
495.03	25.000
495.37	24.988
495.72	24.854
496.07	25.104
496.41	23.628
496.76	24.318
497.11	24.358
497.45	23.894
497.80	23.992
498.14	23.913
498.49	23.756
498.84	24.161
499.18	23.905
499.53	24.122
499.87	23.719
500.22	23.928
500.56	24.951
500.91	24.038
501.26	23.708
501.60	24.063
501.95	23.556
502.29	24.227
502.64	23.743
502.98	24.497
503.33	23.857
503.67	24.408
504.02	23.901
504.36	23.584
504.71	23.644
505.06	24.000
505.40	23.918
505.75	23.578
506.09	24.004
506.44	24.371
506.78	24.062
507.13	24.331
507.47	23.737
507.82	24.367
508.16	23.354
508.51	23.947
508.85	23.982
509.19	23.469
509.54	23.571
509.88	23.545
510.23	24.730
510.57	24.045
510.92	23.408
511.26	23.895
511.61	22.925
511.95	23.017
512.30	23.330
512.64	23.751
512.98	23.419
513.33	24.090
513.67	23.052
514.02	22.944
514.36	23.921
514.70	23.520
515.05	23.592
515.39	23.780
515.74	22.804
516.08	23.924
516.42	23.973
516.77	23.356
517.11	23.307
517.46	23.476
517.80	23.461
518.14	23.335
518.49	23.629
518.83	23.920
519.17	24.596
519.52	23.203
519.86	23.274
520.20	24.971
520.55	24.297
520.89	24.331
521.23	24.005
521.58	23.469
521.92	24.005
522.26	22.758
522.61	23.551
522.95	23.143
523.29	22.581
523.64	23.841
523.98	23.475
524.32	24.065
524.66	23.632
525.01	23.775
525.35	23.172
525.69	23.091
526.04	22.928
526.38	22.453
526.72	23.313
527.06	23.603
527.41	22.277
527.75	23.280
528.09	24.149
528.43	23.263
528.78	23.171
529.12	23.515
529.46	23.760
529.80	23.329
530.15	23.427
530.49	23.323
530.83	23.291
531.17	23.825
531.51	24.708
531.86	23.484
532.20	24.381
532.54	23.190
532.88	23.748
533.22	22.423
533.57	22.469
533.91	23.600
534.25	23.086
534.59	23.612
534.93	22.963
535.27	23.416
535.62	22.833
535.96	23.415
536.30	22.314
536.64	24.211
536.98	22.296
537.32	22.383
537.66	23.000
538.01	24.161
538.35	23.982
538.69	23.484
539.03	23.067
539.37	22.620
539.71	22.748
540.05	23.922
540.39	23.455
540.73	22.574
541.07	23.621
541.42	24.070
541.76	23.871
542.10	23.221
542.44	22.914
542.78	23.847
543.12	22.457
543.46	23.869
543.80	23.162
544.14	22.914
544.48	22.857
544.82	23.348
545.16	23.032
545.50	22.686
545.84	23.051
546.18	22.492
546.52	24.088
546.86	23.230
547.20	23.533
547.54	22.912
547.88	23.788
548.22	22.540
548.56	22.327
548.90	22.919
549.24	22.828
549.58	23.874
549.92	22.253
550.26	23.437
550.60	22.545
550.94	22.676
551.28	22.312
551.62	23.149
551.96	21.754
552.30	23.413
552.64	24.273
552.98	22.441
553.32	21.713
553.66	23.108
554.00	22.649
554.34	22.084
554.68	23.033
555.02	22.214
555.36	22.547
555.69	21.786
556.03	22.476
556.37	23.056
556.71	22.306
557.05	23.039
557.39	22.883
557.73	22.583
558.07	22.625
558.41	22.648
558.75	23.292
559.08	21.999
559.42	22.600
559.76	23.529
560.10	22.627
560.44	22.991
560.78	22.954
561.12	23.549
561.45	22.555
561.79	22.149
562.13	21.663
562.47	22.814
562.81	22.385
563.15	20.936
563.48	22.414
563.82	22.114
564.16	23.022
564.50	21.615
564.84	21.429
565.17	21.557
565.51	22.684
565.85	22.335
566.19	20.664
566.52	21.089
566.86	21.037
567.20	22.759
567.54	21.804
567.88	21.782
568.21	21.217
568.55	21.082
568.89	21.109
569.23	21.034
569.56	20.931
569.90	20.981
570.24	20.560
570.57	20.095
570.91	20.071
571.25	19.889
571.59	20.206
571.92	19.960
572.26	19.526
572.60	20.060
572.93	19.850
573.27	19.846
573.61	20.017
573.95	20.284
574.28	19.899
574.62	19.412
574.96	19.259
575.29	19.205
575.63	19.385
575.97	19.448
576.30	19.543
576.64	19.459
576.98	19.324
577.31	19.640
577.65	19.609
577.98	19.823
578.32	19.083
578.66	19.497
578.99	18.854
579.33	19.366
579.67	18.973
580.00	19.516
580.34	19.150
580.67	19.452
581.01	19.789
581.35	19.125
581.68	19.379
582.02	18.944
582.35	18.734
582.69	18.912
583.02	18.958
583.36	18.607
583.70	19.206
584.03	19.540
584.37	19.710
584.70	19.462
585.04	19.985
585.37	19.385
585.71	19.431
586.04	19.038
586.38	19.932
586.72	19.884
587.05	18.799
587.39	19.314
587.72	19.248
588.06	19.157
588.39	19.835
588.73	19.009
589.06	19.601
589.40	19.630
589.73	19.676
590.07	19.359
590.40	19.693
590.73	20.453
591.07	20.513
591.40	19.865
591.74	20.346
592.07	20.550
592.41	20.380
592.74	20.150
593.08	19.487
593.41	19.519
593.75	18.832
594.08	19.276
594.41	19.689
594.75	20.000
595.08	19.506
595.42	20.035
595.75	19.551
596.09	19.677
596.42	20.472
596.75	19.671
597.09	20.260
597.42	19.098
597.75	20.052
598.09	20.043
598.42	19.888
598.76	19.376
599.09	19.308
599.42	19.178
599.76	19.912
600.09	18.980
600.42	18.736
600.76	19.179
601.09	18.944
601.42	19.939
601.76	19.583
602.09	19.723
602.42	19.984
602.76	20.314
603.09	19.040
603.42	19.719
603.76	19.588
604.09	19.426
604.42	19.649
604.76	19.907
605.09	19.441
605.42	19.838
605.75	20.530
606.09	19.357
606.42	19.125
606.75	19.328
607.09	20.218
607.42	19.427
607.75	19.156
608.08	19.236
608.42	19.632
608.75	19.026
609.08	19.426
609.41	19.848
609.75	20.343
610.08	19.274
610.41	18.901
610.74	19.584
611.07	19.812
611.41	19.627
611.74	20.563
612.07	20.290
612.40	20.567
612.73	20.316
613.07	19.397
613.40	20.958
613.73	19.979
614.06	20.323
614.39	20.136
614.72	20.368
615.06	19.538
615.39	19.745
615.72	20.245
616.05	19.511
616.38	20.289
616.71	20.249
617.05	20.671
617.38	20.986
617.71	19.520
618.04	20.853
618.37	19.515
618.70	20.971
619.03	20.789
619.36	20.502
619.69	21.338
620.03	21.429
620.36	20.521
620.69	21.849
621.02	21.091
621.35	20.987
621.68	20.561
622.01	21.517
622.34	21.029
622.67	21.065
623.00	20.616
623.33	20.729
623.66	20.372
623.99	20.471
624.32	20.185
624.65	20.692
624.99	20.113
625.32	20.854
625.65	21.112
625.98	21.061
626.31	21.306
626.64	21.878
626.97	21.446
627.30	21.446
627.63	21.329
627.96	21.194
628.29	21.260
628.62	22.324
628.95	22.264
629.28	22.354
629.61	22.090
629.94	23.714
630.26	21.449
630.59	22.593
630.92	22.031
631.25	21.816
631.58	20.921
631.91	21.602
632.24	20.992
632.57	22.455
632.90	23.465
633.23	22.371
633.56	22.825
633.89	23.216
634.22	23.269
634.55	24.379
634.88	22.156
635.20	22.820
635.53	22.289
635.86	23.762
636.19	23.294
636.52	22.261
636.85	22.451
637.18	21.889
637.51	22.577
637.83	20.345
638.16	21.355
638.49	23.048
638.82	23.641
639.15	24.125
639.48	23.815
639.81	23.324
640.13	22.005
640.46	23.893
640.79	22.721
641.12	22.696
641.45	23.045
641.77	23.711
642.10	25.439
642.43	22.523
642.76	24.149
643.09	25.307
643.41	23.824
643.74	25.617
644.07	23.780
644.40	23.926
644.73	26.299
645.05	27.417
645.38	25.434
645.71	23.833
646.04	26.080
646.36	27.379
646.69	26.421
647.02	24.830
647.35	24.055
647.67	25.664
648.00	24.878
648.33	24.917
648.66	23.485
648.98	24.738
649.31	21.226
649.64	22.720
649.96	21.908
650.29	24.171
650.62	22.816
650.94	25.608
651.27	24.831
651.60	24.626
651.92	24.121
652.25	22.638
652.58	23.988
652.90	25.434
653.23	22.034
653.56	23.937
653.88	24.089
654.21	24.171
654.54	26.568
654.86	23.676
655.19	22.838
655.52	16.438
655.84	14.494
656.17	19.003
656.49	25.694
656.82	25.870
657.15	19.293
657.47	14.146
657.80	11.095
658.13	11.500
658.45	17.097
658.78	16.736
659.10	17.495
659.43	18.346
659.75	19.384
660.08	22.025
660.41	22.905
660.73	25.159
661.06	23.248
661.38	26.000
661.71	26.346
662.03	26.036
662.36	24.453
662.68	24.498
663.01	26.263
663.33	23.355
663.66	23.739
663.98	27.862
664.31	25.630
664.63	26.923
664.96	23.139
665.28	26.434
665.61	28.460
665.93	25.151
666.26	25.152
666.58	25.314
666.91	27.696
667.23	24.944
667.56	26.566
667.88	25.214
668.21	27.719
668.53	28.416
668.86	27.056
669.18	26.013
669.50	27.609
669.83	28.105
670.15	25.556
670.48	26.144
670.80	26.509
671.13	27.389
671.45	25.957
671.77	28.513
672.10	25.878
672.42	24.382
672.75	23.051
673.07	24.472
673.39	22.785
673.72	25.000
674.04	25.098
674.37	25.631
674.69	25.562
675.01	22.594
675.34	26.694
675.66	29.895
675.98	26.680
676.31	25.630
676.63	27.813
676.95	24.948
677.28	24.533
677.60	27.692
677.92	28.903
678.25	26.694
678.57	23.904
678.89	24.248
679.22	27.308
679.54	25.763
679.86	25.872
680.18	25.403
680.51	26.773
680.83	25.445
681.15	27.170
681.48	26.276
681.80	22.824
682.12	25.670
682.44	24.758
682.77	23.625
683.09	26.824
683.41	28.381
683.73	24.724
684.06	26.446
684.38	25.245
684.70	25.000
685.02	26.642
685.34	23.443
685.67	25.000
685.99	23.368
686.31	23.720
686.63	21.555
686.96	23.750
687.28	23.105
687.60	21.014
687.92	24.497
688.24	24.144
688.56	25.100
688.89	25.934
689.21	27.948
689.53	26.305
689.85	28.160
690.17	23.188
690.49	29.512
690.82	27.336
691.14	25.223
691.46	23.629
691.78	27.510
692.10	27.479
692.42	25.549
692.74	23.444
693.06	23.191
693.39	28.337
693.71	26.638
694.03	25.474
694.35	26.623
694.67	24.714
694.99	27.561
695.31	27.206
695.63	25.359
695.95	27.139
696.27	24.365
696.59	25.907
696.91	29.016
697.23	23.944
697.56	25.373
697.88	22.086
698.20	25.000
698.52	24.086
698.84	24.722
699.16	26.037
699.48	26.603
699.80	28.986
700.12	31.429
700.44	29.708
700.76	26.796
701.08	29.598
701.40	27.374
701.72	27.988
702.04	32.386
702.36	24.646
702.68	29.462
703.00	27.147
703.32	27.660
703.64	22.520
703.96	28.412
704.28	28.198
704.60	30.205
704.91	29.377
705.23	25.513
705.55	31.561
705.87	31.561
706.19	33.569
706.51	29.907
706.83	30.303
707.15	28.291
707.47	25.253
707.79	29.238
708.11	27.626
708.43	24.286
708.74	23.980
709.06	30.390
709.38	27.822
709.70	29.942
710.02	30.267
710.34	26.970
710.66	30.448
710.98	30.114
711.29	27.616
711.61	31.858
711.93	27.885
712.25	31.833
712.57	32.353
712.89	29.412
713.20	31.915
713.52	32.895
713.84	29.430
714.16	27.744
714.48	27.874
714.80	29.483
715.11	28.242
715.43	29.970
715.75	26.087
716.07	29.393
716.39	29.467
716.70	28.571
717.02	32.374
717.34	30.389
717.66	33.582
717.97	33.466
718.29	31.852
718.61	34.672
718.93	33.088
719.24	33.218
719.56	30.847
719.88	30.847
720.20	32.432
720.51	35.540
720.83	34.944
721.15	28.358
721.46	29.433
721.78	30.108
722.10	30.943
722.42	37.594
722.73	31.835
723.05	34.016
723.37	30.364
723.68	34.749
724.00	36.585
724.32	35.081
724.63	33.740
724.95	32.218
725.27	38.462
725.58	37.109
725.90	34.672
726.22	35.849
726.53	30.208
726.85	30.034
727.16	33.096
727.48	33.688
727.80	32.955
728.11	33.696
728.43	31.154
728.74	31.183
729.06	30.657
729.38	35.662
729.69	32.028
730.01	31.741
730.32	30.556
730.64	30.100
730.96	28.383
731.27	29.139
731.59	29.969
731.90	30.904
732.22	27.640
732.53	28.173
732.85	28.846
733.16	28.617
733.48	32.226
733.80	28.571
734.11	28.981
734.43	30.769
734.74	26.857
735.06	28.940
735.37	30.925
735.69	29.618
736.00	28.758
736.32	31.153
736.63	28.115
736.95	31.310
737.26	23.129
737.58	29.032
737.89	30.100
738.21	31.399
738.52	34.286
738.83	27.925
739.15	33.077
739.46	33.212
739.78	29.167
740.09	31.385
740.41	31.935
740.72	32.753
741.04	36.296
741.35	33.333
741.66	40.000
741.98	32.547
742.29	36.842
742.61	35.345
742.92	35.294
743.23	34.188
743.55	39.200
743.86	33.333
744.18	35.398
744.49	35.407
744.80	38.028
745.12	37.273
745.43	37.885
745.74	40.090
746.06	35.780
746.37	39.013
746.68	38.914
747.00	35.185
747.31	34.286
747.62	33.186
747.94	30.837
748.25	30.638
748.56	37.445
748.88	35.149
749.19	47.000
749.50	40.000
749.82	31.707
750.13	33.061
750.44	30.292
750.75	34.035
751.07	34.084
751.38	31.707
751.69	29.603
752.01	31.579
752.32	27.798
752.63	33.333
752.94	37.295
753.26	34.400
753.57	30.894
753.88	36.719
754.19	30.714
754.51	37.500
754.82	28.159
755.13	32.075
755.44	33.083
755.75	31.752
756.07	32.270
756.38	26.642
756.69	33.557
757.00	27.545
757.31	28.487
757.63	28.363
757.94	26.810
758.25	25.980
758.56	24.691
758.87	24.194
759.18	31.515
759.50	27.900
759.81	29.595
760.12	26.875
760.43	30.946
760.74	25.272
761.05	29.379
761.36	24.866
761.67	29.261
761.99	31.677
762.30	32.292
762.61	30.534
762.92	35.156
763.23	36.555
763.54	34.000
763.85	32.813
764.16	36.923
764.47	32.700
764.78	31.449
765.10	28.797
765.41	29.794
765.72	28.144
766.03	27.900
766.34	30.333
766.65	36.596
766.96	36.325
767.27	39.594
767.58	39.062
767.89	40.526
768.20	49.425
768.51	36.041
768.82	36.697
769.13	31.301
769.44	31.984
769.75	34.764
770.06	31.651
770.37	35.294
770.68	35.648
770.99	36.889
771.30	29.098
771.61	32.735
771.92	33.607
772.23	40.336
772.54	38.462
772.85	39.267
773.16	41.489
773.47	42.391
773.78	46.701
774.09	44.643
774.39	40.936
774.70	41.975
775.01	45.652
775.32	49.020
775.63	41.447
775.94	46.763
776.25	48.819
776.56	48.507
776.87	55.738
777.18	53.906
777.48	61.069
777.79	59.848
778.10	54.074
778.41	58.036
778.72	40.876
779.03	41.611
779.34	44.966
779.65	39.189
779.95	45.399
780.26	53.595
780.57	51.034
780.88	56.250
781.19	57.143
781.50	55.405
781.80	41.509
782.11	42.938
782.42	40.506
782.73	42.331
783.04	50.676
783.34	48.592
783.65	52.740
783.96	53.731
784.27	44.056
784.57	46.763
784.88	51.852
785.19	54.762
785.50	64.151
785.81	50.746
786.11	58.197
786.42	54.264
786.73	50.442
787.04	52.830
787.34	51.786
787.65	57.000
787.96	59.459
788.26	54.545
788.57	51.695
788.88	57.025
789.19	52.778
789.49	61.364
789.80	54.198
790.11	58.095
790.41	69.307
790.72	66.265
791.03	59.783
791.33	65.116
791.64	54.639
791.95	59.406
792.25	72.222
792.56	59.740
792.87	91.026
793.17	79.747
793.48	67.816
793.79	71.264
794.09	67.045
794.40	59.664
794.70	50.000
795.01	48.889
795.32	53.237
795.62	55.906
795.93	54.310
796.23	66.372
796.54	72.941
796.85	70.270
797.15	81.690
797.46	83.333
797.76	78.313
798.07	78.481
798.37	81.538
798.68	90.909
798.99	78.873
799.29	68.831
799.60	63.636
799.90	98.630
800.21	86.567
800.51	87.931
800.82	114.035
801.12	86.885
801.43	90.909
801.73	72.973
802.04	92.063
802.34	65.432
802.65	103.125
802.95	98.305
803.26	104.688
803.56	78.571
803.87	76.923
804.17	92.647
804.48	114.815
804.78	103.448
805.09	92.647
805.39	88.462
805.70	100.000
806.00	95.082
806.30	86.364
806.61	87.805
806.91	69.620
807.22	72.368
807.52	65.672
807.83	81.690
808.13	76.563
808.43	90.000
808.74	78.947
809.04	78.261
809.35	80.597
809.65	88.158
809.95	111.290
810.26	91.525
810.56	92.063
810.86	134.091
811.17	121.429
811.47	103.333
811.77	88.889
812.08	90.909
812.38	118.000
812.69	175.000
812.99	147.727
813.29	114.286
813.59	104.762
813.90	128.571
814.20	83.636
814.50	83.077
814.81	95.588
815.11	128.571
815.41	103.279
815.72	128.571
816.02	109.091
816.32	130.952
816.62	120.000
816.93	131.707
817.23	130.952
817.53	109.091
817.84	169.697
818.14	113.043
818.44	108.889
818.74	161.765
819.04	120.000
819.35	137.143
819.65	173.529
819.95	182.143
820.25	250.000
820.56	153.846
820.86	140.909
821.16	153.488
821.46	130.769
821.76	134.000
822.07	151.429
822.37	150.000
822.67	139.394
822.97	125.490
823.27	185.714
823.57	156.757
823.88	135.000
824.18	196.667
824.48	138.095
824.78	252.000
825.08	158.333
825.38	167.568
825.69	121.951
825.99	212.500
826.29	175.862
826.59	163.158
826.89	160.526
827.19	170.588
827.49	174.194
827.79	159.091
828.09	129.545
828.39	123.404
828.70	124.490
829.00	133.333
829.30	180.645
829.60	127.500
829.90	326.667
830.20	203.571
830.50	213.043
830.80	186.957
831.10	163.333
831.40	156.667
831.70	169.565
832.00	219.231
832.30	177.778
832.60	350.000
832.90	170.000
833.20	428.571
833.50	174.194
833.80	172.414
834.10	190.625
834.40	219.231
834.70	261.111
835.00	323.810
835.30	151.429
835.60	315.385
835.90	186.207
836.20	392.857
836.50	179.310
836.80	184.000
837.10	172.222
837.40	285.714
837.70	276.471
838.00	214.815
838.30	247.619
838.60	252.381
838.90	246.154
839.19	275.000
839.49	400.000
839.79	305.000
840.09	295.000
840.39	214.286
840.69	256.522
840.99	283.333
841.29	420.000
841.59	375.000
841.88	356.250
842.18	193.103
842.48	214.286
842.78	160.000
843.08	178.261
843.38	184.375
843.68	750.000
843.97	215.385
844.27	182.759
844.57	242.857
844.87	393.750
845.17	222.222
845.47	1700.000
845.76	544.444
846.06	329.412
846.36	512.500
846.66	400.000
846.96	343.750
847.25	454.545
847.55	454.545
847.85	243.478
848.15	400.000
848.44	300.000
848.74	255.556
849.04	370.588
849.34	570.000
849.63	247.368
849.93	436.364
850.23	880.000
850.53	421.429
850.82	2500.000
851.12	-4600.000
851.42	4200.000
851.71	245.000
852.01	-1233.333
852.31	216.667
852.61	1400.000
852.90	252.381
853.20	228.000
853.50	288.235
853.79	204.762
854.09	195.833
854.39	325.000
854.68	162.162
854.98	180.645
855.28	200.000
855.57	213.793
855.87	218.519
856.17	231.579
856.46	186.667
856.76	247.059
857.05	203.448
857.35	175.000
857.65	386.667
857.94	226.087
858.24	215.385
858.53	285.000
858.83	245.455
859.13	386.667
859.42	0.000
859.72	555.556
860.01	354.545
860.31	263.636
860.60	273.684
860.90	195.652
861.20	455.556
861.49	475.000
861.79	-4200.000
862.08	637.500
862.38	252.381
862.67	338.462
862.97	317.647
863.26	400.000
863.56	255.556
863.85	358.333
864.15	662.500
864.44	406.667
864.74	816.667
865.03	675.000
865.33	273.684
865.62	463.636
865.92	407.692
866.21	350.000
866.51	0.000
866.80	490.909
867.10	960.000
867.39	369.231
867.69	481.818
867.98	268.421
868.27	490.909
868.57	278.947
868.86	-4300.000
869.16	337.500
869.45	2200.000
869.75	-4200.000
870.04	400.000
870.33	528.571
870.63	1150.000
870.92	2850.000
871.22	785.714
871.51	311.765
871.80	200.000
872.10	414.286
>>>>>End Processed Spectral Data<<<<<
