SpectraSuite Data File
++++++++++++++++++++++++++++++++++++
Date: Wed May 13 16:56:08 PDT 2015
User: schluterlab
Dark Spectrum Present: Yes
Reference Spectrum Present: Yes
Number of Sampled Component Spectra: 1
Spectrometers: USB2E3373
Integration Time (usec): 3000 (USB2E3373)
Spectra Averaged: 3 (USB2E3373)
Boxcar Smoothing: 0 (USB2E3373)
Correct for Electrical Dark: No (USB2E3373)
Strobe/Lamp Enabled: No (USB2E3373)
Correct for Detector Non-linearity: No (USB2E3373)
Correct for Stray Light: No (USB2E3373)
Number of Pixels in Processed Spectrum: 2048
>>>>>Begin Processed Spectral Data<<<<<
178.53	0.000
178.91	-1150.000
179.29	-1100.000
179.67	-305.556
180.04	-1225.000
180.42	2650.000
180.80	1080.000
181.18	-1100.000
181.56	600.000
181.94	0.000
182.31	-700.000
182.69	1800.000
183.07	-550.000
183.45	-600.000
183.83	527.273
184.20	-510.000
184.58	2400.000
184.96	4700.000
185.34	-900.000
185.72	-625.000
186.09	-1900.000
186.47	2850.000
186.85	2550.000
187.23	5300.000
187.61	-1833.333
187.98	1300.000
188.36	645.455
188.74	509.091
189.12	-940.000
189.49	550.000
189.87	-4500.000
190.25	-1250.000
190.63	457.143
191.00	423.077
191.38	900.000
191.76	-1100.000
192.14	1375.000
192.51	687.500
192.89	1066.667
193.27	550.000
193.65	-1425.000
194.02	550.000
194.40	980.000
194.78	430.000
195.15	491.667
195.53	590.000
195.91	-2350.000
196.29	331.250
196.66	315.789
197.04	-390.000
197.42	0.000
197.79	680.000
198.17	-4900.000
198.55	557.143
198.92	700.000
199.30	1000.000
199.68	0.000
200.05	327.778
200.43	714.286
200.81	4700.000
201.18	2000.000
201.56	-1366.667
201.94	522.222
202.31	633.333
202.69	433.333
203.07	630.000
203.44	0.000
203.82	1200.000
204.19	785.714
204.57	492.857
204.95	700.000
205.32	1433.333
205.70	381.818
206.08	357.143
206.45	2750.000
206.83	393.750
207.20	983.333
207.58	820.000
207.96	305.556
208.33	675.000
208.71	-833.333
209.08	714.286
209.46	611.111
209.84	454.545
210.21	-1600.000
210.59	1300.000
210.96	-600.000
211.34	2300.000
211.71	510.000
212.09	783.333
212.46	0.000
212.84	1700.000
213.22	1375.000
213.59	-4800.000
213.97	966.667
214.34	871.429
214.72	463.636
215.09	980.000
215.47	-2100.000
215.84	-2550.000
216.22	1733.333
216.59	400.000
216.97	1650.000
217.34	463.636
217.72	-716.667
218.09	0.000
218.47	-4700.000
218.84	588.889
219.22	928.571
219.59	1766.667
219.97	-528.571
220.34	940.000
220.72	-1733.333
221.09	421.429
221.47	1200.000
221.84	-950.000
222.22	0.000
222.59	1375.000
222.97	-2750.000
223.34	1440.000
223.72	469.231
224.09	920.000
224.46	2250.000
224.84	-5500.000
225.21	-940.000
225.59	-6000.000
225.96	580.000
226.34	300.000
226.71	2450.000
227.08	650.000
227.46	420.000
227.83	-1200.000
228.21	-1900.000
228.58	600.000
228.95	-2400.000
229.33	-2450.000
229.70	1733.333
230.08	814.286
230.45	-880.000
230.82	491.667
231.20	800.000
231.57	628.571
231.95	533.333
232.32	250.000
232.69	409.091
233.07	628.571
233.44	415.385
233.81	-1700.000
234.19	273.684
234.56	416.667
234.93	375.000
235.31	427.273
235.68	361.538
236.05	357.143
236.43	193.939
236.80	268.421
237.17	3400.000
237.55	214.286
237.92	153.571
238.29	228.571
238.67	129.032
239.04	196.552
239.41	136.111
239.79	110.870
240.16	123.810
240.53	120.455
240.91	74.510
241.28	108.000
241.65	92.000
242.02	84.058
242.40	85.484
242.77	71.667
243.14	62.366
243.51	70.787
243.89	60.000
244.26	52.222
244.63	59.140
245.00	52.128
245.38	45.545
245.75	49.533
246.12	40.367
246.49	62.044
246.87	56.800
247.24	43.077
247.61	37.143
247.98	35.948
248.36	35.135
248.73	27.389
249.10	35.032
249.47	27.684
249.84	34.225
250.22	33.690
250.59	27.811
250.96	36.869
251.33	31.280
251.70	36.139
252.08	27.143
252.45	26.906
252.82	24.348
253.19	24.681
253.56	25.882
253.94	29.876
254.31	26.953
254.68	26.154
255.05	26.568
255.42	19.512
255.79	21.691
256.16	25.632
256.54	21.908
256.91	23.132
257.28	18.345
257.65	22.112
258.02	20.497
258.39	23.344
258.76	20.401
259.14	20.238
259.51	17.629
259.88	16.770
260.25	18.127
260.62	16.763
260.99	20.186
261.36	22.823
261.73	17.765
262.10	14.244
262.47	19.437
262.85	17.827
263.22	13.960
263.59	20.228
263.96	15.385
264.33	20.366
264.70	17.105
265.07	15.345
265.44	17.929
265.81	16.788
266.18	18.342
266.55	15.610
266.92	16.708
267.29	17.593
267.66	14.679
268.03	16.818
268.40	15.187
268.77	15.036
269.14	16.216
269.51	17.833
269.88	17.016
270.25	14.221
270.62	14.382
270.99	17.634
271.36	17.597
271.73	13.084
272.10	13.043
272.47	15.914
272.84	14.069
273.21	15.933
273.58	13.100
273.95	16.562
274.32	14.463
274.69	14.133
275.06	13.386
275.43	14.894
275.80	14.429
276.17	10.794
276.54	15.177
276.91	14.625
277.28	13.672
277.65	16.054
278.02	14.907
278.39	15.820
278.76	13.091
279.13	13.962
279.50	14.339
279.87	13.745
280.23	16.567
280.60	13.733
280.97	12.939
281.34	13.628
281.71	13.273
282.08	14.587
282.45	13.636
282.82	13.854
283.19	11.943
283.56	12.456
283.92	12.352
284.29	11.640
284.66	10.708
285.03	12.297
285.40	11.444
285.77	10.943
286.14	10.190
286.51	13.333
286.87	13.162
287.24	14.821
287.61	10.915
287.98	12.987
288.35	12.520
288.72	12.461
289.08	13.459
289.45	11.367
289.82	12.683
290.19	11.146
290.56	11.639
290.93	11.480
291.29	10.583
291.66	11.652
292.03	13.517
292.40	12.188
292.77	11.095
293.13	12.985
293.50	10.933
293.87	10.667
294.24	12.296
294.60	10.626
294.97	12.209
295.34	11.425
295.71	9.943
296.08	9.259
296.44	10.316
296.81	9.115
297.18	12.602
297.55	7.784
297.91	10.422
298.28	11.245
298.65	11.749
299.02	10.408
299.38	10.093
299.75	9.569
300.12	8.940
300.48	9.125
300.85	9.001
301.22	8.917
301.59	9.975
301.95	9.194
302.32	8.601
302.69	10.514
303.05	9.697
303.42	9.877
303.79	10.193
304.15	8.042
304.52	8.111
304.89	8.595
305.25	9.165
305.62	9.853
305.99	10.862
306.35	9.620
306.72	9.865
307.09	9.323
307.45	10.248
307.82	9.040
308.19	9.934
308.55	10.464
308.92	9.023
309.29	9.081
309.65	8.590
310.02	9.408
310.38	10.753
310.75	10.032
311.12	10.338
311.48	10.449
311.85	9.958
312.22	9.781
312.58	10.187
312.95	11.510
313.31	10.194
313.68	10.291
314.05	11.736
314.41	11.055
314.78	10.775
315.14	11.519
315.51	11.637
315.87	11.287
316.24	10.824
316.61	11.793
316.97	11.644
317.34	10.274
317.70	10.994
318.07	13.186
318.43	12.622
318.80	13.964
319.16	13.465
319.53	12.570
319.89	13.810
320.26	14.100
320.62	14.385
320.99	14.747
321.35	14.343
321.72	14.476
322.08	15.005
322.45	16.318
322.81	16.376
323.18	15.703
323.54	16.141
323.91	17.264
324.27	16.444
324.64	15.284
325.00	15.870
325.37	16.288
325.73	18.582
326.10	17.829
326.46	17.563
326.83	19.413
327.19	17.933
327.56	18.728
327.92	19.248
328.29	18.456
328.65	20.626
329.01	20.036
329.38	20.074
329.74	18.837
330.11	20.829
330.47	20.478
330.84	20.772
331.20	20.856
331.56	20.550
331.93	19.722
332.29	20.941
332.66	20.796
333.02	22.578
333.38	20.867
333.75	22.193
334.11	20.463
334.48	20.674
334.84	20.772
335.20	22.455
335.57	21.034
335.93	20.089
336.29	20.238
336.66	22.543
337.02	21.086
337.38	22.222
337.75	21.569
338.11	21.128
338.47	21.271
338.84	21.173
339.20	21.284
339.56	22.263
339.93	21.273
340.29	21.649
340.65	22.014
341.02	22.775
341.38	22.509
341.74	22.544
342.11	22.358
342.47	21.938
342.83	21.147
343.20	22.944
343.56	21.988
343.92	21.316
344.28	22.449
344.65	22.786
345.01	21.044
345.37	21.527
345.73	22.504
346.10	22.592
346.46	21.441
346.82	22.488
347.19	20.468
347.55	20.690
347.91	22.735
348.27	22.514
348.63	22.910
349.00	22.087
349.36	22.496
349.72	21.893
350.08	22.690
350.45	22.050
350.81	21.852
351.17	22.771
351.53	22.277
351.89	22.525
352.26	23.283
352.62	23.176
352.98	22.609
353.34	23.829
353.70	21.686
354.07	23.710
354.43	22.857
354.79	23.089
355.15	23.065
355.51	23.181
355.87	23.265
356.24	23.616
356.60	22.855
356.96	23.652
357.32	22.240
357.68	22.756
358.04	22.407
358.40	23.753
358.77	23.552
359.13	23.125
359.49	22.431
359.85	23.095
360.21	23.285
360.57	24.202
360.93	23.692
361.29	24.263
361.66	22.601
362.02	24.104
362.38	24.487
362.74	24.330
363.10	23.908
363.46	24.505
363.82	23.734
364.18	24.156
364.54	24.740
364.90	25.000
365.26	24.044
365.62	24.617
365.98	24.178
366.35	24.713
366.71	25.018
367.07	24.690
367.43	24.891
367.79	26.338
368.15	26.221
368.51	24.564
368.87	25.196
369.23	25.238
369.59	26.140
369.95	25.221
370.31	26.353
370.67	25.000
371.03	27.640
371.39	26.239
371.75	26.471
372.11	26.600
372.47	27.419
372.83	27.089
373.19	25.939
373.55	27.199
373.91	28.424
374.27	26.873
374.63	26.764
374.99	27.895
375.35	27.913
375.71	26.936
376.07	28.189
376.42	28.198
376.78	29.026
377.14	28.630
377.50	29.139
377.86	28.391
378.22	29.330
378.58	28.321
378.94	27.907
379.30	29.262
379.66	30.584
380.02	30.344
380.38	29.205
380.74	30.132
381.09	30.623
381.45	31.653
381.81	31.143
382.17	31.083
382.53	31.384
382.89	32.160
383.25	32.145
383.61	32.218
383.97	32.208
384.32	31.878
384.68	33.147
385.04	34.173
385.40	32.755
385.76	33.477
386.12	33.614
386.48	34.550
386.83	33.868
387.19	36.178
387.55	34.508
387.91	33.857
388.27	33.967
388.62	35.464
388.98	34.828
389.34	36.045
389.70	35.193
390.06	36.312
390.42	36.316
390.77	35.941
391.13	36.184
391.49	37.056
391.85	35.264
392.20	36.215
392.56	36.490
392.92	37.375
393.28	35.799
393.64	37.170
393.99	36.347
394.35	36.104
394.71	36.637
395.07	36.698
395.42	37.454
395.78	38.232
396.14	37.865
396.50	38.847
396.85	38.589
397.21	38.409
397.57	38.562
397.92	37.680
398.28	36.491
398.64	37.873
399.00	38.109
399.35	37.451
399.71	37.211
400.07	36.960
400.42	38.834
400.78	39.264
401.14	37.744
401.49	38.567
401.85	38.596
402.21	37.665
402.57	38.186
402.92	38.903
403.28	38.726
403.63	38.366
403.99	37.898
404.35	38.182
404.70	38.129
405.06	38.847
405.42	37.555
405.77	38.229
406.13	38.262
406.49	38.202
406.84	38.689
407.20	36.643
407.55	39.056
407.91	38.667
408.27	37.971
408.62	37.628
408.98	37.868
409.34	38.007
409.69	38.323
410.05	38.538
410.40	38.777
410.76	37.336
411.11	38.359
411.47	37.764
411.83	38.485
412.18	37.724
412.54	39.539
412.89	38.253
413.25	38.312
413.60	38.851
413.96	37.766
414.31	37.667
414.67	38.466
415.03	38.146
415.38	39.562
415.74	38.907
416.09	39.190
416.45	38.019
416.80	38.401
417.16	38.740
417.51	38.023
417.87	38.857
418.22	38.738
418.58	37.573
418.93	38.391
419.29	38.256
419.64	37.531
420.00	38.049
420.35	37.797
420.71	39.331
421.06	37.232
421.42	37.135
421.77	38.285
422.12	37.451
422.48	36.859
422.83	37.391
423.19	37.624
423.54	37.841
423.90	37.797
424.25	36.069
424.61	37.440
424.96	37.668
425.31	37.265
425.67	35.843
426.02	37.486
426.38	37.546
426.73	36.571
427.09	37.325
427.44	37.665
427.79	36.515
428.15	38.452
428.50	36.688
428.85	37.843
429.21	37.824
429.56	36.392
429.92	36.437
430.27	36.594
430.62	36.457
430.98	35.911
431.33	35.412
431.68	36.963
432.04	36.422
432.39	35.808
432.74	37.403
433.10	37.068
433.45	37.376
433.80	35.588
434.16	37.340
434.51	36.316
434.86	36.260
435.22	37.521
435.57	37.021
435.92	36.571
436.28	37.189
436.63	37.086
436.98	36.119
437.34	37.150
437.69	36.989
438.04	37.043
438.39	37.015
438.75	36.258
439.10	36.425
439.45	35.950
439.81	36.556
440.16	34.896
440.51	35.911
440.86	36.711
441.22	36.485
441.57	36.943
441.92	36.029
442.27	36.114
442.63	36.282
442.98	36.282
443.33	36.413
443.68	36.242
444.03	35.139
444.39	35.248
444.74	35.606
445.09	36.065
445.44	35.867
445.79	35.626
446.15	34.463
446.50	34.464
446.85	34.738
447.20	34.982
447.55	34.897
447.91	34.804
448.26	34.669
448.61	34.426
448.96	35.548
449.31	35.377
449.66	34.947
450.02	35.153
450.37	34.240
450.72	34.743
451.07	34.369
451.42	34.347
451.77	35.232
452.12	33.718
452.47	35.821
452.83	33.800
453.18	34.535
453.53	35.560
453.88	34.141
454.23	34.668
454.58	33.555
454.93	36.427
455.28	33.978
455.63	35.133
455.98	35.000
456.34	34.485
456.69	34.690
457.04	34.923
457.39	34.775
457.74	33.778
458.09	34.100
458.44	33.409
458.79	33.243
459.14	33.634
459.49	33.275
459.84	32.632
460.19	33.235
460.54	32.407
460.89	34.174
461.24	34.123
461.59	34.108
461.94	33.416
462.29	33.947
462.64	33.504
462.99	33.116
463.34	34.267
463.69	34.647
464.04	32.986
464.39	33.217
464.74	33.155
465.09	32.449
465.44	32.188
465.79	32.327
466.14	33.169
466.49	32.369
466.84	32.224
467.19	31.623
467.54	33.500
467.89	31.333
468.24	32.286
468.59	32.845
468.94	32.254
469.29	31.748
469.64	33.400
469.99	31.664
470.34	32.299
470.68	32.399
471.03	32.313
471.38	32.314
471.73	32.978
472.08	32.697
472.43	32.161
472.78	32.587
473.13	31.707
473.48	32.335
473.83	31.829
474.17	31.674
474.52	32.320
474.87	31.991
475.22	31.863
475.57	31.381
475.92	30.430
476.27	31.680
476.61	31.440
476.96	31.776
477.31	31.031
477.66	31.893
478.01	30.737
478.36	31.306
478.70	31.205
479.05	30.671
479.40	31.064
479.75	30.961
480.10	31.113
480.45	30.557
480.79	29.193
481.14	30.186
481.49	30.138
481.84	30.681
482.19	29.441
482.53	30.275
482.88	30.247
483.23	30.140
483.58	29.845
483.92	29.663
484.27	28.453
484.62	29.698
484.97	29.208
485.31	29.863
485.66	28.761
486.01	27.561
486.36	26.265
486.70	25.531
487.05	26.139
487.40	27.145
487.75	27.136
488.09	28.086
488.44	27.518
488.79	28.752
489.13	28.953
489.48	28.915
489.83	27.708
490.17	28.628
490.52	28.432
490.87	28.810
491.22	28.331
491.56	28.018
491.91	28.292
492.26	28.617
492.60	28.940
492.95	28.952
493.30	27.850
493.64	28.091
493.99	28.412
494.34	28.723
494.68	28.342
495.03	28.524
495.37	27.594
495.72	28.558
496.07	28.817
496.41	27.389
496.76	27.880
497.11	27.420
497.45	27.527
497.80	28.359
498.14	27.729
498.49	28.585
498.84	28.092
499.18	27.286
499.53	27.920
499.87	27.586
500.22	27.650
500.56	28.641
500.91	27.500
501.26	27.881
501.60	28.382
501.95	26.948
502.29	27.601
502.64	27.793
502.98	27.115
503.33	26.920
503.67	27.981
504.02	27.502
504.36	27.000
504.71	27.308
505.06	27.759
505.40	27.419
505.75	26.905
506.09	27.405
506.44	27.578
506.78	27.764
507.13	28.067
507.47	28.232
507.82	27.609
508.16	27.609
508.51	27.803
508.85	26.812
509.19	26.837
509.54	27.500
509.88	27.975
510.23	27.352
510.57	28.019
510.92	27.499
511.26	27.133
511.61	27.593
511.95	27.088
512.30	28.367
512.64	28.318
512.98	27.224
513.33	27.355
513.67	26.681
514.02	27.273
514.36	27.963
514.70	27.504
515.05	27.328
515.39	27.482
515.74	28.097
516.08	27.613
516.42	27.969
516.77	28.595
517.11	27.026
517.46	28.104
517.80	28.165
518.14	27.562
518.49	27.713
518.83	27.557
519.17	27.714
519.52	27.391
519.86	27.667
520.20	28.266
520.55	28.007
520.89	28.102
521.23	28.589
521.58	27.191
521.92	28.230
522.26	27.395
522.61	28.598
522.95	27.931
523.29	27.998
523.64	28.476
523.98	28.651
524.32	27.382
524.66	28.563
525.01	28.248
525.35	27.509
525.69	28.140
526.04	28.037
526.38	27.700
526.72	26.810
527.06	27.433
527.41	26.918
527.75	27.846
528.09	28.259
528.43	27.533
528.78	27.720
529.12	27.030
529.46	27.557
529.80	27.970
530.15	27.850
530.49	26.954
530.83	26.582
531.17	28.198
531.51	28.275
531.86	27.355
532.20	28.227
532.54	28.379
532.88	28.434
533.22	27.171
533.57	27.963
533.91	26.129
534.25	26.488
534.59	27.090
534.93	26.829
535.27	27.097
535.62	27.900
535.96	27.370
536.30	26.764
536.64	27.173
536.98	26.476
537.32	26.267
537.66	26.133
538.01	26.926
538.35	28.313
538.69	27.569
539.03	26.771
539.37	26.709
539.71	25.405
540.05	26.667
540.39	27.442
540.73	26.779
541.07	27.515
541.42	26.354
541.76	26.516
542.10	27.555
542.44	26.623
542.78	27.404
543.12	25.592
543.46	27.541
543.80	26.545
544.14	25.931
544.48	26.857
544.82	26.555
545.16	26.350
545.50	25.386
545.84	27.218
546.18	26.330
546.52	27.116
546.86	26.529
547.20	26.770
547.54	26.854
547.88	26.212
548.22	26.526
548.56	26.730
548.90	25.672
549.24	26.330
549.58	27.012
549.92	26.099
550.26	26.776
550.60	26.279
550.94	26.197
551.28	26.116
551.62	27.031
551.96	26.386
552.30	27.167
552.64	26.369
552.98	27.390
553.32	25.826
553.66	27.880
554.00	27.179
554.34	26.363
554.68	27.325
555.02	27.010
555.36	26.444
555.69	26.319
556.03	26.110
556.37	26.262
556.71	26.057
557.05	27.381
557.39	26.802
557.73	26.112
558.07	26.033
558.41	26.266
558.75	26.378
559.08	26.473
559.42	26.833
559.76	26.324
560.10	26.695
560.44	25.926
560.78	25.150
561.12	26.319
561.45	26.010
561.79	25.313
562.13	25.687
562.47	25.683
562.81	26.220
563.15	26.154
563.48	26.194
563.82	25.962
564.16	25.768
564.50	25.911
564.84	24.716
565.17	24.968
565.51	25.942
565.85	25.508
566.19	25.360
566.52	24.953
566.86	24.714
567.20	25.590
567.54	24.543
567.88	23.954
568.21	24.709
568.55	24.419
568.89	24.173
569.23	23.262
569.56	23.158
569.90	23.132
570.24	22.677
570.57	22.441
570.91	22.398
571.25	22.205
571.59	22.003
571.92	22.149
572.26	22.039
572.60	22.432
572.93	21.919
573.27	21.828
573.61	22.083
573.95	22.119
574.28	21.834
574.62	21.744
574.96	21.505
575.29	21.484
575.63	21.545
575.97	21.349
576.30	21.535
576.64	21.582
576.98	21.463
577.31	21.557
577.65	21.498
577.98	21.311
578.32	20.969
578.66	21.174
578.99	21.000
579.33	21.060
579.67	21.090
580.00	21.410
580.34	21.096
580.67	21.012
581.01	21.138
581.35	21.313
581.68	21.183
582.02	20.553
582.35	20.542
582.69	20.788
583.02	20.967
583.36	21.190
583.70	21.628
584.03	21.891
584.37	21.765
584.70	21.996
585.04	21.306
585.37	21.622
585.71	21.852
586.04	21.309
586.38	21.787
586.72	21.541
587.05	21.407
587.39	20.976
587.72	21.515
588.06	21.185
588.39	21.591
588.73	21.825
589.06	21.689
589.40	22.121
589.73	22.070
590.07	22.028
590.40	21.922
590.73	22.170
591.07	23.036
591.40	22.691
591.74	23.766
592.07	23.037
592.41	22.902
592.74	22.884
593.08	21.919
593.41	22.145
593.75	20.581
594.08	21.824
594.41	21.633
594.75	22.033
595.08	21.940
595.42	22.102
595.75	21.546
596.09	22.681
596.42	22.043
596.75	22.921
597.09	23.333
597.42	21.838
597.75	23.458
598.09	22.783
598.42	22.552
598.76	21.484
599.09	21.399
599.42	21.397
599.76	21.742
600.09	21.494
600.42	21.622
600.76	21.214
601.09	21.384
601.42	21.575
601.76	21.556
602.09	22.332
602.42	22.572
602.76	22.773
603.09	21.715
603.42	21.945
603.76	21.989
604.09	21.753
604.42	22.014
604.76	22.733
605.09	22.280
605.42	21.804
605.75	21.606
606.09	22.001
606.42	21.577
606.75	21.485
607.09	22.269
607.42	21.823
607.75	21.477
608.08	21.450
608.42	22.501
608.75	21.731
609.08	21.924
609.41	21.894
609.75	22.249
610.08	22.809
610.41	21.601
610.74	22.280
611.07	22.826
611.41	22.915
611.74	23.077
612.07	22.619
612.40	22.928
612.73	22.421
613.07	23.222
613.40	22.486
613.73	22.234
614.06	23.011
614.39	22.811
614.72	22.474
615.06	23.372
615.39	22.293
615.72	22.188
616.05	22.275
616.38	22.457
616.71	23.040
617.05	23.969
617.38	23.211
617.71	22.883
618.04	23.498
618.37	22.176
618.70	23.522
619.03	23.947
619.36	23.354
619.69	24.014
620.03	24.863
620.36	24.398
620.69	23.904
621.02	24.263
621.35	24.432
621.68	25.078
622.01	24.303
622.34	24.508
622.67	24.335
623.00	23.404
623.33	24.375
623.66	23.731
623.99	24.080
624.32	23.110
624.65	23.023
624.99	23.938
625.32	23.896
625.65	24.793
625.98	24.212
626.31	24.261
626.64	25.633
626.97	25.686
627.30	24.688
627.63	25.923
627.96	25.399
628.29	25.984
628.62	26.075
628.95	27.547
629.28	25.639
629.61	26.031
629.94	26.571
630.26	25.453
630.59	24.881
630.92	26.054
631.25	25.074
631.58	26.226
631.91	25.659
632.24	27.215
632.57	25.813
632.90	26.096
633.23	28.076
633.56	28.475
633.89	26.840
634.22	27.355
634.55	28.639
634.88	28.144
635.20	28.674
635.53	27.711
635.86	27.847
636.19	27.412
636.52	27.566
636.85	26.690
637.18	26.382
637.51	28.605
637.83	25.277
638.16	27.621
638.49	28.589
638.82	30.088
639.15	27.875
639.48	28.055
639.81	29.223
640.13	27.995
640.46	28.725
640.79	27.873
641.12	29.161
641.45	27.654
641.77	29.602
642.10	31.287
642.43	27.177
642.76	29.567
643.09	30.215
643.41	29.135
643.74	29.630
644.07	29.878
644.40	29.908
644.73	31.181
645.05	30.745
645.38	29.858
645.71	28.824
646.04	31.894
646.36	32.888
646.69	31.605
647.02	28.912
647.35	30.241
647.67	30.619
648.00	29.919
648.33	30.363
648.66	27.424
648.98	28.636
649.31	25.859
649.64	28.401
649.96	29.508
650.29	28.278
650.62	29.450
650.94	30.470
651.27	30.743
651.60	30.449
651.92	29.233
652.25	29.316
652.58	28.505
652.90	30.174
653.23	26.810
653.56	28.031
653.88	30.111
654.21	30.174
654.54	29.373
654.86	30.685
655.19	26.757
655.52	18.589
655.84	16.222
656.17	20.379
656.49	27.577
656.82	27.814
657.15	21.243
657.47	15.682
657.80	12.367
658.13	12.912
658.45	19.757
658.78	19.284
659.10	20.930
659.43	21.920
659.75	23.314
660.08	25.000
660.41	27.561
660.73	30.114
661.06	30.096
661.38	32.909
661.71	31.538
662.03	34.714
662.36	31.014
662.68	31.727
663.01	29.697
663.33	32.484
663.66	29.202
663.98	33.477
664.31	30.252
664.63	30.769
664.96	29.980
665.28	31.967
665.61	32.164
665.93	30.382
666.26	32.454
666.58	32.008
666.91	33.192
667.23	35.056
667.56	29.590
667.88	34.188
668.21	31.557
668.53	33.189
668.86	33.333
669.18	33.049
669.50	32.826
669.83	34.641
670.15	33.111
670.48	33.769
670.80	31.034
671.13	33.333
671.45	30.851
671.77	31.568
672.10	29.575
672.42	29.682
672.75	28.027
673.07	29.930
673.39	27.848
673.72	29.297
674.04	30.000
674.37	30.680
674.69	30.061
675.01	31.590
675.34	32.854
675.66	34.316
675.98	34.216
676.31	32.563
676.63	31.847
676.95	31.866
677.28	31.075
677.60	31.429
677.92	34.388
678.25	30.390
678.57	33.068
678.89	30.461
679.22	31.238
679.54	27.863
679.86	31.193
680.18	30.233
680.51	30.496
680.83	29.004
681.15	32.830
681.48	33.648
681.80	28.820
682.12	30.268
682.44	29.014
682.77	32.587
683.09	33.691
683.41	31.707
683.73	34.437
684.06	32.231
684.38	29.941
684.70	31.977
685.02	29.831
685.34	29.487
685.67	28.846
685.99	28.007
686.31	28.669
686.63	26.325
686.96	27.857
687.28	29.242
687.60	29.891
687.92	29.068
688.24	30.989
688.56	31.727
688.89	31.328
689.21	34.934
689.53	31.524
689.85	33.481
690.17	28.778
690.49	32.484
690.82	32.009
691.14	28.795
691.46	31.646
691.78	29.920
692.10	30.372
692.42	29.142
692.74	26.971
693.06	31.489
693.39	31.622
693.71	29.913
694.03	31.579
694.35	32.684
694.67	32.494
694.99	32.927
695.31	31.618
695.63	34.211
695.95	29.095
696.27	32.995
696.59	33.161
696.91	32.124
697.23	31.690
697.56	30.917
697.88	27.812
698.20	31.875
698.52	29.247
698.84	30.067
699.16	29.724
699.48	31.354
699.80	35.507
700.12	38.182
700.44	32.891
700.76	36.740
701.08	33.908
701.40	32.961
701.72	37.318
702.04	39.205
702.36	32.861
702.68	37.960
703.00	36.011
703.32	33.777
703.64	35.389
703.96	35.376
704.28	34.884
704.60	36.657
704.91	36.202
705.23	34.018
705.55	36.877
705.87	43.854
706.19	38.516
706.51	36.137
706.83	36.667
707.15	33.613
707.47	32.576
707.79	34.152
708.11	32.420
708.43	30.000
708.74	30.357
709.06	34.805
709.38	33.333
709.70	34.884
710.02	37.092
710.34	35.152
710.66	32.537
710.98	32.955
711.29	30.233
711.61	34.513
711.93	34.936
712.25	37.942
712.57	40.074
712.89	36.678
713.20	36.778
713.52	36.842
713.84	36.709
714.16	33.841
714.48	35.057
714.80	37.690
715.11	33.141
715.43	34.125
715.75	33.913
716.07	36.741
716.39	35.423
716.70	35.216
717.02	41.007
717.34	36.396
717.66	41.045
717.97	44.223
718.29	37.407
718.61	39.416
718.93	40.809
719.24	37.370
719.56	34.915
719.88	37.627
720.20	39.865
720.51	36.585
720.83	39.777
721.15	35.448
721.46	37.589
721.78	43.011
722.10	40.000
722.42	37.594
722.73	40.449
723.05	40.984
723.37	39.676
723.68	40.927
724.00	40.650
724.32	40.323
724.63	41.057
724.95	39.331
725.27	39.676
725.58	36.719
725.90	40.876
726.22	37.358
726.53	38.194
726.85	37.543
727.16	34.164
727.48	39.007
727.80	35.606
728.11	38.406
728.43	37.692
728.74	38.710
729.06	40.511
729.38	41.176
729.69	33.808
730.01	35.154
730.32	34.722
730.64	35.117
730.96	33.003
731.27	37.417
731.59	34.862
731.90	33.528
732.22	36.335
732.53	31.269
732.85	37.500
733.16	31.833
733.48	33.555
733.80	33.117
734.11	32.484
734.43	33.728
734.74	34.571
735.06	32.378
735.37	36.127
735.69	33.758
736.00	36.275
736.32	33.022
736.63	34.505
736.95	32.588
737.26	30.952
737.58	33.548
737.89	37.793
738.21	36.177
738.52	33.571
738.83	35.094
739.15	36.154
739.46	35.766
739.78	38.194
740.09	36.000
740.41	38.387
740.72	34.146
741.04	33.333
741.35	32.917
741.66	46.222
741.98	37.736
742.29	43.062
742.61	47.414
742.92	40.724
743.23	42.735
743.55	38.400
743.86	37.719
744.18	47.788
744.49	43.062
744.80	46.948
745.12	42.273
745.43	40.969
745.74	47.297
746.06	38.532
746.37	38.565
746.68	40.724
747.00	45.833
747.31	45.714
747.62	40.265
747.94	44.053
748.25	41.702
748.56	44.934
748.88	43.069
749.19	47.500
749.50	40.465
749.82	34.146
750.13	35.510
750.44	36.496
750.75	36.491
751.07	35.048
751.38	39.024
751.69	32.130
752.01	37.970
752.32	37.184
752.63	37.234
752.94	40.164
753.26	39.600
753.57	37.398
753.88	42.578
754.19	37.500
754.51	41.667
754.82	37.184
755.13	33.585
755.44	35.714
755.75	35.401
756.07	34.397
756.38	33.577
756.69	34.899
757.00	32.635
757.31	34.718
757.63	31.871
757.94	28.418
758.25	30.392
758.56	30.123
758.87	31.989
759.18	31.818
759.50	31.034
759.81	31.464
760.12	28.125
760.43	31.519
760.74	29.620
761.05	33.051
761.36	32.086
761.67	31.818
761.99	32.919
762.30	32.986
762.61	39.695
762.92	37.500
763.23	37.815
763.54	37.600
763.85	38.672
764.16	42.308
764.47	39.544
764.78	34.629
765.10	30.063
765.41	34.218
765.72	31.737
766.03	34.796
766.34	34.333
766.65	42.128
766.96	36.325
767.27	43.655
767.58	42.708
767.89	46.316
768.20	50.000
768.51	40.102
768.82	38.532
769.13	38.618
769.44	37.652
769.75	39.485
770.06	36.239
770.37	43.439
770.68	46.759
770.99	40.000
771.30	37.705
771.61	39.013
771.92	38.525
772.23	47.059
772.54	45.641
772.85	45.026
773.16	47.340
773.47	52.174
773.78	46.701
774.09	41.071
774.39	47.368
774.70	47.531
775.01	50.725
775.32	57.516
775.63	57.237
775.94	43.165
776.25	52.756
776.56	57.463
776.87	55.738
777.18	61.719
777.48	66.412
777.79	61.364
778.10	63.704
778.41	52.679
778.72	51.825
779.03	42.953
779.34	46.980
779.65	47.973
779.95	45.399
780.26	52.288
780.57	61.379
780.88	59.375
781.19	57.143
781.50	52.703
781.80	48.428
782.11	44.068
782.42	44.304
782.73	48.466
783.04	55.405
783.34	50.000
783.65	63.014
783.96	55.970
784.27	48.252
784.57	53.957
784.88	39.815
785.19	58.730
785.50	59.434
785.81	70.896
786.11	67.213
786.42	60.465
786.73	65.487
787.04	66.981
787.34	60.714
787.65	54.000
787.96	54.955
788.26	56.198
788.57	60.169
788.88	70.248
789.19	55.556
789.49	62.121
789.80	58.015
790.11	80.952
790.41	68.317
790.72	77.108
791.03	58.696
791.33	74.419
791.64	75.258
791.95	74.257
792.25	76.667
792.56	84.416
792.87	96.154
793.17	102.532
793.48	80.460
793.79	78.161
794.09	67.045
794.40	59.664
794.70	58.088
795.01	54.815
795.32	56.115
795.62	54.331
795.93	66.379
796.23	62.832
796.54	67.059
796.85	78.378
797.15	107.042
797.46	95.455
797.76	83.133
798.07	70.886
798.37	76.923
798.68	72.727
798.99	78.873
799.29	79.221
799.60	77.273
799.90	91.781
800.21	102.985
800.51	96.552
800.82	108.772
801.12	111.475
801.43	109.091
801.73	83.784
802.04	104.762
802.34	77.778
802.65	82.813
802.95	100.000
803.26	104.688
803.56	72.857
803.87	103.077
804.17	97.059
804.48	103.704
804.78	100.000
805.09	95.588
805.39	109.615
805.70	98.214
806.00	100.000
806.30	89.394
806.61	81.707
806.91	72.152
807.22	73.684
807.52	82.090
807.83	101.408
808.13	95.312
808.43	88.333
808.74	84.211
809.04	86.957
809.35	102.985
809.65	86.842
809.95	104.839
810.26	91.525
810.56	95.238
810.86	143.182
811.17	147.619
811.47	125.000
811.77	111.111
812.08	116.364
812.38	136.000
812.69	169.444
812.99	152.273
813.29	126.531
813.59	100.000
813.90	97.959
814.20	112.727
814.50	104.615
814.81	97.059
815.11	110.204
815.41	93.443
815.72	147.619
816.02	127.273
816.32	133.333
816.62	125.000
816.93	143.902
817.23	154.762
817.53	115.909
817.84	148.485
818.14	121.739
818.44	140.000
818.74	161.765
819.04	135.000
819.35	177.143
819.65	167.647
819.95	160.714
820.25	235.000
820.56	182.051
820.86	145.455
821.16	118.605
821.46	141.026
821.76	140.000
822.07	145.714
822.37	152.500
822.67	154.545
822.97	111.765
823.27	242.857
823.57	159.459
823.88	175.000
824.18	210.000
824.48	150.000
824.78	252.000
825.08	225.000
825.38	159.459
825.69	124.390
825.99	225.000
826.29	206.897
826.59	171.053
826.89	163.158
827.19	188.235
827.49	200.000
827.79	134.091
828.09	145.455
828.39	138.298
828.70	128.571
829.00	207.407
829.30	145.161
829.60	152.500
829.90	306.667
830.20	214.286
830.50	182.609
830.80	269.565
831.10	166.667
831.40	183.333
831.70	208.696
832.00	230.769
832.30	196.296
832.60	368.750
832.90	186.667
833.20	400.000
833.50	187.097
833.80	196.552
834.10	175.000
834.40	207.692
834.70	288.889
835.00	271.429
835.30	177.143
835.60	307.692
835.90	196.552
836.20	321.429
836.50	206.897
836.80	212.000
837.10	180.556
837.40	233.333
837.70	300.000
838.00	222.222
838.30	238.095
838.60	290.476
838.90	230.769
839.19	255.000
839.49	392.857
839.79	310.000
840.09	290.000
840.39	276.190
840.69	273.913
840.99	311.111
841.29	550.000
841.59	400.000
841.88	368.750
842.18	175.862
842.48	228.571
842.78	176.667
843.08	247.826
843.38	187.500
843.68	900.000
843.97	211.538
844.27	172.414
844.57	276.190
844.87	362.500
845.17	240.741
845.47	1700.000
845.76	422.222
846.06	305.882
846.36	612.500
846.66	357.143
846.96	300.000
847.25	463.636
847.55	400.000
847.85	304.348
848.15	410.000
848.44	350.000
848.74	266.667
849.04	305.882
849.34	540.000
849.63	278.947
849.93	436.364
850.23	1080.000
850.53	435.714
850.82	2500.000
851.12	-3700.000
851.42	4600.000
851.71	280.000
852.01	-1100.000
852.31	275.000
852.61	1733.333
852.90	257.143
853.20	232.000
853.50	352.941
853.79	276.190
854.09	245.833
854.39	300.000
854.68	172.973
854.98	190.323
855.28	186.667
855.57	196.552
855.87	211.111
856.17	294.737
856.46	306.667
856.76	270.588
857.05	220.690
857.35	216.667
857.65	293.333
857.94	243.478
858.24	253.846
858.53	265.000
858.83	240.909
859.13	340.000
859.42	0.000
859.72	511.111
860.01	454.545
860.31	295.455
860.60	263.158
860.90	252.174
861.20	555.556
861.49	525.000
861.79	-4500.000
862.08	662.500
862.38	252.381
862.67	430.769
862.97	329.412
863.26	544.444
863.56	294.444
863.85	383.333
864.15	650.000
864.44	400.000
864.74	866.667
865.03	725.000
865.33	305.263
865.62	436.364
865.92	430.769
866.21	400.000
866.51	0.000
866.80	463.636
867.10	1100.000
867.39	515.385
867.69	345.455
867.98	315.789
868.27	463.636
868.57	247.368
868.86	-4600.000
869.16	368.750
869.45	2800.000
869.75	-3800.000
870.04	466.667
870.33	671.429
870.63	875.000
870.92	2250.000
871.22	685.714
871.51	311.765
871.80	252.381
872.10	342.857
>>>>>End Processed Spectral Data<<<<<
