SpectraSuite Data File
++++++++++++++++++++++++++++++++++++
Date: Wed May 13 16:06:07 PDT 2015
User: schluterlab
Dark Spectrum Present: Yes
Reference Spectrum Present: Yes
Number of Sampled Component Spectra: 1
Spectrometers: USB2E3373
Integration Time (usec): 3000 (USB2E3373)
Spectra Averaged: 3 (USB2E3373)
Boxcar Smoothing: 0 (USB2E3373)
Correct for Electrical Dark: No (USB2E3373)
Strobe/Lamp Enabled: No (USB2E3373)
Correct for Detector Non-linearity: No (USB2E3373)
Correct for Stray Light: No (USB2E3373)
Number of Pixels in Processed Spectrum: 2048
>>>>>Begin Processed Spectral Data<<<<<
178.53	0.000
178.91	-725.000
179.29	-1025.000
179.67	-116.667
180.04	-700.000
180.42	1300.000
180.80	620.000
181.18	-675.000
181.56	371.429
181.94	0.000
182.31	-328.571
182.69	933.333
183.07	-262.500
183.45	-277.778
183.83	254.545
184.20	-170.000
184.58	1150.000
184.96	3700.000
185.34	-340.000
185.72	-350.000
186.09	-800.000
186.47	1850.000
186.85	1350.000
187.23	2300.000
187.61	-766.667
187.98	850.000
188.36	336.364
188.74	345.455
189.12	-480.000
189.49	360.000
189.87	-2800.000
190.25	-625.000
190.63	250.000
191.00	261.538
191.38	600.000
191.76	-575.000
192.14	850.000
192.51	375.000
192.89	700.000
193.27	325.000
193.65	-800.000
194.02	300.000
194.40	400.000
194.78	400.000
195.15	375.000
195.53	400.000
195.91	-850.000
196.29	250.000
196.66	247.368
197.04	-160.000
197.42	0.000
197.79	400.000
198.17	-2200.000
198.55	400.000
198.92	412.500
199.30	420.000
199.68	0.000
200.05	183.333
200.43	457.143
200.81	2500.000
201.18	933.333
201.56	-1000.000
201.94	300.000
202.31	244.444
202.69	241.667
203.07	340.000
203.44	0.000
203.82	900.000
204.19	500.000
204.57	257.143
204.95	425.000
205.32	1066.667
205.70	254.545
206.08	207.143
206.45	1800.000
206.83	225.000
207.20	416.667
207.58	480.000
207.96	188.889
208.33	550.000
208.71	-450.000
209.08	528.571
209.46	422.222
209.84	272.727
210.21	-833.333
210.59	1025.000
210.96	-175.000
211.34	1550.000
211.71	390.000
212.09	383.333
212.46	0.000
212.84	833.333
213.22	725.000
213.59	-3300.000
213.97	500.000
214.34	485.714
214.72	327.273
215.09	780.000
215.47	-1250.000
215.84	-1650.000
216.22	1266.667
216.59	264.286
216.97	775.000
217.34	372.727
217.72	-233.333
218.09	0.000
218.47	-3100.000
218.84	455.556
219.22	557.143
219.59	966.667
219.97	-228.571
220.34	640.000
220.72	-933.333
221.09	250.000
221.47	875.000
221.84	-483.333
222.22	0.000
222.59	725.000
222.97	-1350.000
223.34	760.000
223.72	276.923
224.09	560.000
224.46	1100.000
224.84	-2800.000
225.21	-660.000
225.59	-2400.000
225.96	510.000
226.34	190.000
226.71	1500.000
227.08	450.000
227.46	350.000
227.83	-675.000
228.21	-700.000
228.58	400.000
228.95	-1550.000
229.33	-1400.000
229.70	1333.333
230.08	428.571
230.45	-400.000
230.82	250.000
231.20	566.667
231.57	342.857
231.95	341.667
232.32	136.364
232.69	190.909
233.07	371.429
233.44	238.462
233.81	-666.667
234.19	157.895
234.56	225.000
234.93	216.667
235.31	227.273
235.68	192.308
236.05	157.143
236.43	87.879
236.80	189.474
237.17	2600.000
237.55	152.381
237.92	128.571
238.29	214.286
238.67	112.903
239.04	134.483
239.41	91.667
239.79	73.913
240.16	85.714
240.53	102.273
240.91	86.275
241.28	78.000
241.65	70.000
242.02	79.710
242.40	66.129
242.77	48.333
243.14	54.839
243.51	65.169
243.89	62.353
244.26	43.333
244.63	48.387
245.00	46.809
245.38	47.525
245.75	35.514
246.12	36.697
246.49	49.635
246.87	48.800
247.24	43.077
247.61	43.571
247.98	41.176
248.36	35.135
248.73	37.580
249.10	34.395
249.47	43.503
249.84	39.037
250.22	32.620
250.59	36.095
250.96	35.354
251.33	36.019
251.70	40.099
252.08	28.571
252.45	34.978
252.82	35.217
253.19	33.617
253.56	31.373
253.94	35.270
254.31	33.594
254.68	35.385
255.05	35.424
255.42	32.927
255.79	33.456
256.16	32.130
256.54	32.862
256.91	31.673
257.28	30.576
257.65	32.013
258.02	33.540
258.39	29.338
258.76	32.107
259.14	35.714
259.51	28.267
259.88	28.571
260.25	34.139
260.62	30.636
260.99	30.745
261.36	29.730
261.73	26.934
262.10	29.360
262.47	30.986
262.85	27.577
263.22	28.205
263.59	29.915
263.96	31.319
264.33	26.110
264.70	30.263
265.07	30.946
265.44	26.010
265.81	24.331
266.18	28.643
266.55	27.805
266.92	30.221
267.29	28.241
267.66	25.459
268.03	27.273
268.40	28.972
268.77	24.582
269.14	28.378
269.51	29.571
269.88	28.904
270.25	25.734
270.62	27.640
270.99	29.247
271.36	30.258
271.73	27.336
272.10	27.609
272.47	28.387
272.84	29.004
273.21	27.254
273.58	24.454
273.95	27.044
274.32	25.620
274.69	27.837
275.06	25.591
275.43	28.298
275.80	27.054
276.17	28.513
276.54	28.482
276.91	25.889
277.28	24.219
277.65	24.758
278.02	25.466
278.39	28.516
278.76	25.818
279.13	27.170
279.50	27.002
279.87	27.291
280.23	25.549
280.60	26.306
280.97	24.769
281.34	27.257
281.71	26.182
282.08	27.255
282.45	26.000
282.82	26.110
283.19	23.173
283.56	25.088
283.92	24.535
284.29	25.044
284.66	24.864
285.03	26.221
285.40	24.824
285.77	24.916
286.14	24.352
286.51	24.500
286.87	24.615
287.24	25.733
287.61	24.398
287.98	24.675
288.35	23.138
288.72	23.988
289.08	22.848
289.45	24.712
289.82	24.065
290.19	22.135
290.56	23.124
290.93	22.508
291.29	23.466
291.66	21.534
292.03	23.692
292.40	24.082
292.77	22.337
293.13	23.284
293.50	22.157
293.87	22.815
294.24	23.556
294.60	21.834
294.97	23.256
295.34	22.708
295.71	23.153
296.08	23.077
296.44	21.871
296.81	20.872
297.18	22.222
297.55	19.789
297.91	20.712
298.28	22.088
298.65	21.540
299.02	21.871
299.38	21.381
299.75	19.407
300.12	22.605
300.48	19.375
300.85	22.195
301.22	22.166
301.59	19.571
301.95	22.166
302.32	22.208
302.69	20.669
303.05	20.485
303.42	20.741
303.79	20.612
304.15	21.911
304.52	21.669
304.89	20.674
305.25	20.650
305.62	20.159
305.99	21.724
306.35	20.694
306.72	23.543
307.09	20.977
307.45	22.635
307.82	21.205
308.19	21.744
308.55	22.438
308.92	22.342
309.29	21.014
309.65	22.163
310.02	20.613
310.38	21.720
310.75	21.225
311.12	22.416
311.48	22.466
311.85	23.795
312.22	23.101
312.58	22.245
312.95	24.815
313.31	22.136
313.68	24.636
314.05	24.753
314.41	23.819
314.78	22.054
315.14	23.833
315.51	24.202
315.87	25.347
316.24	23.138
316.61	24.561
316.97	24.755
317.34	24.658
317.70	25.335
318.07	26.372
318.43	25.342
318.80	26.429
319.16	24.105
319.53	24.765
319.89	27.524
320.26	28.700
320.62	28.075
320.99	27.374
321.35	28.283
321.72	28.337
322.08	29.812
322.45	31.443
322.81	30.717
323.18	30.154
323.54	30.983
323.91	31.038
324.27	30.497
324.64	30.941
325.00	32.462
325.37	33.212
325.73	34.201
326.10	33.274
326.46	34.498
326.83	35.375
327.19	35.354
327.56	35.279
327.92	35.958
328.29	37.267
328.65	36.280
329.01	36.643
329.38	37.095
329.74	38.689
330.11	38.266
330.47	39.394
330.84	38.603
331.20	37.432
331.56	38.349
331.93	38.796
332.29	39.219
332.66	39.115
333.02	38.848
333.38	38.302
333.75	38.681
334.11	39.502
334.48	39.397
334.84	40.257
335.20	40.091
335.57	39.982
335.93	39.196
336.29	38.187
336.66	39.315
337.02	39.005
337.38	40.833
337.75	38.948
338.11	39.928
338.47	40.792
338.84	39.780
339.20	38.532
339.56	40.055
339.93	39.545
340.29	39.583
340.65	39.840
341.02	40.663
341.38	40.125
341.74	39.912
342.11	40.611
342.47	40.176
342.83	39.469
343.20	40.779
343.56	39.848
343.92	40.175
344.28	38.946
344.65	39.983
345.01	38.721
345.37	39.623
345.73	39.425
346.10	40.494
346.46	38.898
346.82	39.044
347.19	37.678
347.55	39.245
347.91	38.835
348.27	39.030
348.63	38.545
349.00	39.887
349.36	39.163
349.72	39.134
350.08	37.763
350.45	40.277
350.81	38.587
351.17	39.141
351.53	38.657
351.89	39.026
352.26	39.227
352.62	39.695
352.98	38.088
353.34	39.195
353.70	39.116
354.07	39.113
354.43	38.333
354.79	37.168
355.15	39.106
355.51	40.128
355.87	40.163
356.24	38.518
356.60	39.214
356.96	39.340
357.32	39.330
357.68	39.449
358.04	39.113
358.40	37.846
358.77	38.341
359.13	39.069
359.49	38.667
359.85	38.095
360.21	38.118
360.57	39.066
360.93	39.385
361.29	39.380
361.66	38.545
362.02	37.836
362.38	39.163
362.74	39.137
363.10	40.266
363.46	38.225
363.82	38.700
364.18	38.767
364.54	38.262
364.90	38.810
365.26	40.662
365.62	38.276
365.98	37.180
366.35	37.536
366.71	38.684
367.07	38.674
367.43	38.824
367.79	38.044
368.15	39.583
368.51	38.735
368.87	38.758
369.23	38.844
369.59	39.899
369.95	39.191
370.31	38.248
370.67	38.333
371.03	40.075
371.39	38.338
371.75	39.044
372.11	38.762
372.47	40.396
372.83	39.841
373.19	38.439
373.55	39.763
373.91	39.323
374.27	38.419
374.63	39.491
374.99	40.325
375.35	38.730
375.71	37.491
376.07	37.929
376.42	39.615
376.78	40.093
377.14	38.874
377.50	40.397
377.86	38.431
378.22	39.444
378.58	38.221
378.94	39.221
379.30	38.295
379.66	40.355
380.02	39.005
380.38	38.494
380.74	39.076
381.09	40.159
381.45	39.951
381.81	39.128
382.17	39.554
382.53	38.113
382.89	39.877
383.25	38.774
383.61	40.087
383.97	40.150
384.32	39.364
384.68	37.980
385.04	38.599
385.40	38.824
385.76	39.865
386.12	39.443
386.48	39.773
386.83	40.603
387.19	40.569
387.55	40.136
387.91	38.815
388.27	38.381
388.62	40.504
388.98	39.742
389.34	39.299
389.70	38.749
390.06	39.227
390.42	39.300
390.77	40.076
391.13	39.885
391.49	38.769
391.85	39.147
392.20	38.927
392.56	39.394
392.92	40.318
393.28	38.402
393.64	38.849
393.99	39.218
394.35	38.896
394.71	38.457
395.07	38.069
395.42	39.864
395.78	39.186
396.14	39.975
396.50	39.662
396.85	40.242
397.21	39.519
397.57	39.678
397.92	39.062
398.28	38.901
398.64	38.351
399.00	38.780
399.35	38.466
399.71	38.947
400.07	39.326
400.42	38.405
400.78	39.807
401.14	37.622
401.49	39.284
401.85	38.838
402.21	39.042
402.57	37.446
402.92	39.092
403.28	38.101
403.63	38.304
403.99	37.707
404.35	38.182
404.70	38.010
405.06	37.624
405.42	37.804
405.77	38.171
406.13	38.600
406.49	37.847
406.84	37.389
407.20	37.293
407.55	38.992
407.91	38.467
408.27	38.098
408.62	37.929
408.98	37.684
409.34	38.438
409.69	39.548
410.05	38.476
410.40	37.370
410.76	37.395
411.11	37.033
411.47	37.891
411.83	37.935
412.18	37.353
412.54	37.733
412.89	37.470
413.25	37.780
413.60	39.036
413.96	37.219
414.31	37.728
414.67	37.896
415.03	38.212
415.38	37.113
415.74	38.264
416.09	38.863
416.45	37.282
416.80	37.806
417.16	38.070
417.51	38.553
417.87	37.123
418.22	37.413
418.58	38.412
418.93	37.469
419.29	37.365
419.64	37.720
420.00	37.134
420.35	36.580
420.71	38.912
421.06	37.888
421.42	37.427
421.77	37.780
422.12	36.777
422.48	37.183
422.83	37.915
423.19	37.459
423.54	36.912
423.90	37.275
424.25	38.135
424.61	37.321
424.96	38.484
425.31	37.209
425.67	37.416
426.02	37.771
426.38	39.744
426.73	37.624
427.09	38.419
427.44	37.665
427.79	37.953
428.15	37.619
428.50	39.263
428.85	38.021
429.21	37.548
429.56	38.828
429.92	37.846
430.27	38.232
430.62	37.839
430.98	37.519
431.33	37.165
431.68	37.487
432.04	38.232
432.39	39.463
432.74	39.378
433.10	38.483
433.45	38.134
433.80	38.359
434.16	38.034
434.51	37.947
434.86	37.628
435.22	37.910
435.57	38.602
435.92	39.321
436.28	39.087
436.63	38.687
436.98	38.981
437.34	39.296
437.69	39.440
438.04	38.786
438.39	38.985
438.75	38.757
439.10	39.218
439.45	39.197
439.81	39.215
440.16	39.074
440.51	38.196
440.86	38.680
441.22	37.709
441.57	39.968
441.92	38.690
442.27	38.321
442.63	38.283
442.98	39.324
443.33	39.185
443.68	38.462
444.03	39.141
444.39	37.293
444.74	37.987
445.09	38.814
445.44	38.983
445.79	38.743
446.15	38.698
446.50	38.826
446.85	38.592
447.20	39.368
447.55	40.089
447.91	39.162
448.26	39.009
448.61	39.175
448.96	40.255
449.31	39.033
449.66	39.561
450.02	38.942
450.37	38.492
450.72	39.707
451.07	39.366
451.42	38.298
451.77	39.225
452.12	38.684
452.47	40.423
452.83	39.277
453.18	38.936
453.53	39.765
453.88	39.161
454.23	38.075
454.58	39.794
454.93	39.797
455.28	39.589
455.63	39.320
455.98	39.464
456.34	38.882
456.69	40.075
457.04	40.372
457.39	39.626
457.74	39.872
458.09	39.275
458.44	39.567
458.79	38.557
459.14	40.011
459.49	39.054
459.84	38.892
460.19	38.892
460.54	38.542
460.89	38.782
461.24	39.284
461.59	39.105
461.94	39.396
462.29	39.881
462.64	39.056
462.99	38.452
463.34	40.733
463.69	39.900
464.04	39.014
464.39	39.362
464.74	39.275
465.09	38.299
465.44	38.892
465.79	38.926
466.14	38.314
466.49	37.597
466.84	38.821
467.19	39.529
467.54	38.938
467.89	39.316
468.24	38.743
468.59	39.011
468.94	38.974
469.29	41.324
469.64	40.094
469.99	39.986
470.34	39.432
470.68	41.020
471.03	38.912
471.38	40.792
471.73	39.307
472.08	39.934
472.43	39.196
472.78	39.105
473.13	38.896
473.48	39.139
473.83	40.671
474.17	39.515
474.52	39.764
474.87	39.930
475.22	39.524
475.57	38.635
475.92	38.609
476.27	39.572
476.61	38.720
476.96	38.922
477.31	38.723
477.66	39.278
478.01	37.533
478.36	39.238
478.70	39.045
479.05	38.765
479.40	38.383
479.75	38.638
480.10	39.016
480.45	38.886
480.79	38.605
481.14	37.916
481.49	39.108
481.84	38.089
482.19	38.255
482.53	38.578
482.88	38.855
483.23	38.505
483.58	38.399
483.92	38.425
484.27	37.473
484.62	38.448
484.97	37.879
485.31	38.527
485.66	37.561
486.01	36.275
486.36	34.563
486.70	34.078
487.05	34.867
487.40	36.108
487.75	36.747
488.09	37.034
488.44	37.658
488.79	38.228
489.13	38.312
489.48	39.519
489.83	37.894
490.17	38.053
490.52	37.334
490.87	38.716
491.22	38.063
491.56	37.039
491.91	38.204
492.26	37.988
492.60	37.696
492.95	37.558
493.30	37.477
493.64	37.984
493.99	37.837
494.34	37.882
494.68	38.507
495.03	39.145
495.37	38.064
495.72	38.353
496.07	38.840
496.41	37.655
496.76	37.335
497.11	37.145
497.45	37.680
497.80	37.812
498.14	38.454
498.49	37.854
498.84	38.639
499.18	38.238
499.53	38.414
499.87	37.418
500.22	36.929
500.56	38.447
500.91	38.077
501.26	38.170
501.60	38.396
501.95	38.359
502.29	38.379
502.64	38.315
502.98	37.868
503.33	37.431
503.67	37.401
504.02	37.933
504.36	37.436
504.71	37.421
505.06	37.976
505.40	38.260
505.75	37.946
506.09	38.290
506.44	37.987
506.78	37.750
507.13	38.516
507.47	38.535
507.82	37.943
508.16	38.045
508.51	38.508
508.85	37.388
509.19	37.806
509.54	37.704
509.88	38.022
510.23	37.892
510.57	39.061
510.92	37.856
511.26	37.410
511.61	38.278
511.95	36.378
512.30	37.752
512.64	38.528
512.98	38.156
513.33	38.223
513.67	37.567
514.02	37.500
514.36	38.558
514.70	38.794
515.05	38.873
515.39	38.923
515.74	37.613
516.08	38.849
516.42	38.235
516.77	38.852
517.11	37.791
517.46	38.318
517.80	38.560
518.14	38.680
518.49	38.740
518.83	38.693
519.17	37.875
519.52	38.087
519.86	36.794
520.20	39.133
520.55	39.138
520.89	38.808
521.23	38.420
521.58	37.875
521.92	39.069
522.26	37.706
522.61	37.632
522.95	38.367
523.29	38.649
523.64	38.720
523.98	38.817
524.32	37.998
524.66	37.643
525.01	37.868
525.35	38.538
525.69	37.623
526.04	38.318
526.38	38.255
526.72	37.730
527.06	39.297
527.41	37.067
527.75	38.071
528.09	38.343
528.43	37.986
528.78	38.722
529.12	37.697
529.46	38.089
529.80	38.366
530.15	37.819
530.49	36.985
530.83	37.848
531.17	38.708
531.51	38.846
531.86	37.935
532.20	38.005
532.54	38.821
532.88	38.447
533.22	37.102
533.57	36.790
533.91	36.544
534.25	35.905
534.59	37.462
534.93	36.228
535.27	36.451
535.62	36.447
535.96	37.100
536.30	37.635
536.64	37.476
536.98	37.160
537.32	37.130
537.66	37.667
538.01	38.051
538.35	37.104
538.69	37.396
539.03	36.582
539.37	35.016
539.71	35.515
540.05	37.059
540.39	36.944
540.73	35.640
541.07	37.833
541.42	37.639
541.76	37.355
542.10	37.581
542.44	36.689
542.78	37.549
543.12	35.317
543.46	36.000
543.80	37.020
544.14	35.751
544.48	37.206
544.82	35.471
545.16	36.955
545.50	35.668
545.84	36.425
546.18	37.710
546.52	37.233
546.86	36.632
547.20	37.694
547.54	36.072
547.88	36.862
548.22	35.616
548.56	34.717
548.90	35.723
549.24	35.286
549.58	37.585
549.92	37.157
550.26	36.861
550.60	36.791
550.94	36.479
551.28	35.772
551.62	36.880
551.96	36.070
552.30	35.836
552.64	36.376
552.98	36.678
553.32	35.941
553.66	35.992
554.00	37.062
554.34	35.887
554.68	36.624
555.02	35.896
555.36	36.743
555.69	35.115
556.03	36.474
556.37	35.880
556.71	35.130
557.05	35.294
557.39	36.599
557.73	35.992
558.07	35.896
558.41	34.370
558.75	35.489
559.08	36.167
559.42	35.903
559.76	36.544
560.10	34.975
560.44	34.661
560.78	34.997
561.12	34.960
561.45	35.007
561.79	34.740
562.13	35.345
562.47	36.270
562.81	35.774
563.15	34.114
563.48	34.881
563.82	35.160
564.16	34.009
564.50	34.375
564.84	34.450
565.17	34.492
565.51	34.441
565.85	35.025
566.19	34.690
566.52	34.516
566.86	33.936
567.20	33.608
567.54	34.475
567.88	32.645
568.21	34.550
568.55	32.255
568.89	33.317
569.23	32.665
569.56	32.186
569.90	31.623
570.24	31.432
570.57	31.418
570.91	30.931
571.25	30.852
571.59	30.987
571.92	30.674
572.26	30.214
572.60	31.532
572.93	30.105
573.27	31.115
573.61	30.988
573.95	30.620
574.28	30.302
574.62	30.151
574.96	29.845
575.29	30.068
575.63	30.412
575.97	29.862
576.30	30.802
576.64	29.896
576.98	29.509
577.31	30.152
577.65	30.054
577.98	29.976
578.32	29.051
578.66	29.560
578.99	29.696
579.33	29.581
579.67	29.214
580.00	29.849
580.34	29.900
580.67	29.591
581.01	29.548
581.35	29.577
581.68	29.422
582.02	28.494
582.35	28.897
582.69	29.259
583.02	29.044
583.36	30.044
583.70	30.095
584.03	30.355
584.37	30.514
584.70	30.747
585.04	29.574
585.37	29.450
585.71	29.159
586.04	29.621
586.38	30.199
586.72	30.047
587.05	29.095
587.39	29.657
587.72	29.528
588.06	29.776
588.39	30.123
588.73	29.979
589.06	30.508
589.40	30.404
589.73	30.201
590.07	30.996
590.40	31.019
590.73	30.952
591.07	31.136
591.40	31.126
591.74	31.429
592.07	31.326
592.41	31.831
592.74	30.187
593.08	30.180
593.41	29.516
593.75	28.982
594.08	29.366
594.41	30.011
594.75	30.277
595.08	30.315
595.42	30.018
595.75	29.487
596.09	30.116
596.42	30.766
596.75	30.688
597.09	31.169
597.42	30.354
597.75	30.617
598.09	30.130
598.42	30.069
598.76	30.563
599.09	29.875
599.42	28.821
599.76	29.246
600.09	28.925
600.42	28.232
600.76	29.214
601.09	29.217
601.42	29.833
601.76	29.450
602.09	29.644
602.42	30.374
602.76	30.552
603.09	30.527
603.42	30.574
603.76	29.154
604.09	28.848
604.42	29.515
604.76	29.861
605.09	29.620
605.42	29.585
605.75	29.387
606.09	29.484
606.42	29.465
606.75	29.905
607.09	29.259
607.42	29.825
607.75	28.692
608.08	29.483
608.42	29.897
608.75	28.449
609.08	30.296
609.41	29.605
609.75	29.633
610.08	29.500
610.41	29.097
610.74	29.612
611.07	30.484
611.41	30.177
611.74	30.518
612.07	30.590
612.40	30.693
612.73	30.526
613.07	30.765
613.40	30.753
613.73	29.051
614.06	29.785
614.39	29.890
614.72	29.632
615.06	29.149
615.39	29.618
615.72	30.419
616.05	28.708
616.38	30.017
616.71	30.879
617.05	30.330
617.38	29.525
617.71	30.270
618.04	29.627
618.37	29.923
618.70	30.492
619.03	31.382
619.36	30.754
619.69	30.070
620.03	31.525
620.36	31.350
620.69	32.123
621.02	31.342
621.35	31.167
621.68	30.685
622.01	31.424
622.34	32.526
622.67	31.483
623.00	29.934
623.33	29.878
623.66	31.880
623.99	31.370
624.32	31.027
624.65	29.590
624.99	29.887
625.32	30.340
625.65	30.053
625.98	31.360
626.31	31.571
626.64	31.347
626.97	30.673
627.30	31.505
627.63	30.845
627.96	31.791
628.29	32.458
628.62	31.747
628.95	32.830
629.28	30.748
629.61	32.356
629.94	33.048
630.26	32.412
630.59	31.745
630.92	31.226
631.25	31.688
631.58	32.633
631.91	32.759
632.24	32.278
632.57	33.788
632.90	32.237
633.23	32.550
633.56	34.124
633.89	33.409
634.22	32.690
634.55	34.438
634.88	32.934
635.20	34.289
635.53	33.012
635.86	32.921
636.19	32.706
636.52	32.180
636.85	32.302
637.18	32.143
637.51	32.742
637.83	31.689
638.16	33.504
638.49	32.116
638.82	34.893
639.15	33.500
639.48	33.292
639.81	33.244
640.13	33.854
640.46	34.899
640.79	35.139
641.12	32.187
641.45	34.777
641.77	32.990
642.10	32.602
642.43	33.483
642.76	31.734
643.09	33.896
643.41	34.294
643.74	34.722
644.07	32.470
644.40	34.202
644.73	34.331
645.05	35.341
645.38	32.543
645.71	33.494
646.04	37.375
646.36	36.227
646.69	35.284
647.02	34.524
647.35	33.505
647.67	34.867
648.00	33.659
648.33	35.314
648.66	32.576
648.98	34.033
649.31	33.632
649.64	33.483
649.96	35.320
650.29	34.439
650.62	33.495
650.94	33.712
651.27	37.331
651.60	32.779
651.92	34.665
652.25	32.573
652.58	32.555
652.90	31.754
653.23	31.279
653.56	34.803
653.88	32.805
654.21	33.017
654.54	31.353
654.86	32.710
655.19	30.000
655.52	23.849
655.84	21.522
656.17	27.299
656.49	37.200
656.82	37.702
657.15	28.774
657.47	21.538
657.80	16.872
658.13	18.010
658.45	26.881
658.78	27.389
659.10	27.986
659.43	29.612
659.75	30.505
660.08	32.468
660.41	35.568
660.73	34.816
661.06	32.643
661.38	32.909
661.71	34.615
662.03	37.278
662.36	31.809
662.68	34.137
663.01	34.949
663.33	33.758
663.66	34.034
663.98	35.421
664.31	33.824
664.63	34.818
664.96	33.602
665.28	34.016
665.61	32.943
665.93	33.400
666.26	35.497
666.58	35.356
666.91	34.249
667.23	37.978
667.56	35.205
667.88	35.043
668.21	36.461
668.53	32.755
668.86	33.550
669.18	34.328
669.50	33.043
669.83	35.294
670.15	32.222
670.48	34.423
670.80	33.621
671.13	36.093
671.45	30.638
671.77	33.401
672.10	34.381
672.42	31.979
672.75	31.675
673.07	31.866
673.39	32.911
673.72	32.617
674.04	34.118
674.37	31.068
674.69	31.493
675.01	33.264
675.34	35.524
675.66	32.842
675.98	33.605
676.31	32.773
676.63	34.607
676.95	33.543
677.28	32.243
677.60	32.747
677.92	35.865
678.25	32.854
678.57	34.462
678.89	31.663
679.22	31.827
679.54	31.870
679.86	31.743
680.18	32.200
680.51	31.560
680.83	33.096
681.15	33.774
681.48	31.569
681.80	31.915
682.12	31.609
682.44	29.981
682.77	35.234
683.09	33.906
683.41	34.368
683.73	32.892
684.06	32.851
684.38	32.877
684.70	33.527
685.02	33.583
685.34	29.670
685.67	29.545
685.99	29.553
686.31	30.887
686.63	28.092
686.96	30.536
687.28	31.588
687.60	32.609
687.92	32.358
688.24	30.038
688.56	32.329
688.89	31.328
689.21	33.406
689.53	31.942
689.85	32.373
690.17	31.677
690.49	33.970
690.82	32.944
691.14	35.045
691.46	32.700
691.78	32.129
692.10	32.231
692.42	30.739
692.74	31.120
693.06	31.064
693.39	32.238
693.71	32.751
694.03	32.842
694.35	30.952
694.67	31.121
694.99	34.146
695.31	31.127
695.63	33.493
695.95	35.697
696.27	29.695
696.59	36.788
696.91	31.606
697.23	29.108
697.56	33.689
697.88	28.016
698.20	28.958
698.52	29.462
698.84	32.071
699.16	29.263
699.48	33.017
699.80	31.159
700.12	36.883
700.44	33.156
700.76	35.359
701.08	32.471
701.40	36.034
701.72	33.819
702.04	39.205
702.36	32.861
702.68	35.694
703.00	31.302
703.32	31.915
703.64	35.389
703.96	35.655
704.28	33.430
704.60	36.070
704.91	32.938
705.23	37.537
705.55	37.542
705.87	37.209
706.19	36.042
706.51	32.399
706.83	38.485
707.15	32.773
707.47	30.808
707.79	33.170
708.11	31.963
708.43	29.762
708.74	31.888
709.06	32.468
709.38	35.958
709.70	35.174
710.02	32.938
710.34	32.424
710.66	35.821
710.98	33.523
711.29	32.849
711.61	35.988
711.93	32.372
712.25	35.691
712.57	36.765
712.89	37.370
713.20	33.131
713.52	35.197
713.84	36.709
714.16	32.927
714.48	32.471
714.80	35.562
715.11	34.582
715.43	32.344
715.75	32.174
716.07	34.824
716.39	31.661
716.70	36.877
717.02	30.935
717.34	35.689
717.66	34.328
717.97	40.239
718.29	34.815
718.61	35.401
718.93	33.088
719.24	34.602
719.56	28.814
719.88	33.898
720.20	35.811
720.51	33.798
720.83	35.688
721.15	33.582
721.46	30.496
721.78	35.842
722.10	39.245
722.42	33.083
722.73	36.330
723.05	31.148
723.37	35.628
723.68	36.680
724.00	34.959
724.32	35.081
724.63	36.992
724.95	29.289
725.27	34.008
725.58	37.891
725.90	34.307
726.22	34.717
726.53	29.861
726.85	32.423
727.16	37.011
727.48	32.624
727.80	33.333
728.11	31.884
728.43	35.000
728.74	32.258
729.06	34.307
729.38	41.176
729.69	33.808
730.01	31.058
730.32	34.028
730.64	31.438
730.96	31.683
731.27	36.755
731.59	31.804
731.90	31.487
732.22	31.988
732.53	27.245
732.85	30.769
733.16	32.154
733.48	29.568
733.80	34.091
734.11	31.529
734.43	32.249
734.74	31.429
735.06	30.372
735.37	33.237
735.69	31.529
736.00	33.007
736.32	30.218
736.63	31.629
736.95	31.949
737.26	25.850
737.58	28.710
737.89	33.779
738.21	33.788
738.52	32.143
738.83	30.189
739.15	30.769
739.46	37.591
739.78	32.292
740.09	33.538
740.41	33.871
740.72	33.449
741.04	38.889
741.35	32.917
741.66	38.667
741.98	33.491
742.29	41.627
742.61	40.948
742.92	39.367
743.23	36.752
743.55	35.600
743.86	36.404
744.18	39.823
744.49	40.670
744.80	38.498
745.12	43.636
745.43	33.921
745.74	36.937
746.06	39.450
746.37	33.184
746.68	39.819
747.00	37.963
747.31	34.286
747.62	33.628
747.94	36.123
748.25	34.043
748.56	35.242
748.88	35.149
749.19	36.500
749.50	37.209
749.82	30.894
750.13	32.245
750.44	31.752
750.75	34.386
751.07	38.585
751.38	34.843
751.69	34.296
752.01	32.707
752.32	31.408
752.63	32.979
752.94	36.475
753.26	38.000
753.57	30.488
753.88	33.203
754.19	31.071
754.51	31.250
754.82	29.242
755.13	33.208
755.44	28.947
755.75	34.307
756.07	30.851
756.38	28.832
756.69	34.564
757.00	31.138
757.31	27.300
757.63	30.117
757.94	31.903
758.25	26.961
758.56	27.654
758.87	28.763
759.18	28.788
759.50	33.542
759.81	30.218
760.12	26.875
760.43	29.226
760.74	30.163
761.05	29.944
761.36	27.807
761.67	29.830
761.99	26.398
762.30	32.292
762.61	32.443
762.92	34.375
763.23	38.235
763.54	36.400
763.85	32.031
764.16	35.769
764.47	32.700
764.78	29.329
765.10	27.848
765.41	31.563
765.72	29.940
766.03	28.527
766.34	30.667
766.65	36.596
766.96	34.615
767.27	40.102
767.58	39.062
767.89	37.368
768.20	36.782
768.51	41.117
768.82	33.945
769.13	34.146
769.44	30.364
769.75	32.618
770.06	30.734
770.37	36.199
770.68	34.722
770.99	25.333
771.30	27.459
771.61	30.045
771.92	33.607
772.23	38.655
772.54	38.974
772.85	36.649
773.16	37.766
773.47	33.152
773.78	42.640
774.09	37.500
774.39	36.257
774.70	35.802
775.01	38.406
775.32	39.869
775.63	40.132
775.94	38.849
776.25	47.244
776.56	42.537
776.87	45.902
777.18	44.531
777.48	45.038
777.79	43.182
778.10	42.222
778.41	46.429
778.72	37.226
779.03	36.242
779.34	45.638
779.65	35.135
779.95	39.877
780.26	47.712
780.57	42.069
780.88	54.688
781.19	41.353
781.50	50.676
781.80	42.138
782.11	33.333
782.42	36.709
782.73	35.583
783.04	43.919
783.34	38.732
783.65	43.836
783.96	42.537
784.27	37.762
784.57	37.410
784.88	37.037
785.19	50.000
785.50	47.170
785.81	47.761
786.11	50.000
786.42	41.085
786.73	44.248
787.04	51.887
787.34	50.000
787.65	52.000
787.96	54.955
788.26	43.802
788.57	41.525
788.88	49.587
789.19	38.889
789.49	40.909
789.80	48.855
790.11	58.095
790.41	49.505
790.72	43.373
791.03	58.696
791.33	43.023
791.64	51.546
791.95	44.554
792.25	54.444
792.56	64.935
792.87	67.949
793.17	65.823
793.48	65.517
793.79	55.172
794.09	52.273
794.40	49.580
794.70	44.853
795.01	42.222
795.32	43.165
795.62	45.669
795.93	43.103
796.23	48.673
796.54	52.941
796.85	48.649
797.15	60.563
797.46	50.000
797.76	50.602
798.07	67.089
798.37	64.615
798.68	59.091
798.99	63.380
799.29	62.338
799.60	48.864
799.90	76.712
800.21	65.672
800.51	56.897
800.82	70.175
801.12	63.934
801.43	72.727
801.73	62.162
802.04	66.667
802.34	64.198
802.65	67.188
802.95	83.051
803.26	78.125
803.56	44.286
803.87	49.231
804.17	54.412
804.48	85.185
804.78	65.517
805.09	58.824
805.39	69.231
805.70	76.786
806.00	63.934
806.30	69.697
806.61	64.634
806.91	45.570
807.22	50.000
807.52	41.791
807.83	63.380
808.13	65.625
808.43	68.333
808.74	59.211
809.04	63.768
809.35	62.687
809.65	67.105
809.95	88.710
810.26	66.102
810.56	61.905
810.86	77.273
811.17	95.238
811.47	76.667
811.77	79.630
812.08	63.636
812.38	100.000
812.69	80.556
812.99	102.273
813.29	93.878
813.59	47.619
813.90	93.878
814.20	69.091
814.50	56.923
814.81	83.824
815.11	95.918
815.41	70.492
815.72	83.333
816.02	87.273
816.32	78.571
816.62	77.500
816.93	100.000
817.23	104.762
817.53	88.636
817.84	124.242
818.14	93.478
818.44	68.889
818.74	91.176
819.04	67.500
819.35	85.714
819.65	129.412
819.95	121.429
820.25	110.000
820.56	87.179
820.86	88.636
821.16	88.372
821.46	92.308
821.76	104.000
822.07	128.571
822.37	102.500
822.67	87.879
822.97	72.549
823.27	146.429
823.57	91.892
823.88	105.000
824.18	130.000
824.48	97.619
824.78	148.000
825.08	100.000
825.38	81.081
825.69	95.122
825.99	120.833
826.29	120.690
826.59	118.421
826.89	84.211
827.19	120.588
827.49	135.484
827.79	88.636
828.09	95.455
828.39	78.723
828.70	69.388
829.00	140.741
829.30	58.065
829.60	92.500
829.90	206.667
830.20	125.000
830.50	78.261
830.80	130.435
831.10	163.333
831.40	123.333
831.70	117.391
832.00	126.923
832.30	122.222
832.60	150.000
832.90	136.667
833.20	178.571
833.50	103.226
833.80	127.586
834.10	134.375
834.40	111.538
834.70	177.778
835.00	171.429
835.30	91.429
835.60	161.538
835.90	106.897
836.20	192.857
836.50	117.241
836.80	104.000
837.10	83.333
837.40	142.857
837.70	194.118
838.00	103.704
838.30	109.524
838.60	142.857
838.90	138.462
839.19	190.000
839.49	264.286
839.79	200.000
840.09	205.000
840.39	195.238
840.69	186.957
840.99	194.444
841.29	260.000
841.59	191.667
841.88	168.750
842.18	89.655
842.48	157.143
842.78	143.333
843.08	204.348
843.38	112.500
843.68	633.333
843.97	165.385
844.27	93.103
844.57	128.571
844.87	212.500
845.17	144.444
845.47	866.667
845.76	222.222
846.06	229.412
846.36	375.000
846.66	157.143
846.96	187.500
847.25	200.000
847.55	163.636
847.85	143.478
848.15	220.000
848.44	192.857
848.74	105.556
849.04	176.471
849.34	290.000
849.63	126.316
849.93	281.818
850.23	540.000
850.53	250.000
850.82	1000.000
851.12	-2400.000
851.42	2600.000
851.71	160.000
852.01	-400.000
852.31	129.167
852.61	1100.000
852.90	161.905
853.20	172.000
853.50	188.235
853.79	171.429
854.09	108.333
854.39	250.000
854.68	91.892
854.98	122.581
855.28	113.333
855.57	127.586
855.87	162.963
856.17	142.105
856.46	133.333
856.76	135.294
857.05	131.034
857.35	104.167
857.65	180.000
857.94	156.522
858.24	150.000
858.53	195.000
858.83	150.000
859.13	200.000
859.42	0.000
859.72	366.667
860.01	200.000
860.31	118.182
860.60	189.474
860.90	82.609
861.20	288.889
861.49	291.667
861.79	-2800.000
862.08	250.000
862.38	180.952
862.67	161.538
862.97	200.000
863.26	322.222
863.56	161.111
863.85	216.667
864.15	325.000
864.44	273.333
864.74	416.667
865.03	562.500
865.33	205.263
865.62	218.182
865.92	230.769
866.21	166.667
866.51	0.000
866.80	254.545
867.10	700.000
867.39	346.154
867.69	245.455
867.98	173.684
868.27	336.364
868.57	221.053
868.86	-2900.000
869.16	200.000
869.45	1250.000
869.75	-2000.000
870.04	366.667
870.33	371.429
870.63	525.000
870.92	1200.000
871.22	500.000
871.51	200.000
871.80	123.810
872.10	235.714
>>>>>End Processed Spectral Data<<<<<
