SpectraSuite Data File
++++++++++++++++++++++++++++++++++++
Date: Wed May 13 16:23:36 PDT 2015
User: schluterlab
Dark Spectrum Present: Yes
Reference Spectrum Present: Yes
Number of Sampled Component Spectra: 1
Spectrometers: USB2E3373
Integration Time (usec): 3000 (USB2E3373)
Spectra Averaged: 3 (USB2E3373)
Boxcar Smoothing: 0 (USB2E3373)
Correct for Electrical Dark: No (USB2E3373)
Strobe/Lamp Enabled: No (USB2E3373)
Correct for Detector Non-linearity: No (USB2E3373)
Correct for Stray Light: No (USB2E3373)
Number of Pixels in Processed Spectrum: 2048
>>>>>Begin Processed Spectral Data<<<<<
178.53	0.000
178.91	-1200.000
179.29	-1075.000
179.67	-194.444
180.04	-1025.000
180.42	2850.000
180.80	980.000
181.18	-1150.000
181.56	614.286
181.94	0.000
182.31	-600.000
182.69	1400.000
183.07	-425.000
183.45	-522.222
183.83	536.364
184.20	-340.000
184.58	1800.000
184.96	5100.000
185.34	-920.000
185.72	-562.500
186.09	-2350.000
186.47	2500.000
186.85	2700.000
187.23	4300.000
187.61	-1466.667
187.98	1175.000
188.36	554.545
188.74	436.364
189.12	-780.000
189.49	490.000
189.87	-4000.000
190.25	-1050.000
190.63	328.571
191.00	376.923
191.38	916.667
191.76	-1150.000
192.14	1325.000
192.51	662.500
192.89	883.333
193.27	625.000
193.65	-1150.000
194.02	500.000
194.40	1060.000
194.78	480.000
195.15	400.000
195.53	560.000
195.91	-2400.000
196.29	381.250
196.66	284.211
197.04	-280.000
197.42	0.000
197.79	540.000
198.17	-4500.000
198.55	700.000
198.92	600.000
199.30	740.000
199.68	0.000
200.05	316.667
200.43	728.571
200.81	5000.000
201.18	1933.333
201.56	-1566.667
201.94	544.444
202.31	522.222
202.69	383.333
203.07	420.000
203.44	0.000
203.82	1175.000
204.19	742.857
204.57	400.000
204.95	537.500
205.32	1566.667
205.70	500.000
206.08	307.143
206.45	2350.000
206.83	281.250
207.20	916.667
207.58	560.000
207.96	327.778
208.33	687.500
208.71	-816.667
209.08	671.429
209.46	466.667
209.84	463.636
210.21	-1333.333
210.59	1175.000
210.96	-400.000
211.34	2800.000
211.71	410.000
212.09	766.667
212.46	0.000
212.84	1466.667
213.22	1375.000
213.59	-3500.000
213.97	816.667
214.34	642.857
214.72	572.727
215.09	1140.000
215.47	-1950.000
215.84	-2700.000
216.22	1500.000
216.59	378.571
216.97	1175.000
217.34	390.909
217.72	-650.000
218.09	0.000
218.47	-3800.000
218.84	722.222
219.22	657.143
219.59	1666.667
219.97	-642.857
220.34	740.000
220.72	-1633.333
221.09	357.143
221.47	1175.000
221.84	-1000.000
222.22	0.000
222.59	1325.000
222.97	-2800.000
223.34	1040.000
223.72	430.769
224.09	1140.000
224.46	2300.000
224.84	-4900.000
225.21	-1200.000
225.59	-4300.000
225.96	490.000
226.34	310.000
226.71	2600.000
227.08	575.000
227.46	440.000
227.83	-900.000
228.21	-2850.000
228.58	533.333
228.95	-2550.000
229.33	-2150.000
229.70	1533.333
230.08	714.286
230.45	-600.000
230.82	466.667
231.20	733.333
231.57	628.571
231.95	391.667
232.32	231.818
232.69	445.455
233.07	728.571
233.44	315.385
233.81	-1600.000
234.19	300.000
234.56	391.667
234.93	375.000
235.31	390.909
235.68	369.231
236.05	314.286
236.43	151.515
236.80	231.579
237.17	3900.000
237.55	204.762
237.92	214.286
238.29	257.143
238.67	170.968
239.04	213.793
239.41	147.222
239.79	123.913
240.16	142.857
240.53	120.455
240.91	115.686
241.28	116.000
241.65	112.000
242.02	104.348
242.40	93.548
242.77	93.333
243.14	81.720
243.51	79.775
243.89	70.588
244.26	66.667
244.63	61.290
245.00	62.766
245.38	68.317
245.75	64.486
246.12	57.798
246.49	56.934
246.87	64.000
247.24	56.923
247.61	55.000
247.98	56.863
248.36	50.000
248.73	50.318
249.10	52.866
249.47	50.847
249.84	51.872
250.22	50.267
250.59	54.438
250.96	47.980
251.33	47.393
251.70	51.980
252.08	46.667
252.45	35.426
252.82	40.870
253.19	43.830
253.56	44.314
253.94	43.983
254.31	40.625
254.68	43.462
255.05	42.435
255.42	39.024
255.79	42.647
256.16	42.960
256.54	35.689
256.91	40.569
257.28	34.173
257.65	36.304
258.02	35.093
258.39	36.593
258.76	35.452
259.14	38.095
259.51	35.562
259.88	36.646
260.25	37.160
260.62	36.994
260.99	35.714
261.36	39.940
261.73	35.530
262.10	34.593
262.47	36.620
262.85	31.198
263.22	32.764
263.59	36.752
263.96	34.341
264.33	34.204
264.70	33.684
265.07	34.271
265.44	32.828
265.81	32.360
266.18	33.920
266.55	34.146
266.92	34.398
267.29	32.639
267.66	35.092
268.03	30.909
268.40	35.047
268.77	33.413
269.14	31.306
269.51	34.312
269.88	34.266
270.25	30.700
270.62	34.831
270.99	32.688
271.36	34.549
271.73	32.944
272.10	30.217
272.47	31.613
272.84	31.818
273.21	32.914
273.58	30.568
273.95	31.447
274.32	30.372
274.69	30.407
275.06	30.906
275.43	31.489
275.80	30.862
276.17	32.587
276.54	29.938
276.91	29.249
277.28	29.492
277.65	29.981
278.02	30.228
278.39	33.398
278.76	30.000
279.13	29.434
279.50	31.099
279.87	31.275
280.23	29.541
280.60	27.660
280.97	28.651
281.34	30.619
281.71	30.727
282.08	29.750
282.45	28.000
282.82	28.597
283.19	29.412
283.56	28.772
283.92	27.580
284.29	29.101
284.66	27.586
285.03	27.667
285.40	28.169
285.77	28.451
286.14	28.670
286.51	29.000
286.87	27.692
287.24	31.107
287.61	28.250
287.98	28.409
288.35	26.466
288.72	26.168
289.08	28.638
289.45	27.512
289.82	27.967
290.19	26.060
290.56	25.881
290.93	25.076
291.29	25.767
291.66	24.189
292.03	27.326
292.40	24.963
292.77	25.000
293.13	26.119
293.50	23.178
293.87	24.000
294.24	23.407
294.60	21.980
294.97	24.855
295.34	25.811
295.71	25.000
296.08	23.219
296.44	23.521
296.81	21.268
297.18	23.035
297.55	20.712
297.91	23.483
298.28	23.293
298.65	22.585
299.02	23.979
299.38	21.514
299.75	21.159
300.12	21.073
300.48	21.250
300.85	20.469
301.22	21.019
301.59	19.066
301.95	21.662
302.32	22.593
302.69	20.669
303.05	21.818
303.42	20.370
303.79	21.404
304.15	19.814
304.52	19.699
304.89	18.351
305.25	20.418
305.62	22.197
305.99	21.488
306.35	19.799
306.72	19.955
307.09	20.311
307.45	21.059
307.82	19.531
308.19	20.309
308.55	20.280
308.92	19.441
309.29	19.958
309.65	18.346
310.02	20.507
310.38	19.892
310.75	20.486
311.12	20.266
311.48	20.899
311.85	21.593
312.22	20.187
312.58	19.647
312.95	20.591
313.31	20.194
313.68	21.518
314.05	22.189
314.41	20.704
314.78	20.544
315.14	21.053
315.51	21.524
315.87	21.584
316.24	20.755
316.61	22.320
316.97	21.233
317.34	20.157
317.70	22.371
318.07	22.137
318.43	22.603
318.80	24.461
319.16	22.316
319.53	21.670
319.89	23.238
320.26	23.500
320.62	25.000
320.99	25.455
321.35	23.737
321.72	24.743
322.08	24.975
322.45	24.975
322.81	24.903
323.18	25.048
323.54	24.675
323.91	26.038
324.27	25.526
324.64	26.188
325.00	25.518
325.37	27.025
325.73	27.289
326.10	26.567
326.46	26.523
326.83	27.783
327.19	27.754
327.56	27.265
327.92	29.046
328.29	28.128
328.65	28.913
329.01	28.159
329.38	28.400
329.74	27.793
330.11	28.746
330.47	28.466
330.84	29.504
331.20	27.687
331.56	29.633
331.93	28.981
332.29	28.838
332.66	29.912
333.02	29.982
333.38	29.630
333.75	29.768
334.11	29.537
334.48	28.571
334.84	29.412
335.20	30.000
335.57	29.556
335.93	28.750
336.29	29.304
336.66	29.035
337.02	28.235
337.38	30.093
337.75	29.412
338.11	29.902
338.47	30.387
338.84	29.698
339.20	29.450
339.56	32.117
339.93	29.636
340.29	30.707
340.65	28.966
341.02	31.065
341.38	30.783
341.74	30.263
342.11	29.607
342.47	30.132
342.83	29.538
343.20	31.342
343.56	29.486
343.92	31.404
344.28	30.017
344.65	31.126
345.01	29.630
345.37	29.931
345.73	30.118
346.10	30.179
346.46	31.186
346.82	30.395
347.19	30.576
347.55	30.131
347.91	28.964
348.27	30.403
348.63	29.766
349.00	30.259
349.36	30.131
349.72	30.714
350.08	29.741
350.45	29.943
350.81	30.463
351.17	30.794
351.53	30.794
351.89	28.960
352.26	30.466
352.62	30.874
352.98	29.335
353.34	30.238
353.70	30.115
354.07	29.839
354.43	29.683
354.79	30.008
355.15	30.886
355.51	30.775
355.87	31.347
356.24	30.375
356.60	30.473
356.96	30.410
357.32	29.845
357.68	30.394
358.04	31.116
358.40	30.879
358.77	30.595
359.13	31.334
359.49	30.275
359.85	29.603
360.21	31.579
360.57	31.128
360.93	31.308
361.29	30.688
361.66	30.263
362.02	31.493
362.38	31.483
362.74	31.473
363.10	30.866
363.46	31.034
363.82	31.595
364.18	30.543
364.54	31.278
364.90	30.878
365.26	30.515
365.62	31.848
365.98	30.314
366.35	31.877
366.71	32.176
367.07	31.464
367.43	32.946
367.79	32.620
368.15	32.399
368.51	31.105
368.87	32.191
369.23	31.822
369.59	32.513
369.95	31.544
370.31	31.909
370.67	30.652
371.03	33.184
371.39	31.487
371.75	32.500
372.11	31.721
372.47	32.845
372.83	32.781
373.19	33.237
373.55	33.038
373.91	33.579
374.27	31.409
374.63	32.582
374.99	33.263
375.35	31.472
375.71	32.557
376.07	33.333
376.42	33.356
376.78	33.400
377.14	33.446
377.50	33.510
377.86	33.311
378.22	32.743
378.58	31.955
378.94	33.250
379.30	33.397
379.66	33.756
380.02	33.784
380.38	33.090
380.74	33.613
381.09	33.130
381.45	33.743
381.81	34.029
382.17	34.713
382.53	34.843
382.89	35.123
383.25	34.271
383.61	35.130
383.97	35.960
384.32	34.311
384.68	33.519
385.04	34.604
385.40	34.799
385.76	34.828
386.12	35.298
386.48	35.935
386.83	36.305
387.19	36.178
387.55	35.622
387.91	34.522
388.27	34.887
388.62	35.587
388.98	35.811
389.34	34.668
389.70	35.377
390.06	37.072
390.42	36.122
390.77	35.878
391.13	35.737
391.49	36.929
391.85	36.283
392.20	35.521
392.56	35.164
392.92	36.433
393.28	34.615
393.64	36.331
393.99	35.431
394.35	35.484
394.71	34.818
395.07	36.075
395.42	36.588
395.78	35.941
396.14	36.747
396.50	36.090
396.85	35.283
397.21	35.697
397.57	37.136
397.92	36.959
398.28	35.090
398.64	36.440
399.00	35.758
399.35	35.082
399.71	35.706
400.07	35.955
400.42	35.828
400.78	36.068
401.14	36.402
401.49	36.299
401.85	35.088
402.21	35.150
402.57	35.472
402.92	36.381
403.28	36.165
403.63	36.262
403.99	35.478
404.35	35.758
404.70	35.612
405.06	34.479
405.42	36.120
405.77	35.029
406.13	34.819
406.49	34.418
406.84	34.849
407.20	34.811
407.55	35.801
407.91	36.267
408.27	35.992
408.62	36.002
408.98	35.539
409.34	35.363
409.69	34.903
410.05	34.511
410.40	34.924
410.76	34.528
411.11	34.560
411.47	33.930
411.83	34.453
412.18	34.014
412.54	34.247
412.89	34.217
413.25	34.534
413.60	34.713
413.96	34.548
414.31	34.751
414.67	34.347
415.03	34.503
415.38	35.503
415.74	33.762
416.09	35.598
416.45	34.806
416.80	34.369
417.16	35.322
417.51	34.240
417.87	33.590
418.22	34.385
418.58	34.926
418.93	35.197
419.29	34.564
419.64	34.761
420.00	34.268
420.35	34.783
420.71	35.087
421.06	33.652
421.42	34.444
421.77	33.800
422.12	33.633
422.48	32.434
422.83	33.955
423.19	34.033
423.54	34.301
423.90	33.623
424.25	33.724
424.61	33.214
424.96	34.111
425.31	33.056
425.67	32.640
426.02	32.571
426.38	34.676
426.73	33.411
427.09	33.860
427.44	33.928
427.79	32.547
428.15	33.393
428.50	32.943
428.85	32.896
429.21	32.965
429.56	33.333
429.92	32.914
430.27	32.920
430.62	32.104
430.98	32.278
431.33	32.371
431.68	33.246
432.04	31.416
432.39	32.439
432.74	33.872
433.10	33.333
433.45	34.169
433.80	32.594
434.16	33.600
434.51	32.105
434.86	33.694
435.22	32.796
435.57	32.827
435.92	33.002
436.28	33.096
436.63	32.781
436.98	32.513
437.34	33.274
437.69	33.081
438.04	32.715
438.39	33.493
438.75	33.469
439.10	32.626
439.45	33.412
439.81	33.112
440.16	32.468
440.51	32.572
440.86	32.600
441.22	32.425
441.57	32.696
441.92	33.112
442.27	33.423
442.63	32.491
442.98	32.732
443.33	32.065
443.68	31.182
444.03	31.820
444.39	31.597
444.74	32.089
445.09	31.321
445.44	32.149
445.79	31.024
446.15	32.398
446.50	31.879
446.85	31.603
447.20	31.311
447.55	31.882
447.91	33.039
448.26	31.163
448.61	31.600
448.96	32.060
449.31	31.834
449.66	31.683
450.02	31.198
450.37	31.859
450.72	32.036
451.07	30.835
451.42	30.942
451.77	32.413
452.12	31.005
452.47	30.286
452.83	31.294
453.18	32.274
453.53	31.231
453.88	31.187
454.23	32.277
454.58	32.041
454.93	32.359
455.28	30.798
455.63	30.825
455.98	32.738
456.34	32.286
456.69	31.559
457.04	32.198
457.39	31.560
457.74	30.760
458.09	31.512
458.44	31.186
458.79	31.128
459.14	31.208
459.49	30.823
459.84	30.249
460.19	30.289
460.54	30.150
460.89	30.389
461.24	31.633
461.59	31.668
461.94	30.025
462.29	31.632
462.64	30.823
462.99	30.579
463.34	31.133
463.69	30.644
464.04	30.493
464.39	30.261
464.74	30.422
465.09	30.097
465.44	29.529
465.79	30.034
466.14	29.940
466.49	29.143
466.84	31.290
467.19	29.149
467.54	29.937
467.89	30.132
468.24	29.378
468.59	31.074
468.94	30.299
469.29	28.856
469.64	29.987
469.99	30.650
470.34	30.383
470.68	30.316
471.03	29.864
471.38	29.951
471.73	29.714
472.08	31.316
472.43	29.020
472.78	30.086
473.13	29.974
473.48	30.275
473.83	30.488
474.17	28.625
474.52	29.839
474.87	30.706
475.22	28.729
475.57	28.318
475.92	29.368
476.27	28.918
476.61	28.627
476.96	28.807
477.31	28.048
477.66	29.267
478.01	27.914
478.36	29.138
478.70	28.193
479.05	29.073
479.40	28.710
479.75	29.334
480.10	28.280
480.45	27.987
480.79	27.998
481.14	28.669
481.49	29.093
481.84	27.938
482.19	27.942
482.53	26.972
482.88	28.153
483.23	28.224
483.58	27.798
483.92	27.882
484.27	26.536
484.62	27.414
484.97	27.749
485.31	28.596
485.66	27.630
486.01	25.976
486.36	24.718
486.70	23.902
487.05	24.741
487.40	25.128
487.75	25.329
488.09	26.266
488.44	25.917
488.79	26.799
489.13	26.814
489.48	26.917
489.83	27.363
490.17	26.874
490.52	27.458
490.87	27.001
491.22	26.558
491.56	26.651
491.91	26.477
492.26	26.091
492.60	26.452
492.95	25.912
493.30	27.056
493.64	26.505
493.99	25.720
494.34	26.179
494.68	26.740
495.03	26.410
495.37	26.570
495.72	27.193
496.07	27.471
496.41	25.929
496.76	25.989
497.11	25.484
497.45	25.431
497.80	26.200
498.14	25.990
498.49	25.951
498.84	26.606
499.18	25.476
499.53	26.448
499.87	25.955
500.22	26.142
500.56	27.427
500.91	25.481
501.26	26.505
501.60	26.720
501.95	26.214
502.29	26.617
502.64	26.304
502.98	25.947
503.33	25.183
503.67	25.893
504.02	26.006
504.36	26.345
504.71	26.527
505.06	26.699
505.40	25.280
505.75	25.265
506.09	26.239
506.44	25.851
506.78	25.913
507.13	26.451
507.47	26.263
507.82	26.140
508.16	25.684
508.51	26.230
508.85	25.819
509.19	25.969
509.54	25.510
509.88	25.708
510.23	26.272
510.57	26.006
510.92	25.634
511.26	25.540
511.61	26.037
511.95	25.157
512.30	25.239
512.64	25.578
512.98	26.688
513.33	26.124
513.67	25.187
514.02	25.379
514.36	25.778
514.70	26.065
515.05	25.823
515.39	25.911
515.74	26.295
516.08	25.936
516.42	25.971
516.77	26.421
517.11	25.527
517.46	26.185
517.80	26.016
518.14	25.651
518.49	26.838
518.83	25.852
519.17	25.693
519.52	25.297
519.86	25.442
520.20	25.780
520.55	26.870
520.89	27.555
521.23	26.779
521.58	26.170
521.92	26.271
522.26	24.588
522.61	25.981
522.95	25.353
523.29	25.928
523.64	25.244
523.98	26.494
524.32	25.875
524.66	25.797
525.01	25.858
525.35	24.907
525.69	25.677
526.04	24.735
526.38	25.869
526.72	25.276
527.06	25.926
527.41	24.381
527.75	26.495
528.09	25.562
528.43	25.876
528.78	26.245
529.12	25.394
529.46	25.475
529.80	26.238
530.15	25.857
530.49	24.923
530.83	25.823
531.17	25.261
531.51	26.783
531.86	25.742
532.20	26.532
532.54	26.201
532.88	24.968
533.22	24.922
533.57	25.617
533.91	25.406
534.25	25.334
534.59	25.137
534.93	25.164
535.27	25.226
535.62	25.397
535.96	25.675
536.30	24.539
536.64	24.791
536.98	25.680
537.32	24.885
537.66	25.733
538.01	24.621
538.35	25.081
538.69	25.782
539.03	24.366
539.37	24.473
539.71	23.720
540.05	25.621
540.39	24.585
540.73	25.420
541.07	25.698
541.42	25.049
541.76	25.548
542.10	25.809
542.44	24.305
542.78	25.033
543.12	23.672
543.46	25.115
543.80	25.439
544.14	24.198
544.48	25.460
544.82	24.246
545.16	24.463
545.50	24.357
545.84	25.202
546.18	24.848
546.52	24.639
546.86	24.536
547.20	25.017
547.54	24.783
547.88	25.510
548.22	24.035
548.56	25.597
548.90	24.072
549.24	24.242
549.58	25.171
549.92	24.931
550.26	25.639
550.60	23.928
550.94	23.803
551.28	25.018
551.62	24.874
551.96	25.544
552.30	25.597
552.64	25.693
552.98	25.220
553.32	24.208
553.66	25.835
554.00	24.091
554.34	24.638
554.68	23.820
555.02	24.612
555.36	24.217
555.69	24.493
556.03	24.428
556.37	24.352
556.71	22.988
557.05	23.739
557.39	24.353
557.73	24.135
558.07	24.438
558.41	25.253
558.75	24.688
559.08	24.459
559.42	25.548
559.76	24.412
560.10	24.340
560.44	23.270
560.78	23.686
561.12	24.142
561.45	24.120
561.79	23.929
562.13	23.742
562.47	24.180
562.81	24.059
563.15	24.348
563.48	24.138
563.82	24.397
564.16	23.872
564.50	23.177
564.84	23.767
565.17	23.810
565.51	23.898
565.85	23.350
566.19	22.354
566.52	24.889
566.86	22.725
567.20	23.526
567.54	22.888
567.88	22.977
568.21	22.646
568.55	22.851
568.89	22.860
569.23	22.906
569.56	22.632
569.90	22.264
570.24	22.210
570.57	21.353
570.91	21.396
571.25	21.464
571.59	21.384
571.92	21.400
572.26	21.231
572.60	21.261
572.93	20.810
573.27	21.295
573.61	21.636
573.95	21.550
574.28	21.231
574.62	21.501
574.96	21.051
575.29	20.344
575.63	20.198
575.97	20.828
576.30	21.083
576.64	20.799
576.98	20.661
577.31	20.957
577.65	20.521
577.98	20.647
578.32	20.195
578.66	20.294
578.99	20.475
579.33	20.576
579.67	20.798
580.00	20.810
580.34	20.812
580.67	20.941
581.01	20.980
581.35	20.945
581.68	20.755
582.02	20.395
582.35	20.181
582.69	20.352
583.02	20.109
583.36	21.005
583.70	20.729
584.03	20.664
584.37	20.843
584.70	20.768
585.04	21.013
585.37	20.527
585.71	20.888
586.04	20.464
586.38	20.846
586.72	20.961
587.05	20.837
587.39	20.739
587.72	21.026
588.06	20.304
588.39	20.878
588.73	20.798
589.06	21.814
589.40	21.313
589.73	21.401
590.07	20.854
590.40	20.460
590.73	21.390
591.07	21.815
591.40	21.932
591.74	21.429
592.07	21.248
592.41	21.910
592.74	21.161
593.08	21.019
593.41	21.038
593.75	20.362
594.08	20.617
594.41	20.396
594.75	21.257
595.08	20.902
595.42	21.401
595.75	21.083
596.09	20.879
596.42	21.572
596.75	21.570
597.09	22.294
597.42	21.037
597.75	21.518
598.09	21.087
598.42	21.564
598.76	21.524
599.09	21.323
599.42	20.924
599.76	20.827
600.09	20.546
600.42	20.891
600.76	20.714
601.09	20.984
601.42	21.119
601.76	20.531
602.09	21.028
602.42	21.975
602.76	21.403
603.09	20.692
603.42	21.164
603.76	21.341
604.09	20.512
604.42	21.035
604.76	21.636
605.09	21.101
605.42	21.077
605.75	21.440
606.09	20.659
606.42	20.883
606.75	21.153
607.09	21.013
607.42	20.582
607.75	20.253
608.08	19.931
608.42	21.336
608.75	20.875
609.08	20.999
609.41	21.323
609.75	20.677
610.08	21.866
610.41	20.345
610.74	21.097
611.07	21.542
611.41	22.179
611.74	21.921
612.07	22.153
612.40	21.668
612.73	21.895
613.07	22.198
613.40	21.327
613.73	21.185
614.06	21.075
614.39	21.133
614.72	21.895
615.06	22.164
615.39	20.966
615.72	21.166
616.05	20.415
616.38	20.845
616.71	21.318
617.05	22.438
617.38	21.287
617.71	21.321
618.04	21.995
618.37	21.999
618.70	22.029
619.03	22.105
619.36	21.656
619.69	21.268
620.03	23.214
620.36	21.925
620.69	22.260
621.02	22.050
621.35	22.318
621.68	21.807
622.01	22.833
622.34	22.844
622.67	22.433
623.00	22.010
623.33	22.087
623.66	23.016
623.99	22.754
624.32	22.183
624.65	22.528
624.99	21.742
625.32	21.651
625.65	23.216
625.98	22.829
626.31	22.551
626.64	23.510
626.97	23.441
627.30	22.527
627.63	23.298
627.96	23.213
628.29	22.747
628.62	23.971
628.95	24.151
629.28	24.270
629.61	24.015
629.94	23.619
630.26	24.214
630.59	23.737
630.92	24.425
631.25	22.705
631.58	23.223
631.91	23.022
632.24	23.734
632.57	22.455
632.90	23.136
633.23	24.497
633.56	25.085
633.89	24.349
634.22	24.291
634.55	24.970
634.88	24.192
635.20	24.612
635.53	23.614
635.86	24.752
636.19	23.882
636.52	25.836
636.85	25.659
637.18	23.157
637.51	24.941
637.83	23.798
638.16	24.680
638.49	25.567
638.82	24.399
639.15	26.250
639.48	23.940
639.81	24.263
640.13	25.130
640.46	25.369
640.79	25.495
641.12	23.246
641.45	24.302
641.77	26.215
642.10	26.170
642.43	23.724
642.76	23.994
643.09	26.840
643.41	23.672
643.74	26.698
644.07	28.049
644.40	25.153
644.73	27.244
645.05	26.624
645.38	28.120
645.71	25.765
646.04	25.415
646.36	28.381
646.69	25.753
647.02	26.531
647.35	26.976
647.67	25.487
648.00	27.154
648.33	24.917
648.66	25.606
648.98	26.087
649.31	24.215
649.64	24.066
649.96	23.696
650.29	25.118
650.62	25.566
650.94	27.066
651.27	27.027
651.60	27.121
651.92	23.962
652.25	24.919
652.58	24.766
652.90	26.066
653.23	24.653
653.56	24.567
653.88	26.149
654.21	24.487
654.54	27.228
654.86	25.857
655.19	23.784
655.52	18.709
655.84	16.970
656.17	22.060
656.49	28.918
656.82	28.756
657.15	20.658
657.47	15.317
657.80	11.901
658.13	12.028
658.45	17.876
658.78	18.076
659.10	18.790
659.43	20.150
659.75	21.483
660.08	23.861
660.41	26.350
660.73	26.684
661.06	26.911
661.38	28.364
661.71	26.731
662.03	28.402
662.36	26.839
662.68	27.912
663.01	27.475
663.33	26.539
663.66	26.681
663.98	29.374
664.31	26.261
664.63	25.506
664.96	25.553
665.28	27.254
665.61	26.511
665.93	25.755
666.26	26.775
666.58	29.707
666.91	26.850
667.23	31.011
667.56	28.078
667.88	28.632
668.21	28.145
668.53	26.898
668.86	28.788
669.18	27.505
669.50	27.174
669.83	28.976
670.15	30.444
670.48	28.976
670.80	28.664
671.13	27.813
671.45	28.723
671.77	29.124
672.10	24.214
672.42	26.855
672.75	25.871
673.07	25.352
673.39	26.040
673.72	23.633
674.04	25.490
674.37	25.437
674.69	24.131
675.01	25.523
675.34	27.926
675.66	28.842
675.98	27.088
676.31	26.261
676.63	29.936
676.95	27.463
677.28	27.570
677.60	27.253
677.92	30.380
678.25	28.747
678.57	28.088
678.89	27.655
679.22	27.112
679.54	24.809
679.86	25.688
680.18	26.297
680.51	27.128
680.83	25.623
681.15	26.415
681.48	27.977
681.80	26.886
682.12	27.395
682.44	24.565
682.77	27.495
683.09	29.828
683.41	29.712
683.73	27.594
684.06	25.620
684.38	25.440
684.70	27.907
685.02	28.143
685.34	27.289
685.67	26.399
685.99	23.883
686.31	25.427
686.63	24.558
686.96	25.000
687.28	24.910
687.60	25.725
687.92	27.788
688.24	25.475
688.56	28.112
688.89	27.801
689.21	28.821
689.53	27.766
689.85	28.160
690.17	28.364
690.49	29.724
690.82	26.402
691.14	28.125
691.46	26.793
691.78	25.703
692.10	29.132
692.42	28.343
692.74	25.311
693.06	27.021
693.39	27.926
693.71	27.293
694.03	26.737
694.35	26.190
694.67	24.714
694.99	32.683
695.31	25.490
695.63	30.861
695.95	27.873
696.27	25.635
696.59	31.088
696.91	29.534
697.23	25.822
697.56	29.851
697.88	25.358
698.20	26.458
698.52	26.882
698.84	27.394
699.16	27.880
699.48	27.078
699.80	29.952
700.12	31.948
700.44	28.912
700.76	28.729
701.08	31.034
701.40	30.447
701.72	30.904
702.04	33.807
702.36	27.195
702.68	29.178
703.00	26.870
703.32	26.064
703.64	30.831
703.96	29.248
704.28	27.616
704.60	31.085
704.91	33.234
705.23	29.619
705.55	31.894
705.87	33.887
706.19	32.862
706.51	33.333
706.83	30.606
707.15	29.412
707.47	29.545
707.79	25.307
708.11	26.941
708.43	29.524
708.74	26.531
709.06	30.390
709.38	28.871
709.70	29.070
710.02	31.751
710.34	31.212
710.66	32.836
710.98	29.261
711.29	29.942
711.61	30.973
711.93	29.808
712.25	34.727
712.57	32.353
712.89	32.180
713.20	32.523
713.52	32.237
713.84	32.911
714.16	31.098
714.48	32.759
714.80	34.650
715.11	29.107
715.43	29.080
715.75	30.145
716.07	29.712
716.39	30.408
716.70	30.565
717.02	33.453
717.34	34.629
717.66	30.597
717.97	35.857
718.29	30.000
718.61	32.117
718.93	35.662
719.24	31.142
719.56	34.237
719.88	31.186
720.20	34.122
720.51	34.146
720.83	33.829
721.15	32.463
721.46	34.752
721.78	37.634
722.10	33.585
722.42	35.714
722.73	35.581
723.05	37.295
723.37	32.389
723.68	33.205
724.00	36.585
724.32	36.694
724.63	34.146
724.95	34.310
725.27	37.652
725.58	39.453
725.90	37.226
726.22	32.453
726.53	34.028
726.85	31.741
727.16	32.384
727.48	34.043
727.80	35.606
728.11	31.884
728.43	34.615
728.74	32.258
729.06	39.051
729.38	34.926
729.69	30.605
730.01	29.693
730.32	33.681
730.64	30.435
730.96	28.713
731.27	33.444
731.59	29.664
731.90	29.738
732.22	30.745
732.53	28.173
732.85	32.372
733.16	28.617
733.48	31.561
733.80	33.442
734.11	32.166
734.43	27.515
734.74	29.429
735.06	28.940
735.37	31.503
735.69	28.025
736.00	33.660
736.32	32.710
736.63	32.907
736.95	32.268
737.26	27.211
737.58	30.323
737.89	33.445
738.21	32.765
738.52	30.714
738.83	37.358
739.15	34.231
739.46	32.847
739.78	30.903
740.09	33.231
740.41	33.871
740.72	31.010
741.04	31.852
741.35	37.083
741.66	38.222
741.98	33.491
742.29	37.799
742.61	39.224
742.92	33.484
743.23	35.897
743.55	37.600
743.86	33.333
744.18	38.496
744.49	45.455
744.80	39.906
745.12	41.818
745.43	40.529
745.74	38.739
746.06	35.780
746.37	36.771
746.68	37.557
747.00	40.278
747.31	39.048
747.62	34.513
747.94	36.123
748.25	35.745
748.56	37.885
748.88	37.624
749.19	39.500
749.50	36.279
749.82	35.772
750.13	34.286
750.44	31.022
750.75	31.579
751.07	34.405
751.38	33.798
751.69	36.101
752.01	30.827
752.32	31.769
752.63	34.397
752.94	31.148
753.26	38.000
753.57	27.236
753.88	34.766
754.19	32.500
754.51	33.333
754.82	26.715
755.13	36.981
755.44	33.083
755.75	32.847
756.07	34.397
756.38	30.292
756.69	34.564
757.00	31.138
757.31	29.970
757.63	32.456
757.94	27.882
758.25	28.431
758.56	28.148
758.87	28.495
759.18	28.182
759.50	28.527
759.81	29.907
760.12	28.125
760.43	27.507
760.74	30.435
761.05	31.073
761.36	28.342
761.67	32.386
761.99	30.745
762.30	32.986
762.61	36.641
762.92	34.375
763.23	35.714
763.54	39.200
763.85	30.078
764.16	36.538
764.47	37.262
764.78	31.802
765.10	29.747
765.41	33.038
765.72	31.437
766.03	34.483
766.34	30.333
766.65	35.745
766.96	38.034
767.27	36.041
767.58	42.708
767.89	43.684
768.20	43.678
768.51	37.056
768.82	37.156
769.13	36.992
769.44	35.628
769.75	37.768
770.06	33.486
770.37	38.914
770.68	39.352
770.99	33.778
771.30	31.967
771.61	38.117
771.92	34.836
772.23	42.017
772.54	42.051
772.85	41.885
773.16	46.277
773.47	42.391
773.78	49.239
774.09	42.857
774.39	42.105
774.70	46.296
775.01	44.928
775.32	47.712
775.63	51.974
775.94	48.201
776.25	51.969
776.56	54.478
776.87	54.918
777.18	57.031
777.48	58.779
777.79	48.485
778.10	54.815
778.41	53.571
778.72	54.745
779.03	47.651
779.34	53.020
779.65	47.973
779.95	47.853
780.26	50.327
780.57	51.034
780.88	57.813
781.19	43.609
781.50	47.973
781.80	42.767
782.11	40.113
782.42	46.835
782.73	46.012
783.04	45.946
783.34	47.183
783.65	56.164
783.96	48.507
784.27	42.657
784.57	40.288
784.88	53.704
785.19	55.556
785.50	66.981
785.81	52.985
786.11	56.557
786.42	54.264
786.73	48.673
787.04	57.547
787.34	57.143
787.65	62.000
787.96	65.766
788.26	53.719
788.57	62.712
788.88	61.157
789.19	56.250
789.49	60.606
789.80	45.038
790.11	69.524
790.41	67.327
790.72	66.265
791.03	65.217
791.33	68.605
791.64	65.979
791.95	69.307
792.25	80.000
792.56	74.026
792.87	83.333
793.17	93.671
793.48	79.310
793.79	73.563
794.09	71.591
794.40	57.983
794.70	58.088
795.01	51.852
795.32	53.237
795.62	61.417
795.93	50.862
796.23	58.407
796.54	61.176
796.85	71.622
797.15	83.099
797.46	75.758
797.76	81.928
798.07	62.025
798.37	70.769
798.68	74.242
798.99	67.606
799.29	88.312
799.60	70.455
799.90	83.562
800.21	107.463
800.51	68.966
800.82	105.263
801.12	93.443
801.43	101.515
801.73	74.324
802.04	82.540
802.34	77.778
802.65	81.250
802.95	94.915
803.26	92.188
803.56	71.429
803.87	86.154
804.17	85.294
804.48	94.444
804.78	94.828
805.09	83.824
805.39	100.000
805.70	108.929
806.00	104.918
806.30	86.364
806.61	81.707
806.91	67.089
807.22	77.632
807.52	65.672
807.83	77.465
808.13	75.000
808.43	76.667
808.74	68.421
809.04	91.304
809.35	86.567
809.65	86.842
809.95	108.065
810.26	94.915
810.56	88.889
810.86	122.727
811.17	104.762
811.47	115.000
811.77	101.852
812.08	90.909
812.38	104.000
812.69	150.000
812.99	136.364
813.29	132.653
813.59	100.000
813.90	120.408
814.20	94.545
814.50	86.154
814.81	105.882
815.11	122.449
815.41	96.721
815.72	133.333
816.02	101.818
816.32	100.000
816.62	115.000
816.93	100.000
817.23	133.333
817.53	118.182
817.84	154.545
818.14	123.913
818.44	108.889
818.74	147.059
819.04	130.000
819.35	154.286
819.65	161.765
819.95	150.000
820.25	215.000
820.56	161.538
820.86	138.636
821.16	137.209
821.46	125.641
821.76	134.000
822.07	151.429
822.37	157.500
822.67	172.727
822.97	105.882
823.27	160.714
823.57	135.135
823.88	157.500
824.18	183.333
824.48	147.619
824.78	168.000
825.08	220.833
825.38	164.865
825.69	119.512
825.99	216.667
826.29	158.621
826.59	168.421
826.89	131.579
827.19	152.941
827.49	190.323
827.79	143.182
828.09	120.455
828.39	123.404
828.70	118.367
829.00	203.704
829.30	158.065
829.60	135.000
829.90	293.333
830.20	207.143
830.50	213.043
830.80	243.478
831.10	196.667
831.40	173.333
831.70	191.304
832.00	196.154
832.30	181.481
832.60	300.000
832.90	210.000
833.20	371.429
833.50	167.742
833.80	200.000
834.10	178.125
834.40	203.846
834.70	238.889
835.00	257.143
835.30	162.857
835.60	307.692
835.90	189.655
836.20	321.429
836.50	203.448
836.80	180.000
837.10	183.333
837.40	228.571
837.70	288.235
838.00	148.148
838.30	209.524
838.60	276.190
838.90	215.385
839.19	255.000
839.49	321.429
839.79	310.000
840.09	285.000
840.39	280.952
840.69	243.478
840.99	288.889
841.29	380.000
841.59	316.667
841.88	337.500
842.18	165.517
842.48	252.381
842.78	190.000
843.08	208.696
843.38	178.125
843.68	916.667
843.97	215.385
844.27	203.448
844.57	247.619
844.87	325.000
845.17	185.185
845.47	1633.333
845.76	500.000
846.06	305.882
846.36	500.000
846.66	307.143
846.96	312.500
847.25	363.636
847.55	281.818
847.85	247.826
848.15	510.000
848.44	278.571
848.74	183.333
849.04	282.353
849.34	530.000
849.63	189.474
849.93	272.727
850.23	780.000
850.53	450.000
850.82	2550.000
851.12	-3000.000
851.42	4400.000
851.71	225.000
852.01	-1133.333
852.31	245.833
852.61	1500.000
852.90	276.190
853.20	176.000
853.50	305.882
853.79	242.857
854.09	229.167
854.39	312.500
854.68	135.135
854.98	154.839
855.28	156.667
855.57	237.931
855.87	203.704
856.17	200.000
856.46	220.000
856.76	288.235
857.05	151.724
857.35	187.500
857.65	286.667
857.94	204.348
858.24	234.615
858.53	290.000
858.83	240.909
859.13	326.667
859.42	0.000
859.72	444.444
860.01	463.636
860.31	209.091
860.60	278.947
860.90	247.826
861.20	455.556
861.49	391.667
861.79	-3900.000
862.08	650.000
862.38	290.476
862.67	300.000
862.97	394.118
863.26	555.556
863.56	300.000
863.85	400.000
864.15	525.000
864.44	366.667
864.74	766.667
865.03	675.000
865.33	252.632
865.62	418.182
865.92	400.000
866.21	350.000
866.51	0.000
866.80	390.909
867.10	1100.000
867.39	407.692
867.69	454.545
867.98	247.368
868.27	427.273
868.57	273.684
868.86	-3200.000
869.16	312.500
869.45	1950.000
869.75	-4000.000
870.04	408.333
870.33	657.143
870.63	1000.000
870.92	2850.000
871.22	757.143
871.51	300.000
871.80	247.619
872.10	300.000
>>>>>End Processed Spectral Data<<<<<
