SpectraSuite Data File
++++++++++++++++++++++++++++++++++++
Date: Wed May 13 16:40:15 PDT 2015
User: schluterlab
Dark Spectrum Present: Yes
Reference Spectrum Present: Yes
Number of Sampled Component Spectra: 1
Spectrometers: USB2E3373
Integration Time (usec): 3000 (USB2E3373)
Spectra Averaged: 3 (USB2E3373)
Boxcar Smoothing: 0 (USB2E3373)
Correct for Electrical Dark: No (USB2E3373)
Strobe/Lamp Enabled: No (USB2E3373)
Correct for Detector Non-linearity: No (USB2E3373)
Correct for Stray Light: No (USB2E3373)
Number of Pixels in Processed Spectrum: 2048
>>>>>Begin Processed Spectral Data<<<<<
178.53	0.000
178.91	-1300.000
179.29	-1275.000
179.67	-294.444
180.04	-1300.000
180.42	2800.000
180.80	1220.000
181.18	-1200.000
181.56	685.714
181.94	0.000
182.31	-500.000
182.69	2133.333
183.07	-537.500
183.45	-455.556
183.83	472.727
184.20	-440.000
184.58	2050.000
184.96	6600.000
185.34	-640.000
185.72	-600.000
186.09	-1800.000
186.47	2700.000
186.85	2350.000
187.23	4600.000
187.61	-1566.667
187.98	1525.000
188.36	572.727
188.74	463.636
189.12	-960.000
189.49	540.000
189.87	-4900.000
190.25	-1275.000
190.63	464.286
191.00	492.308
191.38	866.667
191.76	-1375.000
192.14	1475.000
192.51	712.500
192.89	900.000
193.27	700.000
193.65	-1350.000
194.02	510.000
194.40	1100.000
194.78	580.000
195.15	491.667
195.53	640.000
195.91	-2350.000
196.29	350.000
196.66	347.368
197.04	-330.000
197.42	0.000
197.79	590.000
198.17	-4900.000
198.55	700.000
198.92	637.500
199.30	920.000
199.68	0.000
200.05	316.667
200.43	914.286
200.81	4800.000
201.18	1633.333
201.56	-1566.667
201.94	533.333
202.31	533.333
202.69	483.333
203.07	660.000
203.44	0.000
203.82	1025.000
204.19	785.714
204.57	478.571
204.95	675.000
205.32	1833.333
205.70	463.636
206.08	357.143
206.45	2950.000
206.83	350.000
207.20	916.667
207.58	780.000
207.96	322.222
208.33	600.000
208.71	-850.000
209.08	728.571
209.46	566.667
209.84	472.727
210.21	-1466.667
210.59	1500.000
210.96	-550.000
211.34	2450.000
211.71	520.000
212.09	783.333
212.46	0.000
212.84	1800.000
213.22	1450.000
213.59	-4700.000
213.97	900.000
214.34	928.571
214.72	554.545
215.09	1100.000
215.47	-2100.000
215.84	-2500.000
216.22	1800.000
216.59	342.857
216.97	1350.000
217.34	527.273
217.72	-850.000
218.09	0.000
218.47	-5600.000
218.84	655.556
219.22	785.714
219.59	1533.333
219.97	-685.714
220.34	1020.000
220.72	-1600.000
221.09	400.000
221.47	1275.000
221.84	-916.667
222.22	0.000
222.59	1325.000
222.97	-2450.000
223.34	1160.000
223.72	400.000
224.09	1120.000
224.46	2700.000
224.84	-5000.000
225.21	-1080.000
225.59	-3400.000
225.96	650.000
226.34	300.000
226.71	3500.000
227.08	725.000
227.46	570.000
227.83	-1075.000
228.21	-2500.000
228.58	644.444
228.95	-2850.000
229.33	-2350.000
229.70	1633.333
230.08	771.429
230.45	-940.000
230.82	491.667
231.20	883.333
231.57	742.857
231.95	416.667
232.32	245.455
232.69	436.364
233.07	600.000
233.44	392.308
233.81	-1866.667
234.19	305.263
234.56	458.333
234.93	425.000
235.31	427.273
235.68	315.385
236.05	414.286
236.43	166.667
236.80	310.526
237.17	4500.000
237.55	247.619
237.92	250.000
238.29	280.952
238.67	206.452
239.04	220.690
239.41	183.333
239.79	136.957
240.16	145.238
240.53	159.091
240.91	115.686
241.28	118.000
241.65	114.000
242.02	95.652
242.40	103.226
242.77	106.667
243.14	79.570
243.51	89.888
243.89	83.529
244.26	70.000
244.63	78.495
245.00	62.766
245.38	68.317
245.75	66.355
246.12	61.468
246.49	65.693
246.87	77.600
247.24	66.154
247.61	55.714
247.98	59.477
248.36	56.081
248.73	52.229
249.10	63.057
249.47	51.412
249.84	50.267
250.22	48.663
250.59	49.704
250.96	49.495
251.33	51.659
251.70	53.465
252.08	42.381
252.45	46.637
252.82	46.522
253.19	48.936
253.56	40.000
253.94	42.324
254.31	41.016
254.68	40.385
255.05	47.232
255.42	42.683
255.79	41.544
256.16	42.960
256.54	38.516
256.91	40.569
257.28	38.489
257.65	38.944
258.02	38.820
258.39	37.539
258.76	38.127
259.14	37.202
259.51	36.474
259.88	38.509
260.25	38.671
260.62	36.127
260.99	41.925
261.36	36.336
261.73	39.255
262.10	32.558
262.47	34.648
262.85	38.997
263.22	31.339
263.59	39.316
263.96	34.890
264.33	34.987
264.70	36.316
265.07	37.596
265.44	36.111
265.81	31.630
266.18	34.673
266.55	33.171
266.92	35.381
267.29	31.713
267.66	34.404
268.03	32.727
268.40	30.841
268.77	30.310
269.14	32.883
269.51	33.860
269.88	34.266
270.25	34.537
270.62	32.360
270.99	32.903
271.36	34.335
271.73	33.645
272.10	31.739
272.47	31.183
272.84	30.519
273.21	31.656
273.58	32.751
273.95	29.979
274.32	29.959
274.69	32.334
275.06	31.299
275.43	29.574
275.80	29.860
276.17	30.957
276.54	31.601
276.91	30.040
277.28	32.031
277.65	30.754
278.02	31.884
278.39	30.078
278.76	30.364
279.13	30.755
279.50	29.050
279.87	31.474
280.23	30.938
280.60	28.627
280.97	27.726
281.34	32.566
281.71	31.091
282.08	30.902
282.45	27.636
282.82	29.485
283.19	27.986
283.56	29.825
283.92	27.073
284.29	29.453
284.66	28.131
285.03	25.497
285.40	26.937
285.77	29.125
286.14	27.634
286.51	27.333
286.87	27.009
287.24	27.199
287.61	27.448
287.98	28.409
288.35	27.258
288.72	26.947
289.08	26.291
289.45	25.700
289.82	26.016
290.19	25.903
290.56	27.106
290.93	23.414
291.29	24.387
291.66	24.631
292.03	26.599
292.40	27.019
292.77	25.296
293.13	23.731
293.50	23.324
293.87	24.296
294.24	25.037
294.60	22.562
294.97	22.529
295.34	24.260
295.71	23.722
296.08	21.795
296.44	25.997
296.81	21.797
297.18	22.629
297.55	20.185
297.91	21.372
298.28	22.892
298.65	22.454
299.02	23.057
299.38	20.983
299.75	20.350
300.12	21.328
300.48	20.875
300.85	20.592
301.22	21.019
301.59	20.707
301.95	21.411
302.32	21.694
302.69	20.550
303.05	20.485
303.42	21.111
303.79	19.479
304.15	17.599
304.52	19.699
304.89	20.325
305.25	18.561
305.62	21.291
305.99	21.370
306.35	20.694
306.72	20.067
307.09	20.089
307.45	18.919
307.82	18.080
308.19	19.536
308.55	19.957
308.92	18.797
309.29	18.268
309.65	18.770
310.02	19.133
310.38	19.032
310.75	19.007
311.12	18.219
311.48	19.018
311.85	18.553
312.22	20.187
312.58	17.879
312.95	19.007
313.31	18.155
313.68	18.919
314.05	20.118
314.41	19.698
314.78	19.537
315.14	18.073
315.51	17.096
315.87	19.604
316.24	18.570
316.61	17.934
316.97	18.591
317.34	17.319
317.70	19.694
318.07	18.961
318.43	18.102
318.80	19.306
319.16	20.245
319.53	18.386
319.89	18.571
320.26	19.700
320.62	18.353
320.99	19.091
321.35	18.889
321.72	20.534
322.08	18.756
322.45	20.100
322.81	19.864
323.18	19.653
323.54	19.017
323.91	20.000
324.27	18.738
324.64	19.571
325.00	18.936
325.37	19.472
325.73	19.031
326.10	18.711
326.46	17.473
326.83	19.327
327.19	19.898
327.56	18.206
327.92	19.248
328.29	19.698
328.65	19.337
329.01	18.051
329.38	20.074
329.74	18.744
330.11	19.133
330.47	19.284
330.84	19.485
331.20	18.761
331.56	18.624
331.93	18.519
332.29	19.166
332.66	19.292
333.02	19.196
333.38	19.603
333.75	18.717
334.11	19.573
334.48	18.190
334.84	19.301
335.20	18.636
335.57	19.039
335.93	17.679
336.29	17.674
336.66	19.116
337.02	17.014
337.38	18.056
337.75	17.201
338.11	18.174
338.47	18.324
338.84	18.515
339.20	17.890
339.56	19.161
339.93	17.364
340.29	17.844
340.65	19.073
341.02	18.237
341.38	18.683
341.74	17.281
342.11	17.467
342.47	16.564
342.83	18.493
343.20	17.576
343.56	17.692
343.92	17.632
344.28	17.942
344.65	17.799
345.01	17.172
345.37	16.895
345.73	17.428
346.10	17.647
346.46	18.136
346.82	17.463
347.19	16.541
347.55	15.681
347.91	17.880
348.27	18.570
348.63	17.559
349.00	17.476
349.36	17.077
349.72	17.161
350.08	17.180
350.45	17.331
350.81	17.222
351.17	16.613
351.53	17.035
351.89	17.244
352.26	17.206
352.62	17.001
352.98	17.261
353.34	17.009
353.70	16.203
354.07	17.097
354.43	16.667
354.79	17.056
355.15	15.802
355.51	17.266
355.87	16.082
356.24	17.345
356.60	16.359
356.96	16.734
357.32	16.108
357.68	17.480
358.04	16.785
358.40	16.627
358.77	16.901
359.13	15.943
359.49	15.529
359.85	15.794
360.21	16.108
360.57	17.899
360.93	16.538
361.29	16.327
361.66	15.867
362.02	15.597
362.38	16.730
362.74	15.030
363.10	15.840
363.46	15.774
363.82	16.175
364.18	16.593
364.54	15.973
364.90	15.793
365.26	15.515
365.62	16.654
365.98	15.121
366.35	15.831
366.71	16.124
367.07	15.295
367.43	15.820
367.79	16.345
368.15	16.667
368.51	14.390
368.87	15.774
369.23	16.020
369.59	15.351
369.95	14.338
370.31	15.812
370.67	15.870
371.03	16.255
371.39	15.962
371.75	16.176
372.11	15.861
372.47	16.202
372.83	17.147
373.19	16.257
373.55	15.225
373.91	17.010
374.27	15.670
374.63	16.073
374.99	16.314
375.35	15.562
375.71	15.764
376.07	15.569
376.42	15.406
376.78	16.037
377.14	15.129
377.50	15.695
377.86	15.359
378.22	14.855
378.58	15.414
378.94	15.211
379.30	15.458
379.66	15.799
380.02	15.971
380.38	15.483
380.74	16.267
381.09	14.976
381.45	15.796
381.81	16.646
382.17	15.732
382.53	14.906
382.89	15.370
383.25	15.947
383.61	15.304
383.97	15.072
384.32	15.409
384.68	15.428
385.04	15.489
385.40	15.108
385.76	15.418
386.12	15.155
386.48	15.356
386.83	15.394
387.19	16.450
387.55	16.265
387.91	15.054
388.27	15.328
388.62	15.796
388.98	15.479
389.34	15.770
389.70	15.757
390.06	16.730
390.42	16.083
390.77	15.712
391.13	15.188
391.49	16.117
391.85	15.022
392.20	14.826
392.56	16.035
392.92	15.303
393.28	14.142
393.64	15.647
393.99	15.638
394.35	15.199
394.71	14.492
395.07	16.199
395.42	15.760
395.78	16.858
396.14	16.201
396.50	16.479
396.85	15.639
397.21	14.735
397.57	15.003
397.92	14.663
398.28	14.350
398.64	16.069
399.00	14.773
399.35	14.439
399.71	15.509
400.07	15.849
400.42	14.601
400.78	15.501
401.14	15.244
401.49	15.582
401.85	14.822
402.21	15.030
402.57	15.361
402.92	15.132
403.28	16.115
403.63	15.842
403.99	14.968
404.35	16.061
404.70	15.288
405.06	14.560
405.42	15.221
405.77	15.600
406.13	15.011
406.49	14.902
406.84	15.771
407.20	14.539
407.55	15.124
407.91	15.867
408.27	14.678
408.62	15.412
408.98	15.686
409.34	15.006
409.69	16.258
410.05	15.304
410.40	15.413
410.76	15.771
411.11	15.682
411.47	14.696
411.83	15.577
412.18	14.409
412.54	15.006
412.89	15.964
413.25	14.994
413.60	15.812
413.96	14.572
414.31	15.857
414.67	15.779
415.03	14.901
415.38	15.271
415.74	14.984
416.09	15.872
416.45	14.926
416.80	14.937
417.16	16.421
417.51	16.125
417.87	15.222
418.22	16.215
418.58	15.300
418.93	15.725
419.29	14.449
419.64	15.365
420.00	15.000
420.35	15.478
420.71	15.780
421.06	14.678
421.42	15.965
421.77	15.078
422.12	14.935
422.48	13.869
422.83	15.026
423.19	15.635
423.54	15.032
423.90	15.942
424.25	16.025
424.61	14.702
424.96	15.743
425.31	14.839
425.67	15.112
426.02	14.914
426.38	15.629
426.73	14.511
427.09	15.076
427.44	15.411
427.79	15.296
428.15	16.726
428.50	15.565
428.85	16.150
429.21	14.522
429.56	14.774
429.92	14.997
430.27	15.045
430.62	14.798
430.98	14.686
431.33	15.000
431.68	15.340
432.04	15.282
432.39	15.248
432.74	15.619
433.10	15.167
433.45	15.627
433.80	15.355
434.16	15.919
434.51	15.947
434.86	15.051
435.22	15.564
435.57	15.745
435.92	14.921
436.28	15.302
436.63	16.998
436.98	14.654
437.34	16.279
437.69	16.103
438.04	16.020
438.39	15.463
438.75	15.572
439.10	15.978
439.45	15.762
439.81	15.650
440.16	15.189
440.51	16.344
440.86	15.924
441.22	15.295
441.57	15.021
441.92	15.814
442.27	15.393
442.63	15.271
442.98	15.831
443.33	15.652
443.68	15.436
444.03	14.788
444.39	14.995
444.74	15.260
445.09	16.226
445.44	15.801
445.79	15.289
446.15	15.670
446.50	15.455
446.85	15.519
447.20	15.553
447.55	15.578
447.91	16.161
448.26	16.027
448.61	15.602
448.96	15.891
449.31	16.142
449.66	15.363
450.02	15.710
450.37	15.476
450.72	14.890
451.07	15.905
451.42	15.988
451.77	15.913
452.12	16.051
452.47	16.107
452.83	15.618
453.18	16.809
453.53	16.512
453.88	14.885
454.23	16.019
454.58	16.657
454.93	16.783
455.28	15.960
455.63	16.141
455.98	16.786
456.34	16.143
456.69	15.905
457.04	16.594
457.39	15.839
457.74	15.148
458.09	15.641
458.44	16.135
458.79	15.347
459.14	15.350
459.49	16.054
459.84	15.679
460.19	15.262
460.54	15.104
460.89	16.182
461.24	16.818
461.59	16.967
461.94	15.536
462.29	16.380
462.64	15.635
462.99	15.940
463.34	16.800
463.69	16.323
464.04	16.464
464.39	15.710
464.74	16.280
465.09	15.199
465.44	15.291
465.79	15.268
466.14	16.201
466.49	15.239
466.84	15.470
467.19	16.596
467.54	17.375
467.89	15.846
468.24	16.638
468.59	16.728
468.94	15.822
469.29	15.167
469.64	16.867
469.99	16.644
470.34	16.182
470.68	16.739
471.03	16.395
471.38	16.331
471.73	16.056
472.08	17.171
472.43	16.080
472.78	16.985
473.13	16.752
473.48	16.667
473.83	16.220
474.17	16.304
474.52	16.563
474.87	15.995
475.22	15.728
475.57	15.529
475.92	15.189
476.27	14.938
476.61	15.996
476.96	15.888
477.31	15.646
477.66	15.591
478.01	15.682
478.36	15.865
478.70	15.628
479.05	15.548
479.40	14.944
479.75	16.014
480.10	15.408
480.45	15.897
480.79	15.194
481.14	15.068
481.49	15.282
481.84	15.181
482.19	15.811
482.53	14.771
482.88	15.914
483.23	15.654
483.58	15.423
483.92	16.261
484.27	15.076
484.62	15.560
484.97	14.505
485.31	14.966
485.66	14.381
486.01	13.320
486.36	12.617
486.70	12.555
487.05	13.148
487.40	13.585
487.75	14.157
488.09	14.771
488.44	14.743
488.79	15.371
489.13	15.279
489.48	14.682
489.83	15.278
490.17	15.783
490.52	15.368
490.87	15.559
491.22	15.598
491.56	14.943
491.91	15.403
492.26	14.975
492.60	15.207
492.95	14.874
493.30	14.766
493.64	14.979
493.99	15.181
494.34	15.032
494.68	15.339
495.03	15.836
495.37	15.542
495.72	15.302
496.07	15.638
496.41	14.823
496.76	15.435
497.11	15.263
497.45	15.277
497.80	15.691
498.14	15.362
498.49	15.610
498.84	15.388
499.18	15.667
499.53	15.622
499.87	15.517
500.22	15.450
500.56	15.485
500.91	15.240
501.26	15.647
501.60	15.994
501.95	15.628
502.29	15.651
502.64	15.363
502.98	15.708
503.33	15.082
503.67	15.360
504.02	15.388
504.36	15.723
504.71	15.828
505.06	15.614
505.40	14.827
505.75	15.284
506.09	15.015
506.44	15.688
506.78	15.830
507.13	14.942
507.47	15.909
507.82	15.704
508.16	16.160
508.51	15.525
508.85	15.343
509.19	15.918
509.54	15.153
509.88	14.683
510.23	15.116
510.57	16.305
510.92	15.484
511.26	15.211
511.61	15.664
511.95	14.927
512.30	15.270
512.64	15.798
512.98	15.863
513.33	16.863
513.67	15.048
514.02	15.097
514.36	15.347
514.70	15.993
515.05	16.230
515.39	15.984
515.74	15.991
516.08	16.657
516.42	15.483
516.77	15.496
517.11	15.871
517.46	17.156
517.80	16.376
518.14	15.402
518.49	15.403
518.83	16.591
519.17	16.513
519.52	15.337
519.86	16.258
520.20	16.301
520.55	15.560
520.89	16.727
521.23	16.888
521.58	16.867
521.92	17.146
522.26	16.229
522.61	16.324
522.95	16.329
523.29	16.494
523.64	17.439
523.98	16.205
524.32	16.224
524.66	16.957
525.01	16.299
525.35	15.613
525.69	16.071
526.04	15.888
526.38	16.290
526.72	15.583
527.06	16.259
527.41	15.099
527.75	16.463
528.09	16.763
528.43	16.252
528.78	16.718
529.12	15.758
529.46	16.718
529.80	16.151
530.15	17.321
530.49	16.185
530.83	16.646
531.17	17.493
531.51	16.667
531.86	15.806
532.20	16.428
532.54	17.553
532.88	17.266
533.22	15.990
533.57	16.235
533.91	16.135
534.25	15.917
534.59	16.107
534.93	16.240
535.27	16.295
535.62	16.117
535.96	16.133
536.30	16.084
536.64	16.549
536.98	16.324
537.32	16.524
537.66	16.600
538.01	16.919
538.35	16.290
538.69	16.337
539.03	15.724
539.37	16.613
539.71	15.424
540.05	15.752
540.39	15.947
540.73	16.429
541.07	16.807
541.42	16.765
541.76	16.452
542.10	16.753
542.44	15.894
542.78	16.535
543.12	16.187
543.46	15.803
543.80	16.526
544.14	15.597
544.48	16.889
544.82	16.164
545.16	16.721
545.50	16.324
545.84	16.196
546.18	16.162
546.52	15.967
546.86	16.289
547.20	17.667
547.54	16.032
547.88	17.602
548.22	16.625
548.56	16.792
548.90	16.709
549.24	15.152
549.58	16.985
549.92	17.102
550.26	17.259
550.60	16.183
550.94	16.620
551.28	15.874
551.62	17.254
551.96	16.000
552.30	16.860
552.64	17.444
552.98	16.949
553.32	16.790
553.66	17.246
554.00	17.021
554.34	16.701
554.68	17.239
555.02	17.137
555.36	16.841
555.69	16.373
556.03	16.824
556.37	16.644
556.71	15.621
557.05	17.157
557.39	17.495
557.73	17.925
558.07	17.839
558.41	17.004
558.75	16.385
559.08	16.406
559.42	17.309
559.76	18.015
560.10	16.417
560.44	16.003
560.78	15.502
561.12	16.953
561.45	16.428
561.79	15.491
562.13	16.164
562.47	16.462
562.81	16.318
563.15	17.124
563.48	16.777
563.82	16.177
564.16	16.089
564.50	16.602
564.84	15.676
565.17	16.216
565.51	16.358
565.85	16.497
566.19	15.905
566.52	16.276
566.86	15.552
567.20	15.389
567.54	15.982
567.88	15.100
568.21	16.032
568.55	14.560
568.89	15.272
569.23	14.706
569.56	14.332
569.90	13.925
570.24	13.994
570.57	13.499
570.91	13.833
571.25	13.465
571.59	13.579
571.92	13.566
572.26	13.403
572.60	13.724
572.93	13.433
573.27	13.605
573.61	13.400
573.95	13.463
574.28	12.889
574.62	13.071
574.96	12.784
575.29	12.876
575.63	12.907
575.97	13.096
576.30	13.516
576.64	13.293
576.98	12.907
577.31	12.731
577.65	12.942
577.98	13.008
578.32	12.411
578.66	12.746
578.99	12.782
579.33	12.927
579.67	12.746
580.00	12.994
580.34	13.052
580.67	12.905
581.01	12.930
581.35	12.845
581.68	12.981
582.02	12.402
582.35	12.441
582.69	12.753
583.02	13.057
583.36	13.489
583.70	13.437
584.03	13.741
584.37	13.781
584.70	13.166
585.04	13.381
585.37	13.514
585.71	13.299
586.04	13.119
586.38	13.454
586.72	13.698
587.05	13.149
587.39	13.140
587.72	13.244
588.06	13.447
588.39	13.525
588.73	13.816
589.06	13.556
589.40	13.805
589.73	14.361
590.07	14.021
590.40	14.030
590.73	14.247
591.07	14.774
591.40	14.677
591.74	15.411
592.07	14.703
592.41	15.048
592.74	13.895
593.08	13.791
593.41	13.761
593.75	13.398
594.08	14.180
594.41	14.175
594.75	13.752
595.08	13.994
595.42	14.291
595.75	14.209
596.09	14.946
596.42	15.010
596.75	14.394
597.09	15.065
597.42	14.376
597.75	14.403
598.09	14.957
598.42	14.175
598.76	14.349
599.09	13.645
599.42	13.828
599.76	13.946
600.09	13.843
600.42	13.440
600.76	13.536
601.09	13.370
601.42	13.737
601.76	14.231
602.09	14.269
602.42	14.411
602.76	14.833
603.09	14.477
603.42	14.213
603.76	14.062
604.09	13.532
604.42	14.227
604.76	14.804
605.09	13.936
605.42	14.151
605.75	14.321
606.09	14.111
606.42	13.363
606.75	14.268
607.09	14.316
607.42	14.377
607.75	13.713
608.08	13.982
608.42	15.061
608.75	14.518
609.08	14.755
609.41	14.279
609.75	14.960
610.08	15.127
610.41	15.084
610.74	14.333
611.07	14.723
611.41	15.407
611.74	15.133
612.07	15.269
612.40	14.428
612.73	14.895
613.07	14.763
613.40	14.903
613.73	14.106
614.06	15.376
614.39	15.417
614.72	15.368
615.06	15.179
615.39	14.544
615.72	14.928
616.05	14.833
616.38	15.397
616.71	16.152
617.05	15.724
617.38	14.672
617.71	15.796
618.04	16.226
618.37	15.553
618.70	16.055
619.03	16.776
619.36	15.954
619.69	16.549
620.03	16.277
620.36	16.310
620.69	16.301
621.02	16.888
621.35	16.210
621.68	16.511
622.01	16.641
622.34	16.490
622.67	16.046
623.00	15.994
623.33	16.583
623.66	15.797
623.99	16.789
624.32	16.049
624.65	16.102
624.99	15.297
625.32	14.989
625.65	16.905
625.98	16.833
626.31	17.107
626.64	17.633
626.97	17.207
627.30	15.960
627.63	18.048
627.96	17.578
628.29	16.798
628.62	19.122
628.95	19.151
629.28	17.245
629.61	19.157
629.94	18.476
630.26	17.922
630.59	17.636
630.92	17.529
631.25	17.966
631.58	18.018
631.91	17.951
632.24	17.194
632.57	17.104
632.90	18.531
633.23	18.680
633.56	19.661
633.89	19.139
634.22	19.637
634.55	20.118
634.88	19.401
635.20	19.594
635.53	19.639
635.86	18.193
636.19	18.353
636.52	18.224
636.85	19.244
637.18	17.742
637.51	19.267
637.83	18.742
638.16	18.159
638.49	20.277
638.82	20.101
639.15	19.250
639.48	20.698
639.81	19.973
640.13	21.354
640.46	20.268
640.79	19.551
641.12	20.220
641.45	19.832
641.77	20.471
642.10	20.468
642.43	20.420
642.76	21.981
643.09	21.472
643.41	21.093
643.74	22.531
644.07	20.884
644.40	21.933
644.73	20.315
645.05	22.979
645.38	20.221
645.71	22.705
646.04	20.266
646.36	22.371
646.69	22.910
647.02	22.449
647.35	21.649
647.67	23.009
648.00	21.626
648.33	21.122
648.66	21.212
648.98	20.690
649.31	19.133
649.64	20.329
649.96	20.417
650.29	21.327
650.62	20.065
650.94	23.177
651.27	22.973
651.60	23.128
651.92	24.760
652.25	19.870
652.58	21.807
652.90	20.063
653.23	20.339
653.56	20.315
653.88	19.968
654.21	22.275
654.54	22.277
654.86	20.405
655.19	18.919
655.52	12.373
655.84	10.071
656.17	12.609
656.49	17.353
656.82	17.739
657.15	13.764
657.47	10.421
657.80	8.245
658.13	8.784
658.45	13.127
658.78	13.530
659.10	14.614
659.43	15.180
659.75	16.615
660.08	17.785
660.41	21.322
660.73	22.490
661.06	20.382
661.38	22.364
661.71	23.654
662.03	23.077
662.36	21.471
662.68	22.691
663.01	23.434
663.33	22.930
663.66	24.160
663.98	27.214
664.31	23.109
664.63	22.267
664.96	23.944
665.28	24.385
665.61	24.561
665.93	21.730
666.26	23.327
666.58	23.849
666.91	27.061
667.23	26.067
667.56	23.110
667.88	26.068
668.21	26.013
668.53	26.681
668.86	23.593
669.18	25.373
669.50	24.565
669.83	26.797
670.15	25.111
670.48	24.837
670.80	25.431
671.13	25.478
671.45	22.128
671.77	24.847
672.10	23.105
672.42	22.085
672.75	21.061
673.07	22.711
673.39	21.700
673.72	20.312
674.04	23.922
674.37	22.718
674.69	23.313
675.01	22.385
675.34	25.667
675.66	23.158
675.98	26.884
676.31	23.739
676.63	24.204
676.95	24.109
677.28	26.402
677.60	22.198
677.92	25.105
678.25	21.355
678.57	23.705
678.89	25.852
679.22	24.754
679.54	23.664
679.86	25.688
680.18	23.256
680.51	21.277
680.83	23.488
681.15	23.585
681.48	23.819
681.80	22.437
682.12	21.456
682.44	21.083
682.77	22.403
683.09	27.897
683.41	23.060
683.73	25.166
684.06	24.587
684.38	21.918
684.70	22.481
685.02	23.827
685.34	21.062
685.67	20.979
685.99	20.962
686.31	20.819
686.63	18.375
686.96	21.607
687.28	20.939
687.60	19.565
687.92	23.583
688.24	22.624
688.56	24.096
688.89	23.859
689.21	25.546
689.53	22.965
689.85	24.169
690.17	21.739
690.49	23.142
690.82	23.598
691.14	21.429
691.46	20.253
691.78	21.486
692.10	25.207
692.42	24.152
692.74	22.199
693.06	23.404
693.39	23.614
693.71	22.489
694.03	22.105
694.35	23.377
694.67	24.256
694.99	25.122
695.31	25.245
695.63	21.770
695.95	25.183
696.27	24.365
696.59	24.093
696.91	29.534
697.23	23.239
697.56	21.962
697.88	20.654
698.20	21.458
698.52	24.301
698.84	22.049
699.16	24.424
699.48	25.653
699.80	24.638
700.12	25.974
700.44	24.138
700.76	26.243
701.08	27.299
701.40	28.212
701.72	28.571
702.04	32.102
702.36	25.779
702.68	24.646
703.00	23.269
703.32	24.734
703.64	24.129
703.96	28.691
704.28	27.035
704.60	29.912
704.91	27.596
705.23	29.619
705.55	29.568
705.87	33.555
706.19	28.269
706.51	28.037
706.83	30.606
707.15	27.171
707.47	25.505
707.79	24.324
708.11	26.484
708.43	24.762
708.74	23.469
709.06	27.013
709.38	29.396
709.70	27.035
710.02	30.861
710.34	28.182
710.66	30.746
710.98	25.852
711.29	28.488
711.61	28.319
711.93	23.718
712.25	31.190
712.57	32.721
712.89	28.028
713.20	32.219
713.52	29.605
713.84	30.063
714.16	27.439
714.48	27.299
714.80	30.395
715.11	27.666
715.43	27.596
715.75	26.087
716.07	26.837
716.39	28.213
716.70	27.575
717.02	34.892
717.34	29.682
717.66	33.209
717.97	33.068
718.29	30.370
718.61	33.942
718.93	32.353
719.24	30.104
719.56	29.492
719.88	30.508
720.20	35.473
720.51	30.314
720.83	36.431
721.15	25.373
721.46	29.787
721.78	31.183
722.10	32.453
722.42	31.955
722.73	34.831
723.05	31.967
723.37	31.984
723.68	32.432
724.00	36.179
724.32	31.855
724.63	31.707
724.95	31.799
725.27	34.413
725.58	30.859
725.90	36.496
726.22	29.811
726.53	31.597
726.85	30.034
727.16	31.673
727.48	31.560
727.80	32.197
728.11	31.884
728.43	34.615
728.74	29.032
729.06	35.766
729.38	33.824
729.69	29.537
730.01	26.621
730.32	27.431
730.64	30.435
730.96	27.063
731.27	29.470
731.59	29.052
731.90	30.321
732.22	25.776
732.53	24.768
732.85	28.846
733.16	28.939
733.48	26.910
733.80	28.896
734.11	30.573
734.43	28.402
734.74	30.000
735.06	24.642
735.37	27.168
735.69	28.662
736.00	28.105
736.32	29.595
736.63	27.476
736.95	32.588
737.26	22.449
737.58	27.419
737.89	31.438
738.21	27.304
738.52	29.286
738.83	28.302
739.15	30.385
739.46	31.752
739.78	31.250
740.09	32.000
740.41	30.968
740.72	28.571
741.04	35.556
741.35	27.500
741.66	41.778
741.98	35.849
742.29	40.670
742.61	37.500
742.92	31.674
743.23	32.479
743.55	28.000
743.86	35.526
744.18	37.611
744.49	33.493
744.80	37.089
745.12	36.818
745.43	39.207
745.74	33.784
746.06	35.321
746.37	33.632
746.68	36.652
747.00	37.037
747.31	33.333
747.62	29.204
747.94	35.683
748.25	28.936
748.56	36.123
748.88	33.168
749.19	40.000
749.50	32.093
749.82	36.179
750.13	30.204
750.44	33.577
750.75	32.982
751.07	31.511
751.38	31.707
751.69	34.657
752.01	30.451
752.32	28.881
752.63	31.560
752.94	34.426
753.26	38.000
753.57	33.333
753.88	32.031
754.19	30.714
754.51	33.333
754.82	31.408
755.13	30.943
755.44	28.571
755.75	30.292
756.07	26.241
756.38	24.453
756.69	31.544
757.00	26.048
757.31	26.409
757.63	25.731
757.94	24.665
758.25	25.245
758.56	24.198
758.87	26.344
759.18	26.667
759.50	29.467
759.81	24.922
760.12	26.875
760.43	27.221
760.74	24.728
761.05	27.119
761.36	22.460
761.67	27.841
761.99	27.019
762.30	31.597
762.61	35.496
762.92	33.594
763.23	34.454
763.54	34.400
763.85	30.859
764.16	35.769
764.47	30.798
764.78	30.389
765.10	26.582
765.41	30.088
765.72	29.940
766.03	29.467
766.34	25.333
766.65	36.170
766.96	34.615
767.27	34.010
767.58	45.312
767.89	44.737
768.20	47.126
768.51	37.056
768.82	36.239
769.13	34.146
769.44	29.555
769.75	34.335
770.06	27.064
770.37	36.652
770.68	31.481
770.99	36.444
771.30	27.049
771.61	33.632
771.92	35.246
772.23	41.176
772.54	31.795
772.85	39.267
773.16	40.957
773.47	36.957
773.78	42.132
774.09	41.071
774.39	47.368
774.70	37.037
775.01	42.754
775.32	50.980
775.63	48.684
775.94	43.165
776.25	58.268
776.56	49.254
776.87	50.820
777.18	53.906
777.48	54.198
777.79	49.242
778.10	47.407
778.41	54.464
778.72	44.526
779.03	45.638
779.34	44.966
779.65	47.297
779.95	41.104
780.26	47.059
780.57	47.586
780.88	54.688
781.19	50.376
781.50	52.027
781.80	47.170
782.11	37.288
782.42	43.671
782.73	46.012
783.04	52.703
783.34	48.592
783.65	54.110
783.96	49.254
784.27	43.357
784.57	41.007
784.88	49.074
785.19	52.381
785.50	63.208
785.81	56.716
786.11	58.197
786.42	62.016
786.73	58.407
787.04	63.208
787.34	66.964
787.65	64.000
787.96	49.550
788.26	54.545
788.57	58.475
788.88	63.636
789.19	56.944
789.49	55.303
789.80	56.489
790.11	58.095
790.41	65.347
790.72	63.855
791.03	61.957
791.33	77.907
791.64	59.794
791.95	69.307
792.25	65.556
792.56	77.922
792.87	87.179
793.17	87.342
793.48	77.011
793.79	62.069
794.09	70.455
794.40	50.420
794.70	50.735
795.01	53.333
795.32	48.921
795.62	55.118
795.93	56.897
796.23	51.327
796.54	55.294
796.85	75.676
797.15	81.690
797.46	77.273
797.76	79.518
798.07	69.620
798.37	83.077
798.68	83.333
798.99	80.282
799.29	71.429
799.60	69.318
799.90	89.041
800.21	92.537
800.51	77.586
800.82	115.789
801.12	95.082
801.43	87.879
801.73	86.486
802.04	122.222
802.34	96.296
802.65	82.813
802.95	105.085
803.26	101.563
803.56	75.714
803.87	95.385
804.17	79.412
804.48	101.852
804.78	100.000
805.09	86.765
805.39	90.385
805.70	101.786
806.00	96.721
806.30	95.455
806.61	75.610
806.91	79.747
807.22	71.053
807.52	67.164
807.83	87.324
808.13	106.250
808.43	98.333
808.74	73.684
809.04	97.101
809.35	89.552
809.65	71.053
809.95	112.903
810.26	91.525
810.56	82.540
810.86	131.818
811.17	138.095
811.47	98.333
811.77	100.000
812.08	110.909
812.38	122.000
812.69	130.556
812.99	134.091
813.29	126.531
813.59	88.095
813.90	134.694
814.20	109.091
814.50	92.308
814.81	95.588
815.11	124.490
815.41	98.361
815.72	128.571
816.02	121.818
816.32	161.905
816.62	117.500
816.93	134.146
817.23	130.952
817.53	134.091
817.84	196.970
818.14	117.391
818.44	135.556
818.74	173.529
819.04	127.500
819.35	177.143
819.65	197.059
819.95	178.571
820.25	260.000
820.56	161.538
820.86	147.727
821.16	155.814
821.46	130.769
821.76	144.000
822.07	180.000
822.37	130.000
822.67	169.697
822.97	117.647
823.27	214.286
823.57	162.162
823.88	187.500
824.18	196.667
824.48	142.857
824.78	228.000
825.08	183.333
825.38	162.162
825.69	126.829
825.99	233.333
826.29	155.172
826.59	171.053
826.89	134.211
827.19	129.412
827.49	170.968
827.79	168.182
828.09	138.636
828.39	114.894
828.70	124.490
829.00	159.259
829.30	148.387
829.60	137.500
829.90	300.000
830.20	207.143
830.50	200.000
830.80	265.217
831.10	206.667
831.40	210.000
831.70	200.000
832.00	215.385
832.30	244.444
832.60	300.000
832.90	156.667
833.20	407.143
833.50	174.194
833.80	200.000
834.10	175.000
834.40	223.077
834.70	294.444
835.00	304.762
835.30	174.286
835.60	338.462
835.90	231.034
836.20	350.000
836.50	179.310
836.80	204.000
837.10	169.444
837.40	247.619
837.70	341.176
838.00	203.704
838.30	209.524
838.60	314.286
838.90	215.385
839.19	270.000
839.49	385.714
839.79	370.000
840.09	280.000
840.39	223.810
840.69	243.478
840.99	283.333
841.29	510.000
841.59	300.000
841.88	393.750
842.18	172.414
842.48	276.190
842.78	200.000
843.08	269.565
843.38	193.750
843.68	800.000
843.97	219.231
844.27	165.517
844.57	285.714
844.87	300.000
845.17	225.926
845.47	1466.667
845.76	466.667
846.06	305.882
846.36	612.500
846.66	407.143
846.96	300.000
847.25	345.455
847.55	436.364
847.85	226.087
848.15	380.000
848.44	371.429
848.74	216.667
849.04	282.353
849.34	510.000
849.63	257.895
849.93	454.545
850.23	920.000
850.53	435.714
850.82	2100.000
851.12	-4200.000
851.42	4300.000
851.71	265.000
852.01	-1333.333
852.31	245.833
852.61	1966.667
852.90	257.143
853.20	244.000
853.50	300.000
853.79	333.333
854.09	195.833
854.39	293.750
854.68	181.081
854.98	180.645
855.28	170.000
855.57	234.483
855.87	196.296
856.17	273.684
856.46	266.667
856.76	258.824
857.05	220.690
857.35	233.333
857.65	393.333
857.94	230.435
858.24	230.769
858.53	290.000
858.83	236.364
859.13	380.000
859.42	0.000
859.72	500.000
860.01	363.636
860.31	236.364
860.60	289.474
860.90	239.130
861.20	566.667
861.49	508.333
861.79	-5200.000
862.08	737.500
862.38	295.238
862.67	353.846
862.97	341.176
863.26	622.222
863.56	294.444
863.85	425.000
864.15	600.000
864.44	406.667
864.74	933.333
865.03	625.000
865.33	294.737
865.62	445.455
865.92	469.231
866.21	300.000
866.51	0.000
866.80	481.818
867.10	1180.000
867.39	400.000
867.69	500.000
867.98	215.789
868.27	481.818
868.57	331.579
868.86	-4100.000
869.16	343.750
869.45	2150.000
869.75	-5300.000
870.04	391.667
870.33	685.714
870.63	800.000
870.92	2800.000
871.22	700.000
871.51	352.941
871.80	233.333
872.10	414.286
>>>>>End Processed Spectral Data<<<<<
