SpectraSuite Data File
++++++++++++++++++++++++++++++++++++
Date: Wed May 13 16:44:46 PDT 2015
User: schluterlab
Dark Spectrum Present: Yes
Reference Spectrum Present: Yes
Number of Sampled Component Spectra: 1
Spectrometers: USB2E3373
Integration Time (usec): 3000 (USB2E3373)
Spectra Averaged: 3 (USB2E3373)
Boxcar Smoothing: 0 (USB2E3373)
Correct for Electrical Dark: No (USB2E3373)
Strobe/Lamp Enabled: No (USB2E3373)
Correct for Detector Non-linearity: No (USB2E3373)
Correct for Stray Light: No (USB2E3373)
Number of Pixels in Processed Spectrum: 2048
>>>>>Begin Processed Spectral Data<<<<<
178.53	0.000
178.91	-1200.000
179.29	-1350.000
179.67	-244.444
180.04	-1125.000
180.42	2300.000
180.80	900.000
181.18	-1100.000
181.56	728.571
181.94	0.000
182.31	-642.857
182.69	1800.000
183.07	-487.500
183.45	-544.444
183.83	472.727
184.20	-450.000
184.58	2500.000
184.96	5800.000
185.34	-860.000
185.72	-700.000
186.09	-1900.000
186.47	2650.000
186.85	2250.000
187.23	4500.000
187.61	-1733.333
187.98	1250.000
188.36	436.364
188.74	481.818
189.12	-920.000
189.49	550.000
189.87	-4400.000
190.25	-1250.000
190.63	421.429
191.00	461.538
191.38	733.333
191.76	-1175.000
192.14	1500.000
192.51	612.500
192.89	866.667
193.27	650.000
193.65	-1150.000
194.02	580.000
194.40	880.000
194.78	530.000
195.15	558.333
195.53	640.000
195.91	-1350.000
196.29	343.750
196.66	268.421
197.04	-310.000
197.42	0.000
197.79	570.000
198.17	-4800.000
198.55	714.286
198.92	700.000
199.30	1080.000
199.68	0.000
200.05	333.333
200.43	728.571
200.81	4300.000
201.18	1533.333
201.56	-1733.333
201.94	555.556
202.31	633.333
202.69	400.000
203.07	520.000
203.44	0.000
203.82	1050.000
204.19	742.857
204.57	464.286
204.95	650.000
205.32	1366.667
205.70	490.909
206.08	321.429
206.45	2300.000
206.83	306.250
207.20	900.000
207.58	740.000
207.96	316.667
208.33	812.500
208.71	-850.000
209.08	700.000
209.46	588.889
209.84	463.636
210.21	-1633.333
210.59	1400.000
210.96	-525.000
211.34	2300.000
211.71	520.000
212.09	766.667
212.46	0.000
212.84	2066.667
213.22	1325.000
213.59	-4600.000
213.97	950.000
214.34	785.714
214.72	654.545
215.09	1080.000
215.47	-2650.000
215.84	-2700.000
216.22	1633.333
216.59	392.857
216.97	1150.000
217.34	545.455
217.72	-850.000
218.09	0.000
218.47	-5500.000
218.84	633.333
219.22	642.857
219.59	1366.667
219.97	-685.714
220.34	880.000
220.72	-1466.667
221.09	485.714
221.47	1350.000
221.84	-933.333
222.22	0.000
222.59	1525.000
222.97	-2450.000
223.34	1180.000
223.72	438.462
224.09	1000.000
224.46	2650.000
224.84	-5000.000
225.21	-1060.000
225.59	-4400.000
225.96	630.000
226.34	300.000
226.71	2250.000
227.08	600.000
227.46	590.000
227.83	-1200.000
228.21	-2000.000
228.58	688.889
228.95	-2200.000
229.33	-2250.000
229.70	1633.333
230.08	828.571
230.45	-840.000
230.82	400.000
231.20	916.667
231.57	700.000
231.95	516.667
232.32	213.636
232.69	481.818
233.07	700.000
233.44	353.846
233.81	-1700.000
234.19	326.316
234.56	433.333
234.93	433.333
235.31	527.273
235.68	423.077
236.05	435.714
236.43	200.000
236.80	278.947
237.17	5100.000
237.55	290.476
237.92	221.429
238.29	319.048
238.67	174.194
239.04	248.276
239.41	166.667
239.79	132.609
240.16	185.714
240.53	163.636
240.91	115.686
241.28	112.000
241.65	114.000
242.02	110.145
242.40	124.194
242.77	121.667
243.14	96.774
243.51	102.247
243.89	88.235
244.26	90.000
244.63	93.548
245.00	96.809
245.38	93.069
245.75	73.832
246.12	76.147
246.49	70.803
246.87	79.200
247.24	73.846
247.61	72.857
247.98	64.052
248.36	71.622
248.73	68.790
249.10	72.611
249.47	62.712
249.84	64.706
250.22	56.684
250.59	60.355
250.96	59.596
251.33	61.611
251.70	63.366
252.08	56.667
252.45	55.157
252.82	63.478
253.19	54.894
253.56	56.471
253.94	60.996
254.31	53.906
254.68	57.308
255.05	52.768
255.42	52.846
255.79	52.941
256.16	57.762
256.54	51.237
256.91	51.601
257.28	47.482
257.65	48.515
258.02	47.205
258.39	46.057
258.76	51.839
259.14	48.214
259.51	46.505
259.88	47.826
260.25	52.568
260.62	43.642
260.99	50.932
261.36	53.453
261.73	49.284
262.10	45.058
262.47	49.577
262.85	45.125
263.22	44.729
263.59	53.846
263.96	46.703
264.33	45.431
264.70	48.684
265.07	48.338
265.44	46.970
265.81	44.282
266.18	45.226
266.55	42.683
266.92	44.963
267.29	46.759
267.66	43.807
268.03	45.227
268.40	42.991
268.77	45.107
269.14	44.820
269.51	45.372
269.88	45.921
270.25	41.986
270.62	42.697
270.99	42.366
271.36	43.133
271.73	42.056
272.10	43.696
272.47	41.505
272.84	45.238
273.21	43.606
273.58	40.393
273.95	40.461
274.32	39.876
274.69	43.255
275.06	40.354
275.43	42.766
275.80	43.287
276.17	39.511
276.54	42.412
276.91	42.688
277.28	41.211
277.65	41.199
278.02	38.923
278.39	44.336
278.76	39.273
279.13	42.075
279.50	41.155
279.87	41.633
280.23	40.519
280.60	39.845
280.97	41.590
281.34	39.646
281.71	40.727
282.08	41.075
282.45	40.364
282.82	39.609
283.19	37.077
283.56	39.649
283.92	40.271
284.29	38.272
284.66	40.109
285.03	39.964
285.40	38.204
285.77	37.710
286.14	40.242
286.51	37.000
286.87	38.632
287.24	39.902
287.61	38.202
287.98	37.662
288.35	35.341
288.72	34.579
289.08	37.246
289.45	36.409
289.82	37.561
290.19	34.223
290.56	36.294
290.93	33.686
291.29	35.890
291.66	34.071
292.03	35.901
292.40	35.242
292.77	32.692
293.13	35.821
293.50	32.799
293.87	34.519
294.24	34.667
294.60	31.878
294.97	33.721
295.34	33.286
295.71	32.955
296.08	31.481
296.44	31.499
296.81	32.629
297.18	33.604
297.55	29.156
297.91	31.003
298.28	29.719
298.65	33.290
299.02	32.543
299.38	31.740
299.75	29.515
300.12	28.991
300.48	31.375
300.85	29.716
301.22	31.338
301.59	30.934
301.95	30.982
302.32	30.552
302.69	30.346
303.05	30.424
303.42	30.247
303.79	28.879
304.15	29.487
304.52	29.432
304.89	30.081
305.25	28.770
305.62	30.011
305.99	30.697
306.35	29.195
306.72	29.148
307.09	30.189
307.45	30.631
307.82	28.795
308.19	29.581
308.55	30.313
308.92	29.753
309.29	28.933
309.65	28.632
310.02	28.436
310.38	30.860
310.75	29.145
311.12	29.683
311.48	30.408
311.85	28.721
312.22	29.448
312.58	29.938
312.95	30.623
313.31	30.097
313.68	30.146
314.05	30.769
314.41	30.854
314.78	30.514
315.14	30.089
315.51	29.969
315.87	30.792
316.24	29.196
316.61	30.214
316.97	29.550
317.34	30.333
317.70	30.975
318.07	28.970
318.43	31.213
318.80	31.490
319.16	30.132
319.53	28.424
319.89	32.667
320.26	32.200
320.62	31.448
320.99	30.909
321.35	30.505
321.72	31.006
322.08	30.997
322.45	33.831
322.81	33.236
323.18	32.370
323.54	30.983
323.91	31.321
324.27	31.262
324.64	31.594
325.00	32.101
325.37	33.121
325.73	32.855
326.10	33.539
326.46	32.796
326.83	35.116
327.19	32.024
327.56	32.753
327.92	34.646
328.29	34.783
328.65	34.991
329.01	34.567
329.38	34.598
329.74	33.610
330.11	34.307
330.47	34.711
330.84	36.305
331.20	34.244
331.56	34.495
331.93	35.648
332.29	35.759
332.66	35.664
333.02	34.826
333.38	34.688
333.75	35.116
334.11	35.053
334.48	36.380
334.84	36.213
335.20	35.091
335.57	35.721
335.93	34.911
336.29	34.707
336.66	36.249
337.02	34.389
337.38	37.685
337.75	35.116
338.11	36.616
338.47	37.109
338.84	36.114
339.20	34.862
339.56	37.226
339.93	34.636
340.29	35.960
340.65	36.096
341.02	35.253
341.38	36.388
341.74	34.211
342.11	36.245
342.47	35.595
342.83	35.959
343.20	35.584
343.56	35.552
343.92	35.614
344.28	35.629
344.65	37.059
345.01	35.774
345.37	35.163
345.73	35.533
346.10	36.147
346.46	36.864
346.82	36.491
347.19	35.923
347.55	35.468
347.91	36.327
348.27	36.976
348.63	35.284
349.00	36.084
349.36	35.714
349.72	36.327
350.08	35.656
350.45	36.290
350.81	35.743
351.17	36.305
351.53	36.773
351.89	34.901
352.26	37.332
352.62	35.926
352.98	36.710
353.34	36.894
353.70	35.352
354.07	35.968
354.43	36.349
354.79	36.203
355.15	36.951
355.51	38.209
355.87	37.796
356.24	37.134
356.60	37.209
356.96	38.053
357.32	37.204
357.68	37.953
358.04	36.659
358.40	38.321
358.77	37.872
359.13	37.332
359.49	36.784
359.85	36.825
360.21	37.560
360.57	37.821
360.93	38.615
361.29	37.037
361.66	37.461
362.02	37.985
362.38	38.403
362.74	37.426
363.10	36.714
363.46	38.151
363.82	38.624
364.18	37.739
364.54	38.707
364.90	38.314
365.26	38.971
365.62	39.007
365.98	38.203
366.35	37.464
366.71	38.395
367.07	38.820
367.43	40.131
367.79	40.114
368.15	39.009
368.51	39.026
368.87	38.972
369.23	40.088
369.59	39.319
369.95	38.750
370.31	39.672
370.67	39.638
371.03	41.273
371.39	40.816
371.75	40.956
372.11	40.469
372.47	41.642
372.83	41.138
373.19	40.318
373.55	41.833
373.91	41.311
374.27	40.137
374.63	41.382
374.99	42.302
375.35	41.382
375.71	40.164
376.07	41.015
376.42	42.435
376.78	42.545
377.14	41.316
377.50	43.841
377.86	41.888
378.22	42.415
378.58	41.165
378.94	42.678
379.30	41.539
379.66	44.162
380.02	43.305
380.38	41.773
380.74	43.157
381.09	44.193
381.45	44.315
381.81	43.919
382.17	44.331
382.53	44.277
382.89	45.123
383.25	44.715
383.61	45.043
383.97	44.966
384.32	45.290
384.68	45.105
385.04	44.315
385.40	45.697
385.76	46.499
386.12	45.531
386.48	47.137
386.83	46.761
387.19	48.114
387.55	46.877
387.91	45.586
388.27	47.272
388.62	47.449
388.98	46.622
389.34	48.248
389.70	46.965
390.06	47.338
390.42	48.444
390.77	47.328
391.13	48.947
391.49	49.365
391.85	48.313
392.20	47.697
392.56	48.295
392.92	48.911
393.28	48.462
393.64	48.801
393.99	48.015
394.35	49.318
394.71	48.996
395.07	48.910
395.42	49.444
395.78	49.809
396.14	50.031
396.50	48.684
396.85	50.032
397.21	49.692
397.57	49.597
397.92	49.760
398.28	48.823
398.64	49.522
399.00	51.315
399.35	50.197
399.71	50.174
400.07	50.562
400.42	50.368
400.78	51.327
401.14	50.976
401.49	51.821
401.85	50.756
402.21	50.599
402.57	50.709
402.92	51.009
403.28	53.092
403.63	51.361
403.99	52.229
404.35	51.939
404.70	52.278
405.06	51.835
405.42	52.464
405.77	51.657
406.13	51.298
406.49	52.454
406.84	51.802
407.20	51.714
407.55	52.457
407.91	53.000
408.27	53.478
408.62	51.656
408.98	52.328
409.34	51.292
409.69	52.968
410.05	53.284
410.40	52.661
410.76	52.927
411.11	52.654
411.47	51.757
411.83	53.635
412.18	52.814
412.54	53.798
412.89	53.133
413.25	53.070
413.60	53.490
413.96	52.641
414.31	52.795
414.67	53.676
415.03	54.636
415.38	54.510
415.74	53.762
416.09	55.389
416.45	54.485
416.80	54.792
417.16	54.155
417.51	54.678
417.87	53.308
418.22	54.700
418.58	55.003
418.93	55.098
419.29	55.188
419.64	55.793
420.00	53.476
420.35	53.855
420.71	55.409
421.06	54.833
421.42	54.561
421.77	54.036
422.12	52.779
422.48	53.535
422.83	54.805
423.19	54.365
423.54	54.962
423.90	55.362
424.25	54.160
424.61	54.226
424.96	55.102
425.31	54.485
425.67	53.090
426.02	54.400
426.38	56.166
426.73	54.652
427.09	53.374
427.44	56.067
427.79	55.089
428.15	55.714
428.50	54.008
428.85	54.231
429.21	54.942
429.56	55.158
429.92	54.404
430.27	54.369
430.62	52.586
430.98	54.385
431.33	54.381
431.68	54.188
432.04	53.994
432.39	55.397
432.74	55.655
433.10	56.480
433.45	56.385
433.80	55.765
434.16	55.556
434.51	54.000
434.86	54.960
435.22	54.808
435.57	54.954
435.92	54.535
436.28	54.923
436.63	54.857
436.98	55.409
437.34	54.323
437.69	56.184
438.04	54.525
438.39	53.851
438.75	55.782
439.10	55.866
439.45	56.553
439.81	56.556
440.16	55.675
440.51	54.599
440.86	55.877
441.22	55.895
441.57	55.361
441.92	55.681
442.27	55.920
442.63	54.028
442.98	55.211
443.33	55.217
443.68	55.137
444.03	54.563
444.39	54.528
444.74	56.115
445.09	55.687
445.44	54.401
445.79	53.637
446.15	54.844
446.50	54.389
446.85	55.293
447.20	54.819
447.55	56.393
447.91	55.598
448.26	56.038
448.61	54.777
448.96	56.423
449.31	55.906
449.66	55.374
450.02	55.432
450.37	55.102
450.72	55.950
451.07	54.540
451.42	54.407
451.77	55.432
452.12	55.023
452.47	55.162
452.83	56.119
453.18	54.768
453.53	55.659
453.88	55.936
454.23	54.692
454.58	56.390
454.93	56.898
455.28	54.676
455.63	56.250
455.98	56.369
456.34	54.774
456.69	56.230
457.04	56.285
457.39	55.523
457.74	55.427
458.09	53.882
458.44	55.245
458.79	53.308
459.14	55.700
459.49	55.225
459.84	54.958
460.19	55.392
460.54	53.819
460.89	54.471
461.24	55.252
461.59	57.002
461.94	55.117
462.29	55.786
462.64	54.946
462.99	55.823
463.34	55.800
463.69	56.348
464.04	55.420
464.39	55.014
464.74	53.654
465.09	55.368
465.44	53.241
465.79	53.020
466.14	54.625
466.49	54.004
466.84	55.283
467.19	54.496
467.54	55.875
467.89	54.682
468.24	54.159
468.59	53.968
468.94	54.795
469.29	55.077
469.64	56.894
469.99	56.022
470.34	56.077
470.68	56.178
471.03	56.871
471.38	56.359
471.73	55.230
472.08	56.250
472.43	55.151
472.78	54.970
473.13	54.685
473.48	54.245
473.83	55.244
474.17	53.951
474.52	54.653
474.87	56.100
475.22	55.427
475.57	53.305
475.92	53.319
476.27	53.551
476.61	54.385
476.96	54.865
477.31	54.265
477.66	54.540
478.01	53.215
478.36	54.733
478.70	53.894
479.05	54.047
479.40	53.787
479.75	54.093
480.10	54.722
480.45	53.641
480.79	52.986
481.14	53.963
481.49	54.390
481.84	53.589
482.19	53.885
482.53	53.532
482.88	53.932
483.23	54.626
483.58	54.140
483.92	54.077
484.27	52.288
484.62	52.457
484.97	52.385
485.31	53.356
485.66	52.114
486.01	49.779
486.36	47.051
486.70	46.633
487.05	48.241
487.40	50.230
487.75	50.904
488.09	52.229
488.44	53.002
488.79	54.756
489.13	54.813
489.48	53.385
489.83	53.474
490.17	53.573
490.52	53.322
490.87	53.777
491.22	52.842
491.56	51.754
491.91	53.746
492.26	53.055
492.60	53.041
492.95	52.198
493.30	52.944
493.64	52.963
493.99	52.275
494.34	52.868
494.68	52.198
495.03	53.148
495.37	52.676
495.72	53.314
496.07	53.364
496.41	51.372
496.76	53.078
497.11	51.553
497.45	53.051
497.80	52.687
498.14	52.512
498.49	53.512
498.84	53.691
499.18	53.048
499.53	52.612
499.87	52.377
500.22	52.520
500.56	53.932
500.91	52.692
501.26	53.153
501.60	54.248
501.95	52.200
502.29	53.140
502.64	53.305
502.98	53.202
503.33	51.965
503.67	52.622
504.02	52.479
504.36	52.363
504.71	54.030
505.06	53.398
505.40	52.893
505.75	51.109
506.09	53.596
506.44	54.119
506.78	52.898
507.13	55.174
507.47	53.384
507.82	53.799
508.16	54.154
508.51	54.084
508.85	53.476
509.19	54.337
509.54	53.316
509.88	53.735
510.23	53.676
510.57	54.489
510.92	53.703
511.26	53.340
511.61	53.942
511.95	53.497
512.30	54.348
512.64	55.024
512.98	54.394
513.33	55.407
513.67	53.949
514.02	53.680
514.36	55.380
514.70	54.455
515.05	54.099
515.39	55.637
515.74	55.856
516.08	56.288
516.42	55.605
516.77	56.912
517.11	54.939
517.46	54.684
517.80	55.865
518.14	53.735
518.49	56.359
518.83	55.966
519.17	55.427
519.52	55.065
519.86	55.562
520.20	56.243
520.55	57.510
520.89	56.813
521.23	57.479
521.58	56.303
521.92	56.828
522.26	56.071
522.61	57.383
522.95	55.985
523.29	56.908
523.64	57.317
523.98	56.254
524.32	56.695
524.66	56.164
525.01	57.047
525.35	56.691
525.69	56.096
526.04	56.947
526.38	56.803
526.72	55.767
527.06	59.134
527.41	55.569
527.75	57.942
528.09	56.776
528.43	58.190
528.78	56.976
529.12	55.273
529.46	55.787
529.80	57.550
530.15	57.134
530.49	56.062
530.83	56.835
531.17	58.551
531.51	57.717
531.86	58.903
532.20	57.888
532.54	58.104
532.88	57.381
533.22	56.527
533.57	56.296
533.91	55.629
534.25	56.561
534.59	55.827
534.93	56.871
535.27	56.789
535.62	56.410
535.96	57.753
536.30	57.152
536.64	56.343
536.98	58.328
537.32	57.275
537.66	56.867
538.01	57.077
538.35	57.919
538.69	57.498
539.03	56.400
539.37	56.869
539.71	55.995
540.05	57.386
540.39	57.143
540.73	56.986
541.07	57.625
541.42	57.926
541.76	57.355
542.10	58.215
542.44	57.219
542.78	57.839
543.12	55.534
543.46	57.443
543.80	57.124
544.14	56.739
544.48	57.143
544.82	56.831
545.16	56.278
545.50	56.555
545.84	56.989
546.18	57.710
546.52	57.674
546.86	58.763
547.20	58.463
547.54	56.313
547.88	58.036
548.22	55.293
548.56	56.101
548.90	55.506
549.24	57.508
549.58	57.572
549.92	57.761
550.26	57.670
550.60	55.809
550.94	59.085
551.28	58.522
551.62	58.303
551.96	58.175
552.30	56.792
552.64	58.147
552.98	58.508
553.32	57.856
553.66	57.328
554.00	58.339
554.34	57.350
554.68	59.299
555.02	58.533
555.36	57.481
555.69	57.713
556.03	56.528
556.37	58.254
556.71	55.593
557.05	57.913
557.39	57.173
557.73	57.304
558.07	59.028
558.41	58.828
558.75	58.413
559.08	58.837
559.42	59.410
559.76	58.309
560.10	57.316
560.44	57.303
560.78	56.687
561.12	56.860
561.45	56.975
561.79	56.229
562.13	56.606
562.47	56.284
562.81	58.438
563.15	57.993
563.48	56.631
563.82	56.947
564.16	56.704
564.50	57.031
564.84	56.258
565.17	57.400
565.51	58.019
565.85	57.360
566.19	56.731
566.52	58.138
566.86	56.058
567.20	57.311
567.54	56.050
567.88	55.676
568.21	55.979
568.55	55.056
568.89	54.961
569.23	53.431
569.56	54.089
569.90	53.396
570.24	53.211
570.57	51.649
570.91	50.937
571.25	51.019
571.59	50.810
571.92	51.671
572.26	52.080
572.60	52.312
572.93	50.945
573.27	51.375
573.61	50.865
573.95	51.525
574.28	50.101
574.62	50.729
574.96	50.346
575.29	49.418
575.63	50.559
575.97	50.508
576.30	50.770
576.64	50.468
576.98	50.924
577.31	51.317
577.65	51.031
577.98	50.503
578.32	49.027
578.66	49.937
578.99	50.194
579.33	51.053
579.67	49.939
580.00	51.427
580.34	50.831
580.67	51.028
581.01	51.203
581.35	50.747
581.68	50.028
582.02	49.047
582.35	49.024
582.69	50.313
583.02	50.303
583.36	50.957
583.70	51.548
584.03	52.926
584.37	52.253
584.70	52.403
585.04	51.517
585.37	51.398
585.71	51.621
586.04	50.978
586.38	51.202
586.72	51.698
587.05	51.481
587.39	51.319
587.72	51.353
588.06	51.387
588.39	51.440
588.73	51.804
589.06	53.132
589.40	53.704
589.73	53.573
590.07	53.274
590.40	53.087
590.73	54.372
591.07	55.840
591.40	54.618
591.74	56.147
592.07	53.665
592.41	53.452
592.74	53.146
593.08	52.632
593.41	52.199
593.75	50.468
594.08	52.095
594.41	52.739
594.75	53.235
595.08	52.649
595.42	53.030
595.75	53.597
596.09	54.525
596.42	53.320
596.75	54.369
597.09	55.671
597.42	53.373
597.75	53.903
598.09	53.609
598.42	54.338
598.76	53.628
599.09	52.376
599.42	51.674
599.76	52.635
600.09	51.803
600.42	52.191
600.76	51.536
601.09	52.022
601.42	53.234
601.76	53.169
602.09	53.043
602.42	53.981
602.76	54.736
603.09	53.934
603.42	53.690
603.76	52.210
604.09	53.315
604.42	53.771
604.76	54.534
605.09	54.609
605.42	53.442
605.75	54.677
606.09	53.640
606.42	54.475
606.75	53.961
607.09	54.290
607.42	53.701
607.75	53.249
608.08	53.799
608.42	54.281
608.75	54.193
609.08	53.885
609.41	55.497
609.75	54.979
610.08	55.796
610.41	54.655
610.74	55.061
611.07	56.028
611.41	55.692
611.74	55.505
612.07	54.141
612.40	56.558
612.73	55.368
613.07	55.711
613.40	57.188
613.73	54.746
614.06	55.484
614.39	54.798
614.72	55.421
615.06	56.092
615.39	55.998
615.72	54.550
616.05	55.290
616.38	55.698
616.71	57.423
617.05	58.245
617.38	57.005
617.71	56.757
618.04	58.654
618.37	56.298
618.70	57.125
619.03	59.276
619.36	58.452
619.69	60.070
620.03	59.341
620.36	58.155
620.69	58.699
621.02	60.324
621.35	60.611
621.68	59.424
622.01	60.449
622.34	58.245
622.67	60.532
623.00	59.868
623.33	58.113
623.66	58.470
623.99	59.205
624.32	58.916
624.65	59.322
624.99	58.215
625.32	58.726
625.65	60.105
625.98	60.492
626.31	62.053
626.64	62.531
626.97	60.848
627.30	61.513
627.63	61.608
627.96	61.817
628.29	61.242
628.62	60.567
628.95	65.000
629.28	61.131
629.61	61.320
629.94	64.476
630.26	62.917
630.59	61.868
630.92	62.165
631.25	63.376
631.58	63.263
631.91	63.793
632.24	64.135
632.57	66.946
632.90	64.474
633.23	63.647
633.56	65.537
633.89	66.025
634.22	67.537
634.55	67.929
634.88	68.024
635.20	65.711
635.53	66.024
635.86	66.584
636.19	64.706
636.52	64.245
636.85	64.948
637.18	64.055
637.51	66.667
637.83	63.502
638.16	67.008
638.49	65.743
638.82	68.900
639.15	67.125
639.48	66.833
639.81	68.767
640.13	66.927
640.46	65.235
640.79	66.711
641.12	65.887
641.45	69.134
641.77	71.281
642.10	69.591
642.43	68.619
642.76	70.588
643.09	71.166
643.41	67.678
643.74	72.840
644.07	69.512
644.40	68.865
644.73	71.811
645.05	69.414
645.38	69.036
645.71	70.853
646.04	70.764
646.36	75.292
646.69	72.910
647.02	71.429
647.35	74.227
647.67	74.690
648.00	70.407
648.33	69.637
648.66	67.727
648.98	68.216
649.31	69.507
649.64	67.564
649.96	68.405
650.29	69.352
650.62	69.741
650.94	68.395
651.27	71.284
651.60	69.551
651.92	69.010
652.25	69.870
652.58	69.470
652.90	69.984
653.23	67.951
653.56	69.921
653.88	69.097
654.21	70.300
654.54	71.782
654.86	67.445
655.19	67.027
655.52	49.313
655.84	44.500
656.17	55.855
656.49	75.409
656.82	77.814
657.15	59.473
657.47	44.866
657.80	35.355
658.13	37.443
658.45	57.276
658.78	58.972
659.10	62.447
659.43	66.474
659.75	69.540
660.08	76.329
660.41	79.050
660.73	77.891
661.06	77.548
661.38	77.636
661.71	76.154
662.03	75.148
662.36	73.161
662.68	72.691
663.01	71.313
663.33	75.159
663.66	76.471
663.98	77.754
664.31	74.160
664.63	70.040
664.96	70.624
665.28	74.180
665.61	70.565
665.93	72.636
666.26	72.008
666.58	76.360
666.91	78.436
667.23	74.607
667.56	74.082
667.88	76.923
668.21	73.987
668.53	77.007
668.86	77.056
669.18	75.906
669.50	73.913
669.83	74.510
670.15	76.222
670.48	75.163
670.80	75.431
671.13	75.584
671.45	72.766
671.77	72.301
672.10	72.458
672.42	67.845
672.75	68.988
673.07	71.655
673.39	71.429
673.72	73.047
674.04	73.725
674.37	72.427
674.69	74.029
675.01	75.314
675.34	73.922
675.66	73.684
675.98	71.690
676.31	73.529
676.63	73.461
676.95	73.166
677.28	77.103
677.60	74.066
677.92	78.059
678.25	73.306
678.57	73.705
678.89	73.747
679.22	71.316
679.54	70.038
679.86	72.110
680.18	70.841
680.51	70.035
680.83	69.039
681.15	73.962
681.48	74.291
681.80	73.114
682.12	73.563
682.44	70.019
682.77	73.931
683.09	75.966
683.41	76.718
683.73	75.055
684.06	74.380
684.38	69.667
684.70	72.674
685.02	71.482
685.34	71.978
685.67	67.483
685.99	66.495
686.31	66.212
686.63	68.551
686.96	67.321
687.28	67.509
687.60	66.848
687.92	71.664
688.24	68.441
688.56	73.695
688.89	73.651
689.21	74.891
689.53	67.850
689.85	74.945
690.17	70.393
690.49	72.611
690.82	78.972
691.14	72.321
691.46	70.042
691.78	70.884
692.10	74.793
692.42	70.259
692.74	70.332
693.06	74.681
693.39	74.538
693.71	73.144
694.03	72.211
694.35	72.078
694.67	76.201
694.99	75.122
695.31	73.529
695.63	71.531
695.95	75.550
696.27	77.411
696.59	76.684
696.91	77.720
697.23	69.014
697.56	71.215
697.88	66.871
698.20	70.000
698.52	72.473
698.84	73.051
699.16	71.659
699.48	71.496
699.80	74.879
700.12	81.299
700.44	77.719
700.76	74.309
701.08	77.586
701.40	74.860
701.72	78.717
702.04	81.250
702.36	77.054
702.68	78.754
703.00	75.623
703.32	71.809
703.64	73.190
703.96	74.373
704.28	79.360
704.60	79.765
704.91	75.371
705.23	76.833
705.55	83.389
705.87	84.053
706.19	82.332
706.51	73.832
706.83	79.394
707.15	71.989
707.47	71.970
707.79	74.939
708.11	69.406
708.43	71.667
708.74	68.622
709.06	71.429
709.38	71.129
709.70	75.872
710.02	81.009
710.34	72.424
710.66	78.806
710.98	75.852
711.29	72.674
711.61	75.811
711.93	76.282
712.25	78.457
712.57	85.662
712.89	80.969
713.20	72.644
713.52	78.289
713.84	74.051
714.16	71.037
714.48	70.977
714.80	79.027
715.11	75.216
715.43	73.591
715.75	75.362
716.07	76.038
716.39	75.862
716.70	80.731
717.02	81.295
717.34	82.332
717.66	82.836
717.97	83.267
718.29	76.296
718.61	79.197
718.93	79.779
719.24	79.585
719.56	74.915
719.88	73.559
720.20	81.419
720.51	81.882
720.83	81.413
721.15	77.612
721.46	76.596
721.78	81.004
722.10	86.038
722.42	81.579
722.73	78.277
723.05	84.836
723.37	81.781
723.68	84.170
724.00	76.829
724.32	83.065
724.63	85.366
724.95	83.682
725.27	89.069
725.58	82.031
725.90	78.102
726.22	75.849
726.53	74.306
726.85	73.720
727.16	78.292
727.48	75.887
727.80	77.652
728.11	76.812
728.43	78.077
728.74	74.910
729.06	81.387
729.38	76.838
729.69	78.648
730.01	70.648
730.32	77.083
730.64	73.579
730.96	68.647
731.27	79.801
731.59	73.394
731.90	68.513
732.22	73.292
732.53	71.207
732.85	71.474
733.16	72.669
733.48	77.076
733.80	75.000
734.11	72.611
734.43	70.710
734.74	70.000
735.06	67.908
735.37	73.988
735.69	71.019
736.00	76.797
736.32	71.028
736.63	72.843
736.95	75.399
737.26	69.048
737.58	70.000
737.89	74.247
738.21	74.744
738.52	76.071
738.83	71.698
739.15	71.154
739.46	72.263
739.78	73.958
740.09	73.846
740.41	71.613
740.72	74.216
741.04	72.593
741.35	77.917
741.66	81.333
741.98	84.434
742.29	87.560
742.61	83.190
742.92	80.995
743.23	78.632
743.55	78.400
743.86	77.632
744.18	85.398
744.49	82.297
744.80	84.038
745.12	84.545
745.43	75.330
745.74	81.532
746.06	85.780
746.37	81.166
746.68	76.923
747.00	79.630
747.31	86.190
747.62	78.319
747.94	83.700
748.25	79.574
748.56	81.938
748.88	79.208
749.19	89.000
749.50	82.326
749.82	76.829
750.13	75.102
750.44	74.453
750.75	77.544
751.07	74.598
751.38	78.049
751.69	73.285
752.01	77.444
752.32	70.397
752.63	77.305
752.94	77.869
753.26	78.800
753.57	76.016
753.88	78.125
754.19	71.786
754.51	75.347
754.82	68.953
755.13	72.830
755.44	78.571
755.75	73.723
756.07	72.340
756.38	71.533
756.69	72.148
757.00	67.665
757.31	63.501
757.63	67.251
757.94	67.292
758.25	60.294
758.56	63.704
758.87	61.559
759.18	70.000
759.50	69.279
759.81	68.847
760.12	68.437
760.43	67.622
760.74	67.120
761.05	70.339
761.36	66.310
761.67	68.750
761.99	72.360
762.30	74.306
762.61	76.336
762.92	76.172
763.23	80.672
763.54	80.400
763.85	69.922
764.16	78.077
764.47	71.863
764.78	66.078
765.10	63.924
765.41	69.322
765.72	70.060
766.03	65.831
766.34	69.000
766.65	82.128
766.96	72.650
767.27	87.310
767.58	79.167
767.89	79.474
768.20	82.184
768.51	80.203
768.82	77.523
769.13	66.667
769.44	72.874
769.75	76.824
770.06	71.560
770.37	78.281
770.68	80.556
770.99	75.111
771.30	66.803
771.61	81.614
771.92	77.869
772.23	80.252
772.54	83.590
772.85	83.246
773.16	76.596
773.47	89.130
773.78	80.711
774.09	81.548
774.39	81.871
774.70	85.802
775.01	97.101
775.32	84.314
775.63	86.842
775.94	86.331
776.25	108.661
776.56	93.284
776.87	95.902
777.18	94.531
777.48	95.420
777.79	95.455
778.10	88.148
778.41	102.679
778.72	83.942
779.03	91.275
779.34	86.577
779.65	82.432
779.95	82.822
780.26	88.235
780.57	84.138
780.88	104.688
781.19	90.226
781.50	92.568
781.80	89.937
782.11	80.791
782.42	84.810
782.73	82.822
783.04	87.162
783.34	92.958
783.65	92.466
783.96	95.522
784.27	85.315
784.57	90.647
784.88	94.444
785.19	96.032
785.50	106.604
785.81	91.045
786.11	97.541
786.42	92.248
786.73	100.000
787.04	107.547
787.34	96.429
787.65	112.000
787.96	90.991
788.26	91.736
788.57	108.475
788.88	96.694
789.19	88.889
789.49	97.727
789.80	92.366
790.11	114.286
790.41	106.931
790.72	100.000
791.03	109.783
791.33	124.419
791.64	107.216
791.95	103.960
792.25	112.222
792.56	119.481
792.87	130.769
793.17	124.051
793.48	129.885
793.79	103.448
794.09	112.500
794.40	96.639
794.70	93.382
795.01	83.704
795.32	82.734
795.62	88.976
795.93	99.138
796.23	98.230
796.54	120.000
796.85	121.622
797.15	128.169
797.46	121.212
797.76	119.277
798.07	117.722
798.37	123.077
798.68	122.727
798.99	107.042
799.29	119.481
799.60	107.955
799.90	141.096
800.21	134.328
800.51	144.828
800.82	147.368
801.12	131.148
801.43	143.939
801.73	112.162
802.04	141.270
802.34	111.111
802.65	129.688
802.95	144.068
803.26	142.188
803.56	114.286
803.87	126.154
804.17	122.059
804.48	157.407
804.78	143.103
805.09	125.000
805.39	134.615
805.70	141.071
806.00	127.869
806.30	134.848
806.61	108.537
806.91	112.658
807.22	111.842
807.52	108.955
807.83	136.620
808.13	132.812
808.43	136.667
808.74	109.211
809.04	118.841
809.35	132.836
809.65	98.684
809.95	133.871
810.26	125.424
810.56	141.270
810.86	172.727
811.17	178.571
811.47	131.667
811.77	135.185
812.08	140.000
812.38	146.000
812.69	180.556
812.99	163.636
813.29	163.265
813.59	154.762
813.90	165.306
814.20	140.000
814.50	112.308
814.81	129.412
815.11	173.469
815.41	131.148
815.72	173.810
816.02	160.000
816.32	164.286
816.62	182.500
816.93	163.415
817.23	192.857
817.53	163.636
817.84	218.182
818.14	165.217
818.44	162.222
818.74	197.059
819.04	175.000
819.35	191.429
819.65	185.294
819.95	232.143
820.25	245.000
820.56	197.436
820.86	163.636
821.16	181.395
821.46	184.615
821.76	166.000
822.07	225.714
822.37	190.000
822.67	181.818
822.97	131.373
823.27	250.000
823.57	159.459
823.88	187.500
824.18	230.000
824.48	192.857
824.78	276.000
825.08	287.500
825.38	197.297
825.69	151.220
825.99	279.167
826.29	186.207
826.59	202.632
826.89	176.316
827.19	197.059
827.49	245.161
827.79	175.000
828.09	181.818
828.39	144.681
828.70	171.429
829.00	188.889
829.30	196.774
829.60	180.000
829.90	420.000
830.20	203.571
830.50	247.826
830.80	278.261
831.10	220.000
831.40	233.333
831.70	234.783
832.00	269.231
832.30	225.926
832.60	375.000
832.90	216.667
833.20	464.286
833.50	219.355
833.80	210.345
834.10	218.750
834.40	273.077
834.70	344.444
835.00	328.571
835.30	217.143
835.60	453.846
835.90	234.483
836.20	457.143
836.50	213.793
836.80	228.000
837.10	194.444
837.40	295.238
837.70	335.294
838.00	225.926
838.30	290.476
838.60	304.762
838.90	246.154
839.19	345.000
839.49	428.571
839.79	355.000
840.09	300.000
840.39	271.429
840.69	269.565
840.99	283.333
841.29	580.000
841.59	333.333
841.88	375.000
842.18	196.552
842.48	285.714
842.78	203.333
843.08	269.565
843.38	187.500
843.68	916.667
843.97	238.462
844.27	203.448
844.57	314.286
844.87	412.500
845.17	237.037
845.47	1666.667
845.76	555.556
846.06	311.765
846.36	600.000
846.66	428.571
846.96	306.250
847.25	554.545
847.55	400.000
847.85	260.870
848.15	520.000
848.44	342.857
848.74	233.333
849.04	329.412
849.34	660.000
849.63	268.421
849.93	445.455
850.23	1080.000
850.53	485.714
850.82	2650.000
851.12	-4800.000
851.42	4300.000
851.71	325.000
852.01	-1233.333
852.31	262.500
852.61	2033.333
852.90	309.524
853.20	264.000
853.50	352.941
853.79	261.905
854.09	279.167
854.39	356.250
854.68	189.189
854.98	219.355
855.28	213.333
855.57	244.828
855.87	266.667
856.17	263.158
856.46	326.667
856.76	347.059
857.05	186.207
857.35	266.667
857.65	406.667
857.94	252.174
858.24	242.308
858.53	340.000
858.83	259.091
859.13	380.000
859.42	0.000
859.72	577.778
860.01	472.727
860.31	250.000
860.60	310.526
860.90	265.217
861.20	611.111
861.49	525.000
861.79	-4600.000
862.08	675.000
862.38	304.762
862.67	376.923
862.97	388.235
863.26	600.000
863.56	322.222
863.85	450.000
864.15	600.000
864.44	440.000
864.74	883.333
865.03	725.000
865.33	305.263
865.62	481.818
865.92	407.692
866.21	425.000
866.51	0.000
866.80	454.545
867.10	1200.000
867.39	446.154
867.69	490.909
867.98	273.684
868.27	527.273
868.57	310.526
868.86	-5000.000
869.16	368.750
869.45	2400.000
869.75	-3800.000
870.04	450.000
870.33	728.571
870.63	1275.000
870.92	2300.000
871.22	785.714
871.51	411.765
871.80	252.381
872.10	378.571
>>>>>End Processed Spectral Data<<<<<
