SpectraSuite Data File
++++++++++++++++++++++++++++++++++++
Date: Wed May 13 16:55:50 PDT 2015
User: schluterlab
Dark Spectrum Present: Yes
Reference Spectrum Present: Yes
Number of Sampled Component Spectra: 1
Spectrometers: USB2E3373
Integration Time (usec): 3000 (USB2E3373)
Spectra Averaged: 3 (USB2E3373)
Boxcar Smoothing: 0 (USB2E3373)
Correct for Electrical Dark: No (USB2E3373)
Strobe/Lamp Enabled: No (USB2E3373)
Correct for Detector Non-linearity: No (USB2E3373)
Correct for Stray Light: No (USB2E3373)
Number of Pixels in Processed Spectrum: 2048
>>>>>Begin Processed Spectral Data<<<<<
178.53	0.000
178.91	-1325.000
179.29	-1175.000
179.67	-283.333
180.04	-1275.000
180.42	2450.000
180.80	1040.000
181.18	-1075.000
181.56	671.429
181.94	0.000
182.31	-585.714
182.69	1833.333
183.07	-725.000
183.45	-555.556
183.83	609.091
184.20	-380.000
184.58	2350.000
184.96	4800.000
185.34	-960.000
185.72	-625.000
186.09	-2700.000
186.47	3000.000
186.85	2650.000
187.23	5000.000
187.61	-1766.667
187.98	1325.000
188.36	481.818
188.74	500.000
189.12	-920.000
189.49	590.000
189.87	-5700.000
190.25	-1300.000
190.63	442.857
191.00	446.154
191.38	1033.333
191.76	-1275.000
192.14	1575.000
192.51	712.500
192.89	1050.000
193.27	650.000
193.65	-1225.000
194.02	560.000
194.40	900.000
194.78	620.000
195.15	541.667
195.53	600.000
195.91	-1900.000
196.29	375.000
196.66	331.579
197.04	-380.000
197.42	0.000
197.79	620.000
198.17	-5200.000
198.55	771.429
198.92	650.000
199.30	860.000
199.68	0.000
200.05	361.111
200.43	700.000
200.81	4400.000
201.18	1466.667
201.56	-1433.333
201.94	533.333
202.31	622.222
202.69	433.333
203.07	590.000
203.44	0.000
203.82	1150.000
204.19	800.000
204.57	400.000
204.95	575.000
205.32	1566.667
205.70	500.000
206.08	421.429
206.45	2400.000
206.83	331.250
207.20	1000.000
207.58	920.000
207.96	372.222
208.33	800.000
208.71	-866.667
209.08	828.571
209.46	655.556
209.84	490.909
210.21	-1500.000
210.59	1500.000
210.96	-600.000
211.34	2600.000
211.71	580.000
212.09	866.667
212.46	0.000
212.84	1766.667
213.22	1325.000
213.59	-4300.000
213.97	833.333
214.34	700.000
214.72	600.000
215.09	1020.000
215.47	-2500.000
215.84	-2950.000
216.22	1466.667
216.59	357.143
216.97	1125.000
217.34	563.636
217.72	-716.667
218.09	0.000
218.47	-5700.000
218.84	611.111
219.22	842.857
219.59	1633.333
219.97	-557.143
220.34	1060.000
220.72	-1700.000
221.09	450.000
221.47	1275.000
221.84	-1100.000
222.22	0.000
222.59	1325.000
222.97	-2750.000
223.34	1000.000
223.72	446.154
224.09	1000.000
224.46	2200.000
224.84	-4700.000
225.21	-1180.000
225.59	-5000.000
225.96	630.000
226.34	300.000
226.71	3000.000
227.08	650.000
227.46	650.000
227.83	-1125.000
228.21	-2350.000
228.58	677.778
228.95	-2450.000
229.33	-2000.000
229.70	2066.667
230.08	800.000
230.45	-780.000
230.82	500.000
231.20	850.000
231.57	642.857
231.95	483.333
232.32	259.091
232.69	409.091
233.07	714.286
233.44	330.769
233.81	-1933.333
234.19	305.263
234.56	483.333
234.93	500.000
235.31	500.000
235.68	423.077
236.05	392.857
236.43	157.576
236.80	326.316
237.17	5600.000
237.55	309.524
237.92	228.571
238.29	285.714
238.67	190.323
239.04	241.379
239.41	166.667
239.79	163.043
240.16	159.524
240.53	145.455
240.91	131.373
241.28	132.000
241.65	142.000
242.02	114.493
242.40	111.290
242.77	120.000
243.14	98.925
243.51	110.112
243.89	101.176
244.26	104.444
244.63	84.946
245.00	88.298
245.38	92.079
245.75	77.570
246.12	86.239
246.49	84.672
246.87	85.600
247.24	76.923
247.61	86.429
247.98	71.242
248.36	63.514
248.73	70.064
249.10	76.433
249.47	71.186
249.84	66.310
250.22	66.310
250.59	69.231
250.96	65.152
251.33	61.137
251.70	66.832
252.08	66.190
252.45	61.435
252.82	59.565
253.19	59.574
253.56	57.255
253.94	59.336
254.31	55.469
254.68	57.308
255.05	57.565
255.42	58.537
255.79	58.088
256.16	55.235
256.54	51.237
256.91	58.363
257.28	51.439
257.65	54.455
258.02	54.348
258.39	47.950
258.76	51.505
259.14	49.405
259.51	53.495
259.88	51.553
260.25	56.495
260.62	48.266
260.99	54.348
261.36	54.354
261.73	55.014
262.10	51.744
262.47	52.113
262.85	48.747
263.22	49.573
263.59	52.707
263.96	47.527
264.33	49.869
264.70	49.211
265.07	47.570
265.44	49.495
265.81	46.472
266.18	47.236
266.55	49.024
266.92	49.140
267.29	48.843
267.66	48.394
268.03	46.591
268.40	47.196
268.77	45.107
269.14	47.072
269.51	47.630
269.88	50.117
270.25	48.307
270.62	47.191
270.99	47.957
271.36	45.279
271.73	46.262
272.10	48.043
272.47	47.527
272.84	46.320
273.21	47.379
273.58	45.415
273.95	45.493
274.32	41.736
274.69	47.109
275.06	45.669
275.43	46.170
275.80	44.289
276.17	47.862
276.54	44.699
276.91	45.059
277.28	44.141
277.65	44.294
278.02	46.170
278.39	47.266
278.76	42.182
279.13	40.566
279.50	43.762
279.87	45.020
280.23	44.311
280.60	43.133
280.97	43.623
281.34	43.363
281.71	44.000
282.08	45.106
282.45	42.000
282.82	41.563
283.19	41.355
283.56	43.333
283.92	42.132
284.29	41.975
284.66	43.013
285.03	42.857
285.40	41.021
285.77	40.404
286.14	40.587
286.51	43.000
286.87	39.829
287.24	43.485
287.61	41.573
287.98	40.584
288.35	40.412
288.72	38.941
289.08	39.906
289.45	41.021
289.82	39.350
290.19	36.578
290.56	36.907
290.93	37.462
291.29	36.043
291.66	36.431
292.03	38.372
292.40	38.326
292.77	35.207
293.13	36.418
293.50	37.318
293.87	36.741
294.24	35.111
294.60	35.226
294.97	36.483
295.34	36.248
295.71	35.937
296.08	36.182
296.44	34.388
296.81	32.629
297.18	35.501
297.55	33.113
297.91	33.773
298.28	35.207
298.65	33.029
299.02	33.597
299.38	32.537
299.75	30.458
300.12	31.290
300.48	31.000
300.85	31.813
301.22	32.866
301.59	33.586
301.95	32.872
302.32	32.221
302.69	30.346
303.05	31.636
303.42	31.358
303.79	31.937
304.15	31.002
304.52	30.012
304.89	31.475
305.25	30.278
305.62	30.238
305.99	31.169
306.35	31.655
306.72	31.278
307.09	30.189
307.45	31.194
307.82	28.348
308.19	29.801
308.55	28.803
308.92	29.968
309.29	30.095
309.65	28.950
310.02	29.070
310.38	29.140
310.75	30.940
311.12	29.785
311.48	30.199
311.85	30.294
312.22	30.489
312.58	29.210
312.95	30.412
313.31	29.320
313.68	31.081
314.05	31.558
314.41	30.352
314.78	30.614
315.14	28.997
315.51	31.514
315.87	30.693
316.24	30.288
316.61	29.727
316.97	29.061
317.34	27.691
317.70	30.784
318.07	31.088
318.43	30.333
318.80	32.615
319.16	30.226
319.53	29.456
319.89	30.286
320.26	31.300
320.62	31.151
320.99	30.202
321.35	30.000
321.72	31.622
322.08	30.602
322.45	32.338
322.81	31.686
323.18	32.177
323.54	31.354
323.91	31.415
324.27	30.115
324.64	32.153
325.00	32.462
325.37	32.211
325.73	31.957
326.10	32.039
326.46	29.928
326.83	31.752
327.19	32.622
327.56	32.404
327.92	32.896
328.29	32.121
328.65	31.952
329.01	32.401
329.38	33.117
329.74	32.872
330.11	32.139
330.47	33.150
330.84	33.180
331.20	31.056
331.56	33.486
331.93	32.315
332.29	33.008
332.66	32.920
333.02	32.633
333.38	33.153
333.75	30.927
334.11	31.584
334.48	31.500
334.84	31.434
335.20	33.182
335.57	32.638
335.93	31.964
336.29	32.509
336.66	32.191
337.02	31.674
337.38	32.315
337.75	31.105
338.11	32.229
338.47	33.057
338.84	32.356
339.20	31.835
339.56	34.033
339.93	32.091
340.29	31.703
340.65	31.640
341.02	32.548
341.38	31.495
341.74	32.193
342.11	31.965
342.47	32.863
342.83	32.449
343.20	32.208
343.56	30.750
343.92	32.105
344.28	32.313
344.65	33.104
345.01	31.061
345.37	32.247
345.73	31.049
346.10	31.884
346.46	33.559
346.82	30.890
347.19	31.913
347.55	31.938
347.91	31.068
348.27	32.868
348.63	31.355
349.00	32.201
349.36	32.102
349.72	31.997
350.08	31.280
350.45	31.652
350.81	31.275
351.17	32.010
351.53	32.269
351.89	31.931
352.26	32.360
352.62	32.719
352.98	31.767
353.34	32.621
353.70	32.406
354.07	32.984
354.43	31.032
354.79	31.295
355.15	31.285
355.51	32.374
355.87	32.000
356.24	32.410
356.60	31.596
356.96	31.617
357.32	32.625
357.68	32.126
358.04	32.225
358.40	33.175
358.77	31.690
359.13	31.965
359.49	31.137
359.85	30.873
360.21	32.057
360.57	31.907
360.93	31.462
361.29	31.444
361.66	31.734
362.02	32.612
362.38	33.384
362.74	32.143
363.10	30.866
363.46	31.915
363.82	32.880
364.18	33.260
364.54	34.027
364.90	32.720
365.26	32.059
365.62	33.455
365.98	32.140
366.35	32.092
366.71	32.538
367.07	32.775
367.43	33.164
367.79	32.976
368.15	33.693
368.51	31.831
368.87	32.120
369.23	33.577
369.59	33.382
369.95	32.941
370.31	33.476
370.67	32.899
371.03	33.408
371.39	33.673
371.75	33.162
372.11	33.855
372.47	34.531
372.83	35.159
373.19	33.887
373.55	33.629
373.91	35.567
374.27	34.296
374.63	34.691
374.99	34.958
375.35	34.613
375.71	35.984
376.07	35.528
376.42	34.801
376.78	35.056
377.14	35.278
377.50	36.225
377.86	35.173
378.22	35.145
378.58	35.088
378.94	35.952
379.30	35.242
379.66	36.675
380.02	36.548
380.38	35.337
380.74	36.495
381.09	36.919
381.45	36.570
381.81	37.715
382.17	37.707
382.53	36.792
382.89	37.531
383.25	36.898
383.61	38.104
383.97	37.461
384.32	37.555
384.68	37.794
385.04	36.939
385.40	38.204
385.76	38.514
386.12	38.148
386.48	39.522
386.83	38.999
387.19	39.889
387.55	38.776
387.91	37.908
388.27	39.730
388.62	39.951
388.98	38.943
389.34	39.987
389.70	40.343
390.06	39.987
390.42	39.689
390.77	39.885
391.13	40.651
391.49	39.594
391.85	40.611
392.20	40.126
392.56	41.540
392.92	41.377
393.28	40.533
393.64	39.988
393.99	40.195
394.35	41.067
394.71	40.652
395.07	41.433
395.42	41.409
395.78	41.539
396.14	41.092
396.50	42.857
396.85	42.149
397.21	40.999
397.57	41.352
397.92	41.767
398.28	39.798
398.64	42.115
399.00	42.026
399.35	41.286
399.71	41.319
400.07	41.632
400.42	41.902
400.78	43.064
401.14	41.646
401.49	41.672
401.85	42.529
402.21	41.916
402.57	41.826
402.92	43.001
403.28	43.660
403.63	42.203
403.99	44.076
404.35	41.576
404.70	41.906
405.06	42.400
405.42	42.795
405.77	42.171
406.13	42.551
406.49	42.815
406.84	41.465
407.20	41.962
407.55	44.352
407.91	42.733
408.27	43.395
408.62	42.866
408.98	43.015
409.34	42.620
409.69	43.226
410.05	44.114
410.40	43.364
410.76	43.011
411.11	42.521
411.47	42.428
411.83	43.983
412.18	42.795
412.54	43.711
412.89	44.036
413.25	42.798
413.60	44.040
413.96	43.473
414.31	42.892
414.67	43.346
415.03	43.179
415.38	43.943
415.74	43.987
416.09	43.762
416.45	43.440
416.80	43.622
417.16	44.236
417.51	44.924
417.87	43.353
418.22	44.290
418.58	43.899
418.93	42.875
419.29	42.966
419.64	44.962
420.00	42.744
420.35	43.768
420.71	43.515
421.06	43.735
421.42	43.860
421.77	44.283
422.12	43.346
422.48	42.580
422.83	42.924
423.19	42.983
423.54	43.877
423.90	44.058
424.25	43.607
424.61	43.750
424.96	43.207
425.31	43.632
425.67	42.978
426.02	43.143
426.38	44.261
426.73	44.061
427.09	43.830
427.44	43.416
427.79	42.956
428.15	44.405
428.50	43.651
428.85	43.921
429.21	42.408
429.56	42.665
429.92	42.275
430.27	43.396
430.62	42.192
430.98	43.383
431.33	42.371
431.68	43.037
432.04	42.545
432.39	43.518
432.74	42.908
433.10	44.029
433.45	43.732
433.80	43.182
434.16	43.056
434.51	42.474
434.86	43.158
435.22	43.747
435.57	43.343
435.92	43.417
436.28	43.832
436.63	42.770
436.98	42.416
437.34	43.530
437.69	44.341
438.04	43.508
438.39	44.537
438.75	44.102
439.10	43.352
439.45	44.215
439.81	43.746
440.16	42.688
440.51	43.409
440.86	43.833
441.22	43.437
441.57	43.684
441.92	43.142
442.27	43.380
442.63	41.917
442.98	44.338
443.33	43.587
443.68	41.972
444.03	42.411
444.39	42.162
444.74	43.561
445.09	43.127
445.44	43.412
445.79	42.751
446.15	43.303
446.50	42.973
446.85	42.497
447.20	41.713
447.55	43.998
447.91	42.140
448.26	43.628
448.61	42.793
448.96	43.134
449.31	44.488
449.66	42.656
450.02	42.228
450.37	41.553
450.72	43.711
451.07	43.205
451.42	42.371
451.77	42.924
452.12	42.436
452.47	43.470
452.83	43.240
453.18	42.359
453.53	43.723
453.88	41.701
454.23	42.379
454.58	43.004
454.93	45.137
455.28	43.204
455.63	44.114
455.98	44.286
456.34	42.337
456.69	43.331
457.04	42.353
457.39	41.788
457.74	41.555
458.09	42.956
458.44	42.018
458.79	41.323
459.14	41.930
459.49	41.565
459.84	42.770
460.19	41.839
460.54	41.204
460.89	42.732
461.24	42.987
461.59	43.056
461.94	41.985
462.29	41.958
462.64	42.757
462.99	42.225
463.34	42.867
463.69	42.964
464.04	42.261
464.39	42.667
464.74	43.137
465.09	42.642
465.44	41.385
465.79	40.716
466.14	40.668
466.49	40.823
466.84	42.207
467.19	42.064
467.54	42.938
467.89	41.116
468.24	41.652
468.59	42.613
468.94	41.478
469.29	42.674
469.64	42.838
469.99	43.843
470.34	41.149
470.68	43.463
471.03	42.585
471.38	42.946
471.73	41.905
472.08	42.303
472.43	42.714
472.78	43.515
473.13	41.913
473.48	42.447
473.83	41.341
474.17	42.502
474.52	42.370
474.87	41.915
475.22	43.122
475.57	41.107
475.92	41.052
476.27	40.643
476.61	40.706
476.96	40.792
477.31	41.444
477.66	42.560
478.01	40.460
478.36	41.565
478.70	41.173
479.05	41.214
479.40	41.760
479.75	40.722
480.10	41.103
480.45	40.219
480.79	39.990
481.14	40.753
481.49	41.291
481.84	40.969
482.19	40.164
482.53	40.138
482.88	40.577
483.23	40.935
483.58	40.810
483.92	41.284
484.27	39.521
484.62	40.517
484.97	40.205
485.31	41.644
485.66	40.339
486.01	38.817
486.36	36.916
486.70	35.505
487.05	36.401
487.40	37.462
487.75	37.979
488.09	38.763
488.44	38.859
488.79	39.819
489.13	40.183
489.48	40.334
489.83	39.836
490.17	39.895
490.52	40.478
490.87	40.344
491.22	39.745
491.56	39.271
491.91	40.484
492.26	40.101
492.60	39.677
492.95	39.476
493.30	39.813
493.64	40.364
493.99	39.415
494.34	40.148
494.68	40.430
495.03	40.320
495.37	40.298
495.72	40.253
496.07	40.835
496.41	39.558
496.76	39.622
497.11	39.307
497.45	40.429
497.80	39.060
498.14	40.000
498.49	40.390
498.84	39.933
499.18	40.143
499.53	39.886
499.87	39.935
500.22	39.567
500.56	40.243
500.91	39.471
501.26	40.019
501.60	40.626
501.95	38.680
502.29	39.410
502.64	40.270
502.98	39.972
503.33	39.854
503.67	40.742
504.02	39.804
504.36	39.167
504.71	39.961
505.06	39.759
505.40	40.982
505.75	37.994
506.09	39.116
506.44	40.553
506.78	39.552
507.13	39.879
507.47	39.899
507.82	41.185
508.16	39.615
508.51	40.842
508.85	40.020
509.19	40.918
509.54	39.694
509.88	40.031
510.23	40.206
510.57	41.847
510.92	40.445
511.26	40.442
511.61	40.405
511.95	39.770
512.30	39.661
512.64	40.516
512.98	40.247
513.33	40.257
513.67	39.541
514.02	39.556
514.36	40.852
514.70	41.450
515.05	39.487
515.39	40.494
515.74	40.991
516.08	41.252
516.42	40.844
516.77	41.304
517.11	41.898
517.46	41.309
517.80	41.870
518.14	40.649
518.49	41.832
518.83	41.875
519.17	40.878
519.52	42.105
519.86	40.730
520.20	41.676
520.55	42.490
520.89	41.849
521.23	43.185
521.58	41.056
521.92	41.212
522.26	41.001
522.61	42.430
522.95	41.682
523.29	41.753
523.64	42.622
523.98	42.699
524.32	42.642
524.66	42.273
525.01	41.973
525.35	42.007
525.69	40.825
526.04	42.305
526.38	42.160
526.72	40.613
527.06	42.373
527.41	41.770
527.75	42.637
528.09	42.518
528.43	41.810
528.78	42.286
529.12	41.636
529.46	42.009
529.80	42.574
530.15	42.056
530.49	41.600
530.83	41.203
531.17	43.995
531.51	43.580
531.86	42.903
532.20	41.851
532.54	42.537
532.88	42.234
533.22	42.036
533.57	41.543
533.91	41.180
534.25	42.041
534.59	42.160
534.93	42.475
535.27	42.245
535.62	41.880
535.96	41.808
536.30	41.577
536.64	40.567
536.98	42.668
537.32	41.540
537.66	41.600
538.01	41.870
538.35	42.211
538.69	42.374
539.03	40.936
539.37	41.725
539.71	41.154
540.05	42.157
540.39	42.392
540.73	42.303
541.07	41.856
541.42	43.444
541.76	42.065
542.10	42.109
542.44	41.987
542.78	42.424
543.12	40.371
543.46	41.836
543.80	42.030
544.14	41.335
544.48	41.524
544.82	41.373
545.16	42.290
545.50	40.231
545.84	42.540
546.18	41.549
546.52	42.808
546.86	42.818
547.20	41.875
547.54	41.750
547.88	42.411
548.22	41.968
548.56	42.264
548.90	40.909
549.24	42.828
549.58	42.292
549.92	41.964
550.26	42.614
550.60	43.223
550.94	41.620
551.28	41.624
551.62	42.703
551.96	41.263
552.30	43.003
552.64	42.191
552.98	42.712
553.32	41.403
553.66	41.990
554.00	42.759
554.34	41.546
554.68	43.062
555.02	42.595
555.36	41.614
555.69	41.881
556.03	41.925
556.37	43.315
556.71	41.883
557.05	41.457
557.39	41.707
557.73	42.202
558.07	42.350
558.41	42.836
558.75	41.734
559.08	43.475
559.42	42.933
559.76	43.235
560.10	42.256
560.44	42.837
560.78	41.450
561.12	42.150
561.45	42.503
561.79	41.134
562.13	42.052
562.47	42.896
562.81	42.329
563.15	42.140
563.48	41.777
563.82	41.944
564.16	41.530
564.50	41.862
564.84	41.530
565.17	43.629
565.51	42.748
565.85	41.878
566.19	40.952
566.52	42.559
566.86	41.471
567.20	42.453
567.54	41.610
567.88	40.141
568.21	41.746
568.55	40.546
568.89	41.051
569.23	40.152
569.56	39.636
569.90	39.774
570.24	38.967
570.57	39.034
570.91	38.268
571.25	38.511
571.59	38.439
571.92	38.134
572.26	38.764
572.60	38.829
572.93	38.741
573.27	38.953
573.61	38.219
573.95	37.804
574.28	37.839
574.62	37.804
574.96	37.419
575.29	37.488
575.63	38.211
575.97	37.907
576.30	38.263
576.64	38.236
576.98	38.260
577.31	38.355
577.65	37.937
577.98	37.535
578.32	36.517
578.66	37.736
578.99	37.206
579.33	37.521
579.67	36.998
580.00	37.857
580.34	38.253
580.67	38.029
581.01	38.678
581.35	38.188
581.68	38.032
582.02	37.380
582.35	37.215
582.69	37.862
583.02	37.351
583.36	37.768
583.70	38.337
584.03	38.506
584.37	39.025
584.70	38.924
585.04	38.136
585.37	38.886
585.71	39.074
586.04	37.255
586.38	38.427
586.72	39.022
587.05	37.897
587.39	37.678
587.72	38.547
588.06	37.914
588.39	38.409
588.73	38.692
589.06	39.732
589.40	38.754
589.73	39.423
590.07	39.822
590.40	39.167
590.73	40.632
591.07	40.537
591.40	40.321
591.74	39.827
592.07	40.140
592.41	40.678
592.74	39.850
593.08	39.340
593.41	39.133
593.75	37.664
594.08	38.988
594.41	38.848
594.75	39.445
595.08	38.690
595.42	40.140
595.75	39.530
596.09	39.917
596.42	39.804
596.75	39.595
597.09	40.303
597.42	39.713
597.75	40.621
598.09	39.957
598.42	39.948
598.76	40.251
599.09	39.035
599.42	39.265
599.76	39.531
600.09	38.361
600.42	38.787
600.76	38.786
601.09	39.308
601.42	39.878
601.76	40.152
602.09	39.407
602.42	40.326
602.76	40.226
603.09	40.047
603.42	39.750
603.76	39.139
604.09	39.046
604.42	39.910
604.76	40.363
605.09	39.275
605.42	39.333
605.75	39.652
606.09	39.366
606.42	40.948
606.75	39.527
607.09	39.766
607.42	40.608
607.75	40.464
608.08	39.123
608.42	40.430
608.75	39.630
609.08	39.917
609.41	39.838
609.75	41.020
610.08	40.716
610.41	40.549
610.74	40.870
611.07	41.798
611.41	40.775
611.74	40.825
612.07	40.528
612.40	40.976
612.73	41.263
613.07	41.649
613.40	41.390
613.73	40.115
614.06	41.183
614.39	40.535
614.72	40.316
615.06	41.807
615.39	40.658
615.72	40.133
616.05	40.670
616.38	40.967
616.71	41.033
617.05	41.932
617.38	42.694
617.71	42.282
618.04	41.887
618.37	41.573
618.70	42.564
619.03	43.026
619.36	42.498
619.69	42.746
620.03	43.544
620.36	41.845
620.69	42.397
621.02	42.847
621.35	43.305
621.68	42.212
622.01	43.344
622.34	43.343
622.67	43.650
623.00	42.773
623.33	41.887
623.66	43.388
623.99	43.004
624.32	42.083
624.65	41.879
624.99	41.218
625.32	43.157
625.65	43.351
625.98	44.274
626.31	43.546
626.64	44.653
626.97	44.555
627.30	44.888
627.63	45.201
627.96	44.659
628.29	44.707
628.62	46.112
628.95	46.981
629.28	45.529
629.61	46.838
629.94	45.143
630.26	46.139
630.59	44.709
630.92	45.307
631.25	45.706
631.58	45.145
631.91	45.943
632.24	45.253
632.57	46.485
632.90	47.478
633.23	47.427
633.56	48.249
633.89	46.772
634.22	46.879
634.55	50.651
634.88	45.868
635.20	49.104
635.53	46.988
635.86	48.515
636.19	48.000
636.52	45.444
636.85	45.704
637.18	45.161
637.51	47.991
637.83	46.116
638.16	48.849
638.49	47.985
638.82	48.925
639.15	48.000
639.48	49.377
639.81	49.196
640.13	48.828
640.46	50.470
640.79	49.141
641.12	47.455
641.45	47.905
641.77	50.221
642.10	48.977
642.43	49.399
642.76	48.607
643.09	48.160
643.41	50.228
643.74	50.000
644.07	49.848
644.40	50.767
644.73	51.654
645.05	51.189
645.38	50.711
645.71	51.691
646.04	50.997
646.36	53.589
646.69	51.505
647.02	52.041
647.35	51.203
647.67	51.858
648.00	51.057
648.33	50.825
648.66	47.727
648.98	49.775
649.31	49.327
649.64	49.028
649.96	49.776
650.29	51.659
650.62	47.249
650.94	51.540
651.27	51.858
651.60	51.082
651.92	49.361
652.25	49.023
652.58	47.975
652.90	49.921
653.23	48.074
653.56	48.819
653.88	50.079
654.21	52.765
654.54	49.340
654.86	50.935
655.19	47.027
655.52	35.864
655.84	33.230
656.17	43.534
656.49	58.328
656.82	58.836
657.15	44.115
657.47	32.621
657.80	25.371
658.13	26.428
658.45	39.799
658.78	39.644
659.10	40.856
659.43	43.601
659.75	46.226
660.08	48.797
660.41	53.724
660.73	53.875
661.06	54.618
661.38	53.455
661.71	52.885
662.03	56.410
662.36	51.292
662.68	53.213
663.01	52.525
663.33	52.442
663.66	56.513
663.98	54.860
664.31	53.151
664.63	52.227
664.96	50.704
665.28	54.098
665.61	49.708
665.93	51.107
666.26	51.724
666.58	54.812
666.91	51.797
667.23	54.831
667.56	53.564
667.88	52.564
668.21	55.650
668.53	52.278
668.86	53.680
669.18	56.503
669.50	52.609
669.83	54.466
670.15	55.778
670.48	50.980
670.80	54.741
671.13	54.777
671.45	52.340
671.77	53.157
672.10	50.832
672.42	50.530
672.75	49.751
673.07	50.528
673.39	51.537
673.72	51.562
674.04	50.980
674.37	53.398
674.69	53.579
675.01	54.393
675.34	54.825
675.66	54.737
675.98	53.360
676.31	51.261
676.63	52.866
676.95	52.830
677.28	54.907
677.60	54.286
677.92	54.641
678.25	50.924
678.57	50.398
678.89	51.102
679.22	50.491
679.54	53.817
679.86	50.459
680.18	50.089
680.51	50.355
680.83	50.534
681.15	52.830
681.48	51.229
681.80	53.772
682.12	51.724
682.44	49.710
682.77	51.935
683.09	57.940
683.41	53.215
683.73	53.422
684.06	54.959
684.38	53.425
684.70	50.581
685.02	54.034
685.34	51.465
685.67	50.524
685.99	52.234
686.31	49.829
686.63	49.293
686.96	50.000
687.28	50.000
687.60	49.819
687.92	49.177
688.24	51.901
688.56	53.614
688.89	52.075
689.21	53.275
689.53	53.653
689.85	52.550
690.17	51.139
690.49	52.866
690.82	54.439
691.14	50.670
691.46	51.477
691.78	48.996
692.10	53.099
692.42	52.096
692.74	50.415
693.06	53.404
693.39	51.540
693.71	51.310
694.03	53.684
694.35	51.299
694.67	49.886
694.99	54.634
695.31	54.412
695.63	53.349
695.95	53.301
696.27	52.284
696.59	54.922
696.91	56.736
697.23	50.939
697.56	51.812
697.88	49.898
698.20	51.042
698.52	51.398
698.84	50.334
699.16	51.613
699.48	52.257
699.80	53.623
700.12	58.701
700.44	58.355
700.76	56.077
701.08	56.897
701.40	56.983
701.72	56.268
702.04	60.795
702.36	54.674
702.68	55.241
703.00	56.233
703.32	55.053
703.64	56.032
703.96	55.989
704.28	60.756
704.60	59.824
704.91	56.973
705.23	57.771
705.55	60.797
705.87	65.781
706.19	59.717
706.51	54.206
706.83	58.788
707.15	54.902
707.47	52.778
707.79	52.580
708.11	53.881
708.43	48.810
708.74	52.806
709.06	54.805
709.38	54.068
709.70	58.430
710.02	60.534
710.34	56.667
710.66	58.806
710.98	57.955
711.29	55.814
711.61	57.227
711.93	56.090
712.25	58.842
712.57	64.338
712.89	60.554
713.20	57.143
713.52	55.263
713.84	55.696
714.16	55.183
714.48	54.023
714.80	58.359
715.11	52.738
715.43	57.270
715.75	54.203
716.07	58.786
716.39	57.680
716.70	56.478
717.02	62.590
717.34	61.837
717.66	60.075
717.97	61.355
718.29	62.222
718.61	59.854
718.93	60.294
719.24	62.284
719.56	60.000
719.88	56.949
720.20	58.446
720.51	60.976
720.83	63.941
721.15	59.328
721.46	59.220
721.78	60.932
722.10	64.906
722.42	63.158
722.73	58.427
723.05	59.836
723.37	60.729
723.68	61.776
724.00	64.228
724.32	61.694
724.63	60.569
724.95	58.996
725.27	58.300
725.58	63.281
725.90	61.314
726.22	58.868
726.53	58.681
726.85	61.092
727.16	58.363
727.48	62.766
727.80	55.303
728.11	59.058
728.43	60.769
728.74	60.932
729.06	63.139
729.38	63.235
729.69	62.989
730.01	58.020
730.32	57.986
730.64	54.181
730.96	53.135
731.27	59.603
731.59	54.434
731.90	51.603
732.22	55.280
732.53	54.180
732.85	56.410
733.16	55.305
733.48	58.140
733.80	52.597
734.11	51.911
734.43	53.254
734.74	52.857
735.06	51.003
735.37	56.069
735.69	52.229
736.00	60.131
736.32	54.829
736.63	56.230
736.95	56.869
737.26	54.422
737.58	52.903
737.89	53.846
738.21	57.338
738.52	56.429
738.83	56.981
739.15	59.231
739.46	57.664
739.78	60.417
740.09	57.231
740.41	55.161
740.72	54.007
741.04	57.778
741.35	62.083
741.66	67.556
741.98	60.849
742.29	68.421
742.61	61.207
742.92	61.991
743.23	62.821
743.55	61.600
743.86	60.965
744.18	65.487
744.49	67.943
744.80	68.545
745.12	64.091
745.43	62.115
745.74	59.459
746.06	63.761
746.37	65.022
746.68	61.991
747.00	66.667
747.31	65.714
747.62	58.407
747.94	62.555
748.25	59.149
748.56	64.758
748.88	59.901
749.19	67.500
749.50	67.907
749.82	57.317
750.13	60.000
750.44	59.124
750.75	57.895
751.07	60.129
751.38	60.279
751.69	58.484
752.01	60.150
752.32	58.845
752.63	58.511
752.94	61.885
753.26	60.800
753.57	58.130
753.88	58.984
754.19	57.857
754.51	60.417
754.82	53.791
755.13	60.000
755.44	57.143
755.75	55.474
756.07	57.447
756.38	52.920
756.69	53.020
757.00	50.599
757.31	52.819
757.63	54.678
757.94	53.083
758.25	49.755
758.56	49.383
758.87	48.925
759.18	50.606
759.50	53.292
759.81	52.960
760.12	52.187
760.43	55.014
760.74	51.087
761.05	54.802
761.36	52.139
761.67	58.523
761.99	53.727
762.30	55.903
762.61	57.634
762.92	62.109
763.23	58.403
763.54	62.400
763.85	55.078
764.16	64.231
764.47	58.175
764.78	54.064
765.10	49.684
765.41	53.982
765.72	55.689
766.03	54.859
766.34	52.667
766.65	63.830
766.96	58.974
767.27	62.437
767.58	59.375
767.89	70.526
768.20	72.989
768.51	65.990
768.82	60.092
769.13	57.724
769.44	60.729
769.75	59.657
770.06	56.422
770.37	62.443
770.68	62.500
770.99	57.778
771.30	56.557
771.61	63.229
771.92	60.656
772.23	63.866
772.54	64.103
772.85	66.492
773.16	65.426
773.47	70.652
773.78	67.005
774.09	64.881
774.39	72.515
774.70	66.667
775.01	78.986
775.32	63.399
775.63	67.763
775.94	79.137
776.25	86.614
776.56	76.119
776.87	76.230
777.18	87.500
777.48	90.840
777.79	72.727
778.10	80.000
778.41	92.857
778.72	69.343
779.03	65.101
779.34	83.893
779.65	72.973
779.95	66.258
780.26	71.242
780.57	75.862
780.88	79.687
781.19	81.955
781.50	75.000
781.80	79.874
782.11	67.797
782.42	72.785
782.73	68.712
783.04	80.405
783.34	75.352
783.65	78.767
783.96	78.358
784.27	69.930
784.57	68.345
784.88	67.593
785.19	76.190
785.50	95.283
785.81	81.343
786.11	84.426
786.42	75.194
786.73	83.186
787.04	91.509
787.34	78.571
787.65	97.000
787.96	83.784
788.26	79.339
788.57	85.593
788.88	80.165
789.19	75.694
789.49	84.091
789.80	68.702
790.11	105.714
790.41	94.059
790.72	103.614
791.03	93.478
791.33	104.651
791.64	87.629
791.95	98.020
792.25	96.667
792.56	98.701
792.87	114.103
793.17	118.987
793.48	108.046
793.79	94.253
794.09	104.545
794.40	74.790
794.70	81.618
795.01	74.074
795.32	70.504
795.62	73.228
795.93	81.897
796.23	73.451
796.54	74.118
796.85	91.892
797.15	114.085
797.46	104.545
797.76	97.590
798.07	102.532
798.37	109.231
798.68	115.152
798.99	105.634
799.29	102.597
799.60	90.909
799.90	95.890
800.21	122.388
800.51	113.793
800.82	129.825
801.12	113.115
801.43	124.242
801.73	118.919
802.04	122.222
802.34	101.235
802.65	117.187
802.95	125.424
803.26	129.688
803.56	112.857
803.87	101.538
804.17	119.118
804.48	144.444
804.78	112.069
805.09	110.294
805.39	136.538
805.70	133.929
806.00	132.787
806.30	121.212
806.61	100.000
806.91	87.342
807.22	106.579
807.52	131.343
807.83	108.451
808.13	125.000
808.43	121.667
808.74	85.526
809.04	121.739
809.35	137.313
809.65	97.368
809.95	133.871
810.26	91.525
810.56	104.762
810.86	175.000
811.17	166.667
811.47	116.667
811.77	122.222
812.08	145.455
812.38	142.000
812.69	191.667
812.99	154.545
813.29	142.857
813.59	116.667
813.90	144.898
814.20	134.545
814.50	116.923
814.81	125.000
815.11	146.939
815.41	122.951
815.72	157.143
816.02	149.091
816.32	166.667
816.62	155.000
816.93	143.902
817.23	135.714
817.53	150.000
817.84	203.030
818.14	169.565
818.44	148.889
818.74	185.294
819.04	170.000
819.35	197.143
819.65	208.824
819.95	221.429
820.25	240.000
820.56	166.667
820.86	154.545
821.16	179.070
821.46	151.282
821.76	158.000
822.07	194.286
822.37	182.500
822.67	206.061
822.97	123.529
823.27	232.143
823.57	170.270
823.88	182.500
824.18	220.000
824.48	183.333
824.78	264.000
825.08	245.833
825.38	183.784
825.69	136.585
825.99	270.833
826.29	227.586
826.59	163.158
826.89	181.579
827.19	197.059
827.49	200.000
827.79	165.909
828.09	172.727
828.39	127.660
828.70	142.857
829.00	211.111
829.30	193.548
829.60	165.000
829.90	326.667
830.20	196.429
830.50	217.391
830.80	230.435
831.10	216.667
831.40	223.333
831.70	200.000
832.00	261.538
832.30	251.852
832.60	381.250
832.90	216.667
833.20	364.286
833.50	206.452
833.80	217.241
834.10	225.000
834.40	250.000
834.70	344.444
835.00	290.476
835.30	177.143
835.60	430.769
835.90	244.828
836.20	364.286
836.50	255.172
836.80	200.000
837.10	208.333
837.40	290.476
837.70	400.000
838.00	222.222
838.30	247.619
838.60	285.714
838.90	273.077
839.19	275.000
839.49	392.857
839.79	340.000
840.09	280.000
840.39	300.000
840.69	265.217
840.99	333.333
841.29	400.000
841.59	400.000
841.88	443.750
842.18	175.862
842.48	271.429
842.78	213.333
843.08	252.174
843.38	203.125
843.68	983.333
843.97	261.538
844.27	200.000
844.57	280.952
844.87	412.500
845.17	285.185
845.47	1400.000
845.76	488.889
846.06	305.882
846.36	525.000
846.66	428.571
846.96	312.500
847.25	436.364
847.55	509.091
847.85	265.217
848.15	550.000
848.44	407.143
848.74	294.444
849.04	376.471
849.34	450.000
849.63	305.263
849.93	481.818
850.23	960.000
850.53	435.714
850.82	2750.000
851.12	-5500.000
851.42	5200.000
851.71	270.000
852.01	-1500.000
852.31	287.500
852.61	2066.667
852.90	266.667
853.20	244.000
853.50	394.118
853.79	280.952
854.09	233.333
854.39	368.750
854.68	205.405
854.98	193.548
855.28	193.333
855.57	220.690
855.87	222.222
856.17	278.947
856.46	280.000
856.76	294.118
857.05	251.724
857.35	245.833
857.65	340.000
857.94	204.348
858.24	246.154
858.53	285.000
858.83	304.545
859.13	300.000
859.42	0.000
859.72	500.000
860.01	472.727
860.31	318.182
860.60	294.737
860.90	217.391
861.20	633.333
861.49	600.000
861.79	-4200.000
862.08	725.000
862.38	266.667
862.67	376.923
862.97	347.059
863.26	500.000
863.56	288.889
863.85	458.333
864.15	562.500
864.44	293.333
864.74	800.000
865.03	675.000
865.33	289.474
865.62	445.455
865.92	569.231
866.21	366.667
866.51	0.000
866.80	481.818
867.10	1100.000
867.39	438.462
867.69	500.000
867.98	326.316
868.27	436.364
868.57	315.789
868.86	-4400.000
869.16	350.000
869.45	2100.000
869.75	-4100.000
870.04	441.667
870.33	728.571
870.63	1125.000
870.92	3050.000
871.22	671.429
871.51	323.529
871.80	252.381
872.10	385.714
>>>>>End Processed Spectral Data<<<<<
