SpectraSuite Data File
++++++++++++++++++++++++++++++++++++
Date: Wed May 13 16:03:51 PDT 2015
User: schluterlab
Dark Spectrum Present: Yes
Reference Spectrum Present: Yes
Number of Sampled Component Spectra: 1
Spectrometers: USB2E3373
Integration Time (usec): 3000 (USB2E3373)
Spectra Averaged: 3 (USB2E3373)
Boxcar Smoothing: 0 (USB2E3373)
Correct for Electrical Dark: No (USB2E3373)
Strobe/Lamp Enabled: No (USB2E3373)
Correct for Detector Non-linearity: No (USB2E3373)
Correct for Stray Light: No (USB2E3373)
Number of Pixels in Processed Spectrum: 2048
>>>>>Begin Processed Spectral Data<<<<<
178.53	0.000
178.91	-625.000
179.29	-650.000
179.67	-66.667
180.04	-575.000
180.42	1150.000
180.80	380.000
181.18	-475.000
181.56	214.286
181.94	0.000
182.31	-371.429
182.69	866.667
183.07	-225.000
183.45	-244.444
183.83	309.091
184.20	-150.000
184.58	950.000
184.96	3400.000
185.34	-320.000
185.72	-237.500
186.09	-1200.000
186.47	1250.000
186.85	1000.000
187.23	3000.000
187.61	-900.000
187.98	800.000
188.36	245.455
188.74	154.545
189.12	-380.000
189.49	270.000
189.87	-2100.000
190.25	-650.000
190.63	171.429
191.00	138.462
191.38	300.000
191.76	-300.000
192.14	675.000
192.51	300.000
192.89	466.667
193.27	275.000
193.65	-625.000
194.02	300.000
194.40	340.000
194.78	270.000
195.15	308.333
195.53	420.000
195.91	-600.000
196.29	168.750
196.66	200.000
197.04	-160.000
197.42	0.000
197.79	390.000
198.17	-2600.000
198.55	428.571
198.92	287.500
199.30	360.000
199.68	0.000
200.05	150.000
200.43	385.714
200.81	1300.000
201.18	700.000
201.56	-733.333
201.94	222.222
202.31	288.889
202.69	191.667
203.07	280.000
203.44	0.000
203.82	325.000
204.19	428.571
204.57	271.429
204.95	200.000
205.32	766.667
205.70	172.727
206.08	200.000
206.45	1050.000
206.83	187.500
207.20	483.333
207.58	180.000
207.96	161.111
208.33	400.000
208.71	-283.333
209.08	285.714
209.46	333.333
209.84	172.727
210.21	-500.000
210.59	775.000
210.96	-75.000
211.34	550.000
211.71	310.000
212.09	400.000
212.46	0.000
212.84	1100.000
213.22	725.000
213.59	-1100.000
213.97	266.667
214.34	400.000
214.72	290.909
215.09	420.000
215.47	-600.000
215.84	-1050.000
216.22	833.333
216.59	200.000
216.97	500.000
217.34	218.182
217.72	-250.000
218.09	0.000
218.47	-2800.000
218.84	333.333
219.22	357.143
219.59	266.667
219.97	-228.571
220.34	280.000
220.72	-1066.667
221.09	171.429
221.47	900.000
221.84	-316.667
222.22	0.000
222.59	550.000
222.97	-1050.000
223.34	580.000
223.72	207.692
224.09	380.000
224.46	850.000
224.84	-2800.000
225.21	-380.000
225.59	-800.000
225.96	370.000
226.34	155.000
226.71	1300.000
227.08	325.000
227.46	340.000
227.83	-325.000
228.21	-250.000
228.58	377.778
228.95	-1150.000
229.33	-850.000
229.70	366.667
230.08	357.143
230.45	-340.000
230.82	158.333
231.20	350.000
231.57	242.857
231.95	225.000
232.32	86.364
232.69	145.455
233.07	328.571
233.44	153.846
233.81	-766.667
234.19	142.105
234.56	258.333
234.93	191.667
235.31	236.364
235.68	76.923
236.05	150.000
236.43	84.848
236.80	89.474
237.17	1500.000
237.55	66.667
237.92	71.429
238.29	104.762
238.67	51.613
239.04	89.655
239.41	47.222
239.79	54.348
240.16	64.286
240.53	61.364
240.91	33.333
241.28	30.000
241.65	40.000
242.02	56.522
242.40	27.419
242.77	45.000
243.14	36.559
243.51	30.337
243.89	20.000
244.26	27.778
244.63	33.333
245.00	12.766
245.38	20.792
245.75	19.626
246.12	18.349
246.49	35.036
246.87	28.800
247.24	23.077
247.61	19.286
247.98	18.954
248.36	13.514
248.73	19.108
249.10	18.471
249.47	18.644
249.84	18.717
250.22	8.556
250.59	9.467
250.96	12.626
251.33	13.270
251.70	11.386
252.08	11.905
252.45	15.695
252.82	13.043
253.19	14.894
253.56	16.471
253.94	12.448
254.31	14.453
254.68	14.231
255.05	18.450
255.42	10.163
255.79	10.294
256.16	15.162
256.54	11.661
256.91	10.320
257.28	10.072
257.65	13.861
258.02	11.491
258.39	11.356
258.76	10.033
259.14	13.988
259.51	11.246
259.88	5.901
260.25	10.272
260.62	13.584
260.99	7.764
261.36	11.111
261.73	11.748
262.10	8.430
262.47	12.394
262.85	6.128
263.22	6.553
263.59	11.396
263.96	8.242
264.33	9.922
264.70	10.000
265.07	8.696
265.44	10.606
265.81	8.029
266.18	10.553
266.55	9.268
266.92	10.074
267.29	9.722
267.66	11.009
268.03	9.318
268.40	7.009
268.77	8.115
269.14	5.631
269.51	8.804
269.88	8.159
270.25	9.029
270.62	10.112
270.99	11.828
271.36	10.300
271.73	8.645
272.10	9.130
272.47	10.538
272.84	9.740
273.21	9.644
273.58	6.987
273.95	5.031
274.32	9.504
274.69	6.424
275.06	6.496
275.43	8.298
275.80	7.415
276.17	6.925
276.54	7.484
276.91	7.510
277.28	8.008
277.65	9.091
278.02	7.453
278.39	8.789
278.76	8.182
279.13	7.547
279.50	7.821
279.87	8.566
280.23	7.385
280.60	7.157
280.97	9.242
281.34	9.381
281.71	10.545
282.08	6.910
282.45	5.636
282.82	9.059
283.19	5.526
283.56	7.018
283.92	8.799
284.29	8.995
284.66	6.897
285.03	5.967
285.40	6.690
285.77	7.071
286.14	6.390
286.51	8.167
286.87	10.085
287.24	8.469
287.61	7.223
287.98	7.792
288.35	7.448
288.72	6.854
289.08	7.668
289.45	6.096
289.82	7.480
290.19	4.867
290.56	6.585
290.93	6.193
291.29	5.061
291.66	7.227
292.03	9.302
292.40	7.783
292.77	5.325
293.13	6.567
293.50	5.394
293.87	5.778
294.24	4.593
294.60	4.367
294.97	7.413
295.34	8.181
295.71	7.386
296.08	6.838
296.44	6.052
296.81	4.888
297.18	5.962
297.55	4.354
297.91	6.728
298.28	5.622
298.65	6.527
299.02	6.324
299.38	4.382
299.75	4.447
300.12	5.236
300.48	5.625
300.85	5.179
301.22	6.115
301.59	4.419
301.95	5.542
302.32	5.392
302.69	5.974
303.05	5.818
303.42	5.309
303.79	4.870
304.15	5.361
304.52	4.751
304.89	4.762
305.25	4.872
305.62	6.116
305.99	6.966
306.35	5.145
306.72	5.269
307.09	5.993
307.45	6.757
307.82	5.022
308.19	5.850
308.55	5.933
308.92	6.122
309.29	6.019
309.65	4.878
310.02	6.342
310.38	5.699
310.75	4.857
311.12	5.629
311.48	6.165
311.85	5.870
312.22	5.931
312.58	5.405
312.95	5.808
313.31	4.660
313.68	5.509
314.05	7.298
314.41	5.327
314.78	5.942
315.14	5.859
315.51	5.355
315.87	5.545
316.24	6.157
316.61	5.361
316.97	6.164
317.34	4.403
317.70	6.119
318.07	5.390
318.43	5.577
318.80	6.654
319.16	5.932
319.53	6.191
319.89	7.048
320.26	6.300
320.62	6.548
320.99	6.364
321.35	7.172
321.72	5.955
322.08	6.515
322.45	6.766
322.81	6.395
323.18	6.647
323.54	6.586
323.91	7.547
324.27	6.405
324.64	5.778
325.00	5.410
325.37	6.278
325.73	7.181
326.10	6.620
326.46	5.735
326.83	6.903
327.19	7.430
327.56	6.446
327.92	6.562
328.29	7.098
328.65	6.998
329.01	7.220
329.38	6.105
329.74	5.355
330.11	5.938
330.47	6.428
330.84	7.169
331.20	6.193
331.56	6.147
331.93	6.389
332.29	6.389
332.66	7.345
333.02	7.130
333.38	6.956
333.75	6.506
334.11	6.584
334.48	7.365
334.84	5.974
335.20	7.000
335.57	6.709
335.93	5.179
336.29	6.044
336.66	6.943
337.02	6.244
337.38	6.481
337.75	5.882
338.11	6.625
338.47	4.972
338.84	6.508
339.20	4.679
339.56	6.661
339.93	5.364
340.29	5.707
340.65	6.239
341.02	7.330
341.38	6.050
341.74	5.702
342.11	5.153
342.47	6.079
342.83	6.849
343.20	6.580
343.56	5.729
343.92	4.825
344.28	6.633
344.65	6.535
345.01	5.640
345.37	4.631
345.73	6.176
346.10	6.309
346.46	6.695
346.82	6.343
347.19	4.261
347.55	6.076
347.91	5.987
348.27	6.409
348.63	6.355
349.00	5.502
349.36	6.404
349.72	5.854
350.08	5.024
350.45	6.184
350.81	5.361
351.17	5.997
351.53	5.569
351.89	5.363
352.26	6.709
352.62	6.816
352.98	5.673
353.34	5.423
353.70	6.137
354.07	7.339
354.43	5.714
354.79	5.632
355.15	5.666
355.51	6.315
355.87	5.878
356.24	5.049
356.60	5.533
356.96	5.792
357.32	5.560
357.68	6.299
358.04	6.255
358.40	5.305
358.77	6.495
359.13	5.288
359.49	6.039
359.85	4.048
360.21	4.545
360.57	6.304
360.93	5.769
361.29	5.971
361.66	5.031
362.02	6.269
362.38	5.399
362.74	5.804
363.10	5.329
363.46	5.576
363.82	5.215
364.18	5.727
364.54	6.241
364.90	6.091
365.26	5.441
365.62	6.209
365.98	4.821
366.35	4.441
366.71	5.134
367.07	5.462
367.43	5.515
367.79	5.496
368.15	6.466
368.51	5.523
368.87	6.138
369.23	4.755
369.59	5.648
369.95	5.147
370.31	6.339
370.67	6.232
371.03	5.468
371.39	6.414
371.75	4.853
372.11	5.334
372.47	5.938
372.83	6.196
373.19	5.202
373.55	5.765
373.91	6.186
374.27	5.567
374.63	5.382
374.99	6.850
375.35	5.443
375.71	5.552
376.07	5.418
376.42	5.777
376.78	5.964
377.14	5.224
377.50	6.159
377.86	5.652
378.22	6.700
378.58	4.950
378.94	5.217
379.30	5.216
379.66	5.647
380.02	5.774
380.38	5.343
380.74	6.363
381.09	6.601
381.45	5.778
381.81	6.757
382.17	6.051
382.53	5.849
382.89	6.235
383.25	5.816
383.61	6.134
383.97	6.379
384.32	6.114
384.68	5.576
385.04	6.208
385.40	5.820
385.76	6.327
386.12	6.801
386.48	7.048
386.83	7.120
387.19	6.865
387.55	5.937
387.91	5.744
388.27	6.499
388.62	7.498
388.98	4.853
389.34	7.447
389.70	6.254
390.06	6.147
390.42	6.485
390.77	6.679
391.13	6.765
391.49	6.916
391.85	6.493
392.20	5.237
392.56	6.439
392.92	6.180
393.28	5.030
393.64	6.655
393.99	6.720
394.35	6.452
394.71	6.085
395.07	6.978
395.42	6.180
395.78	7.316
396.14	6.642
396.50	7.080
396.85	6.929
397.21	6.720
397.57	6.634
397.92	7.031
398.28	6.278
398.64	6.870
399.00	6.715
399.35	6.317
399.71	6.424
400.07	7.629
400.42	6.196
400.78	7.539
401.14	5.732
401.49	6.746
401.85	6.473
402.21	6.467
402.57	6.292
402.92	6.116
403.28	6.309
403.63	7.116
403.99	6.051
404.35	6.606
404.70	6.894
405.06	6.407
405.42	6.301
405.77	6.171
406.13	6.716
406.49	7.037
406.84	7.265
407.20	6.147
407.55	6.254
407.91	6.333
408.27	6.318
408.62	6.803
408.98	6.250
409.34	6.765
409.69	7.548
410.05	6.010
410.40	6.300
410.76	6.511
411.11	6.996
411.47	6.326
411.83	6.903
412.18	5.875
412.54	6.849
412.89	7.831
413.25	6.494
413.60	6.424
413.96	6.193
414.31	6.865
414.67	6.717
415.03	6.358
415.38	6.959
415.74	6.945
416.09	7.054
416.45	6.493
416.80	6.477
417.16	7.373
417.51	7.565
417.87	6.294
418.22	6.562
418.58	7.295
418.93	6.880
419.29	7.638
419.64	6.612
420.00	6.951
420.35	7.188
420.71	6.874
421.06	6.325
421.42	7.193
421.77	6.895
422.12	6.176
422.48	5.774
422.83	6.756
423.19	6.685
423.54	6.268
423.90	6.841
424.25	7.147
424.61	6.845
424.96	7.055
425.31	6.368
425.67	7.079
426.02	6.400
426.38	6.899
426.73	6.027
427.09	6.930
427.44	6.843
427.79	6.555
428.15	7.024
428.50	7.139
428.85	7.211
429.21	6.626
429.56	6.376
429.92	7.146
430.27	6.753
430.62	5.837
430.98	6.642
431.33	7.268
431.68	6.806
432.04	7.242
432.39	6.511
432.74	6.284
433.10	5.999
433.45	7.347
433.80	6.707
434.16	6.944
434.51	7.684
434.86	6.727
435.22	7.115
435.57	6.809
435.92	6.612
436.28	7.295
436.63	8.002
436.98	6.182
437.34	6.977
437.69	7.235
438.04	6.802
438.39	6.806
438.75	7.379
439.10	7.151
439.45	7.615
439.81	6.647
440.16	6.719
440.51	7.088
440.86	7.585
441.22	6.507
441.57	6.582
441.92	6.602
442.27	7.051
442.63	7.004
442.98	8.169
443.33	7.011
443.68	6.918
444.03	7.369
444.39	5.988
444.74	7.792
445.09	6.739
445.44	7.108
445.79	6.779
446.15	7.676
446.50	7.162
446.85	7.040
447.20	6.986
447.55	6.812
447.91	7.060
448.26	6.845
448.61	6.783
448.96	8.140
449.31	7.199
449.66	6.809
450.02	6.240
450.37	6.576
450.72	6.825
451.07	6.581
451.42	6.930
451.77	7.575
452.12	7.506
452.47	7.338
452.83	6.935
453.18	7.152
453.53	6.926
453.88	6.734
454.23	7.113
454.58	7.753
454.93	7.883
455.28	6.421
455.63	7.039
455.98	7.619
456.34	7.726
456.69	7.138
457.04	7.183
457.39	6.955
457.74	7.023
458.09	7.303
458.44	7.241
458.79	6.887
459.14	7.844
459.49	7.414
459.84	6.925
460.19	6.718
460.54	7.002
460.89	7.570
461.24	7.043
461.59	7.844
461.94	7.398
462.29	7.359
462.64	7.403
462.99	6.701
463.34	8.000
463.69	7.004
464.04	7.768
464.39	7.942
464.74	7.665
465.09	7.177
465.44	7.147
465.79	6.935
466.14	7.663
466.49	7.008
466.84	7.939
467.19	7.182
467.54	7.938
467.89	7.203
468.24	7.679
468.59	7.937
468.94	7.269
469.29	8.033
469.64	8.635
469.99	7.307
470.34	7.067
470.68	7.328
471.03	7.891
471.38	7.436
471.73	8.061
472.08	8.553
472.43	7.412
472.78	7.637
473.13	7.574
473.48	7.678
473.83	7.805
474.17	7.467
474.52	7.940
474.87	8.114
475.22	7.313
475.57	6.932
475.92	7.169
476.27	6.877
476.61	7.612
476.96	7.037
477.31	7.169
477.66	7.002
478.01	7.109
478.36	7.351
478.70	6.334
479.05	7.295
479.40	7.472
479.75	6.914
480.10	6.809
480.45	6.711
480.79	6.641
481.14	6.996
481.49	7.641
481.84	7.133
482.19	7.360
482.53	7.385
482.88	7.166
483.23	7.664
483.58	7.416
483.92	6.701
484.27	6.536
484.62	7.112
484.97	6.780
485.31	7.021
485.66	6.244
486.01	5.637
486.36	5.543
486.70	5.857
487.05	5.819
487.40	6.231
487.75	6.599
488.09	6.794
488.44	6.604
488.79	7.016
489.13	7.143
489.48	6.729
489.83	6.776
490.17	7.365
490.52	7.086
490.87	6.784
491.22	6.594
491.56	6.606
491.91	7.306
492.26	7.028
492.60	6.912
492.95	6.455
493.30	7.009
493.64	7.140
493.99	7.103
494.34	7.308
494.68	7.555
495.03	7.613
495.37	7.678
495.72	7.018
496.07	7.053
496.41	6.504
496.76	7.652
497.11	6.619
497.45	7.313
497.80	7.198
498.14	6.667
498.49	7.220
498.84	7.095
499.18	7.048
499.53	6.838
499.87	6.850
500.22	7.489
500.56	7.816
500.91	7.115
501.26	7.302
501.60	7.499
501.95	7.012
502.29	7.498
502.64	7.169
502.98	6.872
503.33	6.718
503.67	6.775
504.02	7.156
504.36	7.674
504.71	7.377
505.06	8.145
505.40	7.778
505.75	7.281
506.09	6.851
506.44	7.351
506.78	7.355
507.13	7.521
507.47	7.323
507.82	7.751
508.16	7.751
508.51	7.915
508.85	7.150
509.19	7.551
509.54	7.296
509.88	7.934
510.23	7.352
510.57	8.256
510.92	7.457
511.26	7.605
511.61	7.624
511.95	6.681
512.30	7.582
512.64	7.362
512.98	7.610
513.33	8.030
513.67	7.364
514.02	7.143
514.36	8.575
514.70	7.803
515.05	7.752
515.39	8.637
515.74	7.545
516.08	8.049
516.42	8.546
516.77	7.804
517.11	7.048
517.46	8.578
517.80	7.840
518.14	7.817
518.49	8.168
518.83	8.807
519.17	7.910
519.52	8.432
519.86	7.815
520.20	7.919
520.55	8.318
520.89	7.603
521.23	8.685
521.58	8.523
521.92	8.634
522.26	8.420
522.61	7.975
522.95	8.349
523.29	7.912
523.64	7.927
523.98	7.763
524.32	7.841
524.66	8.839
525.01	8.272
525.35	7.745
525.69	8.251
526.04	8.162
526.38	8.237
526.72	8.405
527.06	8.035
527.41	7.426
527.75	7.717
528.09	8.285
528.43	8.668
528.78	8.420
529.12	8.364
529.46	8.573
529.80	8.663
530.15	8.536
530.49	9.292
530.83	8.797
531.17	9.204
531.51	9.209
531.86	8.323
532.20	9.126
532.54	9.225
532.88	8.280
533.22	8.495
533.57	8.210
533.91	8.790
534.25	8.505
534.59	7.993
534.93	7.674
535.27	7.906
535.62	8.547
535.96	8.537
536.30	7.947
536.64	8.435
536.98	8.228
537.32	8.295
537.66	8.000
538.01	8.032
538.35	8.403
538.69	9.764
539.03	7.927
539.37	7.859
539.71	6.805
540.05	8.562
540.39	8.571
540.73	8.473
541.07	8.696
541.42	8.350
541.76	9.032
542.10	8.150
542.44	7.483
542.78	8.893
543.12	8.125
543.46	9.049
543.80	8.913
544.14	7.317
544.48	8.635
544.82	7.569
545.16	7.938
545.50	8.162
545.84	8.468
546.18	7.677
546.52	8.328
546.86	7.629
547.20	8.699
547.54	9.085
547.88	8.992
548.22	8.219
548.56	8.805
548.90	8.451
549.24	8.013
549.58	9.141
549.92	8.516
550.26	9.588
550.60	9.198
550.94	8.521
551.28	7.827
551.62	9.346
551.96	8.070
552.30	9.352
552.64	8.925
552.98	9.220
553.32	8.294
553.66	9.271
554.00	8.442
554.34	8.903
554.68	8.512
555.02	8.674
555.36	8.629
555.69	8.322
556.03	8.614
556.37	8.595
556.71	7.231
557.05	8.543
557.39	8.887
557.73	8.751
558.07	8.194
558.41	7.887
558.75	8.450
559.08	9.247
559.42	8.012
559.76	9.191
560.10	8.280
560.44	7.757
560.78	8.516
561.12	8.641
561.45	8.866
561.79	8.174
562.13	8.317
562.47	8.197
562.81	8.159
563.15	8.896
563.48	8.223
563.82	7.306
564.16	7.979
564.50	7.422
564.84	8.534
565.17	8.430
565.51	8.498
565.85	9.010
566.19	7.702
566.52	8.170
566.86	7.655
567.20	8.137
567.54	7.820
567.88	7.605
568.21	8.413
568.55	7.786
568.89	8.074
569.23	7.219
569.56	7.449
569.90	6.868
570.24	6.710
570.57	7.140
570.91	6.820
571.25	6.671
571.59	7.010
571.92	6.221
572.26	6.355
572.60	6.607
572.93	6.807
573.27	6.891
573.61	6.868
573.95	6.537
574.28	6.407
574.62	6.268
574.96	6.547
575.29	6.208
575.63	6.047
575.97	6.509
576.30	6.877
576.64	6.293
576.98	6.393
577.31	6.077
577.65	6.298
577.98	6.031
578.32	5.997
578.66	6.038
578.99	6.117
579.33	6.197
579.67	6.373
580.00	6.497
580.34	6.241
580.67	6.169
581.01	6.521
581.35	6.095
581.68	6.044
582.02	5.720
582.35	5.859
582.69	6.083
583.02	6.047
583.36	6.202
583.70	6.344
584.03	6.374
584.37	6.640
584.70	6.348
585.04	6.360
585.37	6.337
585.71	6.203
586.04	6.354
586.38	6.557
586.72	6.545
587.05	6.194
587.39	6.227
587.72	6.442
588.06	6.137
588.39	6.392
588.73	6.336
589.06	6.669
589.40	6.700
589.73	6.406
590.07	7.082
590.40	6.905
590.73	6.870
591.07	7.407
591.40	7.001
591.74	7.229
592.07	6.981
592.41	7.276
592.74	7.041
593.08	6.862
593.41	6.264
593.75	6.496
594.08	6.872
594.41	6.645
594.75	6.470
595.08	6.657
595.42	7.005
595.75	6.980
596.09	6.947
596.42	7.308
596.75	7.218
597.09	7.965
597.42	6.703
597.75	7.201
598.09	7.130
598.42	6.959
598.76	6.810
599.09	6.271
599.42	6.914
599.76	7.138
600.09	6.776
600.42	6.282
600.76	7.250
601.09	6.412
601.42	6.583
601.76	6.376
602.09	6.680
602.42	6.887
602.76	7.618
603.09	6.766
603.42	6.872
603.76	6.479
604.09	6.902
604.42	7.093
604.76	7.254
605.09	7.296
605.42	7.097
605.75	6.912
606.09	6.263
606.42	6.334
606.75	7.051
607.09	7.200
607.42	6.975
607.75	6.920
608.08	7.034
608.42	7.351
608.75	7.394
609.08	6.938
609.41	7.473
609.75	7.289
610.08	7.022
610.41	6.844
610.74	6.528
611.07	7.460
611.41	6.968
611.74	8.044
612.07	6.988
612.40	7.765
612.73	7.263
613.07	7.274
613.40	8.004
613.73	6.817
614.06	7.688
614.39	7.027
614.72	7.368
615.06	7.616
615.39	6.953
615.72	6.953
616.05	6.858
616.38	7.893
616.71	7.482
617.05	8.068
617.38	7.396
617.71	7.387
618.04	8.173
618.37	7.510
618.70	7.094
619.03	8.026
619.36	7.536
619.69	8.028
620.03	8.585
620.36	8.489
620.69	8.219
621.02	7.891
621.35	8.222
621.68	7.243
622.01	8.824
622.34	7.867
622.67	7.681
623.00	7.557
623.33	8.006
623.66	8.077
623.99	7.511
624.32	7.989
624.65	8.475
624.99	7.861
625.32	7.314
625.65	8.189
625.98	8.686
626.31	9.487
626.64	8.327
626.97	8.562
627.30	8.811
627.63	9.762
627.96	9.251
628.29	8.836
628.62	9.332
628.95	10.189
629.28	9.124
629.61	9.624
629.94	8.762
630.26	9.247
630.59	8.675
630.92	8.908
631.25	8.391
631.58	9.910
631.91	8.722
632.24	9.388
632.57	9.969
632.90	9.539
633.23	9.843
633.56	11.186
633.89	9.400
634.22	8.740
634.55	9.822
634.88	9.341
635.20	11.111
635.53	8.072
635.86	8.663
636.19	9.294
636.52	9.112
636.85	9.966
637.18	10.945
637.51	10.757
637.83	7.645
638.16	11.125
638.49	10.202
638.82	10.114
639.15	10.625
639.48	9.227
639.81	11.394
640.13	8.984
640.46	9.799
640.79	10.964
641.12	8.803
641.45	10.335
641.77	11.635
642.10	10.819
642.43	9.610
642.76	10.836
643.09	9.663
643.41	10.167
643.74	10.957
644.07	9.909
644.40	10.276
644.73	12.598
645.05	12.044
645.38	9.953
645.71	11.111
646.04	12.126
646.36	12.354
646.69	10.535
647.02	10.714
647.35	13.402
647.67	11.858
648.00	12.683
648.33	9.241
648.66	9.545
648.98	11.544
649.31	9.716
649.64	9.567
649.96	10.730
650.29	10.742
650.62	9.547
650.94	11.831
651.27	10.980
651.60	13.145
651.92	11.821
652.25	10.098
652.58	12.150
652.90	11.690
653.23	10.324
653.56	10.394
653.88	11.410
654.21	12.480
654.54	10.726
654.86	10.748
655.19	9.730
655.52	6.336
655.84	4.771
656.17	5.613
656.49	7.552
656.82	7.961
657.15	6.292
657.47	4.642
657.80	3.885
658.13	3.934
658.45	5.965
658.78	6.545
659.10	6.712
659.43	7.386
659.75	7.950
660.08	8.038
660.41	8.566
660.73	11.690
661.06	9.554
661.38	11.091
661.71	12.308
662.03	13.018
662.36	10.736
662.68	11.245
663.01	11.515
663.33	11.890
663.66	11.134
663.98	12.527
664.31	10.924
664.63	11.336
664.96	10.262
665.28	11.475
665.61	10.526
665.93	10.262
666.26	10.548
666.58	12.343
666.91	12.474
667.23	13.933
667.56	9.503
667.88	13.462
668.21	14.712
668.53	11.931
668.86	11.039
669.18	14.499
669.50	10.870
669.83	14.379
670.15	13.111
670.48	13.290
670.80	10.560
671.13	13.163
671.45	11.277
671.77	11.405
672.10	11.460
672.42	10.247
672.75	12.272
673.07	10.739
673.39	9.946
673.72	10.547
674.04	12.353
674.37	11.262
674.69	10.634
675.01	10.042
675.34	15.811
675.66	14.105
675.98	12.627
676.31	13.235
676.63	12.527
676.95	12.369
677.28	10.748
677.60	11.868
677.92	14.346
678.25	12.526
678.57	11.952
678.89	10.822
679.22	10.413
679.54	11.641
679.86	11.376
680.18	11.270
680.51	11.525
680.83	12.456
681.15	13.019
681.48	13.043
681.80	11.412
682.12	10.345
682.44	8.511
682.77	11.813
683.09	14.592
683.41	11.752
683.73	13.907
684.06	12.190
684.38	10.568
684.70	13.372
685.02	13.696
685.34	10.256
685.67	8.916
685.99	10.653
686.31	10.580
686.63	9.011
686.96	10.714
687.28	9.567
687.60	10.145
687.92	11.883
688.24	11.597
688.56	10.843
688.89	11.203
689.21	14.629
689.53	10.647
689.85	12.195
690.17	9.317
690.49	12.314
690.82	12.383
691.14	9.821
691.46	11.603
691.78	10.843
692.10	10.124
692.42	11.577
692.74	11.203
693.06	13.191
693.39	12.731
693.71	10.699
694.03	13.053
694.35	10.173
694.67	13.272
694.99	12.439
695.31	11.520
695.63	12.679
695.95	12.469
696.27	10.406
696.59	11.140
696.91	14.767
697.23	9.390
697.56	14.072
697.88	9.407
698.20	10.208
698.52	12.043
698.84	12.027
699.16	10.369
699.48	10.926
699.80	12.560
700.12	14.286
700.44	14.589
700.76	12.155
701.08	12.069
701.40	13.128
701.72	16.327
702.04	18.466
702.36	11.048
702.68	13.598
703.00	11.080
703.32	10.106
703.64	11.796
703.96	11.421
704.28	12.500
704.60	14.076
704.91	18.398
705.23	14.370
705.55	15.282
705.87	17.940
706.19	9.894
706.51	14.330
706.83	15.758
707.15	16.246
707.47	12.626
707.79	13.514
708.11	13.699
708.43	14.286
708.74	9.949
709.06	14.805
709.38	13.123
709.70	17.151
710.02	14.540
710.34	11.212
710.66	14.328
710.98	11.648
711.29	15.988
711.61	17.109
711.93	15.385
712.25	17.363
712.57	10.294
712.89	13.149
713.20	17.021
713.52	16.118
713.84	12.342
714.16	15.549
714.48	13.793
714.80	16.413
715.11	12.104
715.43	13.947
715.75	13.623
716.07	12.780
716.39	15.361
716.70	17.940
717.02	17.266
717.34	16.608
717.66	13.433
717.97	21.116
718.29	15.185
718.61	13.869
718.93	18.382
719.24	15.917
719.56	15.593
719.88	12.881
720.20	16.892
720.51	16.725
720.83	15.242
721.15	10.448
721.46	12.057
721.78	15.771
722.10	15.094
722.42	19.549
722.73	17.228
723.05	14.754
723.37	12.955
723.68	17.761
724.00	14.228
724.32	17.339
724.63	14.634
724.95	14.644
725.27	17.814
725.58	17.578
725.90	17.883
726.22	15.849
726.53	15.278
726.85	16.382
727.16	14.947
727.48	13.121
727.80	12.121
728.11	16.304
728.43	13.077
728.74	15.054
729.06	16.058
729.38	15.074
729.69	15.302
730.01	12.969
730.32	12.500
730.64	17.057
730.96	16.832
731.27	13.907
731.59	15.291
731.90	13.120
732.22	12.422
732.53	11.765
732.85	13.141
733.16	15.434
733.48	15.282
733.80	13.312
734.11	14.968
734.43	14.201
734.74	11.714
735.06	13.467
735.37	18.208
735.69	11.465
736.00	14.052
736.32	16.511
736.63	11.502
736.95	15.016
737.26	6.463
737.58	12.258
737.89	15.719
738.21	13.652
738.52	17.500
738.83	10.566
739.15	13.077
739.46	14.964
739.78	11.458
740.09	14.154
740.41	13.548
740.72	11.847
741.04	21.111
741.35	13.750
741.66	19.556
741.98	12.736
742.29	18.182
742.61	18.966
742.92	13.575
743.23	14.957
743.55	18.400
743.86	19.737
744.18	16.814
744.49	19.139
744.80	20.188
745.12	21.364
745.43	15.859
745.74	14.865
746.06	17.431
746.37	14.798
746.68	17.195
747.00	19.444
747.31	21.429
747.62	15.929
747.94	14.537
748.25	16.170
748.56	15.859
748.88	14.356
749.19	25.000
749.50	14.419
749.82	15.447
750.13	15.102
750.44	16.058
750.75	12.281
751.07	21.865
751.38	14.983
751.69	14.801
752.01	14.286
752.32	11.913
752.63	17.376
752.94	15.574
753.26	18.000
753.57	13.821
753.88	18.750
754.19	15.714
754.51	17.361
754.82	16.606
755.13	16.604
755.44	15.414
755.75	16.058
756.07	15.248
756.38	12.044
756.69	15.101
757.00	14.671
757.31	13.947
757.63	11.988
757.94	10.456
758.25	12.255
758.56	7.901
758.87	13.441
759.18	12.727
759.50	13.793
759.81	12.773
760.12	10.937
760.43	14.040
760.74	10.326
761.05	14.972
761.36	11.497
761.67	13.636
761.99	12.733
762.30	12.847
762.61	13.740
762.92	19.141
763.23	15.966
763.54	20.800
763.85	14.453
764.16	18.846
764.47	14.829
764.78	14.841
765.10	12.658
765.41	13.864
765.72	12.275
766.03	15.361
766.34	16.000
766.65	14.894
766.96	13.675
767.27	19.289
767.58	17.708
767.89	21.053
768.20	20.690
768.51	19.289
768.82	19.725
769.13	15.854
769.44	20.648
769.75	16.309
770.06	13.761
770.37	16.742
770.68	21.296
770.99	16.000
771.30	10.656
771.61	14.350
771.92	18.033
772.23	23.529
772.54	22.051
772.85	19.895
773.16	18.617
773.47	17.935
773.78	26.396
774.09	18.452
774.39	20.468
774.70	17.901
775.01	18.841
775.32	21.569
775.63	18.421
775.94	24.460
776.25	26.772
776.56	27.612
776.87	27.869
777.18	28.125
777.48	32.824
777.79	28.788
778.10	24.444
778.41	22.321
778.72	14.599
779.03	22.819
779.34	26.846
779.65	20.270
779.95	19.018
780.26	23.529
780.57	18.621
780.88	32.031
781.19	22.556
781.50	21.622
781.80	19.497
782.11	17.514
782.42	16.456
782.73	15.951
783.04	28.378
783.34	23.944
783.65	27.397
783.96	27.612
784.27	23.077
784.57	20.863
784.88	11.111
785.19	30.952
785.50	29.245
785.81	29.851
786.11	35.246
786.42	20.155
786.73	17.699
787.04	28.302
787.34	26.786
787.65	23.000
787.96	30.631
788.26	24.793
788.57	29.661
788.88	29.752
789.19	29.861
789.49	27.273
789.80	25.191
790.11	36.190
790.41	31.683
790.72	26.506
791.03	32.609
791.33	25.581
791.64	41.237
791.95	30.693
792.25	36.667
792.56	36.364
792.87	41.026
793.17	49.367
793.48	40.230
793.79	39.080
794.09	25.000
794.40	35.294
794.70	28.676
795.01	21.481
795.32	25.180
795.62	32.283
795.93	27.586
796.23	22.124
796.54	20.000
796.85	29.730
797.15	50.704
797.46	39.394
797.76	40.964
798.07	32.911
798.37	21.538
798.68	34.848
798.99	35.211
799.29	38.961
799.60	27.273
799.90	38.356
800.21	49.254
800.51	36.207
800.82	43.860
801.12	49.180
801.43	37.879
801.73	39.189
802.04	44.444
802.34	54.321
802.65	48.438
802.95	38.983
803.26	56.250
803.56	34.286
803.87	41.538
804.17	44.118
804.48	48.148
804.78	46.552
805.09	52.941
805.39	48.077
805.70	39.286
806.00	49.180
806.30	36.364
806.61	42.683
806.91	34.177
807.22	34.211
807.52	41.791
807.83	30.986
808.13	50.000
808.43	45.000
808.74	36.842
809.04	46.377
809.35	46.269
809.65	31.579
809.95	64.516
810.26	62.712
810.56	44.444
810.86	77.273
811.17	78.571
811.47	60.000
811.77	37.037
812.08	67.273
812.38	74.000
812.69	75.000
812.99	47.727
813.29	51.020
813.59	26.190
813.90	48.980
814.20	47.273
814.50	36.923
814.81	61.765
815.11	46.939
815.41	37.705
815.72	73.810
816.02	60.000
816.32	66.667
816.62	40.000
816.93	75.610
817.23	64.286
817.53	77.273
817.84	81.818
818.14	58.696
818.44	51.111
818.74	88.235
819.04	65.000
819.35	85.714
819.65	79.412
819.95	85.714
820.25	15.000
820.56	89.744
820.86	61.364
821.16	76.744
821.46	43.590
821.76	78.000
822.07	65.714
822.37	82.500
822.67	51.515
822.97	64.706
823.27	85.714
823.57	75.676
823.88	72.500
824.18	93.333
824.48	80.952
824.78	88.000
825.08	45.833
825.38	81.081
825.69	46.341
825.99	108.333
826.29	82.759
826.59	84.211
826.89	71.053
827.19	79.412
827.49	58.065
827.79	65.909
828.09	79.545
828.39	65.957
828.70	67.347
829.00	48.148
829.30	67.742
829.60	60.000
829.90	100.000
830.20	64.286
830.50	73.913
830.80	86.957
831.10	116.667
831.40	56.667
831.70	65.217
832.00	96.154
832.30	81.481
832.60	62.500
832.90	86.667
833.20	142.857
833.50	96.774
833.80	103.448
834.10	115.625
834.40	138.462
834.70	155.556
835.00	142.857
835.30	85.714
835.60	130.769
835.90	89.655
836.20	100.000
836.50	127.586
836.80	80.000
837.10	100.000
837.40	90.476
837.70	147.059
838.00	125.926
838.30	109.524
838.60	133.333
838.90	111.538
839.19	190.000
839.49	200.000
839.79	215.000
840.09	175.000
840.39	109.524
840.69	147.826
840.99	105.556
841.29	130.000
841.59	108.333
841.88	162.500
842.18	103.448
842.48	114.286
842.78	86.667
843.08	139.130
843.38	106.250
843.68	400.000
843.97	103.846
844.27	79.310
844.57	171.429
844.87	137.500
845.17	103.704
845.47	233.333
845.76	133.333
846.06	170.588
846.36	212.500
846.66	250.000
846.96	168.750
847.25	218.182
847.55	209.091
847.85	117.391
848.15	250.000
848.44	85.714
848.74	111.111
849.04	170.588
849.34	240.000
849.63	47.368
849.93	190.909
850.23	440.000
850.53	185.714
850.82	900.000
851.12	-1500.000
851.42	1200.000
851.71	135.000
852.01	-266.667
852.31	120.833
852.61	533.333
852.90	152.381
853.20	84.000
853.50	158.824
853.79	95.238
854.09	120.833
854.39	125.000
854.68	94.595
854.98	83.871
855.28	70.000
855.57	106.897
855.87	92.593
856.17	100.000
856.46	40.000
856.76	129.412
857.05	103.448
857.35	95.833
857.65	140.000
857.94	139.130
858.24	107.692
858.53	165.000
858.83	136.364
859.13	133.333
859.42	0.000
859.72	366.667
860.01	136.364
860.31	127.273
860.60	126.316
860.90	95.652
861.20	277.778
861.49	258.333
861.79	-1300.000
862.08	400.000
862.38	128.571
862.67	123.077
862.97	164.706
863.26	211.111
863.56	150.000
863.85	191.667
864.15	87.500
864.44	160.000
864.74	350.000
865.03	275.000
865.33	105.263
865.62	154.545
865.92	238.462
866.21	216.667
866.51	0.000
866.80	200.000
867.10	700.000
867.39	176.923
867.69	172.727
867.98	131.579
868.27	281.818
868.57	173.684
868.86	-700.000
869.16	200.000
869.45	600.000
869.75	-1500.000
870.04	125.000
870.33	414.286
870.63	375.000
870.92	1400.000
871.22	428.571
871.51	100.000
871.80	85.714
872.10	207.143
>>>>>End Processed Spectral Data<<<<<
