SpectraSuite Data File
++++++++++++++++++++++++++++++++++++
Date: Wed May 13 16:09:57 PDT 2015
User: schluterlab
Dark Spectrum Present: Yes
Reference Spectrum Present: Yes
Number of Sampled Component Spectra: 1
Spectrometers: USB2E3373
Integration Time (usec): 3000 (USB2E3373)
Spectra Averaged: 3 (USB2E3373)
Boxcar Smoothing: 0 (USB2E3373)
Correct for Electrical Dark: No (USB2E3373)
Strobe/Lamp Enabled: No (USB2E3373)
Correct for Detector Non-linearity: No (USB2E3373)
Correct for Stray Light: No (USB2E3373)
Number of Pixels in Processed Spectrum: 2048
>>>>>Begin Processed Spectral Data<<<<<
178.53	0.000
178.91	-850.000
179.29	-875.000
179.67	-100.000
180.04	-1025.000
180.42	1850.000
180.80	580.000
181.18	-825.000
181.56	500.000
181.94	0.000
182.31	-528.571
182.69	1266.667
183.07	-500.000
183.45	-255.556
183.83	409.091
184.20	-270.000
184.58	1450.000
184.96	3500.000
185.34	-360.000
185.72	-375.000
186.09	-1750.000
186.47	2200.000
186.85	1350.000
187.23	3500.000
187.61	-1233.333
187.98	1050.000
188.36	409.091
188.74	409.091
189.12	-560.000
189.49	410.000
189.87	-3400.000
190.25	-750.000
190.63	300.000
191.00	246.154
191.38	600.000
191.76	-875.000
192.14	1100.000
192.51	587.500
192.89	633.333
193.27	450.000
193.65	-750.000
194.02	320.000
194.40	640.000
194.78	340.000
195.15	433.333
195.53	500.000
195.91	-1800.000
196.29	243.750
196.66	226.316
197.04	-230.000
197.42	0.000
197.79	480.000
198.17	-3500.000
198.55	557.143
198.92	537.500
199.30	640.000
199.68	0.000
200.05	255.556
200.43	471.429
200.81	2400.000
201.18	1066.667
201.56	-1100.000
201.94	477.778
202.31	466.667
202.69	308.333
203.07	340.000
203.44	0.000
203.82	1200.000
204.19	542.857
204.57	350.000
204.95	437.500
205.32	1233.333
205.70	409.091
206.08	242.857
206.45	1800.000
206.83	212.500
207.20	683.333
207.58	440.000
207.96	266.667
208.33	537.500
208.71	-516.667
209.08	628.571
209.46	466.667
209.84	463.636
210.21	-1166.667
210.59	1100.000
210.96	-362.500
211.34	1600.000
211.71	400.000
212.09	583.333
212.46	0.000
212.84	1033.333
213.22	850.000
213.59	-2900.000
213.97	600.000
214.34	600.000
214.72	527.273
215.09	680.000
215.47	-1500.000
215.84	-2350.000
216.22	1100.000
216.59	342.857
216.97	925.000
217.34	300.000
217.72	-333.333
218.09	0.000
218.47	-4000.000
218.84	477.778
219.22	400.000
219.59	1366.667
219.97	-428.571
220.34	720.000
220.72	-1466.667
221.09	335.714
221.47	1275.000
221.84	-550.000
222.22	0.000
222.59	1100.000
222.97	-2100.000
223.34	800.000
223.72	315.385
224.09	900.000
224.46	1350.000
224.84	-3400.000
225.21	-760.000
225.59	-3100.000
225.96	480.000
226.34	185.000
226.71	2000.000
227.08	462.500
227.46	440.000
227.83	-750.000
228.21	-1850.000
228.58	422.222
228.95	-1500.000
229.33	-1450.000
229.70	1100.000
230.08	600.000
230.45	-560.000
230.82	366.667
231.20	533.333
231.57	628.571
231.95	425.000
232.32	218.182
232.69	354.545
233.07	457.143
233.44	176.923
233.81	-1600.000
234.19	226.316
234.56	291.667
234.93	300.000
235.31	309.091
235.68	200.000
236.05	271.429
236.43	118.182
236.80	205.263
237.17	3000.000
237.55	171.429
237.92	175.000
238.29	195.238
238.67	129.032
239.04	162.069
239.41	133.333
239.79	121.739
240.16	114.286
240.53	127.273
240.91	103.922
241.28	108.000
241.65	78.000
242.02	91.304
242.40	83.871
242.77	86.667
243.14	69.892
243.51	83.146
243.89	69.412
244.26	78.889
244.63	74.194
245.00	52.128
245.38	70.297
245.75	58.879
246.12	54.128
246.49	67.153
246.87	64.000
247.24	63.077
247.61	59.286
247.98	52.288
248.36	57.432
248.73	57.962
249.10	59.873
249.47	53.107
249.84	55.080
250.22	54.011
250.59	57.988
250.96	52.020
251.33	50.711
251.70	55.941
252.08	50.000
252.45	47.534
252.82	46.522
253.19	51.915
253.56	45.490
253.94	49.378
254.31	45.312
254.68	48.846
255.05	48.339
255.42	51.220
255.79	48.529
256.16	49.458
256.54	45.230
256.91	47.331
257.28	43.165
257.65	45.545
258.02	46.584
258.39	41.325
258.76	43.144
259.14	46.429
259.51	45.593
259.88	41.925
260.25	43.202
260.62	42.486
260.99	44.410
261.36	43.844
261.73	44.986
262.10	43.895
262.47	41.972
262.85	40.390
263.22	38.746
263.59	43.020
263.96	42.033
264.33	40.209
264.70	43.684
265.07	44.246
265.44	41.919
265.81	38.443
266.18	41.709
266.55	42.439
266.92	41.769
267.29	44.213
267.66	38.761
268.03	40.000
268.40	40.187
268.77	38.186
269.14	39.640
269.51	41.084
269.88	40.559
270.25	39.052
270.62	40.449
270.99	40.860
271.36	42.489
271.73	39.252
272.10	37.826
272.47	42.581
272.84	38.528
273.21	38.784
273.58	40.611
273.95	38.155
274.32	36.570
274.69	38.972
275.06	38.780
275.43	40.213
275.80	37.675
276.17	37.067
276.54	40.956
276.91	38.142
277.28	35.742
277.65	38.878
278.02	38.095
278.39	40.039
278.76	36.909
279.13	36.604
279.50	37.989
279.87	39.243
280.23	39.920
280.60	40.232
280.97	35.860
281.34	36.814
281.71	37.455
282.08	38.004
282.45	38.000
282.82	35.702
283.19	36.185
283.56	36.667
283.92	36.379
284.29	36.508
284.66	37.568
285.03	37.432
285.40	36.444
285.77	37.710
286.14	37.478
286.51	34.500
286.87	38.974
287.24	36.482
287.61	34.189
287.98	35.065
288.35	34.548
288.72	33.333
289.08	35.211
289.45	32.784
289.82	33.821
290.19	32.025
290.56	34.150
290.93	31.873
291.29	33.282
291.66	33.481
292.03	35.320
292.40	34.361
292.77	30.769
293.13	31.194
293.50	32.362
293.87	31.852
294.24	32.296
294.60	31.295
294.97	31.105
295.34	32.158
295.71	31.960
296.08	30.912
296.44	30.399
296.81	29.590
297.18	31.843
297.55	29.156
297.91	29.815
298.28	31.459
298.65	30.418
299.02	29.644
299.38	29.748
299.75	26.280
300.12	28.863
300.48	29.500
300.85	29.470
301.22	28.153
301.59	28.283
301.95	30.730
302.32	28.755
302.69	29.630
303.05	28.000
303.42	29.259
303.79	28.766
304.15	27.855
304.52	27.578
304.89	27.991
305.25	26.450
305.62	28.199
305.99	29.280
306.35	28.859
306.72	29.260
307.09	29.634
307.45	29.955
307.82	26.897
308.19	28.146
308.55	29.234
308.92	29.538
309.29	27.666
309.65	28.632
310.02	27.167
310.38	30.323
310.75	29.250
311.12	28.352
311.48	29.676
311.85	30.503
312.22	30.073
312.58	28.898
312.95	30.306
313.31	28.544
313.68	29.522
314.05	31.065
314.41	30.854
314.78	28.802
315.14	28.699
315.51	30.381
315.87	30.297
316.24	29.891
316.61	29.630
316.97	28.376
317.34	30.039
317.70	31.740
318.07	32.146
318.43	32.877
318.80	31.771
319.16	31.073
319.53	31.332
319.89	32.857
320.26	32.800
320.62	33.829
320.99	33.030
321.35	34.343
321.72	34.394
322.08	35.834
322.45	35.124
322.81	35.659
323.18	36.802
323.54	34.416
323.91	35.660
324.27	36.424
324.64	35.228
325.00	34.896
325.37	37.489
325.73	37.163
326.10	37.688
326.46	37.814
326.83	39.344
327.19	38.429
327.56	38.589
327.92	39.808
328.29	40.461
328.65	40.976
329.01	40.433
329.38	41.443
329.74	42.105
330.11	40.528
330.47	41.230
330.84	41.452
331.20	39.891
331.56	41.284
331.93	40.556
332.29	40.905
332.66	41.416
333.02	41.773
333.38	42.367
333.75	43.850
334.11	41.192
334.48	41.615
334.84	43.199
335.20	43.455
335.57	42.611
335.93	41.250
336.29	41.209
336.66	42.561
337.02	41.991
337.38	43.056
337.75	42.870
338.11	41.450
338.47	41.805
338.84	43.538
339.20	41.101
339.56	44.891
339.93	42.636
340.29	42.754
340.65	41.355
341.02	42.496
341.38	41.281
341.74	41.404
342.11	42.096
342.47	42.291
342.83	41.353
343.20	41.732
343.56	41.702
343.92	41.404
344.28	41.922
344.65	41.273
345.01	40.488
345.37	40.909
345.73	41.709
346.10	41.176
346.46	41.186
346.82	40.857
347.19	40.434
347.55	40.805
347.91	42.314
348.27	41.167
348.63	41.304
349.00	42.071
349.36	40.805
349.72	40.337
350.08	40.032
350.45	41.579
350.81	40.292
351.17	40.843
351.53	41.114
351.89	41.007
352.26	41.673
352.62	40.978
352.98	41.572
353.34	41.578
353.70	40.671
354.07	39.839
354.43	40.635
354.79	39.179
355.15	40.383
355.51	41.087
355.87	41.143
356.24	40.554
356.60	39.615
356.96	40.869
357.32	42.682
357.68	41.102
358.04	39.905
358.40	41.409
358.77	40.610
359.13	40.095
359.49	40.078
359.85	39.444
360.21	39.872
360.57	41.245
360.93	40.923
361.29	40.363
361.66	40.248
362.02	41.119
362.38	41.293
362.74	39.807
363.10	39.304
363.46	40.205
363.82	40.590
364.18	40.749
364.54	40.565
364.90	40.581
365.26	39.779
365.62	41.271
365.98	39.664
366.35	39.255
366.71	40.492
367.07	40.641
367.43	40.493
367.79	40.971
368.15	40.661
368.51	40.770
368.87	40.186
369.23	41.039
369.59	40.406
369.95	40.588
370.31	39.672
370.67	39.420
371.03	41.423
371.39	41.108
371.75	40.809
372.11	40.256
372.47	42.009
372.83	41.354
373.19	40.101
373.55	41.463
373.91	41.532
374.27	39.863
374.63	40.873
374.99	41.667
375.35	39.777
375.71	41.193
376.07	39.781
376.42	40.990
376.78	41.286
377.14	40.095
377.50	40.464
377.86	41.356
378.22	41.593
378.58	40.539
378.94	41.420
379.30	41.285
379.66	42.449
380.02	41.462
380.38	40.801
380.74	41.837
381.09	42.543
381.45	41.979
381.81	42.138
382.17	41.274
382.53	41.006
382.89	41.235
383.25	41.338
383.61	42.193
383.97	42.089
384.32	42.732
384.68	41.140
385.04	41.426
385.40	41.981
385.76	41.093
386.12	42.422
386.48	41.598
386.83	43.233
387.19	42.362
387.55	42.115
387.91	41.536
388.27	41.937
388.62	42.286
388.98	40.971
389.34	42.303
389.70	41.324
390.06	42.395
390.42	42.607
390.77	42.748
391.13	42.183
391.49	41.751
391.85	41.566
392.20	41.640
392.56	42.109
392.92	42.260
393.28	41.420
393.64	42.266
393.99	41.478
394.35	41.501
394.71	40.715
395.07	40.374
395.42	40.915
395.78	41.667
396.14	41.030
396.50	43.045
396.85	41.004
397.21	41.554
397.57	41.909
397.92	40.505
398.28	41.480
398.64	41.816
399.00	41.466
399.35	39.707
399.71	41.030
400.07	41.159
400.42	42.147
400.78	41.737
401.14	40.915
401.49	40.299
401.85	41.137
402.21	39.701
402.57	40.099
402.92	41.488
403.28	41.786
403.63	40.532
403.99	42.102
404.35	40.485
404.70	40.767
405.06	40.536
405.42	40.986
405.77	39.086
406.13	39.503
406.49	39.976
406.84	39.398
407.20	39.125
407.55	40.268
407.91	40.267
408.27	40.842
408.62	39.494
408.98	39.828
409.34	41.513
409.69	40.903
410.05	40.335
410.40	41.101
410.76	39.546
411.11	39.445
411.47	39.361
411.83	39.829
412.18	38.652
412.54	40.349
412.89	39.036
413.25	40.378
413.60	40.025
413.96	38.859
414.31	39.976
414.67	39.734
415.03	39.404
415.38	39.304
415.74	40.386
416.09	39.647
416.45	39.960
416.80	39.590
417.16	41.019
417.51	40.013
417.87	38.600
418.22	39.369
418.58	38.993
418.93	40.786
419.29	38.956
419.64	40.932
420.00	39.329
420.35	39.246
420.71	40.287
421.06	39.618
421.42	38.655
421.77	39.574
422.12	38.574
422.48	38.424
422.83	39.487
423.19	38.508
423.54	39.582
423.90	39.594
424.25	39.308
424.61	38.810
424.96	38.892
425.31	39.480
425.67	37.697
426.02	38.857
426.38	40.659
426.73	38.619
427.09	39.392
427.44	39.218
427.79	38.528
428.15	39.167
428.50	40.316
428.85	39.631
429.21	38.156
429.56	38.206
429.92	38.953
430.27	38.431
430.62	38.812
430.98	38.246
431.33	37.990
431.68	39.162
432.04	38.552
432.39	39.520
432.74	39.258
433.10	39.389
433.45	40.583
433.80	38.803
434.16	38.729
434.51	39.579
434.86	38.597
435.22	40.356
435.57	39.574
435.92	39.965
436.28	39.442
436.63	39.790
436.98	38.752
437.34	40.012
437.69	39.907
438.04	38.954
438.39	40.239
438.75	40.383
439.10	39.218
439.45	39.492
439.81	39.517
440.16	38.566
440.51	40.012
440.86	40.069
441.22	38.710
441.57	38.588
441.92	39.713
442.27	39.128
442.63	38.915
442.98	38.986
443.33	38.967
443.68	39.649
444.03	39.336
444.39	38.802
444.74	39.773
445.09	38.868
445.44	38.764
445.79	39.287
446.15	38.433
446.50	40.280
446.85	38.849
447.20	39.317
447.55	40.257
447.91	40.044
448.26	39.789
448.61	39.740
448.96	39.867
449.31	40.101
449.66	39.280
450.02	38.552
450.37	39.059
450.72	39.368
451.07	39.610
451.42	38.663
451.77	40.399
452.12	39.492
452.47	39.428
452.83	40.385
453.18	38.325
453.53	41.187
453.88	38.866
454.23	40.646
454.58	40.279
454.93	41.386
455.28	40.399
455.63	39.563
455.98	39.881
456.34	40.013
456.69	39.637
457.04	40.991
457.39	39.977
457.74	40.104
458.09	39.103
458.44	39.738
458.79	39.100
459.14	40.519
459.49	39.872
459.84	38.338
460.19	39.776
460.54	38.252
460.89	40.099
461.24	39.769
461.59	41.720
461.94	38.594
462.29	39.941
462.64	39.949
462.99	38.321
463.34	40.667
463.69	40.650
464.04	39.768
464.39	39.188
464.74	38.978
465.09	39.324
465.44	38.449
465.79	38.870
466.14	38.807
466.49	37.987
466.84	39.346
467.19	39.710
467.54	39.875
467.89	38.115
468.24	38.976
468.59	39.499
468.94	38.119
469.29	39.717
469.64	39.023
469.99	39.716
470.34	39.036
470.68	39.152
471.03	39.320
471.38	38.707
471.73	39.241
472.08	39.605
472.43	39.133
472.78	38.973
473.13	38.832
473.48	39.201
473.83	40.000
474.17	38.768
474.52	39.082
474.87	39.521
475.22	38.595
475.57	38.635
475.92	38.184
476.27	38.613
476.61	39.658
476.96	38.922
477.31	38.095
477.66	40.208
478.01	38.055
478.36	38.921
478.70	39.564
479.05	38.552
479.40	39.253
479.75	39.349
480.10	38.767
480.45	37.696
480.79	37.315
481.14	38.796
481.49	38.586
481.84	38.317
482.19	38.255
482.53	38.028
482.88	38.157
483.23	38.879
483.58	38.353
483.92	38.332
484.27	36.993
484.62	37.888
484.97	37.564
485.31	38.425
485.66	37.660
486.01	36.441
486.36	34.370
486.70	33.876
487.05	34.461
487.40	35.930
487.75	36.254
488.09	37.307
488.44	36.658
488.79	38.770
489.13	38.083
489.48	38.254
489.83	37.635
490.17	38.580
490.52	37.998
490.87	37.404
491.22	37.790
491.56	37.995
491.91	38.530
492.26	37.299
492.60	36.221
492.95	37.558
493.30	37.336
493.64	37.704
493.99	37.929
494.34	37.882
494.68	37.546
495.03	38.205
495.37	37.738
495.72	38.743
496.07	37.494
496.41	37.478
496.76	38.874
497.11	37.416
497.45	37.075
497.80	37.764
498.14	38.357
498.49	37.561
498.84	37.632
499.18	38.095
499.53	38.367
499.87	37.418
500.22	37.918
500.56	38.786
500.91	36.683
501.26	37.790
501.60	38.396
501.95	38.130
502.29	38.519
502.64	38.222
502.98	38.429
503.33	37.980
503.67	37.865
504.02	37.839
504.36	37.716
504.71	37.860
505.06	38.169
505.40	36.996
505.75	37.898
506.09	37.852
506.44	38.530
506.78	38.724
507.13	39.122
507.47	38.737
507.82	38.855
508.16	38.247
508.51	39.168
508.85	38.332
509.19	37.806
509.54	38.418
509.88	38.434
510.23	37.995
510.57	38.700
510.92	39.358
511.26	39.311
511.61	38.226
511.95	37.526
512.30	38.335
512.64	38.850
512.98	39.603
513.33	38.919
513.67	39.755
514.02	37.987
514.36	39.705
514.70	38.517
515.05	38.873
515.39	38.811
515.74	39.245
516.08	39.016
516.42	38.624
516.77	39.744
517.11	38.679
517.46	39.447
517.80	40.302
518.14	39.259
518.49	40.023
518.83	39.489
519.17	39.030
519.52	39.162
519.86	39.247
520.20	40.347
520.55	40.934
520.89	40.328
521.23	39.445
521.58	40.816
521.92	39.988
522.26	38.743
522.61	40.561
522.95	39.411
523.29	39.927
523.64	40.915
523.98	41.220
524.32	39.324
524.66	39.687
525.01	39.583
525.35	39.777
525.69	39.101
526.04	39.751
526.38	39.719
526.72	39.202
527.06	39.548
527.41	38.181
527.75	39.807
528.09	41.040
528.43	40.025
528.78	39.705
529.12	39.333
529.46	40.294
529.80	40.470
530.15	39.751
530.49	39.200
530.83	39.430
531.17	41.580
531.51	40.532
531.86	40.710
532.20	41.134
532.54	40.935
532.88	40.757
533.22	39.913
533.57	38.889
533.91	39.976
534.25	39.611
534.59	40.085
534.93	39.679
535.27	39.288
535.62	40.354
535.96	39.109
536.30	39.606
536.64	40.438
536.98	41.340
537.32	39.829
537.66	40.667
538.01	40.948
538.35	40.336
538.69	40.842
539.03	39.701
539.37	39.042
539.71	38.820
540.05	40.000
540.39	39.468
540.73	39.392
541.07	41.012
541.42	40.574
541.76	39.935
542.10	40.815
542.44	39.868
542.78	41.173
543.12	40.115
543.46	40.262
543.80	40.729
544.14	39.538
544.48	39.746
544.82	39.128
545.16	39.297
545.50	39.010
545.84	40.659
546.18	40.135
546.52	40.606
546.86	40.412
547.20	40.324
547.54	40.748
547.88	39.860
548.22	39.290
548.56	39.308
548.90	39.245
549.24	38.990
549.58	40.109
549.92	40.797
550.26	39.631
550.60	40.041
550.94	39.930
551.28	39.576
551.62	40.546
551.96	39.860
552.30	40.205
552.64	40.095
552.98	39.797
553.32	40.189
553.66	40.763
554.00	40.563
554.34	40.304
554.68	41.130
555.02	40.127
555.36	40.849
555.69	39.039
556.03	39.367
556.37	39.700
556.71	39.973
557.05	40.546
557.39	39.328
557.73	39.520
558.07	41.407
558.41	39.653
558.75	40.852
559.08	40.492
559.42	41.421
559.76	40.221
560.10	40.400
560.44	39.762
560.78	38.257
561.12	39.578
561.45	38.787
561.79	39.090
562.13	39.772
562.47	40.027
562.81	40.237
563.15	40.000
563.48	38.992
563.82	39.856
564.16	40.092
564.50	39.128
564.84	38.812
565.17	39.447
565.51	40.511
565.85	39.404
566.19	39.699
566.52	40.785
566.86	39.542
567.20	39.564
567.54	40.582
567.88	38.566
568.21	38.836
568.55	38.625
568.89	38.375
569.23	38.102
569.56	37.490
569.90	37.057
570.24	37.352
570.57	36.926
570.91	36.102
571.25	36.380
571.59	36.200
571.92	36.060
572.26	36.453
572.60	36.486
572.93	36.432
573.27	36.705
573.61	37.186
573.95	37.158
574.28	36.608
574.62	36.273
574.96	35.603
575.29	35.887
575.63	36.153
575.97	35.642
576.30	36.298
576.64	36.543
576.98	36.485
577.31	36.576
577.65	36.764
577.98	36.369
578.32	35.703
578.66	35.954
578.99	36.133
579.33	36.408
579.67	36.025
580.00	36.370
580.34	36.569
580.67	36.327
581.01	36.834
581.35	36.572
581.68	35.931
582.02	35.788
582.35	35.769
582.69	35.740
583.02	35.426
583.36	36.039
583.70	36.563
584.03	36.938
584.37	37.628
584.70	37.173
585.04	35.910
585.37	36.510
585.71	37.054
586.04	35.902
586.38	37.513
586.72	36.537
587.05	37.109
587.39	36.992
587.72	36.795
588.06	36.980
588.39	36.735
588.73	36.990
589.06	37.488
589.40	38.316
589.73	37.416
590.07	37.580
590.40	37.632
590.73	37.978
591.07	38.299
591.40	38.043
591.74	38.918
592.07	37.740
592.41	37.702
592.74	36.929
593.08	36.909
593.41	36.634
593.75	35.540
594.08	37.010
594.41	37.504
594.75	38.004
595.08	36.972
595.42	38.039
595.75	36.859
596.09	37.627
596.42	37.564
596.75	38.455
597.09	37.576
597.42	37.437
597.75	38.335
598.09	38.348
598.42	38.402
598.76	38.103
599.09	37.590
599.42	37.300
599.76	37.482
600.09	37.049
600.42	36.961
600.76	36.929
601.09	37.231
601.42	37.443
601.76	37.913
602.09	36.957
602.42	37.580
602.76	37.767
603.09	38.080
603.42	37.837
603.76	37.729
604.09	37.650
604.42	36.404
604.76	38.676
605.09	37.789
605.42	37.666
605.75	37.541
606.09	38.512
606.42	37.597
606.75	37.910
607.09	37.254
607.42	36.799
607.75	37.848
608.08	37.907
608.42	37.741
608.75	37.511
609.08	38.159
609.41	38.172
609.75	39.066
610.08	38.784
610.41	37.989
610.74	38.647
611.07	38.241
611.41	38.371
611.74	38.964
612.07	38.872
612.40	39.349
612.73	38.263
613.07	39.062
613.40	38.757
613.73	38.857
614.06	38.172
614.39	38.595
614.72	38.368
615.06	39.181
615.39	37.951
615.72	38.190
616.05	38.437
616.38	39.133
616.71	39.074
617.05	39.635
617.38	39.206
617.71	39.520
618.04	40.445
618.37	39.267
618.70	39.577
619.03	40.066
619.36	39.851
619.69	39.577
620.03	41.071
620.36	40.575
620.69	41.438
621.02	41.077
621.35	40.407
621.68	39.486
622.01	41.176
622.34	40.318
622.67	40.076
623.00	39.912
623.33	39.314
623.66	40.529
623.99	40.059
624.32	39.301
624.65	39.054
624.99	38.669
625.32	39.247
625.65	40.646
625.98	40.815
626.31	40.202
626.64	40.980
626.97	43.059
627.30	42.228
627.63	40.115
627.96	42.725
628.29	41.820
628.62	41.720
628.95	40.849
629.28	41.150
629.61	42.346
629.94	42.381
630.26	42.040
630.59	40.610
630.92	40.996
631.25	40.671
631.58	41.441
631.91	41.886
632.24	41.983
632.57	41.448
632.90	42.654
633.23	43.624
633.56	43.051
633.89	44.168
634.22	43.473
634.55	44.615
634.88	42.635
635.20	42.772
635.53	43.614
635.86	43.936
636.19	43.059
636.52	43.253
636.85	43.643
637.18	43.203
637.51	42.790
637.83	41.430
638.16	44.118
638.49	44.081
638.82	44.753
639.15	44.875
639.48	43.516
639.81	44.772
640.13	42.839
640.46	44.564
640.79	44.386
641.12	43.054
641.45	43.715
641.77	45.214
642.10	43.567
642.43	44.595
642.76	43.808
643.09	44.785
643.41	45.524
643.74	44.444
644.07	44.817
644.40	45.245
644.73	45.354
645.05	44.849
645.38	44.076
645.71	44.122
646.04	46.346
646.36	47.412
646.69	46.823
647.02	45.238
647.35	46.048
647.67	46.018
648.00	44.715
648.33	44.719
648.66	44.697
648.98	44.528
649.31	44.245
649.64	44.694
649.96	41.580
650.29	43.444
650.62	44.175
650.94	45.705
651.27	45.946
651.60	45.757
651.92	44.569
652.25	42.834
652.58	46.262
652.90	46.761
653.23	43.451
653.56	42.047
653.88	43.265
654.21	46.130
654.54	44.224
654.86	44.393
655.19	40.000
655.52	33.652
655.84	32.573
656.17	40.919
656.49	54.637
656.82	55.169
657.15	41.833
657.47	31.135
657.80	24.005
658.13	25.361
658.45	38.051
658.78	37.821
659.10	39.614
659.43	41.253
659.75	43.189
660.08	44.937
660.41	47.393
660.73	48.539
661.06	48.726
661.38	48.000
661.71	49.423
662.03	46.154
662.36	42.147
662.68	45.984
663.01	47.677
663.33	49.894
663.66	46.429
663.98	46.004
664.31	46.639
664.63	45.547
664.96	45.473
665.28	46.721
665.61	45.809
665.93	44.668
666.26	46.247
666.58	45.816
666.91	47.569
667.23	45.618
667.56	42.981
667.88	45.726
668.21	48.188
668.53	45.553
668.86	44.372
669.18	48.614
669.50	46.522
669.83	49.237
670.15	47.778
670.48	46.841
670.80	45.690
671.13	47.346
671.45	44.468
671.77	46.843
672.10	46.026
672.42	44.346
672.75	45.605
673.07	46.479
673.39	42.315
673.72	44.336
674.04	44.706
674.37	45.243
674.69	46.421
675.01	46.444
675.34	45.380
675.66	47.368
675.98	47.862
676.31	44.118
676.63	45.223
676.95	43.816
677.28	48.364
677.60	45.055
677.92	48.734
678.25	45.175
678.57	47.012
678.89	46.293
679.22	44.401
679.54	42.748
679.86	43.119
680.18	44.007
680.51	44.504
680.83	42.705
681.15	47.547
681.48	44.045
681.80	45.455
682.12	45.785
682.44	44.487
682.77	48.065
683.09	48.283
683.41	45.898
683.73	45.475
684.06	47.314
684.38	45.597
684.70	44.767
685.02	46.341
685.34	43.956
685.67	42.133
685.99	42.096
686.31	44.027
686.63	42.756
686.96	45.536
687.28	42.780
687.60	40.761
687.92	43.510
688.24	44.487
688.56	44.779
688.89	45.228
689.21	49.782
689.53	45.720
689.85	48.780
690.17	43.685
690.49	44.374
690.82	47.897
691.14	43.973
691.46	43.460
691.78	45.783
692.10	47.521
692.42	44.910
692.74	45.851
693.06	45.106
693.39	46.612
693.71	46.288
694.03	46.526
694.35	45.022
694.67	45.767
694.99	49.024
695.31	48.039
695.63	44.498
695.95	46.210
696.27	48.223
696.59	47.668
696.91	48.187
697.23	42.488
697.56	43.497
697.88	42.331
698.20	44.375
698.52	41.720
698.84	43.207
699.16	43.318
699.48	48.219
699.80	46.860
700.12	52.468
700.44	48.806
700.76	48.066
701.08	46.264
701.40	52.235
701.72	49.271
702.04	52.841
702.36	45.609
702.68	46.459
703.00	46.537
703.32	47.340
703.64	49.598
703.96	45.961
704.28	45.930
704.60	48.974
704.91	50.445
705.23	47.801
705.55	54.485
705.87	53.821
706.19	47.703
706.51	47.040
706.83	48.788
707.15	51.541
707.47	48.232
707.79	47.666
708.11	45.434
708.43	46.429
708.74	44.898
709.06	48.831
709.38	44.882
709.70	50.000
710.02	46.588
710.34	48.485
710.66	48.060
710.98	48.864
711.29	50.291
711.61	48.083
711.93	47.436
712.25	46.945
712.57	54.044
712.89	50.865
713.20	48.632
713.52	49.671
713.84	50.000
714.16	42.988
714.48	47.701
714.80	55.319
715.11	50.144
715.43	45.994
715.75	47.246
716.07	51.757
716.39	46.395
716.70	46.844
717.02	52.878
717.34	45.936
717.66	51.119
717.97	54.582
718.29	46.296
718.61	50.000
718.93	52.206
719.24	51.211
719.56	48.475
719.88	45.763
720.20	51.689
720.51	50.871
720.83	52.416
721.15	46.642
721.46	50.000
721.78	48.746
722.10	54.340
722.42	53.759
722.73	49.438
723.05	52.459
723.37	51.822
723.68	53.282
724.00	50.407
724.32	46.774
724.63	49.187
724.95	52.720
725.27	51.012
725.58	51.953
725.90	51.095
726.22	56.226
726.53	48.264
726.85	47.099
727.16	46.975
727.48	50.709
727.80	47.727
728.11	48.551
728.43	52.692
728.74	45.520
729.06	53.650
729.38	54.779
729.69	49.466
730.01	45.051
730.32	47.917
730.64	49.164
730.96	47.525
731.27	49.007
731.59	48.624
731.90	48.397
732.22	47.516
732.53	45.201
732.85	47.756
733.16	44.695
733.48	49.834
733.80	47.403
734.11	47.134
734.43	44.970
734.74	46.286
735.06	44.699
735.37	50.867
735.69	48.726
736.00	50.000
736.32	41.745
736.63	45.367
736.95	48.562
737.26	44.898
737.58	42.581
737.89	51.839
738.21	48.805
738.52	49.643
738.83	50.566
739.15	49.231
739.46	51.095
739.78	52.431
740.09	44.308
740.41	49.355
740.72	47.735
741.04	50.370
741.35	46.250
741.66	58.667
741.98	50.943
742.29	55.981
742.61	54.741
742.92	50.679
743.23	50.855
743.55	48.800
743.86	55.702
744.18	57.522
744.49	53.110
744.80	51.643
745.12	60.000
745.43	46.696
745.74	55.856
746.06	53.670
746.37	54.709
746.68	55.656
747.00	53.241
747.31	55.714
747.62	48.230
747.94	52.863
748.25	45.532
748.56	55.066
748.88	58.911
749.19	53.500
749.50	50.698
749.82	52.033
750.13	46.122
750.44	45.985
750.75	50.175
751.07	52.090
751.38	48.780
751.69	50.542
752.01	47.368
752.32	46.209
752.63	46.454
752.94	53.689
753.26	53.600
753.57	48.374
753.88	54.297
754.19	47.143
754.51	49.653
754.82	49.458
755.13	47.925
755.44	48.872
755.75	45.620
756.07	47.163
756.38	41.606
756.69	44.631
757.00	44.012
757.31	46.884
757.63	43.860
757.94	46.381
758.25	40.686
758.56	43.704
758.87	45.699
759.18	43.333
759.50	47.649
759.81	40.498
760.12	41.875
760.43	48.424
760.74	42.663
761.05	42.655
761.36	44.652
761.67	45.170
761.99	46.894
762.30	51.042
762.61	50.000
762.92	48.047
763.23	45.378
763.54	48.800
763.85	46.094
764.16	51.923
764.47	52.091
764.78	47.350
765.10	41.139
765.41	46.313
765.72	44.611
766.03	46.082
766.34	46.000
766.65	53.191
766.96	52.137
767.27	61.421
767.58	52.083
767.89	52.632
768.20	58.046
768.51	52.284
768.82	52.752
769.13	43.089
769.44	47.368
769.75	50.644
770.06	43.578
770.37	53.846
770.68	53.241
770.99	51.556
771.30	43.852
771.61	52.915
771.92	51.639
772.23	54.622
772.54	51.282
772.85	60.733
773.16	53.191
773.47	59.783
773.78	58.883
774.09	54.762
774.39	52.047
774.70	53.086
775.01	62.319
775.32	59.477
775.63	59.868
775.94	51.079
776.25	71.654
776.56	61.194
776.87	64.754
777.18	68.750
777.48	66.412
777.79	63.636
778.10	67.407
778.41	70.536
778.72	52.555
779.03	61.745
779.34	61.074
779.65	56.081
779.95	60.736
780.26	63.399
780.57	62.069
780.88	64.844
781.19	51.880
781.50	65.541
781.80	62.893
782.11	53.672
782.42	54.430
782.73	53.988
783.04	60.811
783.34	64.085
783.65	71.918
783.96	58.955
784.27	57.343
784.57	58.993
784.88	69.444
785.19	57.937
785.50	66.981
785.81	76.119
786.11	61.475
786.42	66.667
786.73	69.027
787.04	73.585
787.34	66.071
787.65	73.000
787.96	68.468
788.26	70.248
788.57	77.966
788.88	70.248
789.19	62.500
789.49	72.727
789.80	61.832
790.11	73.333
790.41	79.208
790.72	66.265
791.03	66.304
791.33	81.395
791.64	63.918
791.95	59.406
792.25	78.889
792.56	81.818
792.87	84.615
793.17	81.013
793.48	83.908
793.79	58.621
794.09	86.364
794.40	66.387
794.70	57.353
795.01	61.481
795.32	58.993
795.62	58.268
795.93	65.517
796.23	65.487
796.54	75.294
796.85	70.270
797.15	84.507
797.46	78.788
797.76	90.361
798.07	67.089
798.37	81.538
798.68	75.758
798.99	66.197
799.29	84.416
799.60	62.500
799.90	87.671
800.21	89.552
800.51	91.379
800.82	92.982
801.12	88.525
801.43	84.848
801.73	77.027
802.04	101.587
802.34	83.951
802.65	82.813
802.95	98.305
803.26	96.875
803.56	71.429
803.87	84.615
804.17	85.294
804.48	100.000
804.78	63.793
805.09	94.118
805.39	90.385
805.70	85.714
806.00	96.721
806.30	86.364
806.61	86.585
806.91	72.152
807.22	67.105
807.52	88.060
807.83	85.915
808.13	82.813
808.43	91.667
808.74	78.947
809.04	84.058
809.35	98.507
809.65	86.842
809.95	112.903
810.26	91.525
810.56	88.889
810.86	109.091
811.17	147.619
811.47	111.667
811.77	103.704
812.08	109.091
812.38	110.000
812.69	141.667
812.99	113.636
813.29	122.449
813.59	104.762
813.90	122.449
814.20	85.455
814.50	76.923
814.81	102.941
815.11	97.959
815.41	86.885
815.72	133.333
816.02	120.000
816.32	111.905
816.62	97.500
816.93	100.000
817.23	145.238
817.53	97.727
817.84	139.394
818.14	100.000
818.44	93.333
818.74	129.412
819.04	122.500
819.35	122.857
819.65	161.765
819.95	146.429
820.25	145.000
820.56	128.205
820.86	136.364
821.16	127.907
821.46	125.641
821.76	130.000
822.07	128.571
822.37	132.500
822.67	121.212
822.97	98.039
823.27	157.143
823.57	154.054
823.88	150.000
824.18	186.667
824.48	114.286
824.78	180.000
825.08	208.333
825.38	140.541
825.69	141.463
825.99	170.833
826.29	155.172
826.59	147.368
826.89	113.158
827.19	152.941
827.49	148.387
827.79	125.000
828.09	129.545
828.39	129.787
828.70	108.163
829.00	174.074
829.30	132.258
829.60	105.000
829.90	233.333
830.20	167.857
830.50	173.913
830.80	152.174
831.10	140.000
831.40	160.000
831.70	156.522
832.00	180.769
832.30	177.778
832.60	268.750
832.90	173.333
833.20	314.286
833.50	161.290
833.80	162.069
834.10	178.125
834.40	180.769
834.70	222.222
835.00	247.619
835.30	131.429
835.60	246.154
835.90	189.655
836.20	228.571
836.50	165.517
836.80	156.000
837.10	150.000
837.40	176.190
837.70	241.176
838.00	133.333
838.30	147.619
838.60	252.381
838.90	200.000
839.19	190.000
839.49	257.143
839.79	265.000
840.09	245.000
840.39	228.571
840.69	230.435
840.99	222.222
841.29	330.000
841.59	241.667
841.88	218.750
842.18	127.586
842.48	233.333
842.78	146.667
843.08	173.913
843.38	140.625
843.68	600.000
843.97	200.000
844.27	151.724
844.57	238.095
844.87	300.000
845.17	181.481
845.47	600.000
845.76	300.000
846.06	229.412
846.36	362.500
846.66	242.857
846.96	225.000
847.25	363.636
847.55	345.455
847.85	186.957
848.15	400.000
848.44	335.714
848.74	116.667
849.04	317.647
849.34	370.000
849.63	236.842
849.93	290.909
850.23	800.000
850.53	300.000
850.82	1900.000
851.12	-3500.000
851.42	3200.000
851.71	195.000
852.01	-933.333
852.31	154.167
852.61	1466.667
852.90	209.524
853.20	156.000
853.50	194.118
853.79	219.048
854.09	150.000
854.39	225.000
854.68	145.946
854.98	141.935
855.28	146.667
855.57	200.000
855.87	162.963
856.17	194.737
856.46	206.667
856.76	264.706
857.05	175.862
857.35	166.667
857.65	273.333
857.94	173.913
858.24	207.692
858.53	230.000
858.83	240.909
859.13	286.667
859.42	0.000
859.72	511.111
860.01	309.091
860.31	204.545
860.60	210.526
860.90	173.913
861.20	500.000
861.49	341.667
861.79	-2600.000
862.08	512.500
862.38	238.095
862.67	292.308
862.97	264.706
863.26	511.111
863.56	227.778
863.85	275.000
864.15	400.000
864.44	280.000
864.74	583.333
865.03	450.000
865.33	205.263
865.62	418.182
865.92	361.538
866.21	275.000
866.51	0.000
866.80	272.727
867.10	860.000
867.39	384.615
867.69	290.909
867.98	200.000
868.27	363.636
868.57	252.632
868.86	-3000.000
869.16	275.000
869.45	1550.000
869.75	-3700.000
870.04	316.667
870.33	471.429
870.63	1075.000
870.92	2000.000
871.22	628.571
871.51	247.059
871.80	214.286
872.10	292.857
>>>>>End Processed Spectral Data<<<<<
