SpectraSuite Data File
++++++++++++++++++++++++++++++++++++
Date: Wed May 13 16:30:23 PDT 2015
User: schluterlab
Dark Spectrum Present: Yes
Reference Spectrum Present: Yes
Number of Sampled Component Spectra: 1
Spectrometers: USB2E3373
Integration Time (usec): 3000 (USB2E3373)
Spectra Averaged: 3 (USB2E3373)
Boxcar Smoothing: 0 (USB2E3373)
Correct for Electrical Dark: No (USB2E3373)
Strobe/Lamp Enabled: No (USB2E3373)
Correct for Detector Non-linearity: No (USB2E3373)
Correct for Stray Light: No (USB2E3373)
Number of Pixels in Processed Spectrum: 2048
>>>>>Begin Processed Spectral Data<<<<<
178.53	0.000
178.91	-1100.000
179.29	-925.000
179.67	-183.333
180.04	-1200.000
180.42	2550.000
180.80	980.000
181.18	-1050.000
181.56	700.000
181.94	0.000
182.31	-642.857
182.69	1333.333
183.07	-475.000
183.45	-477.778
183.83	463.636
184.20	-300.000
184.58	2000.000
184.96	4400.000
185.34	-800.000
185.72	-525.000
186.09	-2300.000
186.47	2350.000
186.85	2350.000
187.23	3900.000
187.61	-1733.333
187.98	1400.000
188.36	618.182
188.74	536.364
189.12	-920.000
189.49	490.000
189.87	-4000.000
190.25	-1250.000
190.63	350.000
191.00	392.308
191.38	733.333
191.76	-875.000
192.14	1225.000
192.51	412.500
192.89	733.333
193.27	537.500
193.65	-1025.000
194.02	550.000
194.40	840.000
194.78	540.000
195.15	483.333
195.53	580.000
195.91	-1650.000
196.29	350.000
196.66	278.947
197.04	-300.000
197.42	0.000
197.79	520.000
198.17	-4100.000
198.55	571.429
198.92	625.000
199.30	720.000
199.68	0.000
200.05	305.556
200.43	642.857
200.81	3900.000
201.18	1466.667
201.56	-1400.000
201.94	400.000
202.31	588.889
202.69	308.333
203.07	480.000
203.44	0.000
203.82	1050.000
204.19	671.429
204.57	428.571
204.95	512.500
205.32	1466.667
205.70	454.545
206.08	321.429
206.45	2800.000
206.83	250.000
207.20	650.000
207.58	780.000
207.96	311.111
208.33	612.500
208.71	-766.667
209.08	714.286
209.46	500.000
209.84	445.455
210.21	-1433.333
210.59	1250.000
210.96	-562.500
211.34	2450.000
211.71	490.000
212.09	716.667
212.46	0.000
212.84	1566.667
213.22	1050.000
213.59	-4500.000
213.97	766.667
214.34	742.857
214.72	518.182
215.09	1020.000
215.47	-2150.000
215.84	-2250.000
216.22	1366.667
216.59	335.714
216.97	1175.000
217.34	390.909
217.72	-616.667
218.09	0.000
218.47	-4600.000
218.84	566.667
219.22	771.429
219.59	1466.667
219.97	-471.429
220.34	960.000
220.72	-1433.333
221.09	350.000
221.47	1250.000
221.84	-783.333
222.22	0.000
222.59	1125.000
222.97	-2300.000
223.34	1060.000
223.72	415.385
224.09	800.000
224.46	1750.000
224.84	-4900.000
225.21	-820.000
225.59	-4200.000
225.96	470.000
226.34	270.000
226.71	2450.000
227.08	462.500
227.46	560.000
227.83	-1100.000
228.21	-1850.000
228.58	511.111
228.95	-2150.000
229.33	-1700.000
229.70	1700.000
230.08	571.429
230.45	-720.000
230.82	425.000
231.20	766.667
231.57	700.000
231.95	441.667
232.32	245.455
232.69	372.727
233.07	642.857
233.44	361.538
233.81	-1533.333
234.19	300.000
234.56	466.667
234.93	400.000
235.31	427.273
235.68	353.846
236.05	307.143
236.43	178.788
236.80	310.526
237.17	5100.000
237.55	257.143
237.92	210.714
238.29	271.429
238.67	206.452
239.04	227.586
239.41	169.444
239.79	158.696
240.16	164.286
240.53	154.545
240.91	135.294
241.28	140.000
241.65	136.000
242.02	114.493
242.40	135.484
242.77	140.000
243.14	103.226
243.51	108.989
243.89	110.588
244.26	105.556
244.63	98.925
245.00	117.021
245.38	100.990
245.75	90.654
246.12	92.661
246.49	90.511
246.87	92.000
247.24	90.769
247.61	90.000
247.98	80.392
248.36	83.108
248.73	80.892
249.10	84.076
249.47	82.486
249.84	78.075
250.22	77.540
250.59	75.740
250.96	83.838
251.33	72.986
251.70	78.218
252.08	75.714
252.45	69.955
252.82	72.174
253.19	71.064
253.56	70.196
253.94	72.199
254.31	71.484
254.68	75.769
255.05	73.801
255.42	74.797
255.79	68.015
256.16	71.119
256.54	67.491
256.91	62.633
257.28	69.424
257.65	68.977
258.02	64.907
258.39	65.300
258.76	68.227
259.14	59.821
259.51	64.438
259.88	66.460
260.25	67.674
260.62	63.584
260.99	69.565
261.36	66.667
261.73	67.049
262.10	66.860
262.47	69.014
262.85	65.460
263.22	63.248
263.59	70.655
263.96	64.835
264.33	62.924
264.70	66.316
265.07	65.217
265.44	63.131
265.81	61.071
266.18	65.075
266.55	61.463
266.92	64.865
267.29	64.583
267.66	64.908
268.03	62.045
268.40	62.617
268.77	62.530
269.14	60.586
269.51	60.497
269.88	62.937
270.25	58.465
270.62	61.124
270.99	61.935
271.36	59.227
271.73	64.019
272.10	62.174
272.47	64.086
272.84	63.203
273.21	59.119
273.58	60.262
273.95	58.491
274.32	59.917
274.69	60.171
275.06	57.677
275.43	59.787
275.80	60.321
276.17	61.914
276.54	60.083
276.91	58.893
277.28	57.812
277.65	60.735
278.02	59.627
278.39	61.914
278.76	58.000
279.13	57.925
279.50	58.845
279.87	59.163
280.23	58.283
280.60	58.801
280.97	56.747
281.34	59.646
281.71	56.545
282.08	58.925
282.45	56.909
282.82	56.306
283.19	56.684
283.56	54.737
283.92	53.638
284.29	56.085
284.66	54.446
285.03	54.611
285.40	55.810
285.77	55.724
286.14	52.159
286.51	56.833
286.87	55.043
287.24	54.560
287.61	53.130
287.98	52.273
288.35	53.249
288.72	52.025
289.08	50.861
289.45	52.389
289.82	52.520
290.19	48.509
290.56	50.383
290.93	47.885
291.29	50.153
291.66	49.115
292.03	50.145
292.40	49.633
292.77	47.781
293.13	48.060
293.50	48.980
293.87	48.296
294.24	47.704
294.60	47.307
294.97	45.785
295.34	46.121
295.71	45.597
296.08	43.020
296.44	45.117
296.81	40.951
297.18	46.206
297.55	42.612
297.91	43.140
298.28	44.578
298.65	43.473
299.02	44.137
299.38	42.895
299.75	43.127
300.12	44.572
300.48	42.375
300.85	42.293
301.22	40.892
301.59	39.773
301.95	41.814
302.32	41.849
302.69	41.338
303.05	40.364
303.42	40.370
303.79	41.336
304.15	40.093
304.52	39.629
304.89	40.418
305.25	40.951
305.62	40.770
305.99	39.433
306.35	41.387
306.72	39.350
307.09	38.735
307.45	40.653
307.82	39.063
308.19	37.748
308.55	39.482
308.92	38.453
309.29	37.804
309.65	38.706
310.02	39.112
310.38	39.247
310.75	38.332
311.12	38.997
311.48	38.976
311.85	38.994
312.22	38.085
312.58	38.877
312.95	38.965
313.31	36.990
313.68	37.214
314.05	40.138
314.41	37.990
314.78	38.268
315.14	37.835
315.51	38.002
315.87	38.020
316.24	37.339
316.61	36.745
316.97	37.280
317.34	36.986
317.70	38.623
318.07	37.825
318.43	37.769
318.80	38.613
319.16	38.324
319.53	37.054
319.89	38.190
320.26	38.000
320.62	36.706
320.99	37.677
321.35	36.869
321.72	36.037
322.08	37.414
322.45	39.005
322.81	38.081
323.18	39.210
323.54	38.497
323.91	37.830
324.27	37.285
324.64	37.185
325.00	36.880
325.37	37.216
325.73	36.535
326.10	35.746
326.46	35.842
326.83	36.756
327.19	37.660
327.56	36.324
327.92	37.008
328.29	38.509
328.65	37.477
329.01	37.545
329.38	37.835
329.74	35.826
330.11	36.664
330.47	35.904
330.84	36.949
331.20	34.608
331.56	35.780
331.93	35.185
332.29	34.428
332.66	36.460
333.02	36.563
333.38	36.224
333.75	36.275
334.11	35.587
334.48	36.114
334.84	36.765
335.20	36.182
335.57	35.630
335.93	33.750
336.29	35.440
336.66	34.085
337.02	33.575
337.38	36.296
337.75	33.512
338.11	34.020
338.47	34.070
338.84	35.655
339.20	33.028
339.56	35.036
339.93	33.818
340.29	33.605
340.65	33.155
341.02	34.642
341.38	34.609
341.74	33.947
342.11	35.109
342.47	35.242
342.83	32.877
343.20	35.238
343.56	33.024
343.92	33.158
344.28	34.354
344.65	33.448
345.01	31.987
345.37	32.161
345.73	32.910
346.10	34.271
346.46	33.898
346.82	33.031
347.19	33.083
347.55	32.348
347.91	32.524
348.27	34.100
348.63	33.110
349.00	33.252
349.36	33.169
349.72	31.836
350.08	32.658
350.45	32.547
350.81	32.981
351.17	32.901
351.53	31.859
351.89	32.261
352.26	34.254
352.62	32.799
352.98	32.253
353.34	32.457
353.70	30.851
354.07	31.613
354.43	31.984
354.79	31.537
355.15	31.844
355.51	32.854
355.87	33.306
356.24	31.270
356.60	32.318
356.96	32.422
357.32	31.480
357.68	32.520
358.04	31.275
358.40	31.275
358.77	31.455
359.13	30.229
359.49	30.667
359.85	30.714
360.21	30.383
360.57	30.661
360.93	32.231
361.29	31.141
361.66	31.037
362.02	30.299
362.38	31.179
362.74	31.176
363.10	30.422
363.46	30.521
363.82	30.612
364.18	30.470
364.54	30.832
364.90	31.020
365.26	30.882
365.62	31.118
365.98	30.387
366.35	29.943
366.71	30.947
367.07	30.007
367.43	31.132
367.79	31.263
368.15	30.819
368.51	29.724
368.87	31.263
369.23	30.578
369.59	30.123
369.95	29.191
370.31	30.484
370.67	30.507
371.03	30.637
371.39	29.956
371.75	30.441
372.11	29.943
372.47	30.132
372.83	31.556
373.19	30.491
373.55	30.377
373.91	31.149
374.27	29.691
374.63	30.545
374.99	31.144
375.35	30.007
375.71	30.089
376.07	31.276
376.42	30.124
376.78	30.484
377.14	29.986
377.50	30.000
377.86	30.452
378.22	29.709
378.58	28.634
378.94	29.667
379.30	29.962
379.66	30.203
380.02	29.853
380.38	29.569
380.74	29.772
381.09	30.929
381.45	30.117
381.81	29.484
382.17	29.172
382.53	29.497
382.89	29.136
383.25	29.518
383.61	29.802
383.97	30.582
384.32	29.258
384.68	29.678
385.04	30.486
385.40	29.783
385.76	29.668
386.12	30.376
386.48	30.334
386.83	31.046
387.19	29.499
387.55	30.118
387.91	29.686
388.27	30.656
388.62	29.871
388.98	29.177
389.34	29.537
389.70	30.227
390.06	30.355
390.42	29.831
390.77	29.198
391.13	29.419
391.49	30.457
391.85	29.153
392.20	28.959
392.56	29.861
392.92	30.489
393.28	29.231
393.64	29.556
393.99	30.055
394.35	29.218
394.71	29.987
395.07	29.346
395.42	31.273
395.78	30.153
396.14	29.423
396.50	30.764
396.85	29.816
397.21	28.977
397.57	29.448
397.92	29.748
398.28	29.372
398.64	30.167
399.00	29.211
399.35	30.175
399.71	29.803
400.07	29.982
400.42	29.693
400.78	30.157
401.14	29.085
401.49	29.075
401.85	29.220
402.21	29.940
402.57	29.981
402.92	29.887
403.28	29.482
403.63	29.579
403.99	29.554
404.35	29.333
404.70	29.137
405.06	28.247
405.42	29.632
405.77	28.571
406.13	28.499
406.49	29.982
406.84	29.120
407.20	29.492
407.55	29.292
407.91	29.733
408.27	29.419
408.62	29.500
408.98	29.105
409.34	29.213
409.69	29.032
410.05	28.934
410.40	29.052
410.76	28.375
411.11	29.312
411.47	29.137
411.83	29.322
412.18	28.448
412.54	29.763
412.89	28.855
413.25	28.689
413.60	30.142
413.96	28.537
414.31	28.736
414.67	28.771
415.03	28.675
415.38	29.510
415.74	28.810
416.09	29.719
416.45	28.849
416.80	28.685
417.16	29.155
417.51	29.861
417.87	28.645
418.22	29.779
418.58	28.276
418.93	29.853
419.29	29.408
419.64	29.597
420.00	28.963
420.35	28.000
420.71	29.707
421.06	28.162
421.42	28.480
421.77	29.260
422.12	29.141
422.48	27.793
422.83	28.655
423.19	28.398
423.54	28.497
423.90	29.333
424.25	28.308
424.61	28.452
424.96	29.213
425.31	28.405
425.67	28.427
426.02	28.743
426.38	29.609
426.73	28.262
427.09	28.571
427.44	28.005
427.79	28.235
428.15	30.179
428.50	27.970
428.85	28.725
429.21	27.719
429.56	28.149
429.92	27.982
430.27	28.302
430.62	27.599
430.98	28.179
431.33	28.247
431.68	28.482
432.04	27.529
432.39	28.498
432.74	28.905
433.10	28.862
433.45	28.338
433.80	28.160
434.16	27.938
434.51	27.579
434.86	27.480
435.22	28.127
435.57	28.632
435.92	28.379
436.28	28.470
436.63	28.863
436.98	28.163
437.34	29.636
437.69	28.530
438.04	28.499
438.39	28.896
438.75	28.414
439.10	28.715
439.45	27.745
439.81	28.459
440.16	28.571
440.51	27.651
440.86	28.431
441.22	27.697
441.57	28.344
441.92	28.045
442.27	28.364
442.63	28.278
442.98	28.789
443.33	28.043
443.68	28.033
444.03	28.551
444.39	28.335
444.74	27.706
445.09	28.410
445.44	27.665
445.79	27.610
446.15	27.316
446.50	27.625
446.85	28.674
447.20	27.588
447.55	28.699
447.91	28.130
448.26	27.991
448.61	28.660
448.96	29.014
449.31	28.121
449.66	28.081
450.02	27.577
450.37	27.891
450.72	27.862
451.07	27.727
451.42	27.416
451.77	27.951
452.12	27.598
452.47	28.234
452.83	27.273
453.18	28.056
453.53	27.829
453.88	27.466
454.23	27.496
454.58	27.620
454.93	28.735
455.28	27.494
455.63	28.216
455.98	28.631
456.34	28.078
456.69	27.489
457.04	27.678
457.39	27.586
457.74	27.626
458.09	27.775
458.44	27.936
458.79	27.928
459.14	27.257
459.49	27.963
459.84	27.701
460.19	27.991
460.54	27.257
460.89	27.647
461.24	28.355
461.59	28.239
461.94	27.497
462.29	28.665
462.64	27.632
462.99	28.627
463.34	29.133
463.69	28.518
464.04	28.058
464.39	27.246
464.74	28.342
465.09	27.805
465.44	27.313
465.79	28.020
466.14	27.148
466.49	27.419
466.84	27.379
467.19	27.761
467.54	27.750
467.89	27.011
468.24	28.447
468.59	28.510
468.94	27.428
469.29	27.956
469.64	29.317
469.99	28.417
470.34	27.543
470.68	28.520
471.03	27.687
471.38	28.214
471.73	27.915
472.08	27.039
472.43	26.822
472.78	27.650
473.13	26.380
473.48	28.090
473.83	27.378
474.17	26.136
474.52	27.295
474.87	28.138
475.22	27.336
475.57	25.846
475.92	26.447
476.27	26.663
476.61	26.696
476.96	26.608
477.31	27.316
477.66	28.228
478.01	26.189
478.36	27.234
478.70	26.272
479.05	27.157
479.40	25.793
479.75	26.894
480.10	26.640
480.45	25.559
480.79	26.517
481.14	26.419
481.49	26.483
481.84	26.475
482.19	26.306
482.53	26.330
482.88	26.757
483.23	26.729
483.58	26.388
483.92	26.242
484.27	25.621
484.62	26.207
484.97	26.133
485.31	26.781
485.66	25.320
486.01	24.410
486.36	24.235
486.70	24.158
487.05	24.222
487.40	26.124
487.75	26.287
488.09	27.419
488.44	27.452
488.79	27.776
489.13	27.311
489.48	26.876
489.83	26.327
490.17	26.260
490.52	25.421
490.87	25.871
491.22	25.921
491.56	25.513
491.91	25.500
492.26	25.034
492.60	24.931
492.95	24.649
493.30	25.280
493.64	24.218
493.99	25.487
494.34	25.439
494.68	26.236
495.03	25.940
495.37	25.081
495.72	25.877
496.07	25.940
496.41	25.265
496.76	25.506
497.11	25.709
497.45	25.897
497.80	25.144
498.14	24.831
498.49	25.512
498.84	25.695
499.18	25.857
499.53	25.546
499.87	25.443
500.22	25.483
500.56	26.165
500.91	25.144
501.26	26.031
501.60	26.246
501.95	25.390
502.29	25.773
502.64	25.140
502.98	25.666
503.33	25.046
503.67	25.708
504.02	24.649
504.36	25.690
504.71	25.012
505.06	24.675
505.40	25.182
505.75	25.362
506.09	25.462
506.44	25.210
506.78	25.231
507.13	25.745
507.47	25.606
507.82	25.127
508.16	25.228
508.51	25.419
508.85	24.926
509.19	26.071
509.54	24.592
509.88	24.884
510.23	24.422
510.57	26.058
510.92	24.806
511.26	25.437
511.61	25.571
511.95	24.530
512.30	24.973
512.64	25.255
512.98	25.027
513.33	25.107
513.67	24.813
514.02	25.758
514.36	25.014
514.70	25.125
515.05	24.930
515.39	24.846
515.74	24.381
516.08	25.266
516.42	25.694
516.77	25.307
517.11	23.640
517.46	24.605
517.80	25.610
518.14	24.783
518.49	25.379
518.83	25.000
519.17	24.654
519.52	25.014
519.86	24.872
520.20	25.665
520.55	25.554
520.89	25.122
521.23	25.513
521.58	25.210
521.92	25.230
522.26	24.405
522.61	24.611
522.95	24.862
523.29	24.589
523.64	25.061
523.98	25.262
524.32	25.271
524.66	24.654
525.01	24.571
525.35	25.217
525.69	24.815
526.04	24.673
526.38	24.832
526.72	24.847
527.06	24.482
527.41	23.515
527.75	25.209
528.09	24.213
528.43	25.239
528.78	24.954
529.12	24.485
529.46	25.046
529.80	25.495
530.15	24.922
530.49	23.938
530.83	24.430
531.17	25.914
531.51	25.875
531.86	25.226
532.20	25.684
532.54	24.087
532.88	25.481
533.22	24.610
533.57	24.506
533.91	24.804
534.25	24.848
534.59	24.710
534.93	24.390
535.27	25.045
535.62	25.031
535.96	24.984
536.30	24.857
536.64	24.533
536.98	25.614
537.32	24.885
537.66	25.533
538.01	25.477
538.35	24.952
538.69	26.420
539.03	24.366
539.37	24.153
539.71	24.238
540.05	24.837
540.39	24.983
540.73	24.580
541.07	25.762
541.42	25.049
541.76	25.226
542.10	24.580
542.44	25.099
542.78	26.350
543.12	24.696
543.46	25.639
543.80	25.244
544.14	24.454
544.48	25.270
544.82	24.695
545.16	25.309
545.50	25.064
545.84	24.597
546.18	25.724
546.52	25.189
546.86	25.155
547.20	24.680
547.54	24.048
547.88	25.765
548.22	23.973
548.56	25.220
548.90	23.239
549.24	24.377
549.58	24.557
549.92	25.343
550.26	25.781
550.60	24.620
550.94	24.859
551.28	24.433
551.62	24.946
551.96	25.544
552.30	24.846
552.64	24.408
552.98	24.881
553.32	25.219
553.66	24.063
554.00	25.806
554.34	24.707
554.68	25.823
555.02	24.260
555.36	25.052
555.69	24.222
556.03	24.293
556.37	24.420
556.71	24.147
557.05	24.020
557.39	23.793
557.73	23.853
558.07	25.236
558.41	24.313
558.75	24.835
559.08	24.683
559.42	25.019
559.76	24.118
560.10	24.411
560.44	25.017
560.78	24.351
561.12	24.868
561.45	25.424
561.79	24.127
562.13	24.816
562.47	24.522
562.81	24.616
563.15	24.682
563.48	24.602
563.82	24.201
564.16	24.068
564.50	24.870
564.84	25.284
565.17	24.646
565.51	24.920
565.85	25.635
566.19	23.607
566.52	24.256
566.86	23.930
567.20	25.118
567.54	25.057
567.88	24.063
568.21	24.339
568.55	23.913
568.89	24.562
569.23	23.797
569.56	23.806
569.90	23.623
570.24	23.933
570.57	24.277
570.91	23.982
571.25	23.935
571.59	24.359
571.92	24.770
572.26	24.263
572.60	24.745
572.93	24.588
573.27	24.874
573.61	24.846
573.95	25.245
574.28	24.196
574.62	24.514
574.96	24.014
575.29	24.345
575.63	23.526
575.97	24.577
576.30	24.642
576.64	24.185
576.98	24.307
577.31	24.884
577.65	23.865
577.98	24.045
578.32	23.948
578.66	24.319
578.99	24.949
579.33	25.030
579.67	24.422
580.00	25.414
580.34	25.249
580.67	25.148
581.01	25.118
581.35	24.402
581.68	24.270
582.02	23.981
582.35	24.195
582.69	24.578
583.02	24.524
583.36	25.040
583.70	25.574
584.03	25.549
584.37	25.771
584.70	25.784
585.04	25.000
585.37	25.140
585.71	24.883
586.04	24.740
586.38	24.791
586.72	25.104
587.05	24.939
587.39	24.301
587.72	25.071
588.06	24.947
588.39	24.609
588.73	25.403
589.06	25.709
589.40	26.431
589.73	25.766
590.07	25.480
590.40	25.137
590.73	25.722
591.07	25.967
591.40	25.517
591.74	25.368
592.07	25.262
592.41	25.093
592.74	24.419
593.08	24.350
593.41	24.138
593.75	23.579
594.08	24.170
594.41	24.779
594.75	25.102
595.08	24.517
595.42	24.799
595.75	24.929
596.09	25.723
596.42	25.422
596.75	25.918
597.09	25.152
597.42	25.295
597.75	25.097
598.09	25.522
598.42	24.527
598.76	24.118
599.09	25.010
599.42	23.799
599.76	24.780
600.09	24.335
600.42	24.470
600.76	24.214
601.09	24.663
601.42	25.076
601.76	24.782
602.09	24.466
602.42	24.881
602.76	25.595
603.09	25.374
603.42	24.795
603.76	24.466
604.09	24.428
604.42	24.745
604.76	24.968
605.09	25.644
605.42	24.198
605.75	25.083
606.09	24.441
606.42	25.010
606.75	25.010
607.09	25.701
607.42	24.604
607.75	24.388
608.08	25.271
608.42	25.325
608.75	24.752
609.08	24.653
609.41	24.893
609.75	24.535
610.08	24.694
610.41	24.488
610.74	24.551
611.07	25.346
611.41	25.368
611.74	25.189
612.07	25.725
612.40	24.711
612.73	24.368
613.07	25.431
613.40	24.961
613.73	24.594
614.06	24.946
614.39	23.912
614.72	24.474
615.06	24.317
615.39	25.159
615.72	24.642
616.05	23.923
616.38	24.736
616.71	25.119
617.05	24.912
617.38	24.293
617.71	25.165
618.04	25.781
618.37	25.429
618.70	25.327
619.03	25.592
619.36	25.730
619.69	25.986
620.03	25.137
620.36	25.067
620.69	25.342
621.02	25.221
621.35	24.432
621.68	24.533
622.01	24.923
622.34	25.189
622.67	24.791
623.00	24.065
623.33	24.375
623.66	24.589
623.99	24.521
624.32	24.465
624.65	24.647
624.99	23.017
625.32	23.751
625.65	25.845
625.98	24.904
626.31	26.439
626.64	24.816
626.97	25.353
627.30	25.270
627.63	24.938
627.96	26.829
628.29	25.372
628.62	25.435
628.95	27.925
629.28	25.456
629.61	25.848
629.94	25.619
630.26	23.737
630.59	25.453
630.92	24.713
631.25	23.495
631.58	24.324
631.91	24.442
632.24	23.945
632.57	24.869
632.90	25.658
633.23	25.168
633.56	24.746
633.89	26.161
634.22	26.447
634.55	25.917
634.88	25.389
635.20	25.926
635.53	24.819
635.86	26.485
636.19	25.882
636.52	25.836
636.85	24.742
637.18	24.654
637.51	26.123
637.83	22.688
638.16	25.831
638.49	26.322
638.82	26.422
639.15	25.125
639.48	25.810
639.81	25.469
640.13	25.781
640.46	23.758
640.79	26.552
641.12	26.272
641.45	24.721
641.77	26.804
642.10	24.269
642.43	25.976
642.76	25.077
643.09	26.074
643.41	25.797
643.74	28.549
644.07	27.134
644.40	27.607
644.73	26.614
645.05	27.417
645.38	25.750
645.71	28.341
646.04	26.744
646.36	29.382
646.69	27.090
647.02	27.041
647.35	25.945
647.67	26.903
648.00	28.780
648.33	26.403
648.66	25.758
648.98	25.337
649.31	26.756
649.64	26.158
649.96	24.888
650.29	26.540
650.62	25.405
650.94	28.849
651.27	28.041
651.60	27.454
651.92	26.358
652.25	24.919
652.58	27.103
652.90	27.330
653.23	24.961
653.56	24.882
653.88	26.149
654.21	28.752
654.54	27.888
654.86	27.414
655.19	24.730
655.52	20.562
655.84	18.943
656.17	24.590
656.49	34.264
656.82	36.810
657.15	29.045
657.47	22.234
657.80	17.550
658.13	18.732
658.45	29.084
658.78	30.837
659.10	32.056
659.43	34.990
659.75	36.088
660.08	35.316
660.41	36.034
660.73	34.562
661.06	30.892
661.38	28.909
661.71	30.192
662.03	28.402
662.36	28.231
662.68	27.711
663.01	28.283
663.33	27.176
663.66	28.571
663.98	27.214
664.31	26.471
664.63	26.923
664.96	25.553
665.28	26.434
665.61	27.875
665.93	26.358
666.26	28.398
666.58	26.151
666.91	29.598
667.23	29.438
667.56	25.918
667.88	28.205
668.21	28.785
668.53	29.284
668.86	28.355
669.18	30.704
669.50	29.783
669.83	29.847
670.15	29.778
670.48	25.926
670.80	29.095
671.13	29.724
671.45	29.362
671.77	27.495
672.10	26.248
672.42	28.092
672.75	27.363
673.07	27.113
673.39	25.859
673.72	27.930
674.04	27.451
674.37	28.544
674.69	28.221
675.01	25.941
675.34	26.489
675.66	31.368
675.98	29.124
676.31	29.622
676.63	27.813
676.95	27.254
677.28	27.570
677.60	26.813
677.92	28.481
678.25	26.694
678.57	28.486
678.89	28.257
679.22	26.916
679.54	28.817
679.86	28.440
680.18	27.013
680.51	27.660
680.83	28.292
681.15	27.547
681.48	30.624
681.80	27.273
682.12	30.268
682.44	25.338
682.77	28.310
683.09	30.258
683.41	30.599
683.73	28.698
684.06	29.132
684.38	26.223
684.70	27.713
685.02	30.206
685.34	28.755
685.67	26.923
685.99	24.742
686.31	26.109
686.63	25.265
686.96	28.036
687.28	25.451
687.60	28.623
687.92	27.788
688.24	27.567
688.56	29.317
688.89	29.253
689.21	29.913
689.53	29.228
689.85	28.825
690.17	25.880
690.49	30.573
690.82	30.374
691.14	26.562
691.46	25.316
691.78	27.912
692.10	28.719
692.42	29.741
692.74	29.876
693.06	29.149
693.39	27.515
693.71	26.638
694.03	31.158
694.35	27.273
694.67	27.460
694.99	29.512
695.31	27.451
695.63	27.751
695.95	28.606
696.27	29.949
696.59	27.720
696.91	30.570
697.23	24.413
697.56	29.638
697.88	26.789
698.20	27.917
698.52	27.527
698.84	28.508
699.16	28.571
699.48	29.929
699.80	31.159
700.12	32.208
700.44	32.891
700.76	30.110
701.08	31.034
701.40	29.050
701.72	30.029
702.04	33.807
702.36	28.895
702.68	30.312
703.00	29.917
703.32	30.585
703.64	30.831
703.96	31.198
704.28	31.686
704.60	30.205
704.91	31.454
705.23	31.378
705.55	31.894
705.87	32.558
706.19	31.095
706.51	29.907
706.83	32.121
707.15	30.812
707.47	29.798
707.79	28.010
708.11	31.050
708.43	28.095
708.74	28.827
709.06	33.506
709.38	29.659
709.70	34.012
710.02	30.564
710.34	28.485
710.66	31.343
710.98	30.966
711.29	31.105
711.61	33.628
711.93	30.128
712.25	34.727
712.57	30.515
712.89	34.602
713.20	31.915
713.52	31.250
713.84	32.911
714.16	32.317
714.48	28.161
714.80	35.258
715.11	29.971
715.43	30.267
715.75	29.855
716.07	32.268
716.39	32.915
716.70	32.890
717.02	35.252
717.34	32.509
717.66	32.836
717.97	36.255
718.29	33.704
718.61	33.212
718.93	31.985
719.24	35.986
719.56	29.492
719.88	32.203
720.20	34.797
720.51	35.192
720.83	35.316
721.15	33.582
721.46	31.560
721.78	36.201
722.10	35.094
722.42	33.835
722.73	34.457
723.05	35.246
723.37	34.008
723.68	34.749
724.00	35.772
724.32	38.306
724.63	32.520
724.95	34.310
725.27	38.057
725.58	31.641
725.90	35.401
726.22	35.472
726.53	36.111
726.85	35.836
727.16	28.826
727.48	32.270
727.80	37.121
728.11	35.145
728.43	33.846
728.74	34.050
729.06	36.496
729.38	36.765
729.69	34.875
730.01	31.741
730.32	35.069
730.64	31.104
730.96	29.703
731.27	35.099
731.59	34.862
731.90	31.778
732.22	32.298
732.53	33.437
732.85	33.974
733.16	31.833
733.48	36.213
733.80	34.091
734.11	35.350
734.43	32.840
734.74	31.714
735.06	28.367
735.37	35.260
735.69	35.669
736.00	38.562
736.32	34.268
736.63	34.185
736.95	33.227
737.26	28.912
737.58	31.613
737.89	32.441
738.21	35.495
738.52	36.429
738.83	32.453
739.15	32.308
739.46	33.212
739.78	32.986
740.09	31.385
740.41	33.871
740.72	33.101
741.04	32.593
741.35	34.167
741.66	39.111
741.98	39.623
742.29	39.234
742.61	37.931
742.92	35.747
743.23	38.034
743.55	34.000
743.86	38.596
744.18	42.035
744.49	38.756
744.80	47.418
745.12	41.364
745.43	34.361
745.74	42.342
746.06	37.156
746.37	33.184
746.68	31.674
747.00	38.889
747.31	41.905
747.62	33.628
747.94	39.207
748.25	33.191
748.56	41.410
748.88	34.158
749.19	45.000
749.50	43.721
749.82	34.959
750.13	37.551
750.44	33.942
750.75	36.491
751.07	40.193
751.38	36.585
751.69	37.545
752.01	32.331
752.32	31.769
752.63	32.979
752.94	34.426
753.26	40.000
753.57	28.862
753.88	35.937
754.19	37.143
754.51	34.375
754.82	32.130
755.13	35.849
755.44	31.203
755.75	32.117
756.07	36.170
756.38	33.577
756.69	30.537
757.00	32.635
757.31	29.970
757.63	33.918
757.94	30.295
758.25	31.127
758.56	30.864
758.87	28.495
759.18	31.212
759.50	32.288
759.81	29.907
760.12	30.625
760.43	35.244
760.74	28.261
761.05	33.898
761.36	30.749
761.67	35.227
761.99	36.025
762.30	34.722
762.61	37.405
762.92	38.281
763.23	37.395
763.54	39.600
763.85	34.766
764.16	36.538
764.47	40.684
764.78	31.802
765.10	31.013
765.41	34.808
765.72	35.030
766.03	34.169
766.34	35.667
766.65	36.170
766.96	36.325
767.27	42.132
767.58	44.271
767.89	44.211
768.20	46.552
768.51	36.548
768.82	42.661
769.13	33.333
769.44	35.628
769.75	38.197
770.06	36.697
770.37	43.891
770.68	40.278
770.99	35.556
771.30	34.426
771.61	38.117
771.92	40.574
772.23	39.496
772.54	43.077
772.85	45.550
773.16	44.681
773.47	45.109
773.78	48.223
774.09	43.452
774.39	48.538
774.70	39.506
775.01	50.725
775.32	51.634
775.63	47.368
775.94	45.324
776.25	41.732
776.56	55.224
776.87	61.475
777.18	57.812
777.48	54.198
777.79	54.545
778.10	47.407
778.41	53.571
778.72	45.255
779.03	43.624
779.34	46.309
779.65	34.459
779.95	40.491
780.26	50.980
780.57	52.414
780.88	61.719
781.19	42.857
781.50	45.270
781.80	41.509
782.11	41.243
782.42	43.671
782.73	42.945
783.04	46.622
783.34	47.183
783.65	47.945
783.96	54.478
784.27	46.853
784.57	46.043
784.88	46.296
785.19	64.286
785.50	58.491
785.81	55.224
786.11	57.377
786.42	57.364
786.73	65.487
787.04	64.151
787.34	62.500
787.65	60.000
787.96	63.063
788.26	49.587
788.57	63.559
788.88	52.066
789.19	54.167
789.49	56.061
789.80	56.489
790.11	73.333
790.41	76.238
790.72	65.060
791.03	66.304
791.33	68.605
791.64	63.918
791.95	59.406
792.25	65.556
792.56	72.727
792.87	78.205
793.17	82.278
793.48	64.368
793.79	66.667
794.09	68.182
794.40	52.101
794.70	61.765
795.01	49.630
795.32	61.151
795.62	54.331
795.93	63.793
796.23	58.407
796.54	55.294
796.85	83.784
797.15	101.408
797.46	95.455
797.76	73.494
798.07	68.354
798.37	67.692
798.68	74.242
798.99	77.465
799.29	70.130
799.60	69.318
799.90	86.301
800.21	88.060
800.51	100.000
800.82	85.965
801.12	100.000
801.43	96.970
801.73	74.324
802.04	104.762
802.34	71.605
802.65	81.250
802.95	101.695
803.26	106.250
803.56	74.286
803.87	70.769
804.17	83.824
804.48	114.815
804.78	72.414
805.09	101.471
805.39	88.462
805.70	94.643
806.00	91.803
806.30	83.333
806.61	78.049
806.91	62.025
807.22	77.632
807.52	67.164
807.83	90.141
808.13	95.312
808.43	95.000
808.74	67.105
809.04	85.507
809.35	92.537
809.65	82.895
809.95	112.903
810.26	93.220
810.56	80.952
810.86	134.091
811.17	128.571
811.47	93.333
811.77	94.444
812.08	96.364
812.38	144.000
812.69	130.556
812.99	138.636
813.29	118.367
813.59	92.857
813.90	130.612
814.20	92.727
814.50	83.077
814.81	108.824
815.11	116.327
815.41	109.836
815.72	138.095
816.02	114.545
816.32	107.143
816.62	115.000
816.93	131.707
817.23	128.571
817.53	115.909
817.84	139.394
818.14	123.913
818.44	111.111
818.74	132.353
819.04	132.500
819.35	162.857
819.65	161.765
819.95	192.857
820.25	240.000
820.56	148.718
820.86	118.182
821.16	123.256
821.46	110.256
821.76	112.000
822.07	154.286
822.37	140.000
822.67	172.727
822.97	107.843
823.27	203.571
823.57	127.027
823.88	170.000
824.18	193.333
824.48	142.857
824.78	184.000
825.08	162.500
825.38	151.351
825.69	146.341
825.99	204.167
826.29	141.379
826.59	142.105
826.89	155.263
827.19	144.118
827.49	187.097
827.79	127.273
828.09	125.000
828.39	110.638
828.70	112.245
829.00	192.593
829.30	138.710
829.60	125.000
829.90	266.667
830.20	171.429
830.50	134.783
830.80	173.913
831.10	186.667
831.40	170.000
831.70	191.304
832.00	203.846
832.30	159.259
832.60	287.500
832.90	146.667
833.20	350.000
833.50	177.419
833.80	175.862
834.10	153.125
834.40	215.385
834.70	272.222
835.00	252.381
835.30	171.429
835.60	238.462
835.90	175.862
836.20	300.000
836.50	155.172
836.80	192.000
837.10	138.889
837.40	214.286
837.70	311.765
838.00	207.407
838.30	200.000
838.60	257.143
838.90	223.077
839.19	245.000
839.49	407.143
839.79	310.000
840.09	240.000
840.39	257.143
840.69	226.087
840.99	250.000
841.29	380.000
841.59	358.333
841.88	293.750
842.18	141.379
842.48	223.810
842.78	196.667
843.08	186.957
843.38	165.625
843.68	883.333
843.97	184.615
844.27	186.207
844.57	252.381
844.87	343.750
845.17	159.259
845.47	1200.000
845.76	444.444
846.06	258.824
846.36	450.000
846.66	321.429
846.96	262.500
847.25	345.455
847.55	409.091
847.85	217.391
848.15	390.000
848.44	285.714
848.74	211.111
849.04	264.706
849.34	490.000
849.63	200.000
849.93	436.364
850.23	980.000
850.53	335.714
850.82	2400.000
851.12	-3400.000
851.42	3600.000
851.71	220.000
852.01	-966.667
852.31	216.667
852.61	1733.333
852.90	242.857
853.20	212.000
853.50	252.941
853.79	190.476
854.09	204.167
854.39	287.500
854.68	156.757
854.98	190.323
855.28	136.667
855.57	224.138
855.87	181.481
856.17	226.316
856.46	260.000
856.76	258.824
857.05	186.207
857.35	200.000
857.65	360.000
857.94	208.696
858.24	207.692
858.53	210.000
858.83	240.909
859.13	253.333
859.42	0.000
859.72	522.222
860.01	390.909
860.31	250.000
860.60	215.789
860.90	226.087
861.20	422.222
861.49	475.000
861.79	-3600.000
862.08	650.000
862.38	261.905
862.67	315.385
862.97	288.235
863.26	522.222
863.56	277.778
863.85	325.000
864.15	525.000
864.44	353.333
864.74	783.333
865.03	625.000
865.33	284.211
865.62	372.727
865.92	423.077
866.21	400.000
866.51	0.000
866.80	372.727
867.10	1100.000
867.39	384.615
867.69	381.818
867.98	252.632
868.27	463.636
868.57	247.368
868.86	-4400.000
869.16	337.500
869.45	2050.000
869.75	-3600.000
870.04	391.667
870.33	700.000
870.63	1050.000
870.92	2000.000
871.22	585.714
871.51	288.235
871.80	147.619
872.10	307.143
>>>>>End Processed Spectral Data<<<<<
