SpectraSuite Data File
++++++++++++++++++++++++++++++++++++
Date: Wed May 13 16:53:50 PDT 2015
User: schluterlab
Dark Spectrum Present: Yes
Reference Spectrum Present: Yes
Number of Sampled Component Spectra: 1
Spectrometers: USB2E3373
Integration Time (usec): 3000 (USB2E3373)
Spectra Averaged: 3 (USB2E3373)
Boxcar Smoothing: 0 (USB2E3373)
Correct for Electrical Dark: No (USB2E3373)
Strobe/Lamp Enabled: No (USB2E3373)
Correct for Detector Non-linearity: No (USB2E3373)
Correct for Stray Light: No (USB2E3373)
Number of Pixels in Processed Spectrum: 2048
>>>>>Begin Processed Spectral Data<<<<<
178.53	0.000
178.91	-1225.000
179.29	-1450.000
179.67	-244.444
180.04	-1300.000
180.42	2200.000
180.80	1220.000
181.18	-1075.000
181.56	685.714
181.94	0.000
182.31	-657.143
182.69	1333.333
183.07	-525.000
183.45	-466.667
183.83	500.000
184.20	-520.000
184.58	2600.000
184.96	5600.000
185.34	-960.000
185.72	-537.500
186.09	-2650.000
186.47	2700.000
186.85	2400.000
187.23	3900.000
187.61	-1566.667
187.98	1525.000
188.36	536.364
188.74	627.273
189.12	-1000.000
189.49	520.000
189.87	-4500.000
190.25	-950.000
190.63	364.286
191.00	407.692
191.38	1000.000
191.76	-1375.000
192.14	1575.000
192.51	775.000
192.89	1116.667
193.27	625.000
193.65	-1100.000
194.02	630.000
194.40	1000.000
194.78	580.000
195.15	483.333
195.53	570.000
195.91	-2600.000
196.29	425.000
196.66	347.368
197.04	-470.000
197.42	0.000
197.79	650.000
198.17	-4200.000
198.55	700.000
198.92	650.000
199.30	880.000
199.68	0.000
200.05	327.778
200.43	871.429
200.81	5000.000
201.18	1700.000
201.56	-1466.667
201.94	600.000
202.31	677.778
202.69	391.667
203.07	580.000
203.44	0.000
203.82	1100.000
204.19	628.571
204.57	421.429
204.95	637.500
205.32	1600.000
205.70	572.727
206.08	457.143
206.45	2950.000
206.83	393.750
207.20	966.667
207.58	720.000
207.96	338.889
208.33	662.500
208.71	-850.000
209.08	671.429
209.46	611.111
209.84	481.818
210.21	-1600.000
210.59	1300.000
210.96	-537.500
211.34	2650.000
211.71	610.000
212.09	933.333
212.46	0.000
212.84	1766.667
213.22	1225.000
213.59	-5200.000
213.97	866.667
214.34	785.714
214.72	518.182
215.09	1080.000
215.47	-2350.000
215.84	-2400.000
216.22	1800.000
216.59	392.857
216.97	1425.000
217.34	518.182
217.72	-766.667
218.09	0.000
218.47	-5500.000
218.84	577.778
219.22	828.571
219.59	1800.000
219.97	-814.286
220.34	820.000
220.72	-1600.000
221.09	392.857
221.47	1525.000
221.84	-800.000
222.22	0.000
222.59	1300.000
222.97	-2600.000
223.34	1140.000
223.72	430.769
224.09	1120.000
224.46	2500.000
224.84	-4700.000
225.21	-1060.000
225.59	-4800.000
225.96	590.000
226.34	300.000
226.71	2600.000
227.08	625.000
227.46	560.000
227.83	-1050.000
228.21	-2800.000
228.58	611.111
228.95	-2550.000
229.33	-2350.000
229.70	1566.667
230.08	828.571
230.45	-920.000
230.82	425.000
231.20	916.667
231.57	700.000
231.95	516.667
232.32	245.455
232.69	454.545
233.07	557.143
233.44	369.231
233.81	-1500.000
234.19	273.684
234.56	458.333
234.93	416.667
235.31	545.455
235.68	323.077
236.05	364.286
236.43	166.667
236.80	263.158
237.17	4700.000
237.55	214.286
237.92	221.429
238.29	257.143
238.67	196.774
239.04	234.483
239.41	161.111
239.79	123.913
240.16	145.238
240.53	109.091
240.91	86.275
241.28	106.000
241.65	108.000
242.02	89.855
242.40	82.258
242.77	80.000
243.14	69.892
243.51	74.157
243.89	76.471
244.26	64.444
244.63	62.366
245.00	52.128
245.38	64.356
245.75	57.009
246.12	55.046
246.49	55.474
246.87	67.200
247.24	46.923
247.61	50.000
247.98	47.059
248.36	45.270
248.73	41.401
249.10	46.497
249.47	40.678
249.84	48.663
250.22	43.316
250.59	39.053
250.96	43.939
251.33	43.602
251.70	34.158
252.08	35.238
252.45	32.735
252.82	36.957
253.19	35.319
253.56	36.078
253.94	39.419
254.31	35.937
254.68	34.231
255.05	34.686
255.42	35.772
255.79	34.191
256.16	37.184
256.54	27.208
256.91	35.231
257.28	27.338
257.65	29.703
258.02	28.882
258.39	30.284
258.76	29.766
259.14	30.952
259.51	32.523
259.88	30.435
260.25	33.535
260.62	24.855
260.99	28.261
261.36	31.532
261.73	29.513
262.10	25.581
262.47	30.704
262.85	27.855
263.22	30.199
263.59	29.630
263.96	28.022
264.33	27.676
264.70	29.474
265.07	27.621
265.44	30.303
265.81	27.494
266.18	25.628
266.55	27.561
266.92	25.553
267.29	26.620
267.66	24.541
268.03	25.000
268.40	24.766
268.77	23.389
269.14	24.550
269.51	25.508
269.88	27.040
270.25	24.379
270.62	24.719
270.99	24.516
271.36	25.536
271.73	22.897
272.10	26.304
272.47	25.806
272.84	23.593
273.21	25.157
273.58	24.236
273.95	23.061
274.32	22.314
274.69	24.197
275.06	22.244
275.43	25.957
275.80	22.645
276.17	24.847
276.54	22.037
276.91	22.727
277.28	20.703
277.65	22.437
278.02	24.431
278.39	24.609
278.76	22.727
279.13	22.830
279.50	23.091
279.87	22.908
280.23	22.156
280.60	22.437
280.97	21.442
281.34	22.832
281.71	25.818
282.08	24.184
282.45	21.273
282.82	22.913
283.19	21.925
283.56	21.930
283.92	23.012
284.29	21.517
284.66	19.601
285.03	20.796
285.40	21.655
285.77	20.875
286.14	21.589
286.51	22.000
286.87	22.222
287.24	20.521
287.61	21.188
287.98	21.591
288.35	19.810
288.72	20.093
289.08	20.344
289.45	19.934
289.82	21.626
290.19	19.937
290.56	19.908
290.93	18.127
291.29	20.245
291.66	18.437
292.03	21.221
292.40	20.705
292.77	19.379
293.13	19.851
293.50	19.534
293.87	18.370
294.24	18.074
294.60	17.322
294.97	20.203
295.34	19.746
295.71	18.466
296.08	17.664
296.44	18.707
296.81	17.966
297.18	18.022
297.55	16.359
297.91	17.282
298.28	18.608
298.65	18.146
299.02	16.864
299.38	16.600
299.75	15.364
300.12	16.986
300.48	16.750
300.85	16.030
301.22	15.541
301.59	15.657
301.95	17.128
302.32	17.843
302.69	18.160
303.05	16.606
303.42	16.914
303.79	17.327
304.15	14.685
304.52	15.643
304.89	15.447
305.25	16.009
305.62	16.082
305.99	17.119
306.35	15.884
306.72	16.256
307.09	17.647
307.45	15.203
307.82	16.295
308.19	16.115
308.55	17.584
308.92	15.360
309.29	16.156
309.65	15.589
310.02	16.490
310.38	17.419
310.75	18.057
311.12	16.991
311.48	16.719
311.85	17.296
312.22	16.129
312.58	16.944
312.95	17.212
313.31	17.961
313.68	16.840
314.05	18.935
314.41	16.281
314.78	18.026
315.14	17.875
315.51	18.332
315.87	18.416
316.24	17.776
316.61	18.031
316.97	18.982
317.34	18.297
317.70	19.885
318.07	21.367
318.43	20.254
318.80	19.400
319.16	21.186
319.53	20.169
319.89	21.429
320.26	21.900
320.62	20.337
320.99	22.222
321.35	22.525
321.72	23.306
322.08	23.001
322.45	23.383
322.81	24.612
323.18	24.663
323.54	24.212
323.91	25.566
324.27	24.092
324.64	24.884
325.00	25.068
325.37	27.025
325.73	27.020
326.10	27.891
326.46	27.688
326.83	27.869
327.19	28.523
327.56	28.484
327.92	29.484
328.29	29.991
328.65	29.374
329.01	30.054
329.38	31.360
329.74	28.532
330.11	32.611
330.47	31.772
330.84	31.158
331.20	31.239
331.56	31.284
331.93	30.648
332.29	32.564
332.66	32.832
333.02	32.084
333.38	33.785
333.75	32.353
334.11	32.562
334.48	32.032
334.84	33.088
335.20	34.000
335.57	32.729
335.93	32.857
336.29	32.418
336.66	33.273
337.02	32.489
337.38	33.611
337.75	31.640
338.11	32.587
338.47	33.702
338.84	33.914
339.20	33.028
339.56	36.040
339.93	34.273
340.29	34.964
340.65	33.868
341.02	34.293
341.38	34.253
341.74	34.123
342.11	34.847
342.47	35.242
342.83	34.418
343.20	35.758
343.56	33.614
343.92	34.211
344.28	34.099
344.65	34.910
345.01	34.343
345.37	34.305
345.73	34.687
346.10	34.612
346.46	35.254
346.82	34.020
347.19	34.085
347.55	33.498
347.91	35.922
348.27	35.744
348.63	35.619
349.00	34.951
349.36	34.236
349.72	35.285
350.08	35.494
350.45	35.639
350.81	34.362
351.17	35.575
351.53	34.480
351.89	34.571
352.26	35.754
352.62	36.568
352.98	35.413
353.34	35.744
353.70	34.452
354.07	35.242
354.43	34.841
354.79	33.950
355.15	34.717
355.51	36.131
355.87	36.408
356.24	36.808
356.60	35.204
356.96	37.249
357.32	36.631
357.68	37.402
358.04	36.105
358.40	36.580
358.77	37.402
359.13	36.701
359.49	36.157
359.85	35.952
360.21	36.762
360.57	37.121
360.93	36.692
361.29	36.810
361.66	36.842
362.02	38.284
362.38	37.338
362.74	36.756
363.10	37.380
363.46	36.904
363.82	37.113
364.18	37.225
364.54	38.559
364.90	37.465
365.26	37.868
365.62	39.518
365.98	38.057
366.35	36.318
366.71	38.901
367.07	37.509
367.43	38.607
367.79	37.687
368.15	39.368
368.51	38.009
368.87	38.687
369.23	38.698
369.59	39.826
369.95	38.897
370.31	39.815
370.67	39.130
371.03	40.524
371.39	40.087
371.75	39.779
372.11	39.118
372.47	40.176
372.83	41.499
373.19	39.523
373.55	40.650
373.91	42.415
374.27	40.756
374.63	40.291
374.99	41.031
375.35	40.754
375.71	40.644
376.07	40.672
376.42	42.779
376.78	42.346
377.14	41.316
377.50	43.709
377.86	40.891
378.22	42.162
378.58	42.419
378.94	43.243
379.30	44.466
379.66	43.718
380.02	43.120
380.38	42.744
380.74	44.358
381.09	43.643
381.45	44.745
381.81	44.963
382.17	45.159
382.53	45.660
382.89	45.062
383.25	45.278
383.61	46.654
383.97	45.779
384.32	45.228
384.68	45.663
385.04	47.388
385.40	46.749
385.76	46.130
386.12	47.085
386.48	48.269
386.83	49.198
387.19	48.794
387.55	48.980
387.91	47.521
388.27	46.842
388.62	48.433
388.98	49.631
389.34	48.623
389.70	48.988
390.06	49.556
390.42	50.195
390.77	49.173
391.13	50.223
391.49	50.635
391.85	50.223
392.20	49.274
392.56	49.937
392.92	50.088
393.28	48.935
393.64	49.880
393.99	49.969
394.35	49.318
394.71	50.376
395.07	49.907
395.42	50.185
395.78	50.445
396.14	51.459
396.50	52.068
396.85	51.367
397.21	49.137
397.57	51.271
397.92	50.721
398.28	50.280
398.64	51.374
399.00	50.644
399.35	49.972
399.71	51.505
400.07	50.621
400.42	51.902
400.78	51.327
401.14	50.427
401.49	50.388
401.85	50.877
402.21	50.479
402.57	49.907
402.92	52.018
403.28	52.655
403.63	51.547
403.99	51.529
404.35	50.182
404.70	50.659
405.06	51.893
405.42	51.404
405.77	50.514
406.13	49.887
406.49	50.444
406.84	49.144
407.20	50.355
407.55	50.606
407.91	52.600
408.27	51.691
408.62	50.391
408.98	50.368
409.34	51.107
409.69	49.419
410.05	50.620
410.40	51.193
410.76	49.044
411.11	50.905
411.47	49.137
411.83	48.931
412.18	49.474
412.54	50.934
412.89	49.398
413.25	50.531
413.60	50.710
413.96	48.573
414.31	48.906
414.67	48.859
415.03	49.868
415.38	49.871
415.74	50.032
416.09	49.967
416.45	50.000
416.80	48.513
417.16	50.134
417.51	49.303
417.87	47.977
418.22	50.915
418.58	50.226
418.93	49.447
419.29	49.968
419.64	49.433
420.00	49.207
420.35	49.043
420.71	49.910
421.06	48.449
421.42	48.363
421.77	48.150
422.12	48.007
422.48	46.573
422.83	48.165
423.19	48.011
423.54	47.998
423.90	48.406
424.25	47.515
424.61	47.857
424.96	49.155
425.31	48.339
425.67	47.303
426.02	47.314
426.38	48.291
426.73	46.870
427.09	47.538
427.44	47.154
427.79	48.074
428.15	46.786
428.50	46.167
428.85	47.199
429.21	46.659
429.56	46.967
429.92	46.351
430.27	45.829
430.62	46.083
430.98	46.030
431.33	45.670
431.68	45.445
432.04	45.367
432.39	45.745
432.74	47.516
433.10	46.123
433.45	46.414
433.80	45.288
434.16	45.833
434.51	45.105
434.86	45.439
435.22	46.304
435.57	46.018
435.92	46.167
436.28	46.441
436.63	46.302
436.98	45.507
437.34	45.140
437.69	47.433
438.04	46.206
438.39	45.731
438.75	46.252
439.10	44.581
439.45	45.573
439.81	45.317
440.16	44.495
440.51	45.401
440.86	45.744
441.22	45.106
441.57	43.949
441.92	44.882
442.27	44.133
442.63	43.286
442.98	45.746
443.33	45.326
443.68	45.225
444.03	44.754
444.39	44.693
444.74	44.643
445.09	44.205
445.44	43.630
445.79	43.691
446.15	43.303
446.50	44.373
446.85	43.679
447.20	43.753
447.55	43.830
447.91	43.519
448.26	43.795
448.61	44.093
448.96	43.965
449.31	44.207
449.66	43.669
450.02	43.733
450.37	43.878
450.72	43.937
451.07	42.718
451.42	42.249
451.77	44.040
452.12	43.533
452.47	43.408
452.83	43.357
453.18	42.848
453.53	43.352
453.88	43.178
454.23	42.977
454.58	43.368
454.93	43.675
455.28	42.519
455.63	42.112
455.98	44.464
456.34	43.530
456.69	43.895
457.04	43.839
457.39	42.022
457.74	42.194
458.09	42.726
458.44	42.360
458.79	40.889
459.14	42.156
459.49	42.499
459.84	42.105
460.19	41.367
460.54	40.104
460.89	42.457
461.24	42.502
461.59	42.475
461.94	42.725
462.29	42.315
462.64	41.991
462.99	40.924
463.34	42.267
463.69	42.026
464.04	41.159
464.39	41.913
464.74	41.652
465.09	41.435
465.44	40.665
465.79	40.268
466.14	40.449
466.49	39.655
466.84	40.455
467.19	41.521
467.54	41.312
467.89	40.636
468.24	40.838
468.59	41.453
468.94	40.379
469.29	40.360
469.64	41.031
469.99	41.881
470.34	40.687
470.68	41.307
471.03	41.020
471.38	40.445
471.73	40.240
472.08	41.776
472.43	40.075
472.78	40.224
473.13	39.409
473.48	40.512
473.83	40.793
474.17	39.515
474.52	40.136
474.87	40.922
475.22	40.104
475.57	39.280
475.92	39.140
476.27	38.895
476.61	38.886
476.96	39.582
477.31	38.776
477.66	39.333
478.01	39.676
478.36	39.609
478.70	38.889
479.05	38.871
479.40	38.485
479.75	38.587
480.10	38.519
480.45	38.410
480.79	37.458
481.14	38.258
481.49	37.874
481.84	37.769
482.19	37.392
482.53	38.211
482.88	37.925
483.23	37.991
483.58	37.807
483.92	38.097
484.27	36.732
484.62	37.759
484.97	36.539
485.31	37.842
485.66	36.947
486.01	35.335
486.36	33.661
486.70	33.291
487.05	33.829
487.40	34.627
487.75	34.995
488.09	35.517
488.44	35.891
488.79	37.034
489.13	37.853
489.48	36.215
489.83	37.678
490.17	37.484
490.52	36.670
490.87	36.499
491.22	36.289
491.56	36.128
491.91	37.413
492.26	35.921
492.60	36.406
492.95	35.594
493.30	35.935
493.64	35.604
493.99	35.562
494.34	36.309
494.68	36.767
495.03	37.030
495.37	35.598
495.72	36.014
496.07	36.334
496.41	34.867
496.76	35.224
497.11	35.930
497.45	36.423
497.80	36.132
498.14	35.990
498.49	35.902
498.84	36.050
499.18	35.619
499.53	35.850
499.87	35.694
500.22	35.374
500.56	36.505
500.91	35.865
501.26	34.945
501.60	36.497
501.95	35.610
502.29	35.145
502.64	35.242
502.98	35.297
503.33	35.512
503.67	35.128
504.02	35.407
504.36	35.002
504.71	35.515
505.06	35.325
505.40	35.732
505.75	34.426
506.09	34.937
506.44	35.372
506.78	34.973
507.13	35.740
507.47	35.707
507.82	35.562
508.16	35.613
508.51	35.566
508.85	34.608
509.19	35.357
509.54	35.306
509.88	34.879
510.23	35.527
510.57	36.584
510.92	36.095
511.26	34.584
511.61	34.907
511.95	35.021
512.30	35.790
512.64	35.733
512.98	35.316
513.33	33.833
513.67	34.899
514.02	35.660
514.36	36.155
514.70	35.030
515.05	34.523
515.39	35.670
515.74	35.079
516.08	35.998
516.42	35.072
516.77	35.730
517.11	34.406
517.46	35.666
517.80	36.121
518.14	35.611
518.49	35.473
518.83	35.852
519.17	35.335
519.52	35.144
519.86	35.710
520.20	35.491
520.55	36.266
520.89	36.131
521.23	36.128
521.58	35.354
521.92	36.252
522.26	35.143
522.61	36.199
522.95	35.114
523.29	36.153
523.64	35.549
523.98	35.428
524.32	35.042
524.66	35.358
525.01	35.600
525.35	35.006
525.69	34.113
526.04	35.514
526.38	35.631
526.72	34.540
527.06	35.468
527.41	34.282
527.75	34.984
528.09	35.774
528.43	35.883
528.78	35.280
529.12	34.606
529.46	35.946
529.80	35.891
530.15	35.639
530.49	34.892
530.83	35.253
531.17	37.076
531.51	36.252
531.86	34.258
532.20	36.310
532.54	36.003
532.88	35.944
533.22	34.603
533.57	35.741
533.91	33.895
534.25	34.386
534.59	35.143
534.93	34.503
535.27	34.822
535.62	35.165
535.96	35.719
536.30	35.092
536.64	34.385
536.98	34.771
537.32	35.418
537.66	35.467
538.01	35.352
538.35	36.005
538.69	35.354
539.03	35.088
539.37	34.377
539.71	33.506
540.05	35.098
540.39	35.282
540.73	34.476
541.07	35.561
541.42	34.508
541.76	35.484
542.10	34.347
542.44	34.172
542.78	36.627
543.12	33.077
543.46	34.164
543.80	35.198
544.14	32.413
544.48	34.857
544.82	33.868
545.16	34.613
545.50	34.512
545.84	34.341
546.18	34.747
546.52	33.792
546.86	34.914
547.20	35.738
547.54	34.335
547.88	34.885
548.22	33.686
548.56	34.025
548.90	33.227
549.24	34.276
549.58	34.038
549.92	35.234
550.26	34.020
550.60	33.817
550.94	35.000
551.28	33.870
551.62	35.370
551.96	33.404
552.30	34.744
552.64	34.348
552.98	34.034
553.32	33.715
553.66	34.765
554.00	33.699
554.34	32.298
554.68	34.406
555.02	33.004
555.36	33.890
555.69	33.288
556.03	33.378
556.37	33.834
556.71	33.697
557.05	33.473
557.39	32.610
557.73	34.439
558.07	35.388
558.41	34.732
558.75	34.607
559.08	34.377
559.42	34.089
559.76	34.191
560.10	33.619
560.44	33.753
560.78	33.001
561.12	33.377
561.45	33.572
561.79	33.685
562.13	32.998
562.47	33.811
562.81	34.170
563.15	33.244
563.48	33.090
563.82	33.072
564.16	33.617
564.50	32.747
564.84	32.048
565.17	34.041
565.51	33.482
565.85	32.931
566.19	31.747
566.52	33.819
566.86	32.610
567.20	33.255
567.54	32.705
567.88	31.831
568.21	33.333
568.55	31.598
568.89	32.053
569.23	30.437
569.56	30.891
569.90	30.528
570.24	31.252
570.57	30.330
570.91	30.187
571.25	30.204
571.59	29.514
571.92	29.493
572.26	29.838
572.60	29.880
572.93	29.505
573.27	29.607
573.61	30.123
573.95	29.690
574.28	29.196
574.62	28.790
574.96	28.722
575.29	28.322
575.63	28.963
575.97	29.393
576.30	29.368
576.64	28.784
576.98	28.999
577.31	29.298
577.65	29.186
577.98	28.709
578.32	28.574
578.66	28.344
578.99	28.646
579.33	28.879
579.67	28.606
580.00	28.986
580.34	29.022
580.67	28.929
581.01	28.738
581.35	28.411
581.68	28.157
582.02	28.092
582.35	28.391
582.69	28.103
583.02	28.018
583.36	29.191
583.70	29.096
584.03	29.258
584.37	29.592
584.70	29.624
585.04	29.036
585.37	28.844
585.71	28.595
586.04	28.896
586.38	28.971
586.72	29.771
587.05	28.634
587.39	29.129
587.72	28.987
588.06	28.709
588.39	29.026
588.73	28.923
589.06	29.386
589.40	30.202
589.73	29.778
590.07	30.142
590.40	29.156
590.73	30.055
591.07	30.159
591.40	30.409
591.74	31.515
592.07	30.759
592.41	30.632
592.74	30.037
593.08	29.347
593.41	28.978
593.75	28.139
594.08	29.199
594.41	29.586
594.75	29.168
595.08	29.170
595.42	29.562
595.75	29.523
596.09	30.229
596.42	30.295
596.75	29.970
597.09	31.169
597.42	29.216
597.75	29.625
598.09	28.957
598.42	29.553
598.76	29.712
599.09	29.152
599.42	29.476
599.76	28.990
600.09	28.597
600.42	28.780
600.76	28.964
601.09	28.816
601.42	29.262
601.76	28.880
602.09	29.407
602.42	29.061
602.76	29.867
603.09	29.386
603.42	29.637
603.76	29.459
604.09	29.003
604.42	29.678
604.76	28.975
605.09	29.926
605.42	29.414
605.75	29.305
606.09	29.077
606.42	29.301
606.75	29.822
607.09	29.343
607.42	29.482
607.75	29.620
608.08	29.006
608.42	29.987
608.75	29.711
609.08	29.140
609.41	30.224
609.75	29.347
610.08	30.537
610.41	29.562
610.74	29.849
611.07	30.632
611.41	29.882
611.74	31.322
612.07	30.176
612.40	30.850
612.73	29.895
613.07	30.765
613.40	29.963
613.73	28.631
614.06	30.323
614.39	30.152
614.72	30.316
615.06	30.935
615.39	29.989
615.72	28.681
616.05	28.921
616.38	30.239
616.71	31.116
617.05	30.860
617.38	30.427
617.71	30.330
618.04	30.349
618.37	29.627
618.70	31.363
619.03	32.039
619.36	31.025
619.69	31.901
620.03	31.868
620.36	31.952
620.69	32.123
621.02	31.785
621.35	31.715
621.68	31.386
622.01	32.353
622.34	31.543
622.67	31.407
623.00	31.034
623.33	31.237
623.66	32.094
623.99	30.560
624.32	31.027
624.65	31.638
624.99	30.878
625.32	30.992
625.65	31.330
625.98	32.052
626.31	31.882
626.64	32.571
626.97	32.003
627.30	30.840
627.63	31.911
627.96	31.707
628.29	33.333
628.62	34.492
628.95	35.283
629.28	32.299
629.61	33.731
629.94	33.905
630.26	32.698
630.59	33.270
630.92	33.238
631.25	33.268
631.58	33.734
631.91	33.570
632.24	33.439
632.57	33.578
632.90	34.211
633.23	35.570
633.56	34.124
633.89	34.881
634.22	33.485
634.55	34.438
634.88	34.970
635.20	35.484
635.53	34.096
635.86	36.510
636.19	34.824
636.52	34.602
636.85	34.364
637.18	33.410
637.51	35.106
637.83	33.046
638.16	35.806
638.49	34.257
638.82	35.904
639.15	35.375
639.48	35.661
639.81	36.461
640.13	36.458
640.46	36.242
640.79	34.478
641.12	33.975
641.45	36.173
641.77	36.082
642.10	34.649
642.43	34.234
642.76	36.378
643.09	36.196
643.41	36.115
643.74	37.963
644.07	35.213
644.40	36.350
644.73	36.850
645.05	37.718
645.38	36.967
645.71	38.647
646.04	38.040
646.36	37.062
646.69	38.294
647.02	38.265
647.35	37.113
647.67	36.283
648.00	37.073
648.33	37.954
648.66	36.212
648.98	36.282
649.31	35.127
649.64	35.725
649.96	36.662
650.29	35.071
650.62	36.570
650.94	36.791
651.27	37.838
651.60	37.271
651.92	36.901
652.25	34.202
652.58	36.293
652.90	37.915
653.23	33.128
653.56	35.276
653.88	35.658
654.21	35.229
654.54	35.479
654.86	34.891
655.19	33.378
655.52	25.045
655.84	22.386
656.17	29.116
656.49	39.211
656.82	39.594
657.15	30.012
657.47	22.140
657.80	17.253
658.13	18.107
658.45	26.520
658.78	27.081
659.10	28.383
659.43	29.135
659.75	31.085
660.08	33.924
660.41	37.523
660.73	39.263
661.06	37.898
661.38	40.545
661.71	39.615
662.03	40.631
662.36	38.966
662.68	37.149
663.01	40.202
663.33	38.217
663.66	37.605
663.98	40.173
664.31	37.185
664.63	38.462
664.96	34.608
665.28	40.574
665.61	35.283
665.93	37.425
666.26	38.742
666.58	39.121
666.91	42.706
667.23	43.596
667.56	38.013
667.88	40.385
668.21	37.100
668.53	39.479
668.86	38.745
669.18	43.070
669.50	37.174
669.83	39.651
670.15	38.889
670.48	40.959
670.80	42.026
671.13	40.977
671.45	38.723
671.77	38.697
672.10	36.784
672.42	35.689
672.75	34.992
673.07	37.148
673.39	35.986
673.72	37.891
674.04	36.667
674.37	38.835
674.69	35.583
675.01	38.075
675.34	40.041
675.66	41.684
675.98	40.733
676.31	39.706
676.63	38.429
676.95	37.526
677.28	39.252
677.60	37.802
677.92	39.241
678.25	38.398
678.57	38.845
678.89	38.076
679.22	36.542
679.54	37.405
679.86	37.798
680.18	37.746
680.51	35.461
680.83	37.722
681.15	37.925
681.48	38.563
681.80	35.397
682.12	37.165
682.44	34.429
682.77	40.122
683.09	40.558
683.41	40.576
683.73	37.748
684.06	38.843
684.38	36.399
684.70	36.047
685.02	37.899
685.34	33.516
685.67	33.392
685.99	33.677
686.31	34.812
686.63	34.452
686.96	35.000
687.28	36.282
687.60	35.145
687.92	35.466
688.24	37.072
688.56	38.755
688.89	38.797
689.21	41.921
689.53	40.501
689.85	35.033
690.17	34.990
690.49	38.641
690.82	40.888
691.14	38.393
691.46	35.232
691.78	37.751
692.10	39.050
692.42	38.124
692.74	36.722
693.06	37.021
693.39	35.318
693.71	39.520
694.03	39.368
694.35	38.961
694.67	39.817
694.99	37.561
695.31	37.010
695.63	36.842
695.95	39.120
696.27	37.563
696.59	39.637
696.91	38.860
697.23	37.559
697.56	39.872
697.88	37.219
698.20	36.042
698.52	37.634
698.84	35.412
699.16	37.097
699.48	39.905
699.80	40.097
700.12	43.896
700.44	41.645
700.76	40.884
701.08	39.943
701.40	39.385
701.72	45.481
702.04	45.170
702.36	38.244
702.68	43.059
703.00	39.889
703.32	39.628
703.64	36.461
703.96	38.719
704.28	41.279
704.60	44.868
704.91	42.433
705.23	41.935
705.55	44.850
705.87	45.515
706.19	40.989
706.51	43.614
706.83	37.879
707.15	44.538
707.47	37.879
707.79	38.821
708.11	35.616
708.43	39.762
708.74	36.990
709.06	39.221
709.38	37.795
709.70	40.988
710.02	45.401
710.34	41.515
710.66	40.896
710.98	40.909
711.29	39.826
711.61	43.658
711.93	41.987
712.25	45.016
712.57	44.853
712.89	44.637
713.20	39.818
713.52	41.447
713.84	36.392
714.16	41.159
714.48	37.931
714.80	43.769
715.11	40.058
715.43	35.608
715.75	40.870
716.07	45.367
716.39	42.633
716.70	47.508
717.02	47.842
717.34	42.403
717.66	45.522
717.97	47.410
718.29	41.111
718.61	44.526
718.93	44.118
719.24	50.173
719.56	40.678
719.88	43.390
720.20	45.270
720.51	43.554
720.83	46.468
721.15	39.552
721.46	42.199
721.78	44.086
722.10	46.038
722.42	50.000
722.73	46.067
723.05	49.590
723.37	40.081
723.68	46.332
724.00	48.374
724.32	48.790
724.63	41.870
724.95	46.444
725.27	48.988
725.58	44.141
725.90	51.825
726.22	47.170
726.53	44.097
726.85	42.662
727.16	41.637
727.48	42.908
727.80	48.864
728.11	40.942
728.43	44.231
728.74	42.294
729.06	47.445
729.38	44.853
729.69	45.907
730.01	41.297
730.32	41.319
730.64	44.482
730.96	40.924
731.27	45.364
731.59	43.119
731.90	43.149
732.22	41.925
732.53	36.533
732.85	38.141
733.16	45.016
733.48	40.532
733.80	45.455
734.11	45.860
734.43	42.308
734.74	37.714
735.06	36.676
735.37	42.486
735.69	38.854
736.00	42.484
736.32	41.433
736.63	38.339
736.95	39.617
737.26	37.415
737.58	39.355
737.89	41.137
738.21	43.686
738.52	44.286
738.83	40.000
739.15	42.692
739.46	45.985
739.78	39.931
740.09	43.385
740.41	42.903
740.72	39.024
741.04	44.815
741.35	46.250
741.66	51.556
741.98	47.642
742.29	54.067
742.61	50.000
742.92	46.606
743.23	40.598
743.55	47.600
743.86	49.123
744.18	46.903
744.49	48.804
744.80	53.991
745.12	47.273
745.43	43.612
745.74	48.198
746.06	48.165
746.37	47.085
746.68	50.679
747.00	54.167
747.31	51.429
747.62	44.248
747.94	43.172
748.25	42.553
748.56	54.185
748.88	50.495
749.19	53.000
749.50	50.233
749.82	47.154
750.13	40.816
750.44	45.620
750.75	45.263
751.07	45.338
751.38	40.070
751.69	49.458
752.01	44.737
752.32	39.711
752.63	43.972
752.94	45.082
753.26	52.000
753.57	41.870
753.88	48.438
754.19	46.429
754.51	46.181
754.82	42.599
755.13	43.396
755.44	45.865
755.75	36.861
756.07	40.071
756.38	41.241
756.69	43.960
757.00	37.126
757.31	36.499
757.63	36.842
757.94	38.338
758.25	35.539
758.56	37.531
758.87	36.022
759.18	41.212
759.50	38.558
759.81	37.072
760.12	38.125
760.43	41.834
760.74	40.761
761.05	41.808
761.36	39.037
761.67	39.773
761.99	40.373
762.30	46.181
762.61	47.710
762.92	45.703
763.23	46.218
763.54	44.800
763.85	40.625
764.16	47.308
764.47	46.768
764.78	42.403
765.10	38.924
765.41	40.708
765.72	38.024
766.03	42.633
766.34	39.333
766.65	46.809
766.96	48.291
767.27	54.822
767.58	53.646
767.89	51.053
768.20	55.172
768.51	52.284
768.82	55.046
769.13	42.276
769.44	49.393
769.75	48.927
770.06	45.872
770.37	49.321
770.68	47.685
770.99	47.556
771.30	40.574
771.61	47.982
771.92	45.082
772.23	52.101
772.54	54.359
772.85	50.785
773.16	54.255
773.47	61.413
773.78	53.807
774.09	51.190
774.39	63.743
774.70	57.407
775.01	67.391
775.32	64.052
775.63	58.553
775.94	55.396
776.25	69.291
776.56	62.687
776.87	61.475
777.18	62.500
777.48	68.702
777.79	71.212
778.10	59.259
778.41	68.750
778.72	59.854
779.03	62.416
779.34	57.718
779.65	58.784
779.95	55.215
780.26	59.477
780.57	68.276
780.88	74.219
781.19	61.654
781.50	62.162
781.80	57.233
782.11	46.893
782.42	48.101
782.73	52.761
783.04	56.081
783.34	63.380
783.65	63.699
783.96	67.910
784.27	53.147
784.57	52.518
784.88	64.815
785.19	68.254
785.50	69.811
785.81	67.910
786.11	73.770
786.42	62.791
786.73	63.717
787.04	69.811
787.34	68.750
787.65	84.000
787.96	72.973
788.26	69.421
788.57	69.492
788.88	78.512
789.19	60.417
789.49	68.182
789.80	58.779
790.11	80.000
790.41	83.168
790.72	81.928
791.03	82.609
791.33	69.767
791.64	80.412
791.95	86.139
792.25	76.667
792.56	88.312
792.87	97.436
793.17	91.139
793.48	89.655
793.79	78.161
794.09	70.455
794.40	68.067
794.70	61.765
795.01	53.333
795.32	56.835
795.62	56.693
795.93	69.828
796.23	69.912
796.54	83.529
796.85	79.730
797.15	112.676
797.46	93.939
797.76	95.181
798.07	101.266
798.37	95.385
798.68	101.515
798.99	76.056
799.29	87.013
799.60	86.364
799.90	108.219
800.21	113.433
800.51	113.793
800.82	122.807
801.12	93.443
801.43	106.061
801.73	101.351
802.04	93.651
802.34	87.654
802.65	114.062
802.95	123.729
803.26	109.375
803.56	75.714
803.87	101.538
804.17	110.294
804.48	125.926
804.78	98.276
805.09	111.765
805.39	113.462
805.70	94.643
806.00	108.197
806.30	87.879
806.61	85.366
806.91	77.215
807.22	93.421
807.52	86.567
807.83	97.183
808.13	115.625
808.43	118.333
808.74	77.632
809.04	98.551
809.35	105.970
809.65	89.474
809.95	129.032
810.26	111.864
810.56	109.524
810.86	156.818
811.17	150.000
811.47	105.000
811.77	122.222
812.08	110.909
812.38	150.000
812.69	141.667
812.99	156.818
813.29	134.694
813.59	116.667
813.90	122.449
814.20	129.091
814.50	101.538
814.81	88.235
815.11	106.122
815.41	98.361
815.72	171.429
816.02	138.182
816.32	145.238
816.62	145.000
816.93	126.829
817.23	154.762
817.53	140.909
817.84	172.727
818.14	128.261
818.44	140.000
818.74	185.294
819.04	107.500
819.35	194.286
819.65	167.647
819.95	217.857
820.25	225.000
820.56	161.538
820.86	134.091
821.16	158.140
821.46	125.641
821.76	134.000
822.07	177.143
822.37	137.500
822.67	175.758
822.97	133.333
823.27	207.143
823.57	154.054
823.88	170.000
824.18	213.333
824.48	166.667
824.78	180.000
825.08	183.333
825.38	159.459
825.69	124.390
825.99	270.833
826.29	168.966
826.59	144.737
826.89	160.526
827.19	197.059
827.49	183.871
827.79	172.727
828.09	154.545
828.39	114.894
828.70	112.245
829.00	162.963
829.30	183.871
829.60	160.000
829.90	306.667
830.20	217.857
830.50	226.087
830.80	230.435
831.10	180.000
831.40	183.333
831.70	195.652
832.00	226.923
832.30	177.778
832.60	331.250
832.90	216.667
833.20	421.429
833.50	225.806
833.80	196.552
834.10	203.125
834.40	250.000
834.70	305.556
835.00	285.714
835.30	142.857
835.60	423.077
835.90	193.103
836.20	350.000
836.50	224.138
836.80	212.000
837.10	188.889
837.40	223.810
837.70	364.706
838.00	200.000
838.30	247.619
838.60	300.000
838.90	223.077
839.19	330.000
839.49	450.000
839.79	365.000
840.09	320.000
840.39	295.238
840.69	247.826
840.99	227.778
841.29	490.000
841.59	366.667
841.88	387.500
842.18	186.207
842.48	238.095
842.78	196.667
843.08	273.913
843.38	184.375
843.68	733.333
843.97	230.769
844.27	162.069
844.57	285.714
844.87	312.500
845.17	237.037
845.47	1666.667
845.76	377.778
846.06	311.765
846.36	612.500
846.66	421.429
846.96	318.750
847.25	427.273
847.55	390.909
847.85	295.652
848.15	480.000
848.44	385.714
848.74	305.556
849.04	352.941
849.34	520.000
849.63	257.895
849.93	445.455
850.23	1220.000
850.53	478.571
850.82	2250.000
851.12	-4100.000
851.42	3900.000
851.71	280.000
852.01	-1033.333
852.31	254.167
852.61	1233.333
852.90	261.905
853.20	272.000
853.50	335.294
853.79	252.381
854.09	225.000
854.39	275.000
854.68	167.568
854.98	177.419
855.28	166.667
855.57	189.655
855.87	240.741
856.17	300.000
856.46	360.000
856.76	294.118
857.05	217.241
857.35	233.333
857.65	320.000
857.94	265.217
858.24	250.000
858.53	280.000
858.83	236.364
859.13	466.667
859.42	0.000
859.72	666.667
860.01	518.182
860.31	254.545
860.60	278.947
860.90	243.478
861.20	655.556
861.49	500.000
861.79	-4300.000
862.08	675.000
862.38	314.286
862.67	330.769
862.97	329.412
863.26	600.000
863.56	283.333
863.85	416.667
864.15	562.500
864.44	386.667
864.74	1050.000
865.03	587.500
865.33	300.000
865.62	481.818
865.92	407.692
866.21	308.333
866.51	0.000
866.80	463.636
867.10	1160.000
867.39	446.154
867.69	536.364
867.98	273.684
868.27	536.364
868.57	326.316
868.86	-4500.000
869.16	318.750
869.45	1900.000
869.75	-4000.000
870.04	366.667
870.33	671.429
870.63	1450.000
870.92	2400.000
871.22	671.429
871.51	364.706
871.80	266.667
872.10	342.857
>>>>>End Processed Spectral Data<<<<<
