SpectraSuite Data File
++++++++++++++++++++++++++++++++++++
Date: Wed May 13 16:05:56 PDT 2015
User: schluterlab
Dark Spectrum Present: Yes
Reference Spectrum Present: Yes
Number of Sampled Component Spectra: 1
Spectrometers: USB2E3373
Integration Time (usec): 3000 (USB2E3373)
Spectra Averaged: 3 (USB2E3373)
Boxcar Smoothing: 0 (USB2E3373)
Correct for Electrical Dark: No (USB2E3373)
Strobe/Lamp Enabled: No (USB2E3373)
Correct for Detector Non-linearity: No (USB2E3373)
Correct for Stray Light: No (USB2E3373)
Number of Pixels in Processed Spectrum: 2048
>>>>>Begin Processed Spectral Data<<<<<
178.53	0.000
178.91	-875.000
179.29	-800.000
179.67	-122.222
180.04	-575.000
180.42	1100.000
180.80	580.000
181.18	-600.000
181.56	314.286
181.94	0.000
182.31	-442.857
182.69	900.000
183.07	-250.000
183.45	-277.778
183.83	345.455
184.20	-160.000
184.58	1250.000
184.96	3300.000
185.34	-540.000
185.72	-250.000
186.09	-1550.000
186.47	1550.000
186.85	1350.000
187.23	2700.000
187.61	-1166.667
187.98	725.000
188.36	354.545
188.74	354.545
189.12	-600.000
189.49	270.000
189.87	-3100.000
190.25	-625.000
190.63	228.571
191.00	215.385
191.38	316.667
191.76	-700.000
192.14	675.000
192.51	387.500
192.89	716.667
193.27	237.500
193.65	-700.000
194.02	350.000
194.40	580.000
194.78	400.000
195.15	333.333
195.53	440.000
195.91	-650.000
196.29	231.250
196.66	215.789
197.04	-250.000
197.42	0.000
197.79	340.000
198.17	-2700.000
198.55	385.714
198.92	437.500
199.30	400.000
199.68	0.000
200.05	183.333
200.43	400.000
200.81	2200.000
201.18	833.333
201.56	-1100.000
201.94	355.556
202.31	400.000
202.69	258.333
203.07	370.000
203.44	0.000
203.82	575.000
204.19	271.429
204.57	285.714
204.95	412.500
205.32	866.667
205.70	281.818
206.08	228.571
206.45	1500.000
206.83	212.500
207.20	683.333
207.58	400.000
207.96	227.778
208.33	362.500
208.71	-450.000
209.08	371.429
209.46	444.444
209.84	263.636
210.21	-933.333
210.59	875.000
210.96	-262.500
211.34	1350.000
211.71	360.000
212.09	500.000
212.46	0.000
212.84	1000.000
213.22	675.000
213.59	-1700.000
213.97	566.667
214.34	514.286
214.72	381.818
215.09	640.000
215.47	-1250.000
215.84	-1450.000
216.22	700.000
216.59	242.857
216.97	850.000
217.34	300.000
217.72	-400.000
218.09	0.000
218.47	-2100.000
218.84	377.778
219.22	500.000
219.59	1033.333
219.97	-257.143
220.34	460.000
220.72	-966.667
221.09	235.714
221.47	925.000
221.84	-616.667
222.22	0.000
222.59	850.000
222.97	-1550.000
223.34	580.000
223.72	261.538
224.09	480.000
224.46	1200.000
224.84	-3100.000
225.21	-540.000
225.59	-3600.000
225.96	450.000
226.34	180.000
226.71	1750.000
227.08	237.500
227.46	370.000
227.83	-800.000
228.21	-1250.000
228.58	333.333
228.95	-1150.000
229.33	-1200.000
229.70	1400.000
230.08	414.286
230.45	-400.000
230.82	191.667
231.20	533.333
231.57	457.143
231.95	325.000
232.32	136.364
232.69	218.182
233.07	428.571
233.44	284.615
233.81	-533.333
234.19	194.737
234.56	233.333
234.93	183.333
235.31	363.636
235.68	200.000
236.05	164.286
236.43	115.152
236.80	173.684
237.17	2200.000
237.55	128.571
237.92	157.143
238.29	152.381
238.67	132.258
239.04	110.345
239.41	72.222
239.79	76.087
240.16	66.667
240.53	47.727
240.91	49.020
241.28	56.000
241.65	50.000
242.02	53.623
242.40	51.613
242.77	35.000
243.14	30.108
243.51	50.562
243.89	35.294
244.26	28.889
244.63	30.108
245.00	31.915
245.38	31.683
245.75	35.514
246.12	33.945
246.49	45.985
246.87	40.800
247.24	34.615
247.61	22.143
247.98	30.065
248.36	26.351
248.73	20.382
249.10	27.389
249.47	29.379
249.84	24.599
250.22	26.738
250.59	28.402
250.96	18.182
251.33	23.223
251.70	29.208
252.08	23.333
252.45	17.937
252.82	20.870
253.19	20.851
253.56	20.392
253.94	24.066
254.31	21.484
254.68	21.154
255.05	19.557
255.42	18.293
255.79	20.221
256.16	17.329
256.54	15.194
256.91	18.505
257.28	15.468
257.65	15.842
258.02	15.839
258.39	17.666
258.76	14.381
259.14	15.476
259.51	14.894
259.88	11.801
260.25	17.523
260.62	14.451
260.99	13.665
261.36	15.916
261.73	14.613
262.10	13.953
262.47	18.310
262.85	17.549
263.22	14.530
263.59	14.530
263.96	14.011
264.33	12.010
264.70	13.421
265.07	15.090
265.44	13.889
265.81	12.652
266.18	16.080
266.55	16.585
266.92	15.725
267.29	14.583
267.66	11.927
268.03	13.182
268.40	14.019
268.77	12.172
269.14	13.063
269.51	16.930
269.88	14.685
270.25	12.641
270.62	13.258
270.99	15.484
271.36	13.519
271.73	12.617
272.10	12.609
272.47	14.624
272.84	13.420
273.21	15.304
273.58	11.135
273.95	10.901
274.32	14.256
274.69	14.989
275.06	12.205
275.43	14.043
275.80	13.026
276.17	14.460
276.54	11.435
276.91	12.055
277.28	12.305
277.65	12.959
278.02	12.422
278.39	14.844
278.76	12.545
279.13	10.943
279.50	11.918
279.87	13.347
280.23	11.178
280.60	11.605
280.97	11.275
281.34	11.681
281.71	12.727
282.08	12.092
282.45	10.909
282.82	11.368
283.19	8.734
283.56	13.860
283.92	12.860
284.29	10.582
284.66	12.704
285.03	11.754
285.40	11.796
285.77	12.458
286.14	10.363
286.51	11.333
286.87	11.966
287.24	13.518
287.61	10.754
287.98	12.013
288.35	11.727
288.72	11.838
289.08	12.363
289.45	11.532
289.82	11.545
290.19	11.617
290.56	12.404
290.93	9.517
291.29	11.503
291.66	11.652
292.03	12.645
292.40	13.656
292.77	9.763
293.13	11.791
293.50	11.079
293.87	11.259
294.24	10.074
294.60	10.189
294.97	11.773
295.34	12.553
295.71	10.227
296.08	10.969
296.44	10.316
296.81	10.304
297.18	11.518
297.55	10.026
297.91	11.609
298.28	11.647
298.65	13.446
299.02	11.199
299.38	9.163
299.75	7.817
300.12	9.834
300.48	10.875
300.85	11.714
301.22	9.682
301.59	10.101
301.95	10.957
302.32	11.168
302.69	10.753
303.05	10.424
303.42	10.988
303.79	10.532
304.15	9.790
304.52	9.849
304.89	10.105
305.25	9.513
305.62	11.778
305.99	11.452
306.35	11.074
306.72	11.099
307.09	10.988
307.45	11.712
307.82	10.379
308.19	12.141
308.55	12.190
308.92	12.567
309.29	11.193
309.65	11.241
310.02	12.685
310.38	12.258
310.75	11.932
311.12	12.385
311.48	13.271
311.85	13.208
312.22	12.487
312.58	12.682
312.95	12.777
313.31	12.621
313.68	13.514
314.05	14.103
314.41	12.965
314.78	13.494
315.14	13.307
315.51	12.770
315.87	13.861
316.24	14.002
316.61	13.548
316.97	13.307
317.34	13.307
317.70	14.436
318.07	15.207
318.43	14.775
318.80	15.276
319.16	14.689
319.53	14.540
319.89	15.714
320.26	17.200
320.62	16.071
320.99	16.263
321.35	17.172
321.72	16.940
322.08	16.881
322.45	17.811
322.81	17.733
323.18	18.304
323.54	18.367
323.91	18.679
324.27	17.878
324.64	18.733
325.00	18.124
325.37	20.109
325.73	20.557
326.10	19.417
326.46	20.161
326.83	19.672
327.19	21.435
327.56	19.948
327.92	20.997
328.29	22.005
328.65	22.652
329.01	22.022
329.38	20.259
329.74	22.068
330.11	22.526
330.47	22.865
330.84	23.346
331.20	23.042
331.56	23.670
331.93	22.407
332.29	24.135
332.66	24.248
333.02	22.669
333.38	22.584
333.75	24.421
334.11	24.555
334.48	23.514
334.84	22.610
335.20	24.273
335.57	23.663
335.93	24.196
336.29	23.810
336.66	23.445
337.02	22.172
337.38	25.741
337.75	23.351
338.11	23.366
338.47	24.586
338.84	25.206
339.20	23.211
339.56	24.909
339.93	22.091
340.29	24.094
340.65	23.619
341.02	24.695
341.38	24.911
341.74	24.298
342.11	23.406
342.47	24.141
342.83	24.914
343.20	24.416
343.56	24.263
343.92	24.474
344.28	25.340
344.65	24.936
345.01	24.242
345.37	23.499
345.73	25.127
346.10	24.808
346.46	24.237
346.82	25.206
347.19	24.311
347.55	24.713
347.91	25.728
348.27	25.965
348.63	24.749
349.00	24.595
349.36	25.698
349.72	24.459
350.08	23.582
350.45	25.956
350.81	24.045
351.17	25.203
351.53	25.143
351.89	24.175
352.26	26.440
352.62	25.100
352.98	25.122
353.34	25.801
353.70	25.205
354.07	26.210
354.43	24.603
354.79	24.618
355.15	24.741
355.51	25.739
355.87	25.633
356.24	26.792
356.60	24.619
356.96	25.181
357.32	26.083
357.68	25.118
358.04	26.049
358.40	27.158
358.77	25.978
359.13	25.888
359.49	26.588
359.85	25.317
360.21	27.352
360.57	26.537
360.93	27.154
361.29	25.926
361.66	25.232
362.02	26.940
362.38	27.300
362.74	26.637
363.10	25.611
363.46	26.412
363.82	26.682
364.18	27.313
364.54	27.266
364.90	26.771
365.26	26.765
365.62	27.027
365.98	27.246
366.35	25.931
366.71	26.464
367.07	27.312
367.43	27.721
367.79	28.837
368.15	28.448
368.51	28.052
368.87	27.695
369.23	27.798
369.59	27.299
369.95	26.912
370.31	28.205
370.67	26.739
371.03	28.689
371.39	28.353
371.75	27.941
372.11	27.952
372.47	28.886
372.83	29.179
373.19	27.601
373.55	29.342
373.91	29.455
374.27	28.729
374.63	28.364
374.99	29.167
375.35	27.704
375.71	28.170
376.07	28.875
376.42	28.611
376.78	29.092
377.14	28.901
377.50	29.205
377.86	28.989
378.22	29.962
378.58	29.010
378.94	28.975
379.30	29.517
379.66	30.711
380.02	30.651
380.38	29.569
380.74	29.592
381.09	29.279
381.45	29.809
381.81	30.590
382.17	30.764
382.53	29.874
382.89	30.617
383.25	31.207
383.61	30.607
383.97	30.832
384.32	30.880
384.68	30.173
385.04	30.486
385.40	29.969
385.76	30.897
386.12	31.412
386.48	31.466
386.83	31.046
387.19	31.787
387.55	31.045
387.91	31.681
388.27	30.595
388.62	30.916
388.98	30.098
389.34	31.164
389.70	30.717
390.06	31.305
390.42	31.388
390.77	30.280
391.13	31.142
391.49	31.472
391.85	31.700
392.20	30.599
392.56	31.629
392.92	31.960
393.28	31.124
393.64	30.276
393.99	30.177
394.35	31.948
394.71	31.493
395.07	30.717
395.42	32.077
395.78	32.188
396.14	31.161
396.50	32.644
396.85	31.977
397.21	31.319
397.57	30.812
397.92	31.671
398.28	30.774
398.64	32.019
399.00	31.393
399.35	30.626
399.71	30.613
400.07	31.342
400.42	31.595
400.78	31.725
401.14	32.012
401.49	31.045
401.85	31.579
402.21	30.719
402.57	31.154
402.92	30.706
403.28	31.043
403.63	30.755
403.99	30.573
404.35	31.030
404.70	30.815
405.06	29.645
405.42	31.316
405.77	30.571
406.13	29.853
406.49	30.455
406.84	30.124
407.20	29.965
407.55	30.887
407.91	31.333
408.27	30.121
408.62	30.584
408.98	30.025
409.34	30.012
409.69	30.452
410.05	31.289
410.40	30.336
410.76	30.824
411.11	31.001
411.47	30.543
411.83	30.238
412.18	29.870
412.54	30.137
412.89	30.663
413.25	30.638
413.60	31.007
413.96	29.751
414.31	29.951
414.67	30.735
415.03	30.530
415.38	30.670
415.74	31.383
416.09	30.764
416.45	31.727
416.80	30.007
417.16	30.362
417.51	30.790
417.87	31.085
418.22	30.915
418.58	32.343
418.93	30.958
419.29	31.509
419.64	31.549
420.00	30.427
420.35	31.826
420.71	31.441
421.06	30.191
421.42	30.760
421.77	30.830
422.12	31.162
422.48	30.275
422.83	31.101
423.19	30.994
423.54	31.747
423.90	31.594
424.25	31.602
424.61	30.893
424.96	31.778
425.31	31.285
425.67	30.281
426.02	30.000
426.38	32.662
426.73	31.188
427.09	31.733
427.44	32.087
427.79	31.857
428.15	32.202
428.50	31.305
428.85	32.360
429.21	31.253
429.56	32.141
429.92	32.310
430.27	31.082
430.62	30.671
430.98	32.330
431.33	31.392
431.68	32.147
432.04	31.310
432.39	31.868
432.74	32.077
433.10	33.390
433.45	32.711
433.80	31.984
434.16	31.731
434.51	31.000
434.86	32.668
435.22	31.962
435.57	32.158
435.92	31.949
436.28	32.977
436.63	32.781
436.98	32.971
437.34	33.274
437.69	34.539
438.04	32.771
438.39	33.493
438.75	32.249
439.10	34.134
439.45	33.530
439.81	33.353
440.16	32.863
440.51	33.450
440.86	33.179
441.22	32.925
441.57	33.280
441.92	33.163
442.27	33.584
442.63	33.281
442.98	34.197
443.33	33.261
443.68	32.938
444.03	33.187
444.39	32.814
444.74	33.279
445.09	33.908
445.44	33.953
445.79	34.389
446.15	34.198
446.50	33.872
446.85	33.350
447.20	32.789
447.55	35.120
447.91	34.915
448.26	33.945
448.61	33.635
448.96	33.887
449.31	34.758
449.66	33.540
450.02	33.760
450.37	33.447
450.72	33.446
451.07	33.699
451.42	33.495
451.77	34.175
452.12	33.372
452.47	34.639
452.83	34.615
453.18	33.802
453.53	34.879
453.88	33.136
454.23	34.429
454.58	34.525
454.93	34.901
455.28	34.040
455.63	34.769
455.98	35.536
456.34	34.045
456.69	35.128
457.04	34.613
457.39	35.184
457.74	33.604
458.09	34.905
458.44	34.265
458.79	34.599
459.14	35.214
459.49	35.260
459.84	34.958
460.19	34.355
460.54	33.623
460.89	34.668
461.24	35.094
461.59	34.863
461.94	33.847
462.29	35.786
462.64	34.397
462.99	35.003
463.34	35.000
463.69	35.522
464.04	34.725
464.39	34.435
464.74	34.938
465.09	34.620
465.44	33.795
465.79	33.613
466.14	34.045
466.49	34.205
466.84	35.143
467.19	33.736
467.54	35.500
467.89	34.514
468.24	34.031
468.59	36.203
468.94	34.881
469.29	35.154
469.64	36.345
469.99	35.318
470.34	35.271
470.68	36.207
471.03	35.102
471.38	36.484
471.73	36.043
472.08	36.053
472.43	35.678
472.78	35.023
473.13	35.494
473.48	34.894
473.83	36.098
474.17	35.594
474.52	35.732
474.87	35.727
475.22	35.287
475.57	34.713
475.92	35.050
476.27	33.822
476.61	35.411
476.96	35.789
477.31	35.793
477.66	35.558
478.01	35.442
478.36	35.643
478.70	34.579
479.05	35.676
479.40	35.056
479.75	35.333
480.10	35.338
480.45	34.222
480.79	34.448
481.14	34.589
481.49	34.836
481.84	35.208
482.19	34.711
482.53	35.000
482.88	35.691
483.23	34.813
483.58	35.168
483.92	35.380
484.27	34.248
484.62	34.267
484.97	34.647
485.31	34.418
485.66	33.382
486.01	31.301
486.36	30.390
486.70	30.344
487.05	30.920
487.40	32.406
487.75	32.749
488.09	33.940
488.44	33.923
488.79	35.081
489.13	35.447
489.48	35.155
489.83	34.873
490.17	35.511
490.52	35.252
490.87	34.962
491.22	35.107
491.56	33.895
491.91	34.853
492.26	34.773
492.60	34.839
492.95	34.846
493.30	34.486
493.64	34.951
493.99	35.144
494.34	35.106
494.68	35.485
495.03	35.056
495.37	34.760
495.72	35.331
496.07	35.963
496.41	34.204
496.76	33.641
497.11	35.750
497.45	35.538
497.80	36.228
498.14	34.879
498.49	35.951
498.84	36.290
499.18	36.619
499.53	35.185
499.87	35.927
500.22	35.657
500.56	36.408
500.91	35.529
501.26	35.230
501.60	36.687
501.95	34.785
502.29	35.567
502.64	36.173
502.98	35.811
503.33	35.512
503.67	35.638
504.02	35.454
504.36	35.798
504.71	34.929
505.06	36.627
505.40	36.121
505.75	35.776
506.09	35.569
506.44	36.902
506.78	36.191
507.13	36.598
507.47	36.111
507.82	36.930
508.16	37.690
508.51	37.494
508.85	36.941
509.19	37.755
509.54	36.531
509.88	36.321
510.23	37.069
510.57	37.513
510.92	37.131
511.26	36.948
511.61	36.670
511.95	37.161
512.30	37.805
512.64	38.205
512.98	37.674
513.33	39.079
513.67	37.086
514.02	36.797
514.36	38.067
514.70	38.462
515.05	38.483
515.39	38.643
515.74	38.739
516.08	38.345
516.42	38.901
516.77	40.412
517.11	38.180
517.46	39.108
517.80	39.373
518.14	39.085
518.49	39.732
518.83	39.091
519.17	40.012
519.52	39.559
519.86	39.304
520.20	39.827
520.55	40.694
520.89	40.815
521.23	40.229
521.58	39.196
521.92	39.130
522.26	38.438
522.61	39.190
522.95	39.349
523.29	40.596
523.64	39.817
523.98	40.481
524.32	39.324
524.66	39.387
525.01	39.645
525.35	39.653
525.69	39.470
526.04	40.498
526.38	40.085
526.72	40.061
527.06	41.117
527.41	37.995
527.75	39.871
528.09	41.040
528.43	39.452
528.78	38.967
529.12	39.273
529.46	40.723
529.80	41.399
530.15	40.312
530.49	38.831
530.83	41.139
531.17	41.449
531.51	40.986
531.86	40.065
532.20	41.069
532.54	40.551
532.88	40.822
533.22	39.663
533.57	39.691
533.91	39.013
534.25	39.793
534.59	39.231
534.93	39.500
535.27	38.202
535.62	38.889
535.96	39.485
536.30	39.352
536.64	39.794
536.98	40.478
537.32	39.631
537.66	40.400
538.01	40.619
538.35	39.948
538.69	40.268
539.03	39.246
539.37	38.530
539.71	38.820
540.05	40.065
540.39	39.801
540.73	38.551
541.07	40.428
541.42	40.183
541.76	40.323
542.10	40.168
542.44	40.397
542.78	40.382
543.12	38.900
543.46	40.328
543.80	39.688
544.14	38.832
544.48	39.556
544.82	38.743
545.16	40.989
545.50	39.267
545.84	40.591
546.18	39.663
546.52	39.849
546.86	41.512
547.20	39.582
547.54	40.748
547.88	40.434
548.22	39.041
548.56	38.365
548.90	39.821
549.24	40.000
549.58	40.109
549.92	40.247
550.26	40.980
550.60	40.318
550.94	41.338
551.28	40.161
551.62	41.050
551.96	40.421
552.30	40.614
552.64	39.757
552.98	40.610
553.32	40.189
553.66	40.286
554.00	40.426
554.34	40.511
554.68	41.059
555.02	40.621
555.36	41.197
555.69	39.851
556.03	41.454
556.37	41.337
556.71	40.518
557.05	39.706
557.39	39.818
557.73	40.508
558.07	41.914
558.41	39.870
558.75	40.999
559.08	41.312
559.42	42.857
559.76	41.471
560.10	40.542
560.44	40.671
560.78	38.656
561.12	39.974
561.45	40.417
561.79	39.618
562.13	40.174
562.47	41.940
562.81	40.795
563.15	40.669
563.48	40.650
563.82	40.183
564.16	40.549
564.50	39.583
564.84	40.265
565.17	40.605
565.51	40.000
565.85	39.467
566.19	38.698
566.52	41.039
566.86	39.180
567.20	41.450
567.54	38.813
567.88	38.512
568.21	38.677
568.55	38.170
568.89	38.084
569.23	37.032
569.56	36.073
569.90	36.755
570.24	36.024
570.57	34.988
570.91	34.324
571.25	34.682
571.59	34.227
571.92	33.813
572.26	34.518
572.60	34.985
572.93	34.333
573.27	35.256
573.61	34.953
573.95	34.212
574.28	33.367
574.62	33.941
574.96	33.596
575.29	33.414
575.63	33.460
575.97	33.949
576.30	34.201
576.64	34.016
576.98	33.641
577.31	33.780
577.65	33.789
577.98	33.253
578.32	33.082
578.66	32.704
578.99	33.668
579.33	33.091
579.67	32.693
580.00	33.781
580.34	34.385
580.67	33.609
581.01	34.270
581.35	33.831
581.68	33.085
582.02	33.024
582.35	32.803
582.69	33.144
583.02	33.208
583.36	34.240
583.70	34.491
584.03	34.639
584.37	35.283
584.70	34.535
585.04	34.271
585.37	34.133
585.71	34.821
586.04	34.018
586.38	35.162
586.72	35.073
587.05	34.746
587.39	34.142
587.72	34.398
588.06	34.819
588.39	35.089
588.73	35.025
589.06	36.055
589.40	36.768
589.73	36.501
590.07	36.477
590.40	36.025
590.73	37.432
591.07	37.770
591.40	37.284
591.74	38.225
592.07	37.216
592.41	37.205
592.74	36.330
593.08	35.943
593.41	35.653
593.75	34.916
594.08	35.401
594.41	35.666
594.75	36.044
595.08	35.791
595.42	36.673
595.75	36.717
596.09	36.763
596.42	37.328
596.75	38.202
597.09	37.879
597.42	36.931
597.75	37.689
598.09	37.522
598.42	37.242
598.76	37.738
599.09	36.336
599.42	35.771
599.76	36.347
600.09	35.665
600.42	36.304
600.76	35.607
601.09	36.284
601.42	36.530
601.76	36.698
602.09	37.154
602.42	36.584
602.76	37.807
603.09	37.293
603.42	37.563
603.76	36.242
604.09	36.177
604.42	37.546
604.76	37.579
605.09	37.047
605.42	37.452
605.75	36.921
606.09	36.844
606.42	36.575
606.75	37.039
607.09	37.003
607.42	36.628
607.75	36.371
608.08	37.603
608.42	37.875
608.75	37.827
609.08	36.633
609.41	38.553
609.75	37.828
610.08	38.454
610.41	36.639
610.74	37.559
611.07	38.686
611.41	38.126
611.74	39.517
612.07	38.872
612.40	38.930
612.73	38.368
613.07	39.925
613.40	39.442
613.73	38.752
614.06	39.409
614.39	38.542
614.72	38.579
615.06	38.498
615.39	37.792
615.72	37.935
616.05	37.746
616.38	39.077
616.71	40.558
617.05	39.576
617.38	39.327
617.71	39.339
618.04	40.084
618.37	38.439
618.70	39.515
619.03	42.697
619.36	40.937
619.69	41.197
620.03	40.934
620.36	40.575
620.69	41.575
621.02	41.298
621.35	42.522
621.68	41.121
622.01	41.950
622.34	42.360
622.67	41.901
623.00	40.866
623.33	40.815
623.66	42.387
623.99	42.710
624.32	41.441
624.65	39.407
624.99	39.943
625.32	41.202
625.65	42.074
625.98	41.891
626.31	41.913
626.64	44.163
626.97	43.142
627.30	43.225
627.63	44.873
627.96	43.061
628.29	44.007
628.62	44.465
628.95	46.226
629.28	45.073
629.61	43.905
629.94	44.000
630.26	44.805
630.59	44.519
630.92	45.019
631.25	44.916
631.58	45.045
631.91	44.828
632.24	45.992
632.57	45.750
632.90	45.943
633.23	47.427
633.56	46.328
633.89	47.112
634.22	48.241
634.55	48.402
634.88	45.868
635.20	49.223
635.53	46.988
635.86	48.144
636.19	47.412
636.52	45.444
636.85	46.621
637.18	47.696
637.51	47.281
637.83	44.636
638.16	49.233
638.49	48.363
638.82	48.925
639.15	48.625
639.48	47.506
639.81	47.989
640.13	48.047
640.46	49.128
640.79	46.499
641.12	47.868
641.45	47.486
641.77	51.105
642.10	49.415
642.43	49.700
642.76	51.238
643.09	52.147
643.41	49.165
643.74	52.469
644.07	49.238
644.40	50.460
644.73	51.654
645.05	51.347
645.38	49.763
645.71	52.013
646.04	53.156
646.36	54.758
646.69	52.508
647.02	49.490
647.35	52.062
647.67	53.628
648.00	51.870
648.33	49.175
648.66	49.091
648.98	49.625
649.31	47.235
649.64	47.683
649.96	47.690
650.29	48.657
650.62	48.544
650.94	49.919
651.27	51.858
651.60	49.085
651.92	47.604
652.25	49.186
652.58	48.287
652.90	49.763
653.23	46.841
653.56	50.709
653.88	48.177
654.21	49.131
654.54	50.495
654.86	47.664
655.19	43.784
655.52	33.413
655.84	29.207
656.17	36.257
656.49	48.401
656.82	49.117
657.15	37.644
657.47	28.080
657.80	21.910
658.13	23.281
658.45	34.802
658.78	36.372
659.10	38.504
659.43	40.640
659.75	43.457
660.08	46.013
660.41	50.559
660.73	52.859
661.06	53.344
661.38	52.727
661.71	53.077
662.03	55.819
662.36	49.503
662.68	54.016
663.01	56.364
663.33	53.928
663.66	52.941
663.98	53.132
664.31	51.471
664.63	50.405
664.96	52.716
665.28	53.484
665.61	49.708
665.93	50.704
666.26	52.333
666.58	51.883
666.91	52.431
667.23	59.551
667.56	50.108
667.88	52.564
668.21	52.878
668.53	55.098
668.86	52.165
669.18	55.011
669.50	52.391
669.83	54.031
670.15	54.000
670.48	52.941
670.80	49.353
671.13	50.318
671.45	51.064
671.77	52.546
672.10	48.059
672.42	48.057
672.75	48.590
673.07	50.176
673.39	48.282
673.72	51.758
674.04	49.608
674.37	50.097
674.69	49.898
675.01	50.000
675.34	55.031
675.66	53.053
675.98	50.713
676.31	52.311
676.63	52.017
676.95	53.040
677.28	52.570
677.60	54.505
677.92	51.055
678.25	50.103
678.57	49.801
678.89	48.697
679.22	51.670
679.54	47.901
679.86	49.908
680.18	47.764
680.51	50.355
680.83	45.730
681.15	47.925
681.48	50.095
681.80	46.615
682.12	47.893
682.44	44.294
682.77	51.731
683.09	52.361
683.41	52.993
683.73	51.876
684.06	50.000
684.38	52.250
684.70	47.674
685.02	47.280
685.34	47.985
685.67	47.203
685.99	43.299
686.31	47.099
686.63	46.466
686.96	43.750
687.28	47.112
687.60	46.558
687.92	45.704
688.24	47.909
688.56	49.197
688.89	50.207
689.21	50.437
689.53	50.104
689.85	50.333
690.17	48.240
690.49	50.106
690.82	49.299
691.14	47.321
691.46	45.148
691.78	46.988
692.10	50.826
692.42	49.501
692.74	46.266
693.06	45.957
693.39	48.049
693.71	48.908
694.03	49.053
694.35	46.320
694.67	46.911
694.99	50.244
695.31	48.529
695.63	50.957
695.95	53.301
696.27	50.000
696.59	51.813
696.91	51.036
697.23	46.244
697.56	47.761
697.88	43.558
698.20	46.667
698.52	47.957
698.84	47.884
699.16	46.313
699.48	50.831
699.80	49.517
700.12	51.948
700.44	50.398
700.76	49.448
701.08	54.310
701.40	51.955
701.72	54.227
702.04	55.966
702.36	52.691
702.68	52.975
703.00	52.909
703.32	48.670
703.64	49.598
703.96	50.696
704.28	55.233
704.60	56.598
704.91	54.303
705.23	55.132
705.55	57.143
705.87	55.814
706.19	54.417
706.51	51.713
706.83	53.939
707.15	54.902
707.47	48.990
707.79	47.174
708.11	44.064
708.43	47.619
708.74	46.684
709.06	50.390
709.38	47.769
709.70	50.000
710.02	52.819
710.34	51.212
710.66	51.045
710.98	51.420
711.29	49.709
711.61	52.802
711.93	51.603
712.25	53.376
712.57	57.721
712.89	53.633
713.20	51.064
713.52	55.263
713.84	51.582
714.16	50.610
714.48	51.149
714.80	51.368
715.11	48.703
715.43	49.258
715.75	47.826
716.07	51.757
716.39	47.962
716.70	57.143
717.02	53.597
717.34	53.357
717.66	55.224
717.97	57.371
718.29	48.889
718.61	57.664
718.93	49.265
719.24	51.211
719.56	48.136
719.88	53.898
720.20	50.676
720.51	50.174
720.83	53.532
721.15	49.627
721.46	47.163
721.78	52.688
722.10	53.585
722.42	51.880
722.73	52.434
723.05	56.148
723.37	52.227
723.68	54.054
724.00	52.846
724.32	55.645
724.63	52.846
724.95	51.046
725.27	53.846
725.58	53.516
725.90	54.380
726.22	56.981
726.53	50.347
726.85	51.536
727.16	50.178
727.48	47.518
727.80	54.545
728.11	50.725
728.43	48.077
728.74	48.746
729.06	55.839
729.38	54.412
729.69	51.601
730.01	48.464
730.32	47.917
730.64	50.167
730.96	46.535
731.27	51.325
731.59	48.930
731.90	48.688
732.22	45.963
732.53	44.892
732.85	47.756
733.16	46.945
733.48	49.834
733.80	45.455
734.11	47.134
734.43	46.450
734.74	46.857
735.06	45.559
735.37	49.422
735.69	45.860
736.00	48.693
736.32	47.975
736.63	43.770
736.95	49.201
737.26	43.878
737.58	44.839
737.89	44.816
738.21	47.099
738.52	51.429
738.83	48.302
739.15	50.769
739.46	50.365
739.78	43.750
740.09	43.692
740.41	50.000
740.72	45.645
741.04	49.630
741.35	50.833
741.66	47.111
741.98	47.170
742.29	58.852
742.61	56.897
742.92	52.036
743.23	52.991
743.55	52.800
743.86	49.123
744.18	53.982
744.49	51.196
744.80	53.052
745.12	55.000
745.43	51.101
745.74	52.252
746.06	55.046
746.37	53.812
746.68	52.036
747.00	55.093
747.31	58.571
747.62	50.000
747.94	51.542
748.25	48.511
748.56	57.269
748.88	49.010
749.19	59.500
749.50	54.884
749.82	45.935
750.13	45.714
750.44	45.985
750.75	49.825
751.07	45.338
751.38	48.780
751.69	49.458
752.01	47.744
752.32	46.209
752.63	50.709
752.94	52.459
753.26	52.400
753.57	43.089
753.88	51.953
754.19	47.857
754.51	50.694
754.82	42.238
755.13	47.547
755.44	44.737
755.75	47.810
756.07	45.035
756.38	44.526
756.69	40.604
757.00	40.719
757.31	42.136
757.63	40.351
757.94	42.091
758.25	41.176
758.56	40.247
758.87	40.323
759.18	41.818
759.50	42.006
759.81	44.237
760.12	41.250
760.43	39.828
760.74	39.674
761.05	44.915
761.36	41.176
761.67	43.466
761.99	41.615
762.30	44.097
762.61	48.473
762.92	48.047
763.23	44.118
763.54	45.200
763.85	41.406
764.16	48.846
764.47	48.289
764.78	39.929
765.10	38.291
765.41	41.298
765.72	44.012
766.03	42.633
766.34	41.333
766.65	48.085
766.96	52.137
767.27	54.315
767.58	51.042
767.89	55.263
768.20	51.149
768.51	49.746
768.82	49.083
769.13	41.057
769.44	42.105
769.75	48.927
770.06	44.037
770.37	49.774
770.68	49.074
770.99	48.000
771.30	40.574
771.61	47.534
771.92	45.902
772.23	49.580
772.54	51.282
772.85	48.691
773.16	55.851
773.47	52.717
773.78	48.223
774.09	45.238
774.39	52.632
774.70	50.617
775.01	64.493
775.32	56.209
775.63	46.053
775.94	54.676
776.25	58.268
776.56	59.701
776.87	58.197
777.18	64.844
777.48	54.962
777.79	50.758
778.10	64.444
778.41	57.143
778.72	48.175
779.03	55.705
779.34	50.336
779.65	42.568
779.95	48.466
780.26	52.941
780.57	57.241
780.88	65.625
781.19	57.143
781.50	52.703
781.80	55.346
782.11	45.198
782.42	53.165
782.73	46.626
783.04	54.730
783.34	52.113
783.65	59.589
783.96	57.463
784.27	58.741
784.57	56.115
784.88	55.556
785.19	65.079
785.50	58.491
785.81	62.687
786.11	56.557
786.42	62.016
786.73	49.558
787.04	61.321
787.34	53.571
787.65	60.000
787.96	52.252
788.26	52.893
788.57	65.254
788.88	66.942
789.19	50.000
789.49	50.758
789.80	45.802
790.11	72.381
790.41	62.376
790.72	66.265
791.03	71.739
791.33	70.930
791.64	58.763
791.95	74.257
792.25	80.000
792.56	74.026
792.87	82.051
793.17	81.013
793.48	65.517
793.79	66.667
794.09	71.591
794.40	58.824
794.70	61.765
795.01	43.704
795.32	49.640
795.62	53.543
795.93	57.759
796.23	56.637
796.54	60.000
796.85	60.811
797.15	87.324
797.46	66.667
797.76	71.084
798.07	69.620
798.37	73.846
798.68	84.848
798.99	71.831
799.29	58.442
799.60	65.909
799.90	83.562
800.21	83.582
800.51	72.414
800.82	89.474
801.12	77.049
801.43	65.152
801.73	79.730
802.04	80.952
802.34	81.481
802.65	68.750
802.95	89.831
803.26	81.250
803.56	64.286
803.87	66.154
804.17	76.471
804.48	94.444
804.78	70.690
805.09	85.294
805.39	73.077
805.70	66.071
806.00	81.967
806.30	60.606
806.61	70.732
806.91	48.101
807.22	80.263
807.52	50.746
807.83	71.831
808.13	76.563
808.43	85.000
808.74	77.632
809.04	69.565
809.35	77.612
809.65	76.316
809.95	95.161
810.26	66.102
810.56	74.603
810.86	109.091
811.17	111.905
811.47	98.333
811.77	88.889
812.08	67.273
812.38	96.000
812.69	91.667
812.99	134.091
813.29	108.163
813.59	73.810
813.90	108.163
814.20	74.545
814.50	72.308
814.81	82.353
815.11	87.755
815.41	72.131
815.72	104.762
816.02	103.636
816.32	95.238
816.62	102.500
816.93	87.805
817.23	102.381
817.53	113.636
817.84	124.242
818.14	106.522
818.44	71.111
818.74	117.647
819.04	110.000
819.35	97.143
819.65	152.941
819.95	125.000
820.25	180.000
820.56	117.949
820.86	102.273
821.16	123.256
821.46	79.487
821.76	104.000
822.07	125.714
822.37	107.500
822.67	100.000
822.97	66.667
823.27	146.429
823.57	121.622
823.88	125.000
824.18	126.667
824.48	107.143
824.78	164.000
825.08	120.833
825.38	116.216
825.69	104.878
825.99	162.500
826.29	131.034
826.59	84.211
826.89	105.263
827.19	102.941
827.49	80.645
827.79	106.818
828.09	106.818
828.39	100.000
828.70	104.082
829.00	122.222
829.30	122.581
829.60	87.500
829.90	266.667
830.20	114.286
830.50	186.957
830.80	134.783
831.10	120.000
831.40	116.667
831.70	108.696
832.00	184.615
832.30	140.741
832.60	237.500
832.90	133.333
833.20	278.571
833.50	125.806
833.80	144.828
834.10	118.750
834.40	138.462
834.70	188.889
835.00	180.952
835.30	120.000
835.60	176.923
835.90	162.069
836.20	192.857
836.50	131.034
836.80	144.000
837.10	111.111
837.40	190.476
837.70	247.059
838.00	151.852
838.30	123.810
838.60	166.667
838.90	157.692
839.19	190.000
839.49	278.571
839.79	245.000
840.09	145.000
840.39	171.429
840.69	173.913
840.99	183.333
841.29	310.000
841.59	225.000
841.88	256.250
842.18	106.897
842.48	180.952
842.78	120.000
843.08	152.174
843.38	121.875
843.68	633.333
843.97	173.077
844.27	137.931
844.57	233.333
844.87	193.750
845.17	155.556
845.47	866.667
845.76	333.333
846.06	217.647
846.36	412.500
846.66	257.143
846.96	193.750
847.25	281.818
847.55	309.091
847.85	178.261
848.15	280.000
848.44	235.714
848.74	188.889
849.04	223.529
849.34	320.000
849.63	157.895
849.93	300.000
850.23	660.000
850.53	278.571
850.82	1450.000
851.12	-1700.000
851.42	2600.000
851.71	210.000
852.01	-633.333
852.31	158.333
852.61	1000.000
852.90	161.905
853.20	176.000
853.50	241.176
853.79	147.619
854.09	141.667
854.39	268.750
854.68	132.432
854.98	109.677
855.28	120.000
855.57	127.586
855.87	137.037
856.17	121.053
856.46	220.000
856.76	176.471
857.05	141.379
857.35	137.500
857.65	220.000
857.94	152.174
858.24	173.077
858.53	195.000
858.83	200.000
859.13	246.667
859.42	0.000
859.72	388.889
860.01	209.091
860.31	177.273
860.60	131.579
860.90	143.478
861.20	388.889
861.49	291.667
861.79	-2700.000
862.08	500.000
862.38	214.286
862.67	192.308
862.97	200.000
863.26	255.556
863.56	161.111
863.85	208.333
864.15	387.500
864.44	220.000
864.74	550.000
865.03	462.500
865.33	142.105
865.62	272.727
865.92	315.385
866.21	166.667
866.51	0.000
866.80	300.000
867.10	400.000
867.39	315.385
867.69	236.364
867.98	168.421
868.27	300.000
868.57	194.737
868.86	-2900.000
869.16	237.500
869.45	1600.000
869.75	-3000.000
870.04	308.333
870.33	414.286
870.63	575.000
870.92	1000.000
871.22	400.000
871.51	217.647
871.80	147.619
872.10	192.857
>>>>>End Processed Spectral Data<<<<<
