SpectraSuite Data File
++++++++++++++++++++++++++++++++++++
Date: Wed May 13 16:49:37 PDT 2015
User: schluterlab
Dark Spectrum Present: Yes
Reference Spectrum Present: Yes
Number of Sampled Component Spectra: 1
Spectrometers: USB2E3373
Integration Time (usec): 3000 (USB2E3373)
Spectra Averaged: 3 (USB2E3373)
Boxcar Smoothing: 0 (USB2E3373)
Correct for Electrical Dark: No (USB2E3373)
Strobe/Lamp Enabled: No (USB2E3373)
Correct for Detector Non-linearity: No (USB2E3373)
Correct for Stray Light: No (USB2E3373)
Number of Pixels in Processed Spectrum: 2048
>>>>>Begin Processed Spectral Data<<<<<
178.53	0.000
178.91	-1275.000
179.29	-1300.000
179.67	-194.444
180.04	-950.000
180.42	2750.000
180.80	960.000
181.18	-925.000
181.56	800.000
181.94	0.000
182.31	-600.000
182.69	1600.000
183.07	-587.500
183.45	-466.667
183.83	490.909
184.20	-430.000
184.58	2200.000
184.96	5600.000
185.34	-820.000
185.72	-525.000
186.09	-2200.000
186.47	2350.000
186.85	2350.000
187.23	4900.000
187.61	-1500.000
187.98	1150.000
188.36	509.091
188.74	527.273
189.12	-780.000
189.49	570.000
189.87	-5200.000
190.25	-1175.000
190.63	414.286
191.00	453.846
191.38	850.000
191.76	-975.000
192.14	1400.000
192.51	712.500
192.89	916.667
193.27	562.500
193.65	-1000.000
194.02	550.000
194.40	920.000
194.78	480.000
195.15	483.333
195.53	640.000
195.91	-1900.000
196.29	318.750
196.66	300.000
197.04	-450.000
197.42	0.000
197.79	620.000
198.17	-5300.000
198.55	671.429
198.92	737.500
199.30	940.000
199.68	0.000
200.05	333.333
200.43	771.429
200.81	4600.000
201.18	1833.333
201.56	-1633.333
201.94	588.889
202.31	544.444
202.69	425.000
203.07	450.000
203.44	0.000
203.82	1275.000
204.19	785.714
204.57	450.000
204.95	525.000
205.32	1566.667
205.70	490.909
206.08	385.714
206.45	2550.000
206.83	387.500
207.20	916.667
207.58	720.000
207.96	322.222
208.33	750.000
208.71	-800.000
209.08	885.714
209.46	588.889
209.84	427.273
210.21	-1433.333
210.59	1300.000
210.96	-500.000
211.34	2300.000
211.71	640.000
212.09	850.000
212.46	0.000
212.84	1700.000
213.22	1575.000
213.59	-4500.000
213.97	866.667
214.34	742.857
214.72	618.182
215.09	860.000
215.47	-2300.000
215.84	-2450.000
216.22	1633.333
216.59	400.000
216.97	1250.000
217.34	436.364
217.72	-733.333
218.09	0.000
218.47	-4300.000
218.84	655.556
219.22	657.143
219.59	1433.333
219.97	-642.857
220.34	980.000
220.72	-1633.333
221.09	371.429
221.47	1300.000
221.84	-700.000
222.22	0.000
222.59	1275.000
222.97	-2150.000
223.34	1140.000
223.72	469.231
224.09	1060.000
224.46	1750.000
224.84	-4500.000
225.21	-1080.000
225.59	-4100.000
225.96	580.000
226.34	300.000
226.71	2750.000
227.08	687.500
227.46	530.000
227.83	-1050.000
228.21	-2400.000
228.58	566.667
228.95	-2400.000
229.33	-2100.000
229.70	1866.667
230.08	828.571
230.45	-860.000
230.82	433.333
231.20	833.333
231.57	585.714
231.95	416.667
232.32	213.636
232.69	445.455
233.07	657.143
233.44	361.538
233.81	-1333.333
234.19	342.105
234.56	483.333
234.93	275.000
235.31	472.727
235.68	330.769
236.05	392.857
236.43	151.515
236.80	284.211
237.17	4700.000
237.55	228.571
237.92	203.571
238.29	204.762
238.67	154.839
239.04	179.310
239.41	169.444
239.79	106.522
240.16	121.429
240.53	111.364
240.91	115.686
241.28	110.000
241.65	120.000
242.02	107.246
242.40	98.387
242.77	101.667
243.14	81.720
243.51	82.022
243.89	85.882
244.26	64.444
244.63	66.667
245.00	71.277
245.38	77.228
245.75	58.879
246.12	59.633
246.49	59.124
246.87	64.000
247.24	70.769
247.61	63.571
247.98	58.824
248.36	58.108
248.73	57.325
249.10	57.325
249.47	53.107
249.84	54.011
250.22	50.267
250.59	47.929
250.96	52.525
251.33	47.867
251.70	47.030
252.08	50.476
252.45	45.740
252.82	41.304
253.19	42.979
253.56	40.784
253.94	48.548
254.31	39.453
254.68	45.769
255.05	44.280
255.42	41.057
255.79	43.750
256.16	43.682
256.54	41.696
256.91	41.993
257.28	39.568
257.65	40.264
258.02	40.062
258.39	37.539
258.76	38.462
259.14	37.202
259.51	37.690
259.88	36.025
260.25	42.296
260.62	34.682
260.99	36.025
261.36	38.138
261.73	38.109
262.10	38.663
262.47	37.183
262.85	37.604
263.22	35.328
263.59	39.031
263.96	36.813
264.33	35.770
264.70	35.526
265.07	38.107
265.44	36.111
265.81	36.496
266.18	35.678
266.55	36.829
266.92	32.924
267.29	37.731
267.66	35.092
268.03	33.182
268.40	35.514
268.77	31.981
269.14	32.432
269.51	36.117
269.88	38.228
270.25	34.086
270.62	34.382
270.99	33.118
271.36	35.622
271.73	32.710
272.10	35.000
272.47	32.688
272.84	34.632
273.21	36.478
273.58	33.188
273.95	32.075
274.32	29.132
274.69	35.332
275.06	29.921
275.43	37.021
275.80	30.862
276.17	32.587
276.54	33.680
276.91	31.423
277.28	33.984
277.65	32.689
278.02	30.642
278.39	36.523
278.76	32.000
279.13	30.566
279.50	33.892
279.87	31.474
280.23	31.337
280.60	29.981
280.97	31.238
281.34	33.097
281.71	32.545
282.08	32.438
282.45	28.182
282.82	31.616
283.19	29.234
283.56	32.105
283.92	30.626
284.29	29.982
284.66	29.946
285.03	30.018
285.40	29.577
285.77	30.135
286.14	29.188
286.51	30.167
286.87	29.915
287.24	30.456
287.61	29.535
287.98	29.708
288.35	27.892
288.72	29.283
289.08	28.013
289.45	28.336
289.82	28.943
290.19	29.199
290.56	28.790
290.93	27.190
291.29	27.301
291.66	26.844
292.03	28.634
292.40	29.662
292.77	24.704
293.13	27.612
293.50	28.571
293.87	27.704
294.24	27.111
294.60	26.055
294.97	27.035
295.34	27.786
295.71	27.131
296.08	25.214
296.44	25.860
296.81	25.231
297.18	25.610
297.55	24.406
297.91	24.670
298.28	26.506
298.65	24.674
299.02	26.219
299.38	27.092
299.75	22.237
300.12	24.649
300.48	24.750
300.85	24.908
301.22	23.439
301.59	24.874
301.95	24.181
302.32	25.160
302.69	25.329
303.05	24.848
303.42	24.444
303.79	24.009
304.15	23.776
304.52	22.711
304.89	25.087
305.25	22.854
305.62	25.481
305.99	24.675
306.35	23.602
306.72	23.543
307.09	25.194
307.45	23.986
307.82	22.656
308.19	25.717
308.55	24.272
308.92	24.919
309.29	22.703
309.65	24.284
310.02	24.419
310.38	24.086
310.75	25.132
311.12	25.077
311.48	25.078
311.85	24.319
312.22	24.350
312.58	25.260
312.95	24.921
313.31	24.466
313.68	25.052
314.05	25.937
314.41	25.729
314.78	26.183
315.14	25.223
315.51	25.850
315.87	24.950
316.24	25.223
316.61	25.049
316.97	24.853
317.34	24.168
317.70	26.099
318.07	26.660
318.43	25.342
318.80	25.867
319.16	26.083
319.53	25.704
319.89	25.333
320.26	26.500
320.62	26.389
320.99	25.152
321.35	26.566
321.72	25.667
322.08	28.529
322.45	28.955
322.81	28.391
323.18	29.480
323.54	26.160
323.91	28.019
324.27	29.063
324.64	27.120
325.00	27.863
325.37	29.299
325.73	30.610
326.10	30.009
326.46	28.584
326.83	29.681
327.19	29.804
327.56	30.662
327.92	29.834
328.29	30.435
328.65	30.663
329.01	30.325
329.38	29.695
329.74	30.471
330.11	31.103
330.47	31.497
330.84	31.893
331.20	31.876
331.56	30.000
331.93	31.296
332.29	30.524
332.66	32.124
333.02	30.256
333.38	31.256
333.75	30.125
334.11	29.537
334.48	31.056
334.84	31.066
335.20	31.909
335.57	31.188
335.93	30.536
336.29	30.403
336.66	31.199
337.02	30.588
337.38	30.926
337.75	30.838
338.11	30.886
338.47	30.939
338.84	30.706
339.20	30.367
339.56	32.664
339.93	30.091
340.29	32.337
340.65	30.481
341.02	30.279
341.38	31.673
341.74	31.228
342.11	30.480
342.47	30.220
342.83	29.880
343.20	31.169
343.56	30.160
343.92	30.175
344.28	30.357
344.65	31.298
345.01	29.125
345.37	30.017
345.73	31.049
346.10	30.179
346.46	30.678
346.82	31.713
347.19	28.822
347.55	29.967
347.91	30.583
348.27	30.896
348.63	29.933
349.00	29.288
349.36	29.639
349.72	28.869
350.08	29.092
350.45	31.001
350.81	29.813
351.17	30.227
351.53	29.484
351.89	30.198
352.26	29.676
352.62	30.714
352.98	29.498
353.34	30.485
353.70	29.951
354.07	29.355
354.43	29.524
354.79	29.204
355.15	29.848
355.51	31.575
355.87	31.347
356.24	32.329
356.60	29.912
356.96	30.249
357.32	30.662
357.68	30.551
358.04	30.245
358.40	29.454
358.77	30.516
359.13	29.676
359.49	30.275
359.85	29.921
360.21	29.904
360.57	30.973
360.93	31.385
361.29	30.915
361.66	29.721
362.02	30.597
362.38	30.418
362.74	31.250
363.10	30.644
363.46	28.980
363.82	31.368
364.18	30.617
364.54	31.501
364.90	30.737
365.26	31.250
365.62	30.898
365.98	30.460
366.35	29.585
366.71	30.875
367.07	31.100
367.43	30.552
367.79	31.692
368.15	31.394
368.51	30.451
368.87	32.049
369.23	31.895
369.59	31.427
369.95	31.544
370.31	31.268
370.67	31.159
371.03	31.610
371.39	31.341
371.75	31.029
372.11	31.437
372.47	32.405
372.83	31.844
373.19	31.431
373.55	32.225
373.91	32.622
374.27	30.309
374.63	31.636
374.99	34.181
375.35	32.170
375.71	31.528
376.07	33.059
376.42	33.631
376.78	32.538
377.14	32.090
377.50	32.715
377.86	32.580
378.22	32.933
378.58	32.957
378.94	32.244
379.30	33.015
379.66	34.898
380.02	33.845
380.38	32.848
380.74	34.274
381.09	33.924
381.45	34.542
381.81	34.152
382.17	34.522
382.53	34.025
382.89	34.506
383.25	34.084
383.61	35.130
383.97	34.334
384.32	34.373
384.68	35.254
385.04	34.050
385.40	34.241
385.76	35.504
386.12	35.168
386.48	35.242
386.83	35.792
387.19	36.116
387.55	34.447
387.91	36.215
388.27	36.235
388.62	36.878
388.98	35.504
389.34	36.358
389.70	36.481
390.06	37.326
390.42	37.419
390.77	36.832
391.13	37.396
391.49	36.612
391.85	36.219
392.20	35.016
392.56	36.427
392.92	36.610
393.28	35.325
393.64	36.751
393.99	36.530
394.35	36.787
394.71	36.575
395.07	36.511
395.42	36.774
395.78	37.595
396.14	37.616
396.50	38.847
396.85	38.080
397.21	36.991
397.57	36.020
397.92	36.478
398.28	35.146
398.64	36.918
399.00	37.381
399.35	36.887
399.71	37.384
400.07	37.729
400.42	36.810
400.78	37.153
401.14	37.744
401.49	38.209
401.85	37.266
402.21	36.467
402.57	38.001
402.92	38.272
403.28	39.038
403.63	37.871
403.99	38.471
404.35	37.515
404.70	36.511
405.06	37.798
405.42	37.243
405.77	37.143
406.13	36.738
406.49	38.025
406.84	36.799
407.20	37.352
407.55	38.290
407.91	37.733
408.27	37.013
408.62	37.568
408.98	37.561
409.34	37.577
409.69	37.161
410.05	38.228
410.40	38.226
410.76	36.559
411.11	37.153
411.47	36.486
411.83	37.202
412.18	37.168
412.54	37.609
412.89	38.072
413.25	38.135
413.60	37.678
413.96	37.158
414.31	38.214
414.67	38.910
415.03	38.212
415.38	38.338
415.74	37.428
416.09	37.818
416.45	38.621
416.80	37.409
417.16	38.673
417.51	37.492
417.87	38.343
418.22	38.675
418.58	38.154
418.93	37.961
419.29	38.574
419.64	38.476
420.00	37.500
420.35	37.855
420.71	38.553
421.06	37.888
421.42	37.778
421.77	37.724
422.12	37.563
422.48	37.183
422.83	37.449
423.19	37.017
423.54	38.131
423.90	37.449
424.25	38.582
424.61	37.857
424.96	37.959
425.31	38.870
425.67	36.798
426.02	38.286
426.38	38.095
426.73	39.146
427.09	38.419
427.44	38.010
427.79	37.723
428.15	38.452
428.50	38.327
428.85	38.498
429.21	38.100
429.56	37.584
429.92	37.544
430.27	38.034
430.62	37.634
430.98	37.001
431.33	37.732
431.68	38.429
432.04	38.126
432.39	39.520
432.74	39.617
433.10	38.823
433.45	39.534
433.80	38.248
434.16	38.141
434.51	37.842
434.86	39.225
435.22	38.855
435.57	39.696
435.92	38.385
436.28	39.858
436.63	38.962
436.98	37.149
437.34	39.833
437.69	39.440
438.04	39.629
438.39	39.522
438.75	39.802
439.10	39.274
439.45	39.315
439.81	39.637
440.16	38.848
440.51	39.192
440.86	38.911
441.22	38.654
441.57	38.800
441.92	39.304
442.27	39.397
442.63	39.231
442.98	39.549
443.33	38.152
443.68	39.701
444.03	39.043
444.39	37.877
444.74	38.853
445.09	39.299
445.44	38.874
445.79	38.595
446.15	38.751
446.50	38.395
446.85	38.489
447.20	38.348
447.55	39.419
447.91	38.334
448.26	39.343
448.61	39.062
448.96	39.092
449.31	39.426
449.66	38.379
450.02	38.496
450.37	38.946
450.72	39.368
451.07	39.915
451.42	38.480
451.77	39.812
452.12	40.127
452.47	38.993
452.83	39.569
453.18	39.181
453.53	39.703
453.88	39.457
454.23	38.852
454.58	39.370
454.93	40.814
455.28	39.339
455.63	40.231
455.98	40.060
456.34	40.515
456.69	40.451
457.04	40.743
457.39	39.509
457.74	39.060
458.09	39.275
458.44	39.795
458.79	38.232
459.14	38.995
459.49	38.471
459.84	38.338
460.19	39.069
460.54	38.542
460.89	39.440
461.24	38.798
461.59	39.686
461.94	39.149
462.29	39.466
462.64	38.417
462.99	38.712
463.34	40.467
463.69	39.837
464.04	38.725
464.39	39.188
464.74	39.275
465.09	38.721
465.44	38.504
465.79	37.640
466.14	37.931
466.49	39.266
466.84	39.696
467.19	38.926
467.54	39.062
467.89	39.496
468.24	39.558
468.59	40.171
468.94	38.974
469.29	40.103
469.64	40.897
469.99	40.798
470.34	39.696
470.68	40.733
471.03	39.252
471.38	40.445
471.73	41.772
472.08	41.184
472.43	39.008
472.78	39.039
473.13	39.281
473.48	41.011
473.83	40.671
474.17	40.386
474.52	40.881
474.87	39.638
475.22	40.395
475.57	38.689
475.92	39.565
476.27	39.910
476.61	39.272
476.96	39.967
477.31	39.299
477.66	39.551
478.01	38.735
478.36	39.503
478.70	39.720
479.05	39.830
479.40	40.123
479.75	39.349
480.10	38.917
480.45	39.505
480.79	38.318
481.14	38.796
481.49	38.681
481.84	38.592
482.19	39.573
482.53	39.083
482.88	38.809
483.23	40.234
483.58	39.263
483.92	38.566
484.27	38.126
484.62	39.181
484.97	38.234
485.31	39.623
485.66	36.996
486.01	34.875
486.36	33.532
486.70	33.016
487.05	34.912
487.40	35.904
487.75	36.610
488.09	37.883
488.44	38.326
488.79	39.096
489.13	38.923
489.48	38.622
489.83	38.584
490.17	40.246
490.52	38.043
490.87	39.846
491.22	38.108
491.56	38.178
491.91	39.041
492.26	38.723
492.60	39.171
492.95	39.055
493.30	39.252
493.64	39.664
493.99	39.647
494.34	39.917
494.68	39.469
495.03	39.568
495.37	38.902
495.72	39.327
496.07	39.350
496.41	38.053
496.76	38.786
497.11	39.081
497.45	38.705
497.80	39.779
498.14	39.179
498.49	39.415
498.84	38.974
499.18	39.429
499.53	39.221
499.87	39.329
500.22	39.520
500.56	40.000
500.91	39.712
501.26	39.355
501.60	39.772
501.95	38.955
502.29	39.175
502.64	39.711
502.98	39.364
503.33	38.711
503.67	39.582
504.02	38.587
504.36	39.214
504.71	39.717
505.06	39.952
505.40	39.329
505.75	39.585
506.09	39.213
506.44	39.961
506.78	40.234
507.13	39.223
507.47	39.899
507.82	41.185
508.16	40.020
508.51	40.893
508.85	40.715
509.19	39.847
509.54	40.357
509.88	40.082
510.23	40.720
510.57	41.280
510.92	40.290
511.26	40.185
511.61	41.494
511.95	39.196
512.30	40.191
512.64	41.107
512.98	40.354
513.33	40.792
513.67	40.928
514.02	41.504
514.36	41.890
514.70	41.837
515.05	41.104
515.39	42.008
515.74	40.935
516.08	41.979
516.42	41.676
516.77	42.977
517.11	41.176
517.46	40.914
517.80	43.322
518.14	40.475
518.49	41.482
518.83	41.989
519.17	41.801
519.52	42.218
519.86	41.643
520.20	42.601
520.55	42.011
520.89	43.613
521.23	43.185
521.58	42.257
521.92	42.988
522.26	42.099
522.61	42.928
522.95	41.498
523.29	42.118
523.64	41.829
523.98	42.206
524.32	42.039
524.66	42.453
525.01	43.015
525.35	42.999
525.69	41.749
526.04	42.928
526.38	42.221
526.72	42.393
527.06	42.938
527.41	42.017
527.75	43.408
528.09	43.866
528.43	44.232
528.78	42.840
529.12	42.788
529.46	43.172
529.80	42.389
530.15	42.430
530.49	41.785
530.83	43.797
531.17	44.582
531.51	44.812
531.86	44.645
532.20	44.654
532.54	44.907
532.88	43.838
533.22	41.911
533.57	42.469
533.91	42.083
534.25	42.102
534.59	42.953
534.93	42.118
535.27	42.667
535.62	42.308
535.96	43.189
536.30	42.784
536.64	44.044
536.98	43.265
537.32	43.384
537.66	43.867
538.01	44.108
538.35	43.568
538.69	44.161
539.03	42.430
539.37	42.875
539.71	43.163
540.05	42.222
540.39	43.322
540.73	42.173
541.07	44.517
541.42	44.357
541.76	44.258
542.10	43.726
542.44	44.238
542.78	43.083
543.12	42.099
543.46	44.000
543.80	43.266
544.14	42.298
544.48	43.048
544.82	42.848
545.16	43.656
545.50	43.509
545.84	43.683
546.18	42.694
546.52	43.565
546.86	43.643
547.20	43.493
547.54	43.220
547.88	43.941
548.22	42.590
548.56	42.579
548.90	42.446
549.24	43.771
549.58	43.724
549.92	44.574
550.26	44.176
550.60	43.430
550.94	44.789
551.28	44.184
551.62	44.357
551.96	43.789
552.30	43.959
552.64	44.219
552.98	44.068
553.32	44.032
553.66	43.695
554.00	44.200
554.34	43.685
554.68	44.993
555.02	43.865
555.36	43.911
555.69	44.046
556.03	44.011
556.37	45.089
556.71	43.588
557.05	43.277
557.39	43.947
557.73	44.813
558.07	44.815
558.41	44.067
558.75	45.040
559.08	45.339
559.42	46.183
559.76	43.897
560.10	44.468
560.44	44.794
560.78	43.713
561.12	43.865
561.45	43.351
561.79	44.759
562.13	44.266
562.47	44.604
562.81	43.654
563.15	43.612
563.48	43.501
563.82	43.249
564.16	43.558
564.50	43.490
564.84	42.415
565.17	42.085
565.51	44.792
565.85	42.957
566.19	42.267
566.52	43.952
566.86	42.556
567.20	43.219
567.54	42.009
567.88	41.228
568.21	42.328
568.55	41.759
568.89	41.829
569.23	40.018
569.56	39.190
569.90	39.736
570.24	38.105
570.57	39.068
570.91	36.910
571.25	37.956
571.59	37.673
571.92	37.356
572.26	37.608
572.60	37.598
572.93	37.571
573.27	37.859
573.61	37.326
573.95	37.674
574.28	37.060
574.62	37.293
574.96	36.870
575.29	36.566
575.63	37.144
575.97	36.865
576.30	37.414
576.64	37.478
576.98	37.287
577.31	36.945
577.65	36.526
577.98	36.208
578.32	35.842
578.66	36.310
578.99	36.544
579.33	36.166
579.67	36.682
580.00	36.850
580.34	37.494
580.67	36.587
581.01	36.766
581.35	36.797
581.68	36.228
582.02	35.473
582.35	35.570
582.69	36.176
583.02	36.263
583.36	37.169
583.70	38.062
584.03	38.140
584.37	38.524
584.70	38.323
585.04	37.696
585.37	37.372
585.71	37.265
586.04	37.352
586.38	37.774
586.72	38.139
587.05	37.789
587.39	37.124
587.72	37.465
588.06	37.593
588.39	38.107
588.73	38.105
589.06	38.859
589.40	39.461
589.73	39.845
590.07	39.288
590.40	38.692
590.73	40.281
591.07	41.188
591.40	40.321
591.74	41.645
592.07	40.881
592.41	40.761
592.74	39.476
593.08	38.741
593.41	38.026
593.75	37.071
594.08	38.217
594.41	38.459
594.75	38.965
595.08	38.941
595.42	38.494
595.75	40.207
596.09	40.406
596.42	40.589
596.75	40.650
597.09	40.823
597.42	38.954
597.75	40.837
598.09	40.304
598.42	39.691
598.76	39.887
599.09	39.339
599.42	39.083
599.76	38.982
600.09	38.506
600.42	38.167
600.76	38.321
601.09	38.069
601.42	39.992
601.76	39.810
602.09	39.605
602.42	39.769
602.76	40.669
603.09	40.559
603.42	40.336
603.76	38.605
604.09	39.628
604.42	39.870
604.76	40.067
605.09	39.493
605.42	40.316
605.75	39.983
606.09	39.488
606.42	39.600
606.75	39.900
607.09	39.305
607.42	40.907
607.75	39.578
608.08	39.948
608.42	41.103
608.75	40.352
609.08	40.287
609.41	40.505
609.75	40.305
610.08	41.423
610.41	41.015
610.74	41.675
611.07	41.601
611.41	42.002
611.74	40.875
612.07	41.925
612.40	42.550
612.73	41.526
613.07	42.134
613.40	42.285
613.73	41.164
614.06	41.559
614.39	40.535
614.72	42.000
615.06	40.809
615.39	40.658
615.72	41.922
616.05	41.520
616.38	41.968
616.71	42.518
617.05	43.698
617.38	42.814
617.71	43.183
618.04	42.668
618.37	43.229
618.70	42.813
619.03	44.605
619.36	43.381
619.69	43.592
620.03	43.407
620.36	43.182
620.69	44.658
621.02	45.206
621.35	45.732
621.68	45.016
622.01	45.820
622.34	46.596
622.67	45.019
623.00	44.094
623.33	44.603
623.66	44.603
623.99	44.330
624.32	44.365
624.65	42.867
624.99	45.184
625.32	44.243
625.65	45.455
625.98	47.425
626.31	45.257
626.64	47.592
626.97	44.722
627.30	45.387
627.63	47.498
627.96	45.837
628.29	46.632
628.62	48.216
628.95	49.811
629.28	48.084
629.61	46.654
629.94	46.952
630.26	47.855
630.59	48.236
630.92	48.467
631.25	49.358
631.58	48.749
631.91	49.290
632.24	47.574
632.57	49.003
632.90	50.219
633.23	49.329
633.56	52.203
633.89	50.963
634.22	50.397
634.55	51.953
634.88	52.216
635.20	52.808
635.53	51.325
635.86	51.733
636.19	51.294
636.52	51.211
636.85	49.943
637.18	48.963
637.51	50.591
637.83	49.692
638.16	52.813
638.49	53.778
638.82	53.097
639.15	52.625
639.48	51.870
639.81	52.279
640.13	52.865
640.46	53.423
640.79	52.312
641.12	52.957
641.45	53.352
641.77	56.554
642.10	53.655
642.43	53.904
642.76	55.728
643.09	53.067
643.41	56.753
643.74	56.636
644.07	53.354
644.40	53.834
644.73	56.063
645.05	56.735
645.38	54.502
645.71	54.589
646.04	56.977
646.36	58.264
646.69	56.355
647.02	55.952
647.35	57.045
647.67	56.106
648.00	54.959
648.33	59.406
648.66	53.788
648.98	53.823
649.31	52.167
649.64	54.410
649.96	52.012
650.29	54.502
650.62	56.311
650.94	55.105
651.27	56.757
651.60	56.406
651.92	54.473
652.25	53.746
652.58	53.427
652.90	53.870
653.23	55.162
653.56	51.969
653.88	54.675
654.21	56.240
654.54	53.795
654.86	54.050
655.19	49.730
655.52	35.027
655.84	29.632
656.17	38.006
656.49	50.989
656.82	53.590
657.15	40.807
657.47	30.669
657.80	24.090
658.13	25.587
658.45	38.811
658.78	39.315
659.10	41.755
659.43	44.758
659.75	46.762
660.08	50.886
660.41	56.797
660.73	57.814
661.06	58.758
661.38	60.000
661.71	57.692
662.03	59.961
662.36	54.871
662.68	56.426
663.01	59.192
663.33	60.297
663.66	58.824
663.98	61.339
664.31	58.613
664.63	56.073
664.96	52.918
665.28	58.811
665.61	56.725
665.93	56.539
666.26	54.970
666.58	56.485
666.91	62.368
667.23	62.472
667.56	57.451
667.88	57.906
668.21	58.635
668.53	60.738
668.86	58.442
669.18	58.209
669.50	60.652
669.83	59.695
670.15	58.889
670.48	56.645
670.80	58.190
671.13	59.448
671.45	58.085
671.77	57.230
672.10	53.420
672.42	52.297
672.75	54.063
673.07	53.345
673.39	52.260
673.72	52.539
674.04	55.098
674.37	53.398
674.69	55.419
675.01	56.695
675.34	57.700
675.66	58.737
675.98	58.248
676.31	56.513
676.63	57.325
676.95	57.862
677.28	56.308
677.60	56.264
677.92	60.549
678.25	58.111
678.57	55.777
678.89	56.112
679.22	54.813
679.54	53.244
679.86	54.679
680.18	52.594
680.51	54.078
680.83	53.203
681.15	56.604
681.48	56.900
681.80	53.772
682.12	55.556
682.44	53.385
682.77	56.619
683.09	61.373
683.41	57.428
683.73	55.629
684.06	58.058
684.38	51.663
684.70	57.364
685.02	54.221
685.34	53.480
685.67	49.126
685.99	49.828
686.31	48.805
686.63	51.060
686.96	51.071
687.28	53.069
687.60	51.812
687.92	52.834
688.24	53.232
688.56	51.606
688.89	54.149
689.21	58.734
689.53	53.862
689.85	58.537
690.17	51.760
690.49	54.140
690.82	57.710
691.14	56.920
691.46	54.430
691.78	54.819
692.10	56.818
692.42	50.699
692.74	53.527
693.06	52.340
693.39	54.415
693.71	54.148
694.03	53.895
694.35	55.195
694.67	56.064
694.99	60.244
695.31	55.637
695.63	56.220
695.95	59.658
696.27	57.614
696.59	54.404
696.91	58.808
697.23	51.878
697.56	52.026
697.88	50.307
698.20	53.958
698.52	55.269
698.84	54.566
699.16	54.378
699.48	54.869
699.80	55.556
700.12	60.260
700.44	59.682
700.76	59.116
701.08	58.621
701.40	59.777
701.72	60.933
702.04	63.068
702.36	60.340
702.68	57.507
703.00	57.341
703.32	56.117
703.64	55.496
703.96	61.560
704.28	56.395
704.60	59.824
704.91	64.985
705.23	60.997
705.55	63.455
705.87	64.784
706.19	62.898
706.51	60.748
706.83	61.818
707.15	58.263
707.47	54.545
707.79	53.808
708.11	54.338
708.43	53.571
708.74	54.592
709.06	60.260
709.38	55.118
709.70	61.047
710.02	61.721
710.34	60.000
710.66	58.209
710.98	57.955
711.29	56.686
711.61	58.112
711.93	57.692
712.25	57.235
712.57	65.441
712.89	62.284
713.20	57.447
713.52	58.224
713.84	62.975
714.16	57.317
714.48	58.908
714.80	62.614
715.11	57.349
715.43	56.973
715.75	60.870
716.07	60.064
716.39	58.307
716.70	58.472
717.02	60.432
717.34	63.604
717.66	67.164
717.97	65.339
718.29	64.444
718.61	64.599
718.93	63.971
719.24	59.170
719.56	60.678
719.88	58.305
720.20	59.459
720.51	62.718
720.83	62.454
721.15	58.582
721.46	57.447
721.78	62.724
722.10	63.396
722.42	64.286
722.73	61.423
723.05	64.754
723.37	65.182
723.68	67.181
724.00	58.130
724.32	59.274
724.63	60.976
724.95	66.527
725.27	61.538
725.58	60.938
725.90	63.504
726.22	64.151
726.53	59.028
726.85	59.386
727.16	63.701
727.48	61.348
727.80	60.985
728.11	57.971
728.43	59.231
728.74	54.480
729.06	66.788
729.38	62.500
729.69	57.295
730.01	54.949
730.32	54.514
730.64	55.518
730.96	54.455
731.27	59.934
731.59	55.657
731.90	52.478
732.22	55.280
732.53	51.084
732.85	53.205
733.16	50.482
733.48	59.468
733.80	51.623
734.11	55.732
734.43	52.367
734.74	51.429
735.06	53.295
735.37	54.624
735.69	56.369
736.00	60.458
736.32	52.960
736.63	50.479
736.95	53.355
737.26	50.340
737.58	48.710
737.89	59.866
738.21	56.655
738.52	58.571
738.83	56.981
739.15	54.615
739.46	61.314
739.78	54.167
740.09	53.231
740.41	55.161
740.72	53.310
741.04	55.185
741.35	63.333
741.66	62.667
741.98	60.849
742.29	69.856
742.61	68.966
742.92	64.706
743.23	61.966
743.55	59.200
743.86	63.596
744.18	63.717
744.49	68.421
744.80	64.319
745.12	65.455
745.43	59.471
745.74	63.063
746.06	63.761
746.37	65.919
746.68	66.968
747.00	63.889
747.31	66.667
747.62	63.274
747.94	57.269
748.25	62.553
748.56	59.912
748.88	67.822
749.19	67.500
749.50	60.930
749.82	55.691
750.13	57.959
750.44	58.029
750.75	56.842
751.07	58.521
751.38	56.098
751.69	54.513
752.01	56.767
752.32	57.040
752.63	57.092
752.94	64.344
753.26	62.400
753.57	52.846
753.88	54.297
754.19	55.357
754.51	57.986
754.82	53.430
755.13	60.377
755.44	53.383
755.75	55.109
756.07	52.128
756.38	56.204
756.69	52.349
757.00	47.904
757.31	46.291
757.63	47.661
757.94	47.989
758.25	45.588
758.56	43.210
758.87	47.581
759.18	51.818
759.50	48.589
759.81	45.483
760.12	48.125
760.43	50.143
760.74	45.109
761.05	52.260
761.36	48.396
761.67	52.273
761.99	50.621
762.30	52.778
762.61	53.817
762.92	51.172
763.23	56.303
763.54	56.400
763.85	50.781
764.16	55.385
764.47	57.034
764.78	52.650
765.10	43.038
765.41	48.968
765.72	51.198
766.03	47.335
766.34	50.000
766.65	61.277
766.96	52.991
767.27	65.990
767.58	60.938
767.89	70.526
768.20	75.287
768.51	67.005
768.82	61.009
769.13	51.220
769.44	55.870
769.75	55.365
770.06	53.211
770.37	64.706
770.68	56.944
770.99	59.556
771.30	50.410
771.61	60.090
771.92	54.098
772.23	57.143
772.54	64.103
772.85	65.969
773.16	64.894
773.47	61.957
773.78	62.944
774.09	57.738
774.39	64.327
774.70	69.136
775.01	76.087
775.32	76.471
775.63	70.395
775.94	74.101
776.25	81.102
776.56	76.119
776.87	84.426
777.18	71.875
777.48	74.046
777.79	79.545
778.10	70.370
778.41	83.036
778.72	59.854
779.03	55.034
779.34	63.758
779.65	66.216
779.95	68.098
780.26	74.510
780.57	71.724
780.88	88.281
781.19	69.925
781.50	72.973
781.80	71.069
782.11	61.582
782.42	62.025
782.73	64.417
783.04	72.297
783.34	73.239
783.65	69.863
783.96	74.627
784.27	65.734
784.57	66.187
784.88	66.667
785.19	80.952
785.50	83.962
785.81	75.373
786.11	89.344
786.42	75.969
786.73	82.301
787.04	75.472
787.34	75.000
787.65	76.000
787.96	83.784
788.26	69.421
788.57	81.356
788.88	83.471
789.19	69.444
789.49	83.333
789.80	74.046
790.11	92.381
790.41	96.040
790.72	86.747
791.03	89.130
791.33	90.698
791.64	95.876
791.95	76.238
792.25	100.000
792.56	111.688
792.87	103.846
793.17	106.329
793.48	97.701
793.79	91.954
794.09	86.364
794.40	73.109
794.70	77.206
795.01	68.889
795.32	69.784
795.62	67.717
795.93	80.172
796.23	73.451
796.54	97.647
796.85	98.649
797.15	115.493
797.46	115.152
797.76	91.566
798.07	98.734
798.37	113.846
798.68	92.424
798.99	91.549
799.29	89.610
799.60	92.045
799.90	115.068
800.21	107.463
800.51	108.621
800.82	129.825
801.12	108.197
801.43	113.636
801.73	89.189
802.04	111.111
802.34	100.000
802.65	121.875
802.95	120.339
803.26	115.625
803.56	85.714
803.87	95.385
804.17	98.529
804.48	125.926
804.78	105.172
805.09	105.882
805.39	144.231
805.70	96.429
806.00	129.508
806.30	103.030
806.61	97.561
806.91	86.076
807.22	98.684
807.52	91.045
807.83	105.634
808.13	112.500
808.43	106.667
808.74	89.474
809.04	100.000
809.35	101.493
809.65	101.316
809.95	103.226
810.26	106.780
810.56	114.286
810.86	172.727
811.17	159.524
811.47	131.667
811.77	120.370
812.08	118.182
812.38	124.000
812.69	161.111
812.99	165.909
813.29	134.694
813.59	116.667
813.90	157.143
814.20	125.455
814.50	109.231
814.81	114.706
815.11	134.694
815.41	106.557
815.72	169.048
816.02	140.000
816.32	154.762
816.62	147.500
816.93	141.463
817.23	166.667
817.53	134.091
817.84	184.848
818.14	141.304
818.44	135.556
818.74	167.647
819.04	142.500
819.35	145.714
819.65	194.118
819.95	203.571
820.25	275.000
820.56	164.103
820.86	131.818
821.16	148.837
821.46	148.718
821.76	158.000
822.07	205.714
822.37	155.000
822.67	178.788
822.97	141.176
823.27	214.286
823.57	167.568
823.88	160.000
824.18	186.667
824.48	178.571
824.78	220.000
825.08	175.000
825.38	159.459
825.69	153.659
825.99	250.000
826.29	193.103
826.59	168.421
826.89	163.158
827.19	144.118
827.49	229.032
827.79	154.545
828.09	152.273
828.39	134.043
828.70	118.367
829.00	200.000
829.30	161.290
829.60	145.000
829.90	306.667
830.20	207.143
830.50	243.478
830.80	265.217
831.10	206.667
831.40	180.000
831.70	221.739
832.00	288.462
832.30	203.704
832.60	318.750
832.90	193.333
833.20	385.714
833.50	212.903
833.80	206.897
834.10	175.000
834.40	253.846
834.70	288.889
835.00	300.000
835.30	185.714
835.60	338.462
835.90	210.345
836.20	264.286
836.50	200.000
836.80	216.000
837.10	161.111
837.40	271.429
837.70	258.824
838.00	196.296
838.30	252.381
838.60	314.286
838.90	261.538
839.19	260.000
839.49	364.286
839.79	325.000
840.09	260.000
840.39	271.429
840.69	252.174
840.99	277.778
841.29	460.000
841.59	391.667
841.88	375.000
842.18	179.310
842.48	280.952
842.78	203.333
843.08	239.130
843.38	175.000
843.68	1050.000
843.97	276.923
844.27	220.690
844.57	266.667
844.87	318.750
845.17	255.556
845.47	1666.667
845.76	444.444
846.06	276.471
846.36	600.000
846.66	350.000
846.96	293.750
847.25	463.636
847.55	345.455
847.85	282.609
848.15	530.000
848.44	457.143
848.74	266.667
849.04	288.235
849.34	490.000
849.63	247.368
849.93	509.091
850.23	1100.000
850.53	471.429
850.82	2000.000
851.12	-4500.000
851.42	4200.000
851.71	260.000
852.01	-1566.667
852.31	250.000
852.61	1500.000
852.90	300.000
853.20	220.000
853.50	305.882
853.79	261.905
854.09	237.500
854.39	337.500
854.68	170.270
854.98	180.645
855.28	136.667
855.57	206.897
855.87	251.852
856.17	252.632
856.46	246.667
856.76	223.529
857.05	196.552
857.35	233.333
857.65	320.000
857.94	291.304
858.24	265.385
858.53	300.000
858.83	250.000
859.13	306.667
859.42	0.000
859.72	477.778
860.01	427.273
860.31	250.000
860.60	326.316
860.90	234.783
861.20	566.667
861.49	525.000
861.79	-5300.000
862.08	575.000
862.38	276.190
862.67	438.462
862.97	323.529
863.26	566.667
863.56	238.889
863.85	425.000
864.15	587.500
864.44	420.000
864.74	933.333
865.03	712.500
865.33	347.368
865.62	490.909
865.92	461.538
866.21	316.667
866.51	0.000
866.80	490.909
867.10	1100.000
867.39	446.154
867.69	418.182
867.98	247.368
868.27	518.182
868.57	268.421
868.86	-4300.000
869.16	356.250
869.45	2550.000
869.75	-4500.000
870.04	450.000
870.33	671.429
870.63	1250.000
870.92	2500.000
871.22	714.286
871.51	311.765
871.80	242.857
872.10	414.286
>>>>>End Processed Spectral Data<<<<<
