SpectraSuite Data File
++++++++++++++++++++++++++++++++++++
Date: Wed May 13 16:19:49 PDT 2015
User: schluterlab
Dark Spectrum Present: Yes
Reference Spectrum Present: Yes
Number of Sampled Component Spectra: 1
Spectrometers: USB2E3373
Integration Time (usec): 3000 (USB2E3373)
Spectra Averaged: 3 (USB2E3373)
Boxcar Smoothing: 0 (USB2E3373)
Correct for Electrical Dark: No (USB2E3373)
Strobe/Lamp Enabled: No (USB2E3373)
Correct for Detector Non-linearity: No (USB2E3373)
Correct for Stray Light: No (USB2E3373)
Number of Pixels in Processed Spectrum: 2048
>>>>>Begin Processed Spectral Data<<<<<
178.53	0.000
178.91	-1050.000
179.29	-1200.000
179.67	-200.000
180.04	-975.000
180.42	1800.000
180.80	800.000
181.18	-1050.000
181.56	514.286
181.94	0.000
182.31	-600.000
182.69	1266.667
183.07	-425.000
183.45	-444.444
183.83	472.727
184.20	-330.000
184.58	1800.000
184.96	5300.000
185.34	-720.000
185.72	-612.500
186.09	-2350.000
186.47	2550.000
186.85	2450.000
187.23	4800.000
187.61	-1466.667
187.98	1150.000
188.36	527.273
188.74	490.909
189.12	-680.000
189.49	480.000
189.87	-4200.000
190.25	-1225.000
190.63	328.571
191.00	407.692
191.38	716.667
191.76	-1075.000
192.14	1225.000
192.51	600.000
192.89	816.667
193.27	537.500
193.65	-1000.000
194.02	410.000
194.40	940.000
194.78	380.000
195.15	433.333
195.53	550.000
195.91	-2000.000
196.29	312.500
196.66	305.263
197.04	-280.000
197.42	0.000
197.79	520.000
198.17	-4700.000
198.55	614.286
198.92	575.000
199.30	700.000
199.68	0.000
200.05	266.667
200.43	685.714
200.81	4000.000
201.18	1500.000
201.56	-1266.667
201.94	500.000
202.31	455.556
202.69	341.667
203.07	460.000
203.44	0.000
203.82	1150.000
204.19	771.429
204.57	392.857
204.95	637.500
205.32	1500.000
205.70	500.000
206.08	421.429
206.45	2600.000
206.83	287.500
207.20	766.667
207.58	580.000
207.96	272.222
208.33	612.500
208.71	-750.000
209.08	685.714
209.46	433.333
209.84	409.091
210.21	-1100.000
210.59	1250.000
210.96	-337.500
211.34	2250.000
211.71	570.000
212.09	633.333
212.46	0.000
212.84	1833.333
213.22	1125.000
213.59	-4000.000
213.97	783.333
214.34	757.143
214.72	481.818
215.09	940.000
215.47	-2150.000
215.84	-2000.000
216.22	1633.333
216.59	314.286
216.97	1275.000
217.34	381.818
217.72	-733.333
218.09	0.000
218.47	-4000.000
218.84	588.889
219.22	671.429
219.59	1466.667
219.97	-628.571
220.34	920.000
220.72	-1466.667
221.09	400.000
221.47	1225.000
221.84	-850.000
222.22	0.000
222.59	1125.000
222.97	-1450.000
223.34	1120.000
223.72	415.385
224.09	1040.000
224.46	1850.000
224.84	-4800.000
225.21	-820.000
225.59	-4100.000
225.96	610.000
226.34	275.000
226.71	2500.000
227.08	537.500
227.46	530.000
227.83	-850.000
228.21	-2000.000
228.58	588.889
228.95	-2400.000
229.33	-2100.000
229.70	1766.667
230.08	700.000
230.45	-940.000
230.82	341.667
231.20	716.667
231.57	771.429
231.95	433.333
232.32	227.273
232.69	427.273
233.07	642.857
233.44	361.538
233.81	-1933.333
234.19	278.947
234.56	441.667
234.93	425.000
235.31	454.545
235.68	361.538
236.05	385.714
236.43	160.606
236.80	284.211
237.17	5800.000
237.55	252.381
237.92	246.429
238.29	295.238
238.67	180.645
239.04	234.483
239.41	186.111
239.79	145.652
240.16	188.095
240.53	154.545
240.91	145.098
241.28	138.000
241.65	138.000
242.02	133.333
242.40	132.258
242.77	136.667
243.14	110.753
243.51	122.472
243.89	114.118
244.26	101.111
244.63	103.226
245.00	114.894
245.38	111.881
245.75	105.607
246.12	111.009
246.49	99.270
246.87	98.400
247.24	105.385
247.61	93.571
247.98	82.353
248.36	89.865
248.73	87.261
249.10	94.904
249.47	84.746
249.84	82.353
250.22	83.957
250.59	91.124
250.96	83.838
251.33	78.673
251.70	83.663
252.08	83.333
252.45	73.991
252.82	81.304
253.19	81.277
253.56	80.000
253.94	77.178
254.31	81.250
254.68	81.154
255.05	77.491
255.42	82.114
255.79	77.941
256.16	80.144
256.54	75.265
256.91	75.445
257.28	76.619
257.65	68.647
258.02	75.155
258.39	73.186
258.76	74.916
259.14	70.833
259.51	72.644
259.88	74.224
260.25	73.716
260.62	73.121
260.99	75.155
261.36	75.676
261.73	74.499
262.10	76.453
262.47	77.183
262.85	73.259
263.22	67.521
263.59	75.783
263.96	71.154
264.33	72.585
264.70	70.263
265.07	70.332
265.44	72.475
265.81	66.910
266.18	69.849
266.55	71.707
266.92	74.201
267.29	71.065
267.66	68.119
268.03	68.864
268.40	67.991
268.77	68.496
269.14	68.694
269.51	67.946
269.88	69.930
270.25	68.397
270.62	69.663
270.99	67.957
271.36	67.167
271.73	71.028
272.10	67.826
272.47	70.538
272.84	64.502
273.21	66.667
273.58	67.904
273.95	65.409
274.32	66.116
274.69	68.737
275.06	62.598
275.43	67.660
275.80	68.737
276.17	65.580
276.54	67.775
276.91	66.996
277.28	65.234
277.65	68.665
278.02	65.217
278.39	67.383
278.76	65.455
279.13	66.981
279.50	64.246
279.87	66.932
280.23	67.665
280.60	66.538
280.97	65.619
281.34	66.549
281.71	63.091
282.08	68.330
282.45	63.273
282.82	66.252
283.19	62.210
283.56	63.684
283.92	64.298
284.29	64.374
284.66	63.884
285.03	62.749
285.40	63.556
285.77	62.795
286.14	63.212
286.51	63.667
286.87	60.855
287.24	63.844
287.61	60.995
287.98	62.500
288.35	58.637
288.72	57.944
289.08	58.059
289.45	59.802
289.82	61.301
290.19	58.556
290.56	58.193
290.93	55.891
291.29	59.202
291.66	57.522
292.03	58.140
292.40	59.031
292.77	56.213
293.13	55.522
293.50	55.539
293.87	56.444
294.24	55.704
294.60	54.585
294.97	53.924
295.34	53.738
295.71	52.983
296.08	52.137
296.44	56.121
296.81	52.444
297.18	53.930
297.55	50.923
297.91	52.375
298.28	53.280
298.65	51.958
299.02	52.833
299.38	51.660
299.75	52.156
300.12	49.553
300.48	52.000
300.85	49.075
301.22	51.975
301.59	52.399
301.95	51.637
302.32	50.064
302.69	48.507
303.05	51.394
303.42	51.358
303.79	49.717
304.15	49.650
304.52	49.363
304.89	47.619
305.25	48.956
305.62	49.717
305.99	51.948
306.35	50.112
306.72	49.664
307.09	48.391
307.45	51.577
307.82	47.656
308.19	49.779
308.55	50.162
308.92	50.591
309.29	49.630
309.65	49.629
310.02	49.366
310.38	50.215
310.75	51.214
311.12	49.130
311.48	51.202
311.85	51.153
312.22	52.549
312.58	50.936
312.95	51.320
313.31	50.000
313.68	51.351
314.05	53.254
314.41	52.563
314.78	51.561
315.14	53.029
315.51	52.214
315.87	52.871
316.24	52.830
316.61	51.949
316.97	52.544
317.34	54.501
317.70	53.155
318.07	55.149
318.43	54.403
318.80	53.046
319.16	54.143
319.53	54.878
319.89	54.476
320.26	56.500
320.62	56.647
320.99	56.162
321.35	57.071
321.72	57.700
322.08	59.822
322.45	59.602
322.81	59.012
323.18	60.501
323.54	59.555
323.91	60.283
324.27	61.855
324.64	61.417
325.00	58.521
325.37	63.057
325.73	64.004
326.10	64.607
326.46	63.799
326.83	64.280
327.19	65.073
327.56	66.725
327.92	66.929
328.29	66.193
328.65	68.600
329.01	65.975
329.38	67.900
329.74	67.128
330.11	68.615
330.47	67.952
330.84	68.107
331.20	68.124
331.56	68.349
331.93	70.463
332.29	67.879
332.66	68.584
333.02	68.830
333.38	70.370
333.75	70.677
334.11	68.594
334.48	69.654
334.84	70.404
335.20	69.273
335.57	70.354
335.93	67.857
336.29	69.505
336.66	69.071
337.02	69.593
337.38	68.796
337.75	68.627
338.11	70.457
338.47	70.718
338.84	72.594
339.20	70.000
339.56	71.442
339.93	70.818
340.29	70.652
340.65	68.360
341.02	69.197
341.38	70.018
341.74	69.825
342.11	71.179
342.47	71.189
342.83	69.264
343.20	71.342
343.56	69.587
343.92	70.789
344.28	69.133
344.65	73.431
345.01	68.350
345.37	69.811
345.73	70.051
346.10	70.247
346.46	68.898
346.82	70.016
347.19	71.011
347.55	69.622
347.91	70.712
348.27	72.145
348.63	70.067
349.00	68.528
349.36	70.525
349.72	70.088
350.08	69.692
350.45	69.650
350.81	68.968
351.17	69.611
351.53	70.188
351.89	68.069
352.26	70.008
352.62	70.569
352.98	70.665
353.34	70.337
353.70	68.494
354.07	72.258
354.43	69.841
354.79	70.475
355.15	70.072
355.51	71.143
355.87	70.612
356.24	70.928
356.60	67.201
356.96	72.405
357.32	71.382
357.68	71.890
358.04	69.834
358.40	70.784
358.77	69.718
359.13	68.982
359.49	72.078
359.85	71.667
360.21	71.212
360.57	71.984
360.93	71.538
361.29	70.673
361.66	69.737
362.02	70.373
362.38	71.787
362.74	71.354
363.10	69.800
363.46	71.607
363.82	72.033
364.18	72.540
364.54	73.031
364.90	71.459
365.26	72.426
365.62	72.169
365.98	70.855
366.35	71.490
366.71	71.077
367.07	71.959
367.43	73.948
367.79	72.377
368.15	73.707
368.51	71.657
368.87	73.590
369.23	72.056
369.59	72.556
369.95	71.985
370.31	71.510
370.67	71.014
371.03	72.285
371.39	72.522
371.75	74.118
372.11	71.266
372.47	74.707
372.83	75.937
373.19	73.121
373.55	75.314
373.91	75.920
374.27	72.577
374.63	74.545
374.99	75.353
375.35	73.761
375.71	73.612
376.07	74.691
376.42	74.209
376.78	74.751
377.14	73.609
377.50	76.225
377.86	74.801
378.22	74.336
378.58	73.434
378.94	74.167
379.30	76.399
379.66	76.840
380.02	76.536
380.38	74.499
380.74	76.471
381.09	76.345
381.45	78.672
381.81	76.044
382.17	78.025
382.53	76.730
382.89	76.975
383.25	78.049
383.61	78.810
383.97	77.924
384.32	76.419
384.68	77.200
385.04	76.460
385.40	77.709
385.76	77.457
386.12	77.073
386.48	79.358
386.83	79.025
387.19	78.912
387.55	77.180
387.91	78.235
388.27	78.296
388.62	78.549
388.98	78.317
389.34	78.849
389.70	77.560
390.06	79.214
390.42	79.248
390.77	78.117
391.13	79.324
391.49	77.792
391.85	79.122
392.20	78.423
392.56	79.230
392.92	78.811
393.28	80.592
393.64	79.137
393.99	77.153
394.35	79.591
394.71	77.980
395.07	76.947
395.42	81.026
395.78	78.817
396.14	78.833
396.50	80.013
396.85	79.402
397.21	79.346
397.57	80.285
397.92	79.207
398.28	77.018
398.64	79.570
399.00	77.728
399.35	77.045
399.71	77.257
400.07	78.829
400.42	78.221
400.78	78.589
401.14	78.659
401.49	79.284
401.85	78.947
402.21	77.365
402.57	79.149
402.92	78.058
403.28	79.076
403.63	79.394
403.99	78.153
404.35	78.424
404.70	78.058
405.06	78.509
405.42	78.977
405.77	77.143
406.13	76.637
406.49	78.947
406.84	76.905
407.20	78.901
407.55	79.898
407.91	79.200
408.27	79.068
408.62	77.965
408.98	76.716
409.34	77.798
409.69	78.323
410.05	78.253
410.40	76.881
410.76	77.300
411.11	78.227
411.47	77.061
411.83	78.009
412.18	77.365
412.54	79.141
412.89	77.892
413.25	76.978
413.60	77.023
413.96	75.471
414.31	77.704
414.67	77.440
415.03	78.079
415.38	77.964
415.74	78.392
416.09	78.250
416.45	78.380
416.80	76.999
417.16	78.820
417.51	77.837
417.87	75.658
418.22	78.991
418.58	77.017
418.93	78.133
419.29	77.021
419.64	77.897
420.00	76.646
420.35	76.522
420.71	78.063
421.06	76.611
421.42	77.719
421.77	75.953
422.12	77.035
422.48	76.255
422.83	77.577
423.19	75.746
423.54	77.945
423.90	76.870
424.25	77.722
424.61	75.536
424.96	79.125
425.31	77.409
425.67	75.562
426.02	75.829
426.38	78.938
426.73	76.946
427.09	76.960
427.44	76.653
427.79	77.286
428.15	77.321
428.50	76.477
428.85	76.996
429.21	75.980
429.56	77.190
429.92	75.541
430.27	75.819
430.62	76.498
430.98	76.544
431.33	74.948
431.68	76.911
432.04	75.453
432.39	76.071
432.74	76.900
433.10	77.589
433.45	78.192
433.80	77.051
434.16	75.160
434.51	74.579
434.86	76.340
435.22	77.654
435.57	77.690
435.92	76.653
436.28	77.817
436.63	76.711
436.98	77.390
437.34	77.460
437.69	78.296
438.04	76.953
438.39	76.478
438.75	76.177
439.10	76.425
439.45	77.745
439.81	78.006
440.16	75.720
440.51	77.153
440.86	77.997
441.22	77.697
441.57	77.548
441.92	77.329
442.27	76.642
442.63	76.461
442.98	77.296
443.33	77.609
443.68	77.078
444.03	77.062
444.39	75.560
444.74	77.327
445.09	76.388
445.44	75.724
445.79	77.190
446.15	76.125
446.50	75.390
446.85	77.030
447.20	76.543
447.55	77.164
447.91	76.227
448.26	76.850
448.61	76.371
448.96	77.353
449.31	77.390
449.66	75.971
450.02	76.936
450.37	75.227
450.72	76.819
451.07	76.600
451.42	74.833
451.77	76.747
452.12	75.000
452.47	76.244
452.83	76.224
453.18	75.061
453.53	78.169
453.88	76.728
454.23	75.971
454.58	77.044
454.93	78.385
455.28	75.686
455.63	77.063
455.98	77.857
456.34	77.324
456.69	77.332
457.04	77.647
457.39	74.985
457.74	75.682
458.09	76.596
458.44	76.511
458.79	75.380
459.14	77.483
459.49	74.839
459.84	75.235
460.19	74.897
460.54	74.306
460.89	75.864
461.24	77.171
461.59	76.758
461.94	75.339
462.29	76.261
462.64	75.048
462.99	75.537
463.34	76.333
463.69	76.110
464.04	75.362
464.39	74.087
464.74	75.758
465.09	74.849
465.44	75.125
465.79	74.664
466.14	74.494
466.49	73.526
466.84	74.781
467.19	75.136
467.54	74.938
467.89	74.730
468.24	76.033
468.59	74.176
468.94	75.015
469.29	76.157
469.64	75.502
469.99	76.793
470.34	75.429
470.68	76.437
471.03	74.014
471.38	76.164
471.73	72.885
472.08	76.513
472.43	74.560
472.78	74.918
473.13	74.583
473.48	75.031
473.83	73.963
474.17	74.673
474.52	73.759
474.87	76.007
475.22	73.709
475.57	72.810
475.92	74.296
476.27	74.352
476.61	73.635
476.96	73.557
477.31	73.574
477.66	73.687
478.01	73.706
478.36	74.088
478.70	73.468
479.05	73.802
479.40	73.132
479.75	74.276
480.10	74.056
480.45	71.537
480.79	72.432
481.14	74.168
481.49	72.140
481.84	72.062
482.19	73.739
482.53	72.202
482.88	74.128
483.23	73.598
483.58	73.294
483.92	73.383
484.27	71.590
484.62	71.638
484.97	72.054
485.31	73.459
485.66	72.026
486.01	68.644
486.36	65.566
486.70	65.081
487.05	66.464
487.40	69.867
487.75	70.728
488.09	71.611
488.44	71.781
488.79	74.213
489.13	72.956
489.48	72.553
489.83	71.946
490.17	73.126
490.52	71.701
490.87	71.370
491.22	70.623
491.56	69.749
491.91	71.196
492.26	70.969
492.60	70.461
492.95	70.767
493.30	70.888
493.64	72.002
493.99	70.938
494.34	71.323
494.68	71.841
495.03	70.959
495.37	69.893
495.72	72.222
496.07	71.137
496.41	68.673
496.76	69.745
497.11	69.653
497.45	70.144
497.80	70.393
498.14	70.966
498.49	71.561
498.84	71.045
499.18	70.190
499.53	69.801
499.87	70.224
500.22	70.796
500.56	71.650
500.91	69.087
501.26	70.507
501.60	70.717
501.95	69.340
502.29	72.024
502.64	70.065
502.98	70.266
503.33	69.607
503.67	70.255
504.02	69.411
504.36	68.788
504.71	69.663
505.06	69.060
505.40	70.637
505.75	68.852
506.09	69.534
506.44	69.709
506.78	70.093
507.13	71.277
507.47	70.152
507.82	69.656
508.16	70.871
508.51	71.131
508.85	69.215
509.19	70.612
509.54	69.490
509.88	69.037
510.23	70.746
510.57	69.659
510.92	70.482
511.26	68.294
511.61	69.450
511.95	68.580
512.30	69.883
512.64	69.318
512.98	69.614
513.33	69.111
513.67	68.090
514.02	69.048
514.36	69.525
514.70	69.231
515.05	70.273
515.39	69.209
515.74	68.863
516.08	69.704
516.42	69.756
516.77	69.231
517.11	68.701
517.46	69.582
517.80	70.441
518.14	67.632
518.49	71.295
518.83	69.091
519.17	69.053
519.52	69.892
519.86	68.853
520.20	70.289
520.55	70.975
520.89	71.776
521.23	70.627
521.58	69.808
521.92	69.565
522.26	67.602
522.61	70.467
522.95	69.736
523.29	69.081
523.64	70.244
523.98	70.055
524.32	68.577
524.66	69.272
525.01	69.485
525.35	68.278
525.69	69.458
526.04	70.280
526.38	69.311
526.72	68.098
527.06	70.496
527.41	67.327
527.75	68.424
528.09	70.649
528.43	69.216
528.78	69.637
529.12	67.152
529.46	69.688
529.80	69.059
530.15	68.660
530.49	67.077
530.83	67.658
531.17	69.909
531.51	70.233
531.86	67.806
532.20	69.883
532.54	68.866
532.88	68.806
533.22	67.395
533.57	67.654
533.91	67.188
534.25	67.254
534.59	67.419
534.93	66.389
535.27	67.592
535.62	68.498
535.96	69.052
536.30	67.006
536.64	67.418
536.98	67.883
537.32	68.400
537.66	67.800
538.01	68.269
538.35	68.067
538.69	68.028
539.03	67.641
539.37	66.518
539.71	65.522
540.05	66.732
540.39	67.243
540.73	66.041
541.07	68.332
541.42	67.058
541.76	67.161
542.10	66.235
542.44	67.020
542.78	67.589
543.12	65.387
543.46	66.492
543.80	65.843
544.14	65.533
544.48	65.587
544.82	64.849
545.16	66.753
545.50	66.067
545.84	67.137
546.18	66.801
546.52	67.928
546.86	68.110
547.20	65.947
547.54	65.731
547.88	66.837
548.22	65.878
548.56	64.717
548.90	64.661
549.24	65.589
549.58	65.553
549.92	66.690
550.26	67.756
550.60	64.869
550.94	66.690
551.28	66.130
551.62	66.858
551.96	65.684
552.30	66.212
552.64	66.396
552.98	66.712
553.32	66.015
553.66	66.190
554.00	65.752
554.34	65.493
554.68	65.594
555.02	65.585
555.36	64.718
555.69	64.208
556.03	65.680
556.37	65.484
556.71	63.984
557.05	66.176
557.39	63.891
557.73	64.150
558.07	67.295
558.41	66.932
558.75	65.834
559.08	66.667
559.42	67.196
559.76	64.485
560.10	64.097
560.44	65.269
560.78	63.140
561.12	63.918
561.45	64.472
561.79	64.865
562.13	64.655
562.47	64.549
562.81	64.156
563.15	64.615
563.48	64.523
563.82	63.796
564.16	63.963
564.50	64.258
564.84	63.274
565.17	64.414
565.51	64.984
565.85	63.198
566.19	64.684
566.52	63.901
566.86	63.472
567.20	63.502
567.54	63.527
567.88	61.651
568.21	62.804
568.55	61.628
568.89	61.430
569.23	60.383
569.56	59.798
569.90	59.774
570.24	59.526
570.57	58.484
570.91	57.563
571.25	58.030
571.59	57.791
571.92	57.056
572.26	58.550
572.60	58.559
572.93	58.381
573.27	58.770
573.61	58.682
573.95	57.700
574.28	57.764
574.62	57.434
574.96	56.655
575.29	56.620
575.63	57.342
575.97	56.912
576.30	58.285
576.64	57.468
576.98	57.705
577.31	57.971
577.65	57.742
577.98	57.097
578.32	56.632
578.66	56.143
578.99	57.019
579.33	57.129
579.67	56.702
580.00	57.660
580.34	57.807
580.67	57.197
581.01	56.982
581.35	57.169
581.68	56.351
582.02	56.096
582.35	55.787
582.69	55.884
583.02	56.434
583.36	57.436
583.70	58.192
584.03	58.412
584.37	58.498
584.70	59.117
585.04	56.849
585.37	57.526
585.71	56.931
586.04	55.835
586.38	57.367
586.72	57.608
587.05	57.158
587.39	57.071
587.72	57.202
588.06	57.257
588.39	57.531
588.73	56.820
589.06	58.024
589.40	58.855
589.73	58.571
590.07	58.292
590.40	57.727
590.73	59.094
591.07	59.422
591.40	59.806
591.74	59.221
592.07	57.679
592.41	58.123
592.74	56.479
593.08	57.595
593.41	56.564
593.75	56.090
594.08	56.286
594.41	56.875
594.75	57.523
595.08	57.695
595.42	58.214
595.75	57.657
596.09	58.505
596.42	58.507
596.75	58.421
597.09	58.745
597.42	57.378
597.75	58.473
598.09	58.739
598.42	57.947
598.76	57.154
599.09	56.480
599.42	56.004
599.76	56.223
600.09	56.138
600.42	55.734
600.76	55.179
601.09	55.774
601.42	56.202
601.76	56.622
602.09	57.747
602.42	57.643
602.76	58.001
603.09	56.806
603.42	56.892
603.76	56.517
604.09	56.611
604.42	57.848
604.76	57.191
605.09	56.968
605.42	56.691
605.75	56.540
606.09	57.178
606.42	58.153
606.75	57.196
607.09	56.760
607.42	57.125
607.75	55.570
608.08	56.274
608.42	57.329
608.75	55.996
609.08	56.337
609.41	57.020
609.75	56.884
610.08	57.964
610.41	56.611
610.74	57.001
611.07	58.696
611.41	57.802
611.74	57.818
612.07	57.971
612.40	58.499
612.73	57.421
613.07	57.651
613.40	57.820
613.73	55.742
614.06	58.065
614.39	56.896
614.72	56.421
615.06	57.248
615.39	56.953
615.72	55.930
616.05	57.629
616.38	58.255
616.71	58.432
617.05	57.951
617.38	57.486
617.71	58.498
618.04	59.135
618.37	57.363
618.70	59.676
619.03	59.145
619.36	59.335
619.69	58.592
620.03	59.272
620.36	59.225
620.69	60.137
621.02	60.177
621.35	59.358
621.68	60.047
622.01	60.681
622.34	59.682
622.67	58.859
623.00	58.914
623.33	57.541
623.66	58.899
623.99	59.941
624.32	58.845
624.65	58.686
624.99	58.286
625.32	59.522
625.65	59.354
625.98	59.416
626.31	58.865
626.64	59.184
626.97	61.180
627.30	60.848
627.63	60.049
627.96	59.798
628.29	62.117
628.62	60.476
628.95	63.491
629.28	61.953
629.61	59.303
629.94	62.000
630.26	61.010
630.59	60.439
630.92	60.536
631.25	61.007
631.58	59.960
631.91	60.751
632.24	60.232
632.57	63.169
632.90	62.171
633.23	62.528
633.56	61.582
633.89	62.288
634.22	61.862
634.55	64.024
634.88	61.796
635.20	62.127
635.53	62.289
635.86	63.738
636.19	61.176
636.52	61.130
636.85	61.512
637.18	60.484
637.51	62.057
637.83	61.159
638.16	63.427
638.49	62.343
638.82	63.211
639.15	64.375
639.48	63.092
639.81	64.879
640.13	63.281
640.46	64.027
640.79	62.087
641.12	60.385
641.45	62.570
641.77	65.096
642.10	65.351
642.43	63.964
642.76	65.789
643.09	64.110
643.41	65.554
643.74	66.512
644.07	64.482
644.40	63.344
644.73	65.512
645.05	65.927
645.38	64.297
645.71	63.768
646.04	68.272
646.36	68.781
646.69	65.886
647.02	64.626
647.35	64.089
647.67	68.850
648.00	62.927
648.33	64.521
648.66	61.667
648.98	63.568
649.31	62.182
649.64	62.481
649.96	61.848
650.29	63.349
650.62	64.401
650.94	62.561
651.27	64.696
651.60	67.720
651.92	62.300
652.25	64.984
652.58	64.486
652.90	64.455
653.23	59.630
653.56	61.102
653.88	64.025
654.21	63.823
654.54	63.696
654.86	62.928
655.19	59.054
655.52	47.759
655.84	43.095
656.17	55.591
656.49	74.731
656.82	76.405
657.15	58.073
657.47	43.797
657.80	34.566
658.13	36.700
658.45	55.680
658.78	56.095
659.10	59.012
659.43	62.185
659.75	64.091
660.08	68.101
660.41	73.091
660.73	70.013
661.06	69.586
661.38	70.000
661.71	67.500
662.03	67.850
662.36	62.624
662.68	66.265
663.01	64.444
663.33	67.091
663.66	65.756
663.98	66.307
664.31	65.546
664.63	62.348
664.96	63.380
665.28	66.803
665.61	63.353
665.93	63.380
666.26	66.126
666.58	62.762
666.91	68.076
667.23	68.315
667.56	64.147
667.88	62.821
668.21	64.179
668.53	66.161
668.86	67.316
669.18	68.657
669.50	66.522
669.83	67.974
670.15	64.444
670.48	64.270
670.80	64.224
671.13	67.091
671.45	64.894
671.77	66.599
672.10	59.889
672.42	60.071
672.75	60.862
673.07	60.387
673.39	62.929
673.72	64.648
674.04	61.765
674.37	62.136
674.69	64.008
675.01	65.272
675.34	64.887
675.66	65.263
675.98	63.951
676.31	65.126
676.63	64.119
676.95	62.893
677.28	64.953
677.60	63.956
677.92	62.869
678.25	63.039
678.57	64.143
678.89	62.124
679.22	61.690
679.54	62.977
679.86	62.018
680.18	59.034
680.51	62.943
680.83	60.676
681.15	63.019
681.48	60.681
681.80	63.250
682.12	60.536
682.44	61.702
682.77	61.711
683.09	68.026
683.41	64.080
683.73	66.446
684.06	64.463
684.38	59.883
684.70	62.791
685.02	63.227
685.34	59.341
685.67	60.315
685.99	60.653
686.31	59.556
686.63	57.244
686.96	59.821
687.28	60.650
687.60	56.884
687.92	62.706
688.24	60.076
688.56	61.647
688.89	61.618
689.21	66.376
689.53	60.543
689.85	67.406
690.17	60.248
690.49	62.420
690.82	68.224
691.14	62.054
691.46	60.759
691.78	61.647
692.10	61.364
692.42	63.273
692.74	62.033
693.06	61.064
693.39	60.780
693.71	60.699
694.03	63.158
694.35	64.069
694.67	63.844
694.99	63.415
695.31	65.196
695.63	61.962
695.95	64.548
696.27	65.482
696.59	61.140
696.91	61.917
697.23	60.094
697.56	56.503
697.88	57.669
698.20	58.750
698.52	59.355
698.84	62.584
699.16	61.060
699.48	59.145
699.80	61.111
700.12	69.091
700.44	65.782
700.76	66.298
701.08	65.805
701.40	63.966
701.72	67.930
702.04	68.466
702.36	64.306
702.68	64.873
703.00	63.435
703.32	58.777
703.64	61.126
703.96	65.738
704.28	65.116
704.60	66.569
704.91	65.579
705.23	62.170
705.55	72.425
705.87	72.757
706.19	68.551
706.51	67.601
706.83	66.364
707.15	61.064
707.47	57.576
707.79	63.636
708.11	58.219
708.43	61.905
708.74	62.755
709.06	61.818
709.38	59.843
709.70	65.407
710.02	62.018
710.34	66.061
710.66	62.985
710.98	66.761
711.29	66.279
711.61	65.782
711.93	63.462
712.25	68.489
712.57	73.529
712.89	62.630
713.20	61.094
713.52	67.434
713.84	64.241
714.16	64.024
714.48	61.494
714.80	67.173
715.11	62.248
715.43	60.237
715.75	61.449
716.07	64.537
716.39	63.009
716.70	68.106
717.02	65.468
717.34	63.958
717.66	64.925
717.97	68.127
718.29	67.407
718.61	64.964
718.93	66.544
719.24	64.360
719.56	62.373
719.88	60.678
720.20	61.824
720.51	66.899
720.83	64.684
721.15	63.060
721.46	63.475
721.78	68.817
722.10	66.415
722.42	66.165
722.73	67.041
723.05	70.492
723.37	65.992
723.68	69.112
724.00	69.512
724.32	69.758
724.63	68.293
724.95	69.456
725.27	68.016
725.58	67.969
725.90	65.693
726.22	68.679
726.53	62.847
726.85	62.799
727.16	65.836
727.48	61.348
727.80	65.530
728.11	64.130
728.43	69.615
728.74	61.290
729.06	61.679
729.38	62.868
729.69	65.480
730.01	55.631
730.32	63.542
730.64	61.538
730.96	59.406
731.27	62.914
731.59	60.245
731.90	57.726
732.22	62.112
732.53	58.824
732.85	61.859
733.16	60.129
733.48	60.797
733.80	61.039
734.11	63.057
734.43	60.355
734.74	58.000
735.06	58.166
735.37	62.717
735.69	61.783
736.00	59.804
736.32	59.190
736.63	59.744
736.95	62.300
737.26	58.503
737.58	57.742
737.89	66.555
738.21	65.870
738.52	61.429
738.83	60.000
739.15	60.000
739.46	63.504
739.78	60.417
740.09	58.769
740.41	62.903
740.72	61.672
741.04	60.000
741.35	63.750
741.66	67.111
741.98	63.679
742.29	69.378
742.61	68.534
742.92	67.873
743.23	64.957
743.55	65.600
743.86	64.474
744.18	67.699
744.49	68.421
744.80	67.606
745.12	67.727
745.43	67.401
745.74	68.919
746.06	63.761
746.37	71.300
746.68	65.611
747.00	73.611
747.31	67.143
747.62	65.929
747.94	60.793
748.25	62.553
748.56	69.163
748.88	66.337
749.19	73.000
749.50	67.442
749.82	60.163
750.13	62.857
750.44	64.234
750.75	60.000
751.07	61.093
751.38	62.369
751.69	67.509
752.01	64.286
752.32	62.816
752.63	63.475
752.94	68.852
753.26	65.200
753.57	58.537
753.88	67.188
754.19	62.143
754.51	62.153
754.82	54.513
755.13	62.642
755.44	63.158
755.75	61.314
756.07	56.383
756.38	62.044
756.69	61.409
757.00	56.886
757.31	57.567
757.63	58.480
757.94	55.496
758.25	51.961
758.56	52.593
758.87	54.570
759.18	60.000
759.50	53.918
759.81	56.386
760.12	60.000
760.43	57.307
760.74	57.337
761.05	61.017
761.36	54.278
761.67	57.670
761.99	58.075
762.30	65.278
762.61	63.359
762.92	62.109
763.23	65.126
763.54	62.400
763.85	59.375
764.16	66.923
764.47	60.837
764.78	61.484
765.10	51.899
765.41	57.522
765.72	58.084
766.03	55.486
766.34	59.667
766.65	65.957
766.96	62.393
767.27	62.437
767.58	64.583
767.89	66.316
768.20	68.391
768.51	67.005
768.82	65.596
769.13	60.569
769.44	64.777
769.75	63.090
770.06	59.174
770.37	69.683
770.68	67.593
770.99	65.778
771.30	61.066
771.61	68.161
771.92	65.984
772.23	61.345
772.54	66.154
772.85	59.162
773.16	75.000
773.47	67.391
773.78	69.543
774.09	67.262
774.39	69.591
774.70	70.988
775.01	76.087
775.32	73.203
775.63	73.026
775.94	78.417
776.25	88.976
776.56	82.090
776.87	89.344
777.18	75.781
777.48	75.573
777.79	80.303
778.10	71.852
778.41	80.357
778.72	69.343
779.03	65.772
779.34	66.443
779.65	75.676
779.95	77.301
780.26	79.739
780.57	77.931
780.88	83.594
781.19	73.684
781.50	79.054
781.80	67.925
782.11	66.102
782.42	69.620
782.73	63.804
783.04	72.297
783.34	77.465
783.65	79.452
783.96	79.851
784.27	69.930
784.57	68.345
784.88	79.630
785.19	76.190
785.50	78.302
785.81	76.866
786.11	82.787
786.42	82.171
786.73	76.991
787.04	83.019
787.34	73.214
787.65	87.000
787.96	89.189
788.26	80.992
788.57	88.136
788.88	80.165
789.19	70.833
789.49	82.576
789.80	77.099
790.11	100.952
790.41	97.030
790.72	96.386
791.03	92.391
791.33	87.209
791.64	84.536
791.95	92.079
792.25	87.778
792.56	101.299
792.87	103.846
793.17	107.595
793.48	97.701
793.79	91.954
794.09	77.273
794.40	67.227
794.70	80.882
795.01	74.074
795.32	76.259
795.62	79.528
795.93	83.621
796.23	81.416
796.54	95.294
796.85	94.595
797.15	114.085
797.46	103.030
797.76	93.976
798.07	102.532
798.37	113.846
798.68	100.000
798.99	97.183
799.29	88.312
799.60	82.955
799.90	109.589
800.21	107.463
800.51	108.621
800.82	131.579
801.12	113.115
801.43	95.455
801.73	106.757
802.04	117.460
802.34	92.593
802.65	103.125
802.95	115.254
803.26	117.188
803.56	84.286
803.87	93.846
804.17	126.471
804.48	146.296
804.78	100.000
805.09	117.647
805.39	109.615
805.70	114.286
806.00	116.393
806.30	104.545
806.61	90.244
806.91	89.873
807.22	107.895
807.52	122.388
807.83	108.451
808.13	101.563
808.43	125.000
808.74	96.053
809.04	104.348
809.35	110.448
809.65	97.368
809.95	124.194
810.26	93.220
810.56	115.873
810.86	147.727
811.17	147.619
811.47	121.667
811.77	101.852
812.08	123.636
812.38	128.000
812.69	169.444
812.99	154.545
813.29	134.694
813.59	100.000
813.90	136.735
814.20	107.273
814.50	103.077
814.81	119.118
815.11	144.898
815.41	121.311
815.72	159.524
816.02	129.091
816.32	154.762
816.62	117.500
816.93	134.146
817.23	147.619
817.53	147.727
817.84	196.970
818.14	134.783
818.44	135.556
818.74	173.529
819.04	142.500
819.35	162.857
819.65	194.118
819.95	207.143
820.25	230.000
820.56	166.667
820.86	143.182
821.16	146.512
821.46	146.154
821.76	146.000
822.07	182.857
822.37	125.000
822.67	175.758
822.97	135.294
823.27	207.143
823.57	151.351
823.88	190.000
824.18	170.000
824.48	150.000
824.78	196.000
825.08	170.833
825.38	137.838
825.69	139.024
825.99	250.000
826.29	162.069
826.59	176.316
826.89	150.000
827.19	173.529
827.49	203.226
827.79	150.000
828.09	125.000
828.39	121.277
828.70	136.735
829.00	159.259
829.30	167.742
829.60	132.500
829.90	280.000
830.20	192.857
830.50	252.174
830.80	230.435
831.10	213.333
831.40	186.667
831.70	169.565
832.00	234.615
832.30	181.481
832.60	337.500
832.90	193.333
833.20	407.143
833.50	219.355
833.80	182.759
834.10	159.375
834.40	246.154
834.70	333.333
835.00	333.333
835.30	154.286
835.60	338.462
835.90	210.345
836.20	371.429
836.50	182.759
836.80	188.000
837.10	166.667
837.40	242.857
837.70	288.235
838.00	207.407
838.30	285.714
838.60	276.190
838.90	207.692
839.19	270.000
839.49	328.571
839.79	310.000
840.09	250.000
840.39	204.762
840.69	243.478
840.99	272.222
841.29	540.000
841.59	300.000
841.88	331.250
842.18	158.621
842.48	285.714
842.78	186.667
843.08	208.696
843.38	162.500
843.68	950.000
843.97	226.923
844.27	203.448
844.57	285.714
844.87	343.750
845.17	162.963
845.47	1233.333
845.76	511.111
846.06	288.235
846.36	387.500
846.66	350.000
846.96	243.750
847.25	363.636
847.55	436.364
847.85	247.826
848.15	400.000
848.44	392.857
848.74	216.667
849.04	288.235
849.34	530.000
849.63	221.053
849.93	418.182
850.23	920.000
850.53	342.857
850.82	1850.000
851.12	-3700.000
851.42	4600.000
851.71	250.000
852.01	-1266.667
852.31	220.833
852.61	1366.667
852.90	233.333
853.20	220.000
853.50	300.000
853.79	266.667
854.09	233.333
854.39	356.250
854.68	183.784
854.98	200.000
855.28	180.000
855.57	206.897
855.87	203.704
856.17	247.368
856.46	306.667
856.76	282.353
857.05	193.103
857.35	212.500
857.65	300.000
857.94	230.435
858.24	219.231
858.53	285.000
858.83	231.818
859.13	286.667
859.42	0.000
859.72	533.333
860.01	390.909
860.31	231.818
860.60	231.579
860.90	234.783
861.20	455.556
861.49	483.333
861.79	-4300.000
862.08	612.500
862.38	223.810
862.67	315.385
862.97	300.000
863.26	444.444
863.56	272.222
863.85	375.000
864.15	462.500
864.44	360.000
864.74	733.333
865.03	487.500
865.33	284.211
865.62	372.727
865.92	376.923
866.21	375.000
866.51	0.000
866.80	400.000
867.10	1100.000
867.39	438.462
867.69	427.273
867.98	231.579
868.27	354.545
868.57	294.737
868.86	-4100.000
869.16	331.250
869.45	2050.000
869.75	-2900.000
870.04	433.333
870.33	671.429
870.63	1050.000
870.92	2450.000
871.22	742.857
871.51	294.118
871.80	214.286
872.10	250.000
>>>>>End Processed Spectral Data<<<<<
