SpectraSuite Data File
++++++++++++++++++++++++++++++++++++
Date: Wed May 13 16:17:22 PDT 2015
User: schluterlab
Dark Spectrum Present: Yes
Reference Spectrum Present: Yes
Number of Sampled Component Spectra: 1
Spectrometers: USB2E3373
Integration Time (usec): 3000 (USB2E3373)
Spectra Averaged: 3 (USB2E3373)
Boxcar Smoothing: 0 (USB2E3373)
Correct for Electrical Dark: No (USB2E3373)
Strobe/Lamp Enabled: No (USB2E3373)
Correct for Detector Non-linearity: No (USB2E3373)
Correct for Stray Light: No (USB2E3373)
Number of Pixels in Processed Spectrum: 2048
>>>>>Begin Processed Spectral Data<<<<<
178.53	0.000
178.91	-975.000
179.29	-1225.000
179.67	-222.222
180.04	-950.000
180.42	1950.000
180.80	860.000
181.18	-975.000
181.56	685.714
181.94	0.000
182.31	-471.429
182.69	1333.333
183.07	-450.000
183.45	-400.000
183.83	463.636
184.20	-280.000
184.58	1750.000
184.96	3900.000
185.34	-500.000
185.72	-487.500
186.09	-2200.000
186.47	2250.000
186.85	2000.000
187.23	4000.000
187.61	-1466.667
187.98	1175.000
188.36	472.727
188.74	381.818
189.12	-700.000
189.49	490.000
189.87	-2400.000
190.25	-900.000
190.63	307.143
191.00	423.077
191.38	616.667
191.76	-825.000
192.14	1075.000
192.51	625.000
192.89	833.333
193.27	537.500
193.65	-950.000
194.02	500.000
194.40	660.000
194.78	420.000
195.15	441.667
195.53	470.000
195.91	-1800.000
196.29	268.750
196.66	242.105
197.04	-240.000
197.42	0.000
197.79	560.000
198.17	-4800.000
198.55	685.714
198.92	675.000
199.30	660.000
199.68	0.000
200.05	261.111
200.43	671.429
200.81	2100.000
201.18	1266.667
201.56	-1200.000
201.94	477.778
202.31	444.444
202.69	341.667
203.07	460.000
203.44	0.000
203.82	900.000
204.19	557.143
204.57	378.571
204.95	562.500
205.32	1133.333
205.70	418.182
206.08	278.571
206.45	1650.000
206.83	281.250
207.20	766.667
207.58	740.000
207.96	222.222
208.33	587.500
208.71	-683.333
209.08	657.143
209.46	455.556
209.84	436.364
210.21	-1133.333
210.59	1275.000
210.96	-187.500
211.34	1800.000
211.71	500.000
212.09	616.667
212.46	0.000
212.84	1366.667
213.22	1075.000
213.59	-4100.000
213.97	616.667
214.34	728.571
214.72	463.636
215.09	900.000
215.47	-1550.000
215.84	-1950.000
216.22	1100.000
216.59	307.143
216.97	1300.000
217.34	345.455
217.72	-450.000
218.09	0.000
218.47	-3800.000
218.84	577.778
219.22	414.286
219.59	933.333
219.97	-600.000
220.34	800.000
220.72	-1266.667
221.09	335.714
221.47	1475.000
221.84	-850.000
222.22	0.000
222.59	1225.000
222.97	-2400.000
223.34	860.000
223.72	315.385
224.09	660.000
224.46	1400.000
224.84	-4100.000
225.21	-900.000
225.59	-3000.000
225.96	520.000
226.34	255.000
226.71	2050.000
227.08	612.500
227.46	470.000
227.83	-1125.000
228.21	-1650.000
228.58	388.889
228.95	-1450.000
229.33	-1950.000
229.70	1466.667
230.08	657.143
230.45	-540.000
230.82	333.333
231.20	750.000
231.57	671.429
231.95	375.000
232.32	200.000
232.69	381.818
233.07	471.429
233.44	200.000
233.81	-1133.333
234.19	236.842
234.56	383.333
234.93	283.333
235.31	409.091
235.68	200.000
236.05	271.429
236.43	130.303
236.80	215.789
237.17	3100.000
237.55	185.714
237.92	167.857
238.29	152.381
238.67	106.452
239.04	158.621
239.41	108.333
239.79	63.043
240.16	90.476
240.53	79.545
240.91	76.471
241.28	100.000
241.65	68.000
242.02	60.870
242.40	51.613
242.77	50.000
243.14	49.462
243.51	53.933
243.89	55.294
244.26	48.889
244.63	39.785
245.00	31.915
245.38	36.634
245.75	40.187
246.12	26.606
246.49	37.956
246.87	39.200
247.24	28.462
247.61	35.714
247.98	26.144
248.36	19.595
248.73	25.478
249.10	26.752
249.47	33.333
249.84	28.877
250.22	19.786
250.59	23.077
250.96	23.737
251.33	25.118
251.70	23.267
252.08	23.333
252.45	20.179
252.82	18.696
253.19	22.128
253.56	19.608
253.94	24.896
254.31	21.094
254.68	20.385
255.05	16.605
255.42	17.886
255.79	15.441
256.16	19.134
256.54	12.721
256.91	16.014
257.28	12.230
257.65	13.201
258.02	12.422
258.39	14.196
258.76	13.378
259.14	15.476
259.51	14.286
259.88	13.354
260.25	13.293
260.62	17.919
260.99	13.043
261.36	12.613
261.73	13.754
262.10	11.337
262.47	13.521
262.85	12.535
263.22	10.826
263.59	16.809
263.96	9.890
264.33	14.621
264.70	9.474
265.07	14.322
265.44	12.879
265.81	12.652
266.18	11.809
266.55	11.220
266.92	10.074
267.29	12.731
267.66	13.532
268.03	12.045
268.40	11.916
268.77	10.501
269.14	12.162
269.51	13.318
269.88	12.121
270.25	11.287
270.62	10.112
270.99	12.688
271.36	11.373
271.73	8.178
272.10	8.478
272.47	10.753
272.84	9.740
273.21	10.901
273.58	10.480
273.95	9.015
274.32	11.364
274.69	9.636
275.06	7.874
275.43	10.851
275.80	8.216
276.17	7.536
276.54	9.148
276.91	11.660
277.28	8.984
277.65	10.251
278.02	9.938
278.39	11.719
278.76	9.091
279.13	12.453
279.50	9.870
279.87	9.163
280.23	7.585
280.60	8.511
280.97	8.503
281.34	10.088
281.71	10.727
282.08	9.213
282.45	9.091
282.82	10.124
283.19	9.447
283.56	10.175
283.92	10.491
284.29	7.055
284.66	8.167
285.03	8.680
285.40	8.099
285.77	8.418
286.14	7.427
286.51	9.333
286.87	8.205
287.24	11.726
287.61	8.668
287.98	7.630
288.35	7.448
288.72	8.723
289.08	8.451
289.45	8.896
289.82	8.943
290.19	6.907
290.56	6.126
290.93	6.647
291.29	8.129
291.66	9.292
292.03	10.320
292.40	9.545
292.77	7.840
293.13	8.507
293.50	8.163
293.87	7.852
294.24	6.519
294.60	6.114
294.97	7.558
295.34	10.014
295.71	8.665
296.08	7.407
296.44	8.253
296.81	5.812
297.18	8.130
297.55	5.409
297.91	7.124
298.28	8.568
298.65	8.877
299.02	8.300
299.38	6.109
299.75	5.391
300.12	7.024
300.48	6.625
300.85	6.905
301.22	6.497
301.59	6.818
301.95	6.675
302.32	6.162
302.69	7.168
303.05	6.303
303.42	6.049
303.79	7.814
304.15	6.760
304.52	5.794
304.89	6.504
305.25	6.265
305.62	8.154
305.99	7.910
306.35	8.166
306.72	6.839
307.09	7.103
307.45	6.982
307.82	6.473
308.19	7.726
308.55	8.198
308.92	6.982
309.29	7.392
309.65	6.151
310.02	7.505
310.38	8.387
310.75	6.653
311.12	7.984
311.48	8.464
311.85	6.918
312.22	8.117
312.58	7.484
312.95	7.075
313.31	6.796
313.68	7.173
314.05	9.862
314.41	7.839
314.78	7.553
315.14	7.646
315.51	8.960
315.87	7.921
316.24	8.838
316.61	8.382
316.97	7.926
317.34	7.926
317.70	10.134
318.07	8.373
318.43	8.708
318.80	10.872
319.16	9.605
319.53	9.756
319.89	11.238
320.26	10.700
320.62	10.516
320.99	9.293
321.35	9.596
321.72	9.343
322.08	9.477
322.45	10.945
322.81	12.306
323.18	12.331
323.54	11.410
323.91	11.981
324.27	11.090
324.64	11.184
325.00	11.271
325.37	12.375
325.73	13.285
326.10	11.915
326.46	11.290
326.83	12.770
327.19	12.980
327.56	12.195
327.92	12.686
328.29	13.221
328.65	13.168
329.01	13.899
329.38	13.599
329.74	12.742
330.11	12.630
330.47	13.774
330.84	13.695
331.20	12.113
331.56	13.761
331.93	12.778
332.29	13.576
332.66	14.336
333.02	13.894
333.38	13.460
333.75	14.617
334.11	14.413
334.48	14.463
334.84	13.971
335.20	14.636
335.57	13.418
335.93	13.393
336.29	13.095
336.66	14.518
337.02	12.308
337.38	13.889
337.75	12.299
338.11	13.429
338.47	12.799
338.84	14.024
339.20	12.844
339.56	14.142
339.93	13.364
340.29	13.225
340.65	13.280
341.02	14.572
341.38	13.790
341.74	12.368
342.11	13.886
342.47	13.656
342.83	13.613
343.20	14.026
343.56	12.637
343.92	13.860
344.28	13.435
344.65	14.015
345.01	13.300
345.37	12.693
345.73	13.536
346.10	13.299
346.46	13.390
346.82	13.674
347.19	13.534
347.55	13.136
347.91	13.107
348.27	13.722
348.63	13.462
349.00	12.136
349.36	13.711
349.72	14.354
350.08	12.561
350.45	13.100
350.81	13.079
351.17	13.938
351.53	13.268
351.89	12.789
352.26	13.970
352.62	13.793
352.98	13.452
353.34	14.051
353.70	13.421
354.07	13.387
354.43	13.333
354.79	13.435
355.15	14.286
355.51	13.909
355.87	13.633
356.24	13.029
356.60	13.553
356.96	13.194
357.32	13.818
357.68	13.622
358.04	13.539
358.40	14.014
358.77	14.789
359.13	12.549
359.49	13.725
359.85	12.540
360.21	12.679
360.57	14.397
360.93	13.000
361.29	13.530
361.66	12.926
362.02	13.209
362.38	14.068
362.74	13.839
363.10	12.435
363.46	13.940
363.82	13.908
364.18	14.097
364.54	14.413
364.90	13.739
365.26	13.088
365.62	14.317
365.98	13.514
366.35	13.754
366.71	14.389
367.07	13.765
367.43	14.586
367.79	14.632
368.15	15.445
368.51	14.172
368.87	14.204
369.23	14.411
369.59	13.541
369.95	14.779
370.31	14.744
370.67	13.623
371.03	15.955
371.39	15.015
371.75	14.559
372.11	13.798
372.47	14.809
372.83	15.274
373.19	14.595
373.55	15.004
373.91	15.317
374.27	14.364
374.63	13.600
374.99	15.184
375.35	14.934
375.71	14.805
376.07	15.775
376.42	15.612
376.78	15.176
377.14	14.586
377.50	15.364
377.86	14.761
378.22	15.360
378.58	14.286
378.94	14.959
379.30	14.695
379.66	16.371
380.02	15.541
380.38	15.422
380.74	16.267
381.09	16.320
381.45	15.673
381.81	16.278
382.17	16.242
382.53	15.597
382.89	15.494
383.25	16.010
383.61	16.605
383.97	16.510
384.32	16.032
384.68	15.366
385.04	16.288
385.40	15.542
385.76	16.585
386.12	16.127
386.48	17.244
386.83	15.972
387.19	17.316
387.55	17.316
387.91	16.082
388.27	15.757
388.62	16.964
388.98	15.602
389.34	16.959
389.70	16.554
390.06	17.364
390.42	16.667
390.77	17.812
391.13	17.103
391.49	17.322
391.85	16.996
392.20	15.584
392.56	16.793
392.92	16.775
393.28	16.272
393.64	16.547
393.99	17.288
394.35	16.377
394.71	17.252
395.07	16.636
395.42	17.182
395.78	16.921
396.14	17.070
396.50	18.170
396.85	18.309
397.21	16.708
397.57	17.235
397.92	17.368
398.28	16.872
398.64	17.324
399.00	17.459
399.35	16.413
399.71	17.072
400.07	17.859
400.42	16.503
400.78	17.672
401.14	16.463
401.49	17.612
401.85	16.576
402.21	17.605
402.57	17.335
402.92	17.087
403.28	18.114
403.63	16.770
403.99	17.580
404.35	16.909
404.70	17.086
405.06	16.890
405.42	18.465
405.77	16.457
406.13	17.156
406.49	17.623
406.84	16.716
407.20	16.135
407.55	17.549
407.91	17.533
408.27	16.592
408.62	16.918
408.98	18.076
409.34	16.851
409.69	17.355
410.05	17.782
410.40	16.820
410.76	17.204
411.11	17.612
411.47	17.125
411.83	16.310
412.18	16.388
412.54	16.936
412.89	17.771
413.25	17.651
413.60	17.851
413.96	16.272
414.31	17.801
414.67	16.920
415.03	17.285
415.38	17.204
415.74	17.492
416.09	17.374
416.45	16.934
416.80	17.317
417.16	17.895
417.51	17.651
417.87	17.341
418.22	18.233
418.58	17.560
418.93	17.568
419.29	17.505
419.64	17.632
420.00	17.500
420.35	17.855
420.71	18.231
421.06	17.363
421.42	17.895
421.77	17.993
422.12	16.676
422.48	16.352
422.83	17.472
423.19	17.182
423.54	17.818
423.90	17.333
424.25	17.141
424.61	17.321
424.96	17.143
425.31	16.722
425.67	16.966
426.02	16.800
426.38	17.705
426.73	17.028
427.09	16.900
427.44	17.251
427.79	17.079
428.15	18.036
428.50	17.613
428.85	17.878
429.21	16.952
429.56	16.589
429.92	17.162
430.27	16.931
430.62	16.641
430.98	17.073
431.33	16.959
431.68	18.115
432.04	17.093
432.39	17.990
432.74	17.834
433.10	17.487
433.45	17.609
433.80	17.129
434.16	17.415
434.51	17.421
434.86	18.187
435.22	17.343
435.57	18.055
435.92	17.437
436.28	17.972
436.63	19.150
436.98	17.687
437.34	18.426
437.69	17.678
438.04	17.650
438.39	17.194
438.75	18.187
439.10	17.374
439.45	18.241
439.81	17.885
440.16	17.335
440.51	17.692
440.86	18.471
441.22	18.298
441.57	18.100
441.92	17.861
442.27	17.653
442.63	17.378
442.98	18.310
443.33	17.554
443.68	17.295
444.03	17.814
444.39	16.943
444.74	17.641
445.09	17.520
445.44	18.043
445.79	17.021
446.15	17.734
446.50	17.771
446.85	17.472
447.20	18.358
447.55	18.370
447.91	18.312
448.26	18.865
448.61	18.485
448.96	18.272
449.31	18.616
449.66	18.177
450.02	17.047
450.37	18.311
450.72	18.274
451.07	17.489
451.42	17.812
451.77	18.849
452.12	18.418
452.47	18.035
452.83	18.648
453.18	18.949
453.53	18.986
453.88	17.956
454.23	18.530
454.58	19.079
454.93	19.135
455.28	18.080
455.63	18.143
455.98	20.417
456.34	18.216
456.69	18.472
457.04	19.071
457.39	18.586
457.74	18.746
458.09	17.941
458.44	18.016
458.79	17.570
459.14	17.946
459.49	18.856
459.84	17.839
460.19	17.089
460.54	18.692
460.89	18.651
461.24	19.186
461.59	18.652
461.94	17.818
462.29	17.864
462.64	18.698
462.99	18.673
463.34	19.267
463.69	19.762
464.04	19.246
464.39	18.551
464.74	18.182
465.09	18.335
465.44	17.452
465.79	18.121
466.14	17.843
466.49	18.687
466.84	19.031
467.19	18.648
467.54	17.813
467.89	19.028
468.24	18.499
468.59	19.658
468.94	18.509
469.29	19.087
469.64	19.411
469.99	18.877
470.34	18.164
470.68	20.330
471.03	19.524
471.38	19.249
471.73	19.853
472.08	19.868
472.43	18.907
472.78	18.433
473.13	19.384
473.48	18.976
473.83	18.841
474.17	18.917
474.52	18.610
474.87	19.615
475.22	18.630
475.57	18.861
475.92	18.747
476.27	18.489
476.61	19.250
476.96	18.197
477.31	18.263
477.66	18.490
478.01	18.453
478.36	19.196
478.70	18.432
479.05	18.477
479.40	19.038
479.75	19.675
480.10	18.638
480.45	18.087
480.79	18.108
481.14	18.738
481.49	19.127
481.84	18.519
482.19	18.628
482.53	18.670
482.88	18.241
483.23	18.738
483.58	18.517
483.92	18.557
484.27	17.560
484.62	18.362
484.97	17.737
485.31	17.945
485.66	17.109
486.01	15.862
486.36	15.437
486.70	15.318
487.05	15.765
487.40	16.905
487.75	17.360
488.09	17.137
488.44	17.178
488.79	18.409
489.13	18.487
489.48	18.067
489.83	18.170
490.17	18.544
490.52	18.379
490.87	18.137
491.22	18.099
491.56	17.175
491.91	18.660
492.26	18.650
492.60	18.018
492.95	17.961
493.30	18.738
493.64	18.245
493.99	18.431
494.34	18.594
494.68	18.544
495.03	18.656
495.37	18.474
495.72	18.957
496.07	18.376
496.41	18.319
496.76	18.821
497.11	18.460
497.45	18.537
497.80	18.906
498.14	17.923
498.49	18.098
498.84	19.607
499.18	18.952
499.53	18.661
499.87	18.313
500.22	19.265
500.56	19.466
500.91	18.413
501.26	18.682
501.60	19.269
501.95	18.286
502.29	19.166
502.64	18.436
502.98	18.934
503.33	18.419
503.67	17.912
504.02	18.803
504.36	19.092
504.71	19.394
505.06	19.036
505.40	18.814
505.75	19.190
506.09	19.096
506.44	19.635
506.78	18.997
507.13	18.879
507.47	19.747
507.82	19.149
508.16	19.807
508.51	19.432
508.85	19.215
509.19	19.592
509.54	19.235
509.88	18.856
510.23	19.126
510.57	20.021
510.92	19.731
511.26	19.579
511.61	19.398
511.95	19.624
512.30	19.353
512.64	18.807
512.98	19.025
513.33	20.182
513.67	19.424
514.02	19.913
514.36	20.098
514.70	19.923
515.05	19.632
515.39	20.022
515.74	20.101
516.08	20.850
516.42	20.533
516.77	21.237
517.11	19.978
517.46	20.824
517.80	20.732
518.14	19.514
518.49	20.653
518.83	20.795
519.17	20.843
519.52	20.034
519.86	20.308
520.20	20.405
520.55	21.484
520.89	20.681
521.23	21.170
521.58	21.309
521.92	21.066
522.26	20.622
522.61	20.748
522.95	21.179
523.29	20.511
523.64	21.159
523.98	21.319
524.32	21.834
524.66	20.866
525.01	21.140
525.35	20.632
525.69	20.936
526.04	21.745
526.38	20.317
526.72	20.491
527.06	21.783
527.41	20.792
527.75	22.058
528.09	21.066
528.43	22.116
528.78	21.266
529.12	20.242
529.46	20.576
529.80	20.916
530.15	21.121
530.49	20.062
530.83	20.886
531.17	21.606
531.51	21.790
531.86	21.677
532.20	21.708
532.54	21.397
532.88	21.117
533.22	20.675
533.57	21.296
533.91	20.409
534.25	20.413
534.59	21.415
534.93	20.642
535.27	19.734
535.62	20.757
535.96	21.343
536.30	19.962
536.64	20.798
536.98	21.301
537.32	20.276
537.66	21.267
538.01	21.461
538.35	21.719
538.69	21.570
539.03	20.078
539.37	20.256
539.71	19.313
540.05	20.261
540.39	20.532
540.73	21.216
541.07	20.960
541.42	21.787
541.76	21.742
542.10	20.893
542.44	20.066
542.78	21.607
543.12	19.962
543.46	21.508
543.80	21.145
544.14	19.961
544.48	21.968
544.82	19.756
545.16	21.210
545.50	20.244
545.84	20.094
546.18	20.202
546.52	20.509
546.86	20.619
547.20	21.106
547.54	20.975
547.88	21.365
548.22	19.365
548.56	20.503
548.90	19.974
549.24	19.865
549.58	20.873
549.92	20.536
550.26	21.023
550.60	20.470
550.94	21.268
551.28	20.410
551.62	21.352
551.96	20.140
552.30	21.229
552.64	22.042
552.98	21.288
553.32	20.499
553.66	20.586
554.00	21.139
554.34	20.704
554.68	21.531
555.02	20.522
555.36	20.598
555.69	20.433
556.03	20.794
556.37	21.351
556.71	21.010
557.05	21.429
557.39	21.344
557.73	20.325
558.07	21.175
558.41	20.984
558.75	20.132
559.08	21.029
559.42	21.542
559.76	21.471
560.10	20.200
560.44	20.685
560.78	19.827
561.12	19.855
561.45	20.665
561.79	20.369
562.13	20.322
562.47	20.697
562.81	21.199
563.15	20.803
563.48	20.690
563.82	19.700
564.16	19.490
564.50	19.987
564.84	19.406
565.17	19.949
565.51	20.192
565.85	20.051
566.19	19.724
566.52	20.013
566.86	19.952
567.20	19.870
567.54	20.205
567.88	18.740
568.21	19.259
568.55	18.857
568.89	18.142
569.23	18.137
569.56	17.490
569.90	17.132
570.24	17.043
570.57	17.375
570.91	16.774
571.25	16.924
571.59	17.143
571.92	16.417
572.26	16.638
572.60	16.697
572.93	16.702
573.27	16.386
573.61	16.360
573.95	16.305
574.28	16.307
574.62	16.011
574.96	15.699
575.29	15.858
575.63	16.057
575.97	15.959
576.30	16.330
576.64	16.300
576.98	15.678
577.31	15.850
577.65	15.440
577.98	15.581
578.32	15.210
578.66	15.409
578.99	15.522
579.33	15.953
579.67	15.617
580.00	15.800
580.34	15.876
580.67	15.788
581.01	15.966
581.35	15.709
581.68	15.492
582.02	15.025
582.35	15.172
582.69	15.160
583.02	15.589
583.36	15.794
583.70	16.184
584.03	16.144
584.37	16.311
584.70	16.223
585.04	16.071
585.37	15.890
585.71	15.954
586.04	15.511
586.38	16.118
586.72	16.653
587.05	15.811
587.39	16.042
587.72	16.001
588.06	15.848
588.39	16.269
588.73	16.779
589.06	16.360
589.40	16.734
589.73	16.473
590.07	17.046
590.40	17.136
590.73	16.237
591.07	17.135
591.40	17.672
591.74	18.355
592.07	17.234
592.41	17.487
592.74	16.255
593.08	16.622
593.41	16.609
593.75	15.740
594.08	15.991
594.41	16.472
594.75	16.747
595.08	16.714
595.42	16.637
595.75	16.204
596.09	16.710
596.42	17.328
596.75	17.349
597.09	17.186
597.42	16.737
597.75	17.206
598.09	17.174
598.42	17.225
598.76	16.700
599.09	16.838
599.42	16.121
599.76	16.691
600.09	16.138
600.42	15.997
600.76	16.357
601.09	16.867
601.42	16.324
601.76	16.281
602.09	17.036
602.42	17.197
602.76	17.050
603.09	16.208
603.42	16.712
603.76	16.006
604.09	16.673
604.42	16.592
604.76	16.997
605.09	16.994
605.42	17.059
605.75	16.887
606.09	15.982
606.42	16.224
606.75	16.591
607.09	16.995
607.42	16.688
607.75	15.781
608.08	16.674
608.42	16.943
608.75	16.592
609.08	17.484
609.41	16.516
609.75	17.199
610.08	17.813
610.41	16.899
610.74	16.367
611.07	17.787
611.41	16.781
611.74	18.150
612.07	16.977
612.40	17.576
612.73	17.684
613.07	17.565
613.40	17.852
613.73	17.200
614.06	17.204
614.39	18.039
614.72	18.211
615.06	17.595
615.39	16.879
615.72	17.229
616.05	16.959
616.38	17.565
616.71	17.755
617.05	18.021
617.38	17.739
617.71	17.237
618.04	18.389
618.37	17.504
618.70	17.797
619.03	18.355
619.36	19.212
619.69	18.803
620.03	19.025
620.36	18.048
620.69	19.247
621.02	19.764
621.35	18.403
621.68	18.069
622.01	18.731
622.34	19.138
622.67	20.000
623.00	18.342
623.33	18.656
623.66	19.871
623.99	19.514
624.32	18.902
624.65	18.150
624.99	18.130
625.32	18.320
625.65	18.933
625.98	19.370
626.31	19.984
626.64	19.020
626.97	20.033
627.30	18.703
627.63	20.263
627.96	20.521
628.29	18.460
628.62	20.586
628.95	21.132
629.28	21.259
629.61	19.707
629.94	21.238
630.26	20.400
630.59	19.542
630.92	20.594
631.25	20.336
631.58	20.220
631.91	20.385
632.24	21.097
632.57	20.986
632.90	20.504
633.23	21.141
633.56	21.921
633.89	22.084
634.22	22.361
634.55	22.367
634.88	21.557
635.20	21.864
635.53	22.771
635.86	22.153
636.19	21.647
636.52	20.185
636.85	21.993
637.18	20.276
637.51	22.222
637.83	20.345
638.16	22.251
638.49	21.159
638.82	23.515
639.15	21.375
639.48	23.441
639.81	22.520
640.13	22.656
640.46	22.953
640.79	23.118
641.12	21.183
641.45	21.369
641.77	23.859
642.10	22.953
642.43	22.673
642.76	21.981
643.09	25.307
643.41	21.851
643.74	24.691
644.07	22.713
644.40	24.540
644.73	23.150
645.05	24.723
645.38	21.801
645.71	23.671
646.04	23.754
646.36	26.210
646.69	24.080
647.02	23.469
647.35	23.883
647.67	25.310
648.00	23.577
648.33	23.762
648.66	24.242
648.98	24.138
649.31	23.468
649.64	22.571
649.96	22.802
650.29	24.013
650.62	23.463
650.94	24.797
651.27	25.507
651.60	24.459
651.92	22.843
652.25	21.987
652.58	22.118
652.90	24.487
653.23	21.880
653.56	22.835
653.88	23.138
654.21	24.171
654.54	22.607
654.86	22.741
655.19	22.432
655.52	13.927
655.84	11.154
656.17	13.526
656.49	18.294
656.82	18.766
657.15	14.442
657.47	10.879
657.80	8.635
658.13	8.957
658.45	14.248
658.78	14.540
659.10	15.301
659.43	16.304
659.75	17.061
660.08	18.734
660.41	20.764
660.73	23.634
661.06	23.408
661.38	25.455
661.71	23.269
662.03	26.824
662.36	23.062
662.68	24.096
663.01	23.232
663.33	23.355
663.66	24.160
663.98	25.270
664.31	25.840
664.63	24.696
664.96	22.334
665.28	25.820
665.61	22.807
665.93	23.340
666.26	24.949
666.58	24.895
666.91	28.541
667.23	27.640
667.56	24.190
667.88	25.214
668.21	26.439
668.53	23.427
668.86	25.758
669.18	27.719
669.50	25.000
669.83	27.887
670.15	25.778
670.48	23.747
670.80	26.509
671.13	23.992
671.45	24.255
671.77	26.069
672.10	24.030
672.42	22.615
672.75	22.720
673.07	23.415
673.39	22.242
673.72	21.680
674.04	21.765
674.37	26.019
674.69	22.699
675.01	22.803
675.34	24.435
675.66	25.053
675.98	25.866
676.31	24.160
676.63	25.053
676.95	24.109
677.28	25.467
677.60	25.714
677.92	26.793
678.25	27.105
678.57	22.112
678.89	24.248
679.22	23.576
679.54	24.046
679.86	23.486
680.18	24.866
680.51	21.631
680.83	23.665
681.15	24.340
681.48	25.520
681.80	22.631
682.12	22.414
682.44	22.437
682.77	24.847
683.09	24.034
683.41	25.499
683.73	25.607
684.06	24.793
684.38	24.853
684.70	25.000
685.02	22.702
685.34	21.978
685.67	21.853
685.99	21.134
686.31	20.137
686.63	21.201
686.96	22.143
687.28	20.578
687.60	19.022
687.92	24.863
688.24	21.293
688.56	22.289
688.89	24.896
689.21	23.144
689.53	24.426
689.85	25.721
690.17	21.532
690.49	24.416
690.82	25.000
691.14	22.768
691.46	23.418
691.78	21.285
692.10	23.554
692.42	22.754
692.74	21.784
693.06	23.830
693.39	24.230
693.71	22.926
694.03	24.211
694.35	20.779
694.67	22.197
694.99	23.659
695.31	22.549
695.63	21.531
695.95	27.139
696.27	22.081
696.59	24.870
696.91	27.979
697.23	20.657
697.56	26.226
697.88	19.427
698.20	22.500
698.52	21.935
698.84	25.835
699.16	22.120
699.48	23.040
699.80	25.845
700.12	28.052
700.44	25.995
700.76	22.652
701.08	26.724
701.40	25.140
701.72	29.446
702.04	31.818
702.36	23.796
702.68	22.663
703.00	22.715
703.32	22.340
703.64	26.542
703.96	27.298
704.28	26.163
704.60	26.686
704.91	26.113
705.23	27.273
705.55	30.565
705.87	33.887
706.19	24.028
706.51	26.168
706.83	26.364
707.15	26.611
707.47	23.990
707.79	23.342
708.11	23.516
708.43	22.857
708.74	19.388
709.06	23.377
709.38	26.509
709.70	27.326
710.02	28.487
710.34	25.455
710.66	28.060
710.98	27.557
711.29	25.872
711.61	27.139
711.93	22.436
712.25	29.582
712.57	30.515
712.89	27.682
713.20	30.395
713.52	27.303
713.84	27.532
714.16	25.610
714.48	22.701
714.80	32.219
715.11	23.631
715.43	26.706
715.75	25.797
716.07	25.879
716.39	26.019
716.70	28.239
717.02	27.698
717.34	27.915
717.66	29.478
717.97	30.279
718.29	32.593
718.61	23.358
718.93	29.412
719.24	27.336
719.56	27.458
719.88	24.746
720.20	31.419
720.51	29.617
720.83	28.996
721.15	26.493
721.46	25.532
721.78	31.541
722.10	28.302
722.42	27.444
722.73	26.966
723.05	25.000
723.37	27.126
723.68	29.730
724.00	26.016
724.32	31.855
724.63	30.894
724.95	27.615
725.27	27.935
725.58	31.641
725.90	33.942
726.22	26.038
726.53	25.347
726.85	29.010
727.16	27.758
727.48	24.823
727.80	26.136
728.11	25.362
728.43	28.846
728.74	29.749
729.06	30.657
729.38	29.044
729.69	26.690
730.01	24.915
730.32	27.083
730.64	25.418
730.96	20.792
731.27	25.828
731.59	23.853
731.90	27.988
732.22	20.807
732.53	20.124
732.85	24.359
733.16	27.331
733.48	24.585
733.80	25.000
734.11	26.433
734.43	24.852
734.74	23.429
735.06	23.496
735.37	26.879
735.69	21.338
736.00	26.797
736.32	25.545
736.63	20.128
736.95	22.684
737.26	22.449
737.58	23.871
737.89	24.080
738.21	27.645
738.52	25.714
738.83	27.170
739.15	25.385
739.46	31.022
739.78	27.431
740.09	23.077
740.41	27.419
740.72	25.436
741.04	27.037
741.35	26.667
741.66	33.778
741.98	25.472
742.29	35.407
742.61	34.052
742.92	31.222
743.23	25.641
743.55	30.000
743.86	28.509
744.18	35.841
744.49	32.057
744.80	30.986
745.12	31.364
745.43	29.075
745.74	37.838
746.06	29.817
746.37	29.148
746.68	29.864
747.00	34.259
747.31	33.810
747.62	24.336
747.94	26.432
748.25	24.255
748.56	34.802
748.88	30.198
749.19	34.000
749.50	31.628
749.82	30.894
750.13	19.592
750.44	27.007
750.75	26.667
751.07	28.617
751.38	27.526
751.69	30.686
752.01	27.068
752.32	22.383
752.63	25.887
752.94	23.770
753.26	31.200
753.57	24.797
753.88	29.297
754.19	25.714
754.51	30.903
754.82	23.105
755.13	25.660
755.44	24.436
755.75	25.547
756.07	24.823
756.38	20.073
756.69	24.497
757.00	26.048
757.31	19.288
757.63	21.053
757.94	23.056
758.25	21.324
758.56	21.728
758.87	19.624
759.18	26.970
759.50	20.690
759.81	23.988
760.12	19.687
760.43	22.063
760.74	22.554
761.05	21.469
761.36	21.123
761.67	24.716
761.99	21.739
762.30	26.736
762.61	23.664
762.92	25.000
763.23	29.412
763.54	26.000
763.85	23.828
764.16	28.462
764.47	28.137
764.78	22.615
765.10	19.620
765.41	22.714
765.72	22.156
766.03	23.511
766.34	25.000
766.65	31.489
766.96	27.778
767.27	34.010
767.58	35.417
767.89	38.421
768.20	31.609
768.51	24.873
768.82	29.817
769.13	26.016
769.44	27.126
769.75	29.614
770.06	26.147
770.37	29.412
770.68	31.944
770.99	26.667
771.30	19.672
771.61	29.596
771.92	25.410
772.23	29.832
772.54	28.718
772.85	34.031
773.16	37.766
773.47	34.239
773.78	36.548
774.09	33.333
774.39	33.918
774.70	37.654
775.01	40.580
775.32	43.791
775.63	41.447
775.94	37.410
776.25	44.094
776.56	41.791
776.87	39.344
777.18	37.500
777.48	46.565
777.79	50.000
778.10	51.852
778.41	40.179
778.72	37.956
779.03	36.913
779.34	30.872
779.65	29.054
779.95	32.515
780.26	37.255
780.57	38.621
780.88	50.781
781.19	42.857
781.50	36.486
781.80	37.107
782.11	28.814
782.42	41.139
782.73	30.675
783.04	38.514
783.34	42.254
783.65	44.521
783.96	41.045
784.27	31.469
784.57	33.094
784.88	34.259
785.19	42.063
785.50	39.623
785.81	50.000
786.11	48.361
786.42	47.287
786.73	39.823
787.04	50.000
787.34	48.214
787.65	50.000
787.96	45.045
788.26	45.455
788.57	53.390
788.88	47.934
789.19	43.056
789.49	46.970
789.80	39.695
790.11	52.381
790.41	56.436
790.72	48.193
791.03	57.609
791.33	41.860
791.64	57.732
791.95	60.396
792.25	53.333
792.56	61.039
792.87	57.692
793.17	70.886
793.48	75.862
793.79	55.172
794.09	68.182
794.40	47.059
794.70	40.441
795.01	32.593
795.32	49.640
795.62	36.220
795.93	38.793
796.23	42.478
796.54	49.412
796.85	58.108
797.15	73.239
797.46	59.091
797.76	69.880
798.07	51.899
798.37	67.692
798.68	69.697
798.99	59.155
799.29	59.740
799.60	60.227
799.90	69.863
800.21	71.642
800.51	77.586
800.82	91.228
801.12	62.295
801.43	69.697
801.73	68.919
802.04	63.492
802.34	60.494
802.65	68.750
802.95	84.746
803.26	82.813
803.56	65.714
803.87	55.385
804.17	76.471
804.48	81.481
804.78	79.310
805.09	77.941
805.39	71.154
805.70	87.500
806.00	70.492
806.30	65.152
806.61	64.634
806.91	55.696
807.22	67.105
807.52	55.224
807.83	56.338
808.13	73.438
808.43	73.333
808.74	55.263
809.04	75.362
809.35	79.104
809.65	64.474
809.95	95.161
810.26	72.881
810.56	96.825
810.86	106.818
811.17	102.381
811.47	88.333
811.77	103.704
812.08	89.091
812.38	96.000
812.69	125.000
812.99	104.545
813.29	85.714
813.59	85.714
813.90	100.000
814.20	72.727
814.50	72.308
814.81	70.588
815.11	77.551
815.41	75.410
815.72	121.429
816.02	105.455
816.32	97.619
816.62	85.000
816.93	92.683
817.23	111.905
817.53	104.545
817.84	118.182
818.14	86.957
818.44	95.556
818.74	132.353
819.04	110.000
819.35	122.857
819.65	135.294
819.95	121.429
820.25	145.000
820.56	123.077
820.86	111.364
821.16	106.977
821.46	123.077
821.76	78.000
822.07	142.857
822.37	115.000
822.67	130.303
822.97	72.549
823.27	171.429
823.57	127.027
823.88	135.000
824.18	163.333
824.48	123.810
824.78	140.000
825.08	187.500
825.38	113.514
825.69	107.317
825.99	200.000
826.29	131.034
826.59	121.053
826.89	113.158
827.19	150.000
827.49	158.065
827.79	134.091
828.09	120.455
828.39	93.617
828.70	120.408
829.00	114.815
829.30	129.032
829.60	122.500
829.90	240.000
830.20	146.429
830.50	160.870
830.80	165.217
831.10	143.333
831.40	130.000
831.70	156.522
832.00	188.462
832.30	166.667
832.60	212.500
832.90	173.333
833.20	300.000
833.50	158.065
833.80	117.241
834.10	175.000
834.40	157.692
834.70	205.556
835.00	271.429
835.30	128.571
835.60	246.154
835.90	189.655
836.20	328.571
836.50	155.172
836.80	144.000
837.10	136.111
837.40	176.190
837.70	241.176
838.00	122.222
838.30	109.524
838.60	242.857
838.90	196.154
839.19	215.000
839.49	321.429
839.79	250.000
840.09	205.000
840.39	228.571
840.69	200.000
840.99	216.667
841.29	470.000
841.59	208.333
841.88	243.750
842.18	148.276
842.48	228.571
842.78	203.333
843.08	173.913
843.38	150.000
843.68	700.000
843.97	192.308
844.27	137.931
844.57	252.381
844.87	281.250
845.17	188.889
845.47	1100.000
845.76	344.444
846.06	276.471
846.36	325.000
846.66	300.000
846.96	256.250
847.25	327.273
847.55	318.182
847.85	230.435
848.15	370.000
848.44	314.286
848.74	216.667
849.04	229.412
849.34	480.000
849.63	189.474
849.93	381.818
850.23	780.000
850.53	335.714
850.82	1850.000
851.12	-3200.000
851.42	2800.000
851.71	230.000
852.01	-666.667
852.31	187.500
852.61	1233.333
852.90	195.238
853.20	136.000
853.50	270.588
853.79	228.571
854.09	166.667
854.39	218.750
854.68	156.757
854.98	167.742
855.28	86.667
855.57	144.828
855.87	155.556
856.17	236.842
856.46	186.667
856.76	258.824
857.05	124.138
857.35	191.667
857.65	326.667
857.94	182.609
858.24	184.615
858.53	220.000
858.83	195.455
859.13	213.333
859.42	0.000
859.72	422.222
860.01	400.000
860.31	168.182
860.60	268.421
860.90	178.261
861.20	544.444
861.49	391.667
861.79	-4000.000
862.08	550.000
862.38	219.048
862.67	338.462
862.97	258.824
863.26	344.444
863.56	277.778
863.85	333.333
864.15	462.500
864.44	353.333
864.74	550.000
865.03	537.500
865.33	221.053
865.62	409.091
865.92	369.231
866.21	291.667
866.51	0.000
866.80	436.364
867.10	660.000
867.39	346.154
867.69	436.364
867.98	263.158
868.27	354.545
868.57	263.158
868.86	-3600.000
869.16	268.750
869.45	2200.000
869.75	-3500.000
870.04	383.333
870.33	528.571
870.63	900.000
870.92	1850.000
871.22	557.143
871.51	294.118
871.80	185.714
872.10	300.000
>>>>>End Processed Spectral Data<<<<<
