SpectraSuite Data File
++++++++++++++++++++++++++++++++++++
Date: Wed May 13 16:36:50 PDT 2015
User: schluterlab
Dark Spectrum Present: Yes
Reference Spectrum Present: Yes
Number of Sampled Component Spectra: 1
Spectrometers: USB2E3373
Integration Time (usec): 3000 (USB2E3373)
Spectra Averaged: 3 (USB2E3373)
Boxcar Smoothing: 0 (USB2E3373)
Correct for Electrical Dark: No (USB2E3373)
Strobe/Lamp Enabled: No (USB2E3373)
Correct for Detector Non-linearity: No (USB2E3373)
Correct for Stray Light: No (USB2E3373)
Number of Pixels in Processed Spectrum: 2048
>>>>>Begin Processed Spectral Data<<<<<
178.53	0.000
178.91	-1275.000
179.29	-1250.000
179.67	-216.667
180.04	-1300.000
180.42	2350.000
180.80	1060.000
181.18	-1025.000
181.56	685.714
181.94	0.000
182.31	-557.143
182.69	1566.667
183.07	-675.000
183.45	-444.444
183.83	490.909
184.20	-500.000
184.58	2450.000
184.96	5900.000
185.34	-700.000
185.72	-612.500
186.09	-2250.000
186.47	2800.000
186.85	2550.000
187.23	5400.000
187.61	-1600.000
187.98	1200.000
188.36	536.364
188.74	554.545
189.12	-900.000
189.49	650.000
189.87	-4500.000
190.25	-1400.000
190.63	407.143
191.00	446.154
191.38	966.667
191.76	-1175.000
192.14	1100.000
192.51	587.500
192.89	1033.333
193.27	625.000
193.65	-1050.000
194.02	620.000
194.40	940.000
194.78	640.000
195.15	508.333
195.53	650.000
195.91	-2450.000
196.29	337.500
196.66	289.474
197.04	-490.000
197.42	0.000
197.79	600.000
198.17	-4800.000
198.55	528.571
198.92	687.500
199.30	1060.000
199.68	0.000
200.05	333.333
200.43	671.429
200.81	3700.000
201.18	1766.667
201.56	-1433.333
201.94	555.556
202.31	466.667
202.69	425.000
203.07	580.000
203.44	0.000
203.82	1300.000
204.19	614.286
204.57	428.571
204.95	787.500
205.32	1333.333
205.70	509.091
206.08	357.143
206.45	2600.000
206.83	331.250
207.20	916.667
207.58	880.000
207.96	250.000
208.33	750.000
208.71	-783.333
209.08	814.286
209.46	511.111
209.84	563.636
210.21	-1400.000
210.59	1650.000
210.96	-537.500
211.34	2400.000
211.71	550.000
212.09	700.000
212.46	0.000
212.84	1800.000
213.22	1175.000
213.59	-5200.000
213.97	950.000
214.34	828.571
214.72	563.636
215.09	1020.000
215.47	-2150.000
215.84	-2400.000
216.22	1800.000
216.59	407.143
216.97	1375.000
217.34	527.273
217.72	-700.000
218.09	0.000
218.47	-3500.000
218.84	600.000
219.22	600.000
219.59	1700.000
219.97	-500.000
220.34	960.000
220.72	-1833.333
221.09	435.714
221.47	1500.000
221.84	-650.000
222.22	0.000
222.59	1150.000
222.97	-2800.000
223.34	1340.000
223.72	423.077
224.09	1060.000
224.46	2200.000
224.84	-4100.000
225.21	-920.000
225.59	-4700.000
225.96	550.000
226.34	330.000
226.71	2600.000
227.08	600.000
227.46	480.000
227.83	-1225.000
228.21	-2750.000
228.58	700.000
228.95	-2050.000
229.33	-2150.000
229.70	1933.333
230.08	714.286
230.45	-800.000
230.82	433.333
231.20	816.667
231.57	571.429
231.95	441.667
232.32	250.000
232.69	327.273
233.07	642.857
233.44	361.538
233.81	-1800.000
234.19	242.105
234.56	425.000
234.93	391.667
235.31	427.273
235.68	315.385
236.05	371.429
236.43	172.727
236.80	242.105
237.17	4900.000
237.55	209.524
237.92	217.857
238.29	266.667
238.67	164.516
239.04	210.345
239.41	150.000
239.79	117.391
240.16	154.762
240.53	136.364
240.91	86.275
241.28	120.000
241.65	120.000
242.02	114.493
242.40	88.710
242.77	86.667
243.14	87.097
243.51	77.528
243.89	75.294
244.26	63.333
244.63	62.366
245.00	59.574
245.38	64.356
245.75	65.421
246.12	54.128
246.49	63.504
246.87	66.400
247.24	57.692
247.61	57.857
247.98	48.366
248.36	45.270
248.73	47.134
249.10	52.229
249.47	48.023
249.84	45.989
250.22	43.316
250.59	46.154
250.96	45.960
251.33	44.550
251.70	49.505
252.08	41.429
252.45	34.978
252.82	38.696
253.19	41.702
253.56	36.078
253.94	44.813
254.31	37.500
254.68	37.692
255.05	38.745
255.42	36.992
255.79	36.397
256.16	35.740
256.54	36.396
256.91	38.078
257.28	32.734
257.65	37.624
258.02	35.093
258.39	32.808
258.76	36.789
259.14	35.119
259.51	33.739
259.88	31.988
260.25	36.254
260.62	30.347
260.99	35.093
261.36	33.934
261.73	31.519
262.10	32.849
262.47	33.803
262.85	32.033
263.22	29.915
263.59	33.048
263.96	31.868
264.33	31.070
264.70	28.947
265.07	30.435
265.44	28.788
265.81	29.197
266.18	29.899
266.55	31.707
266.92	30.221
267.29	30.556
267.66	29.817
268.03	30.455
268.40	28.505
268.77	27.446
269.14	27.703
269.51	30.248
269.88	27.972
270.25	29.120
270.62	29.663
270.99	30.108
271.36	28.970
271.73	29.439
272.10	29.783
272.47	27.527
272.84	29.654
273.21	29.769
273.58	27.729
273.95	26.834
274.32	26.033
274.69	30.407
275.06	26.378
275.43	26.596
275.80	27.655
276.17	28.106
276.54	29.106
276.91	28.261
277.28	25.977
277.65	27.466
278.02	27.950
278.39	28.906
278.76	24.909
279.13	28.302
279.50	25.698
279.87	25.697
280.23	26.946
280.60	26.499
280.97	24.214
281.34	27.257
281.71	26.364
282.08	28.215
282.45	25.455
282.82	26.998
283.19	22.816
283.56	24.211
283.92	24.027
284.29	24.868
284.66	25.408
285.03	24.774
285.40	23.415
285.77	27.609
286.14	23.143
286.51	25.667
286.87	26.325
287.24	25.244
287.61	25.522
287.98	25.974
288.35	22.504
288.72	24.143
289.08	25.665
289.45	23.064
289.82	23.740
290.19	22.292
290.56	22.971
290.93	21.601
291.29	20.859
291.66	23.009
292.03	23.401
292.40	23.935
292.77	23.077
293.13	21.642
293.50	20.845
293.87	20.444
294.24	20.296
294.60	20.524
294.97	20.930
295.34	21.862
295.71	20.739
296.08	20.940
296.44	20.358
296.81	20.608
297.18	21.545
297.55	18.074
297.91	19.129
298.28	21.419
298.65	20.496
299.02	20.817
299.38	20.053
299.75	18.598
300.12	19.285
300.48	19.250
300.85	20.099
301.22	19.108
301.59	18.561
301.95	18.388
302.32	20.026
302.69	18.877
303.05	17.212
303.42	18.889
303.79	17.441
304.15	18.765
304.52	17.034
304.89	18.931
305.25	19.374
305.62	18.007
305.99	17.710
306.35	18.233
306.72	18.161
307.09	18.757
307.45	18.468
307.82	17.299
308.19	18.543
308.55	18.986
308.92	17.938
309.29	17.107
309.65	16.331
310.02	17.970
310.38	18.172
310.75	15.945
311.12	18.321
311.48	18.495
311.85	18.239
312.22	17.482
312.58	17.256
312.95	18.374
313.31	17.184
313.68	17.775
314.05	18.836
314.41	18.492
314.78	18.328
315.14	18.272
315.51	18.332
315.87	18.218
316.24	17.577
316.61	16.862
316.97	17.906
317.34	16.634
317.70	17.878
318.07	17.324
318.43	18.591
318.80	18.744
319.16	18.456
319.53	17.917
319.89	18.476
320.26	19.800
320.62	18.353
320.99	19.091
321.35	18.283
321.72	18.480
322.08	18.855
322.45	18.706
322.81	18.120
323.18	19.750
323.54	18.924
323.91	20.094
324.27	17.113
324.64	17.987
325.00	16.772
325.37	19.017
325.73	18.671
326.10	18.182
326.46	17.921
326.83	19.241
327.19	19.214
327.56	19.077
327.92	19.073
328.29	19.343
328.65	18.969
329.01	18.682
329.38	19.334
329.74	18.744
330.11	19.133
330.47	19.835
330.84	19.026
331.20	18.397
331.56	18.899
331.93	18.611
332.29	18.367
332.66	19.292
333.02	19.287
333.38	17.615
333.75	19.430
334.11	19.128
334.48	18.988
334.84	19.026
335.20	18.455
335.57	18.948
335.93	17.679
336.29	17.582
336.66	18.395
337.02	18.009
337.38	19.167
337.75	18.627
338.11	17.905
338.47	17.403
338.84	18.240
339.20	17.798
339.56	19.343
339.93	18.455
340.29	17.482
340.65	17.558
341.02	18.674
341.38	19.573
341.74	17.632
342.11	18.777
342.47	18.414
342.83	17.295
343.20	18.528
343.56	17.439
343.92	17.105
344.28	18.537
344.65	18.143
345.01	16.835
345.37	16.724
345.73	17.766
346.10	17.306
346.46	17.034
346.82	17.875
347.19	16.876
347.55	17.077
347.91	18.042
348.27	18.735
348.63	17.977
349.00	17.152
349.36	18.309
349.72	17.482
350.08	16.370
350.45	18.145
350.81	17.709
351.17	17.423
351.53	17.445
351.89	16.832
352.26	17.758
352.62	17.402
352.98	18.314
353.34	17.256
353.70	17.594
354.07	17.984
354.43	16.825
354.79	16.492
355.15	17.159
355.51	17.186
355.87	17.306
356.24	17.590
356.60	16.680
356.96	17.297
357.32	16.517
357.68	17.717
358.04	17.656
358.40	18.290
358.77	16.901
359.13	17.285
359.49	17.020
359.85	14.762
360.21	15.869
360.57	17.121
360.93	17.615
361.29	16.704
361.66	16.409
362.02	17.164
362.38	17.338
362.74	17.113
363.10	15.840
363.46	16.875
363.82	15.797
364.18	16.740
364.54	18.128
364.90	17.493
365.26	16.029
365.62	15.997
365.98	16.216
366.35	15.688
366.71	16.558
367.07	15.950
367.43	16.546
367.79	17.131
368.15	16.954
368.51	16.206
368.87	15.989
369.23	16.752
369.59	16.799
369.95	16.176
370.31	17.165
370.67	16.449
371.03	16.704
371.39	16.254
371.75	16.176
372.11	16.501
372.47	16.569
372.83	16.931
373.19	15.607
373.55	16.630
373.91	16.716
374.27	15.808
374.63	16.218
374.99	17.161
375.35	15.213
375.71	16.107
376.07	16.392
376.42	16.369
376.78	15.971
377.14	15.332
377.50	16.556
377.86	15.426
378.22	16.435
378.58	15.602
378.94	16.153
379.30	15.331
379.66	15.926
380.02	16.032
380.38	14.876
380.74	16.327
381.09	16.259
381.45	16.472
381.81	16.093
382.17	16.369
382.53	15.472
382.89	17.160
383.25	15.822
383.61	15.613
383.97	15.072
384.32	15.097
384.68	15.985
385.04	15.550
385.40	15.728
385.76	16.769
386.12	15.933
386.48	16.362
386.83	15.587
387.19	16.017
387.55	15.523
387.91	15.538
388.27	15.267
388.62	15.857
388.98	15.725
389.34	16.521
389.70	15.573
390.06	16.540
390.42	16.148
390.77	15.331
391.13	15.826
391.49	16.561
391.85	15.722
392.20	14.574
392.56	15.593
392.92	15.774
393.28	14.260
393.64	16.247
393.99	16.432
394.35	16.005
394.71	15.182
395.07	15.265
395.42	16.069
395.78	15.585
396.14	14.960
396.50	16.040
396.85	15.957
397.21	14.550
397.57	15.375
397.92	15.925
398.28	15.359
398.64	15.950
399.00	15.053
399.35	15.228
399.71	15.220
400.07	16.203
400.42	15.399
400.78	15.742
401.14	14.939
401.49	15.881
401.85	15.850
402.21	14.311
402.57	15.423
402.92	15.574
403.28	15.928
403.63	15.594
403.99	15.159
404.35	15.455
404.70	15.408
405.06	15.201
405.42	15.721
405.77	14.971
406.13	14.503
406.49	15.021
406.84	15.121
407.20	14.421
407.55	15.444
407.91	16.067
408.27	14.678
408.62	15.111
408.98	15.257
409.34	15.252
409.69	15.419
410.05	15.366
410.40	15.168
410.76	14.875
411.11	15.742
411.47	15.080
411.83	15.333
412.18	13.729
412.54	14.944
412.89	15.843
413.25	14.404
413.60	14.700
413.96	14.633
414.31	15.674
414.67	15.082
415.03	15.166
415.38	15.464
415.74	15.691
416.09	15.088
416.45	14.458
416.80	15.135
417.16	15.416
417.51	15.063
417.87	15.478
418.22	15.457
418.58	15.171
418.93	15.786
419.29	14.322
419.64	14.924
420.00	15.610
420.35	15.188
420.71	15.900
421.06	15.036
421.42	15.439
421.77	14.910
422.12	13.644
422.48	14.787
422.83	15.026
423.19	14.972
423.54	15.206
423.90	15.246
424.25	15.410
424.61	14.405
424.96	15.160
425.31	15.172
425.67	14.551
426.02	14.743
426.38	15.568
426.73	14.980
427.09	15.380
427.44	14.606
427.79	14.549
428.15	14.821
428.50	14.570
428.85	15.733
429.21	14.798
429.56	14.049
429.92	14.847
430.27	14.598
430.62	13.876
430.98	14.219
431.33	14.691
431.68	14.555
432.04	14.856
432.39	13.706
432.74	14.722
433.10	15.450
433.45	15.743
433.80	14.468
434.16	14.476
434.51	14.316
434.86	14.880
435.22	14.286
435.57	15.380
435.92	14.394
436.28	14.947
436.63	15.287
436.98	14.711
437.34	14.609
437.69	14.294
438.04	15.008
438.39	14.328
438.75	14.933
439.10	14.804
439.45	14.168
439.81	13.958
440.16	14.907
440.51	14.470
440.86	15.229
441.22	14.516
441.57	14.172
441.92	14.227
442.27	14.370
442.63	14.429
442.98	14.704
443.33	14.674
443.68	14.455
444.03	14.446
444.39	13.389
444.74	14.340
445.09	13.801
445.44	14.543
445.79	14.300
446.15	15.140
446.50	14.701
446.85	14.543
447.20	14.329
447.55	14.852
447.91	14.231
448.26	14.469
448.61	14.698
448.96	15.393
449.31	13.667
449.66	14.631
450.02	14.039
450.37	14.002
450.72	13.988
451.07	13.833
451.42	13.921
451.77	14.445
452.12	14.319
452.47	14.801
452.83	14.918
453.18	14.120
453.53	14.533
453.88	13.940
454.23	14.525
454.58	15.021
454.93	14.495
455.28	14.214
455.63	14.381
455.98	15.536
456.34	14.887
456.69	14.590
457.04	14.551
457.39	13.968
457.74	15.090
458.09	14.606
458.44	14.823
458.79	13.557
459.14	15.011
459.49	14.244
459.84	14.404
460.19	14.614
460.54	14.757
460.89	14.098
461.24	14.633
461.59	15.979
461.94	14.303
462.29	15.490
462.64	14.614
462.99	14.249
463.34	15.733
463.69	14.071
464.04	14.029
464.39	14.319
464.74	15.211
465.09	14.355
465.44	14.515
465.79	13.982
466.14	14.231
466.49	14.238
466.84	14.478
467.19	14.424
467.54	14.938
467.89	14.286
468.24	14.427
468.59	14.286
468.94	14.172
469.29	14.075
469.64	15.730
469.99	15.156
470.34	14.003
470.68	14.943
471.03	14.490
471.38	15.010
471.73	14.790
472.08	14.605
472.43	14.573
472.78	14.812
473.13	14.634
473.48	13.421
473.83	14.695
474.17	14.063
474.52	14.330
474.87	14.828
475.22	13.871
475.57	14.078
475.92	13.330
476.27	13.585
476.61	14.451
476.96	13.194
477.31	14.024
477.66	13.950
478.01	13.643
478.36	14.014
478.70	13.499
479.05	14.111
479.40	13.562
479.75	13.879
480.10	12.674
480.45	13.613
480.79	13.473
481.14	13.356
481.49	13.574
481.84	12.986
482.19	13.721
482.53	13.486
482.88	13.355
483.23	13.551
483.58	13.512
483.92	13.355
484.27	12.549
484.62	13.578
484.97	12.692
485.31	13.048
485.66	12.758
486.01	12.049
486.36	11.634
486.70	11.475
487.05	11.953
487.40	11.619
487.75	12.322
488.09	12.951
488.44	12.508
488.79	12.658
489.13	12.987
489.48	12.684
489.83	12.861
490.17	12.889
490.52	12.888
490.87	13.071
491.22	12.415
491.56	12.528
491.91	12.983
492.26	13.045
492.60	12.350
492.95	12.395
493.30	12.850
493.64	12.692
493.99	12.860
494.34	13.136
494.68	12.821
495.03	12.829
495.37	12.704
495.72	13.060
496.07	13.828
496.41	12.965
496.76	13.061
497.11	13.237
497.45	12.389
497.80	12.764
498.14	12.464
498.49	12.390
498.84	13.039
499.18	13.429
499.53	12.773
499.87	12.908
500.22	12.435
500.56	14.078
500.91	13.125
501.26	13.514
501.60	13.764
501.95	12.466
502.29	12.746
502.64	13.082
502.98	13.277
503.33	12.523
503.67	12.622
504.02	12.535
504.36	13.383
504.71	13.434
505.06	13.253
505.40	13.077
505.75	12.247
506.09	12.877
506.44	12.679
506.78	13.005
507.13	12.317
507.47	12.980
507.82	13.273
508.16	13.526
508.51	12.735
508.85	12.860
509.19	13.010
509.54	12.398
509.88	12.210
510.23	13.625
510.57	12.797
510.92	12.688
511.26	12.898
511.61	12.863
511.95	12.370
512.30	12.937
512.64	12.144
512.98	13.505
513.33	13.062
513.67	12.647
514.02	12.338
514.36	13.162
514.70	13.005
515.05	12.214
515.39	13.292
515.74	12.950
516.08	13.415
516.42	13.873
516.77	13.434
517.11	12.875
517.46	13.149
517.80	13.589
518.14	12.913
518.49	12.835
518.83	13.693
519.17	12.702
519.52	12.394
519.86	13.976
520.20	13.295
520.55	13.465
520.89	13.017
521.23	13.329
521.58	13.025
521.92	12.921
522.26	13.240
522.61	12.523
522.95	12.830
523.29	12.781
523.64	13.537
523.98	13.247
524.32	13.088
524.66	13.470
525.01	12.990
525.35	12.949
525.69	12.869
526.04	13.458
526.38	12.386
526.72	13.742
527.06	12.869
527.41	12.376
527.75	12.733
528.09	13.038
528.43	13.512
528.78	13.952
529.12	12.545
529.46	13.472
529.80	13.057
530.15	13.894
530.49	13.169
530.83	13.291
531.17	14.360
531.51	14.462
531.86	13.613
532.20	13.559
532.54	13.709
532.88	13.800
533.22	12.555
533.57	13.210
533.91	12.583
534.25	13.123
534.59	12.935
534.93	12.731
535.27	12.915
535.62	13.187
535.96	12.994
536.30	11.888
536.64	13.393
536.98	13.072
537.32	12.837
537.66	13.000
538.01	12.903
538.35	13.251
538.69	14.040
539.03	12.346
539.37	12.716
539.71	11.990
540.05	13.399
540.39	12.691
540.73	12.484
541.07	13.238
541.42	13.242
541.76	13.871
542.10	13.777
542.44	12.848
542.78	14.032
543.12	12.092
543.46	13.508
543.80	13.338
544.14	12.901
544.48	12.635
544.82	12.957
545.16	13.533
545.50	13.239
545.84	12.970
546.18	13.064
546.52	13.489
546.86	13.265
547.20	12.879
547.54	12.892
547.88	13.839
548.22	13.014
548.56	14.403
548.90	11.716
549.24	12.323
549.58	13.029
549.92	13.599
550.26	14.489
550.60	12.794
550.94	13.451
551.28	12.363
551.62	13.012
551.96	12.632
552.30	13.174
552.64	13.252
552.98	13.085
553.32	13.958
553.66	14.247
554.00	13.040
554.34	13.320
554.68	12.589
555.02	12.694
555.36	12.526
555.69	12.382
556.03	12.853
556.37	12.688
556.71	12.347
557.05	12.885
557.39	12.526
557.73	13.550
558.07	13.488
558.41	13.242
558.75	13.005
559.08	13.945
559.42	13.757
559.76	13.971
560.10	12.777
560.44	12.928
560.78	12.508
561.12	12.335
561.45	13.625
561.79	13.184
562.13	13.749
562.47	12.363
562.81	12.413
563.15	13.244
563.48	13.594
563.82	12.916
564.16	13.080
564.50	12.109
564.84	12.453
565.17	12.162
565.51	12.524
565.85	12.817
566.19	12.774
566.52	12.983
566.86	12.538
567.20	12.618
567.54	12.900
567.88	11.841
568.21	13.333
568.55	12.588
568.89	11.916
569.23	12.077
569.56	12.429
569.90	12.415
570.24	11.482
570.57	11.425
570.91	11.700
571.25	11.612
571.59	11.075
571.92	11.290
572.26	11.150
572.60	11.051
572.93	11.244
573.27	11.683
573.61	11.642
573.95	11.705
574.28	11.231
574.62	11.370
574.96	10.753
575.29	11.033
575.63	11.331
575.97	11.325
576.30	11.391
576.64	11.221
576.98	11.133
577.31	10.952
577.65	11.162
577.98	11.178
578.32	10.485
578.66	11.195
578.99	11.093
579.33	11.111
579.67	10.995
580.00	11.076
580.34	11.296
580.67	11.038
581.01	11.356
581.35	11.475
581.68	11.307
582.02	10.862
582.35	10.723
582.69	10.877
583.02	10.630
583.36	11.021
583.70	11.464
584.03	11.259
584.37	11.726
584.70	11.494
585.04	11.277
585.37	11.789
585.71	11.043
586.04	11.283
586.38	11.886
586.72	11.350
587.05	11.138
587.39	11.082
587.72	11.440
588.06	10.993
588.39	11.056
588.73	11.352
589.06	11.748
589.40	11.953
589.73	12.249
590.07	11.922
590.40	12.349
590.73	11.944
591.07	12.495
591.40	12.358
591.74	12.641
592.07	11.780
592.41	11.947
592.74	11.648
593.08	11.726
593.41	11.642
593.75	11.274
594.08	11.364
594.41	11.559
594.75	11.830
595.08	11.489
595.42	11.804
595.75	11.681
596.09	11.829
596.42	12.181
596.75	11.862
597.09	12.727
597.42	11.383
597.75	12.031
598.09	11.870
598.42	11.555
598.76	11.390
599.09	11.403
599.42	11.827
599.76	11.603
600.09	11.075
600.42	11.578
600.76	11.143
601.09	11.658
601.42	11.454
601.76	12.068
602.09	11.423
602.42	12.381
602.76	12.495
603.09	12.392
603.42	12.027
603.76	11.509
604.09	11.826
604.42	12.108
604.76	12.611
605.09	12.582
605.42	12.056
605.75	12.003
606.09	11.468
606.42	11.810
606.75	11.904
607.09	11.972
607.42	11.682
607.75	11.688
608.08	11.246
608.42	12.237
608.75	12.038
609.08	11.610
609.41	12.137
609.75	11.910
610.08	12.347
610.41	11.732
610.74	11.684
611.07	12.055
611.41	11.727
611.74	13.072
612.07	12.422
612.40	12.225
612.73	11.579
613.07	12.338
613.40	12.691
613.73	11.536
614.06	11.935
614.39	12.166
614.72	12.789
615.06	12.605
615.39	12.473
615.72	12.014
616.05	12.281
616.38	11.951
616.71	12.352
617.05	12.603
617.38	11.726
617.71	13.033
618.04	12.139
618.37	12.064
618.70	13.255
619.03	13.355
619.36	13.442
619.69	12.324
620.03	13.393
620.36	12.834
620.69	13.904
621.02	13.348
621.35	12.294
621.68	12.305
622.01	13.158
622.34	13.616
622.67	13.308
623.00	13.059
623.33	13.081
623.66	12.866
623.99	12.297
624.32	13.338
624.65	12.994
624.99	12.677
625.32	11.948
625.65	12.998
625.98	13.605
626.31	14.308
626.64	14.449
626.97	13.134
627.30	13.383
627.63	13.700
627.96	13.036
628.29	13.473
628.62	12.809
628.95	14.245
629.28	13.686
629.61	14.390
629.94	13.524
630.26	14.013
630.59	13.727
630.92	13.793
631.25	13.820
631.58	14.915
631.91	13.996
632.24	13.713
632.57	15.215
632.90	14.803
633.23	15.548
633.56	14.915
633.89	14.496
634.22	14.529
634.55	15.740
634.88	14.251
635.20	14.695
635.53	15.663
635.86	15.223
636.19	12.941
636.52	15.225
636.85	14.318
637.18	14.286
637.51	15.957
637.83	13.440
638.16	14.706
638.49	15.365
638.82	15.424
639.15	15.250
639.48	15.960
639.81	15.282
640.13	13.932
640.46	15.034
640.79	16.645
641.12	12.792
641.45	15.223
641.77	16.937
642.10	16.520
642.43	16.366
642.76	13.777
643.09	17.178
643.41	15.478
643.74	18.364
644.07	14.177
644.40	17.485
644.73	17.953
645.05	18.067
645.38	16.272
645.71	16.264
646.04	14.452
646.36	18.364
646.69	18.562
647.02	18.367
647.35	17.182
647.67	18.053
648.00	17.073
648.33	15.182
648.66	16.061
648.98	17.541
649.31	14.499
649.64	15.247
649.96	16.095
650.29	15.008
650.62	16.990
650.94	18.152
651.27	18.581
651.60	17.637
651.92	18.051
652.25	16.612
652.58	14.798
652.90	18.009
653.23	15.408
653.56	17.323
653.88	17.274
654.21	17.062
654.54	17.327
654.86	15.421
655.19	15.811
655.52	10.938
655.84	9.671
656.17	12.083
656.49	16.351
656.82	16.423
657.15	12.508
657.47	9.403
657.80	7.117
658.13	7.674
658.45	11.588
658.78	11.355
659.10	12.632
659.43	13.104
659.75	13.399
660.08	15.316
660.41	16.853
660.73	17.789
661.06	16.720
661.38	17.636
661.71	19.423
662.03	19.527
662.36	15.905
662.68	19.277
663.01	20.000
663.33	20.170
663.66	17.227
663.98	21.598
664.31	18.487
664.63	17.206
664.96	16.097
665.28	17.828
665.61	18.519
665.93	18.109
666.26	15.822
666.58	16.527
666.91	21.142
667.23	19.326
667.56	17.495
667.88	19.872
668.21	20.469
668.53	15.618
668.86	20.563
669.18	20.469
669.50	19.783
669.83	18.736
670.15	19.778
670.48	17.865
670.80	21.121
671.13	18.471
671.45	18.298
671.77	18.941
672.10	18.484
672.42	17.668
672.75	16.252
673.07	16.197
673.39	16.817
673.72	16.602
674.04	17.843
674.37	18.252
674.69	15.746
675.01	16.527
675.34	19.713
675.66	20.000
675.98	19.959
676.31	19.328
676.63	20.170
676.95	16.562
677.28	17.991
677.60	18.681
677.92	20.464
678.25	18.686
678.57	19.721
678.89	17.635
679.22	18.271
679.54	17.176
679.86	17.798
680.18	15.921
680.51	17.553
680.83	17.794
681.15	18.113
681.48	19.282
681.80	20.116
682.12	18.582
682.44	18.956
682.77	16.701
683.09	22.747
683.41	18.847
683.73	20.309
684.06	18.182
684.38	17.613
684.70	19.767
685.02	21.201
685.34	17.766
685.67	16.084
685.99	16.838
686.31	16.894
686.63	16.078
686.96	16.964
687.28	19.495
687.60	16.667
687.92	18.830
688.24	18.251
688.56	18.072
688.89	21.784
689.21	20.087
689.53	18.580
689.85	21.064
690.17	16.149
690.49	19.958
690.82	19.626
691.14	19.196
691.46	17.722
691.78	19.679
692.10	19.835
692.42	20.359
692.74	17.635
693.06	19.149
693.39	21.971
693.71	17.904
694.03	18.526
694.35	20.779
694.67	18.078
694.99	23.415
695.31	18.382
695.63	21.053
695.95	19.071
696.27	19.036
696.59	20.466
696.91	20.984
697.23	14.319
697.56	20.682
697.88	17.382
698.20	17.500
698.52	19.355
698.84	23.608
699.16	19.816
699.48	20.190
699.80	20.048
700.12	25.714
700.44	21.751
700.76	22.376
701.08	22.414
701.40	20.950
701.72	25.364
702.04	26.420
702.36	20.397
702.68	25.212
703.00	21.884
703.32	18.617
703.64	23.592
703.96	20.334
704.28	21.802
704.60	22.874
704.91	20.475
705.23	24.047
705.55	25.914
705.87	26.246
706.19	23.322
706.51	24.299
706.83	22.727
707.15	21.289
707.47	22.727
707.79	21.376
708.11	21.689
708.43	18.333
708.74	21.429
709.06	23.117
709.38	23.360
709.70	24.128
710.02	24.036
710.34	19.394
710.66	24.179
710.98	25.284
711.29	25.000
711.61	26.549
711.93	23.718
712.25	27.331
712.57	26.103
712.89	25.952
713.20	23.404
713.52	26.974
713.84	23.418
714.16	25.305
714.48	23.276
714.80	27.964
715.11	21.037
715.43	23.442
715.75	22.609
716.07	22.045
716.39	22.257
716.70	29.236
717.02	26.978
717.34	26.855
717.66	25.373
717.97	25.498
718.29	24.444
718.61	27.007
718.93	25.000
719.24	26.298
719.56	24.068
719.88	25.763
720.20	26.014
720.51	26.829
720.83	23.792
721.15	24.254
721.46	25.177
721.78	27.957
722.10	30.943
722.42	27.068
722.73	28.090
723.05	29.098
723.37	29.555
723.68	31.660
724.00	26.423
724.32	29.839
724.63	27.236
724.95	25.105
725.27	29.960
725.58	27.344
725.90	33.212
726.22	26.415
726.53	23.958
726.85	26.962
727.16	27.402
727.48	31.206
727.80	26.136
728.11	28.261
728.43	21.923
728.74	21.864
729.06	29.197
729.38	27.941
729.69	28.470
730.01	25.597
730.32	23.958
730.64	27.090
730.96	21.122
731.27	29.139
731.59	26.606
731.90	25.073
732.22	22.050
732.53	21.672
732.85	22.436
733.16	23.794
733.48	26.578
733.80	25.649
734.11	22.293
734.43	26.627
734.74	23.143
735.06	20.344
735.37	22.832
735.69	22.293
736.00	25.163
736.32	23.676
736.63	26.198
736.95	23.962
737.26	18.027
737.58	20.968
737.89	24.749
738.21	26.621
738.52	25.714
738.83	26.792
739.15	23.077
739.46	28.102
739.78	25.347
740.09	23.692
740.41	28.710
740.72	21.951
741.04	27.037
741.35	30.833
741.66	35.111
741.98	27.830
742.29	32.536
742.61	27.586
742.92	33.937
743.23	35.897
743.55	27.600
743.86	32.456
744.18	34.071
744.49	35.885
744.80	36.150
745.12	33.182
745.43	35.242
745.74	32.883
746.06	32.569
746.37	26.009
746.68	31.674
747.00	33.333
747.31	33.810
747.62	28.319
747.94	31.718
748.25	25.957
748.56	32.159
748.88	27.723
749.19	34.000
749.50	31.628
749.82	31.301
750.13	28.163
750.44	29.197
750.75	24.912
751.07	27.974
751.38	27.178
751.69	25.271
752.01	25.564
752.32	26.354
752.63	28.014
752.94	30.328
753.26	26.800
753.57	24.390
753.88	30.859
754.19	26.429
754.51	30.208
754.82	24.910
755.13	27.170
755.44	25.188
755.75	28.467
756.07	21.986
756.38	23.358
756.69	25.503
757.00	22.754
757.31	25.816
757.63	20.175
757.94	22.520
758.25	22.059
758.56	21.481
758.87	21.237
759.18	24.848
759.50	21.944
759.81	21.495
760.12	19.063
760.43	25.215
760.74	20.924
761.05	25.424
761.36	23.797
761.67	27.557
761.99	21.429
762.30	26.736
762.61	25.954
762.92	27.734
763.23	28.151
763.54	32.400
763.85	26.953
764.16	33.077
764.47	29.278
764.78	25.442
765.10	22.785
765.41	21.239
765.72	23.054
766.03	23.511
766.34	23.000
766.65	35.745
766.96	22.650
767.27	31.472
767.58	34.896
767.89	41.053
768.20	41.379
768.51	32.995
768.82	33.486
769.13	26.016
769.44	31.174
769.75	29.185
770.06	29.358
770.37	35.294
770.68	34.722
770.99	31.111
771.30	23.770
771.61	31.390
771.92	29.918
772.23	35.294
772.54	33.333
772.85	35.602
773.16	39.894
773.47	33.696
773.78	35.533
774.09	38.690
774.39	37.427
774.70	40.123
775.01	45.652
775.32	49.673
775.63	44.079
775.94	36.691
776.25	48.819
776.56	41.045
776.87	50.000
777.18	45.313
777.48	48.092
777.79	37.121
778.10	42.222
778.41	54.464
778.72	43.066
779.03	44.966
779.34	40.940
779.65	40.541
779.95	38.650
780.26	41.830
780.57	42.759
780.88	57.031
781.19	46.617
781.50	48.649
781.80	38.365
782.11	37.288
782.42	36.076
782.73	34.356
783.04	43.919
783.34	42.254
783.65	41.096
783.96	47.015
784.27	38.462
784.57	43.165
784.88	46.296
785.19	49.206
785.50	63.208
785.81	58.955
786.11	52.459
786.42	52.713
786.73	39.823
787.04	51.887
787.34	46.429
787.65	54.000
787.96	43.243
788.26	43.802
788.57	55.085
788.88	52.893
789.19	47.222
789.49	48.485
789.80	45.038
790.11	66.667
790.41	59.406
790.72	67.470
791.03	71.739
791.33	60.465
791.64	57.732
791.95	64.356
792.25	72.222
792.56	75.325
792.87	66.667
793.17	87.342
793.48	68.966
793.79	55.172
794.09	65.909
794.40	49.580
794.70	52.941
795.01	46.667
795.32	49.640
795.62	53.543
795.93	58.621
796.23	47.788
796.54	60.000
796.85	63.514
797.15	81.690
797.46	78.788
797.76	60.241
798.07	69.620
798.37	75.385
798.68	81.818
798.99	78.873
799.29	76.623
799.60	62.500
799.90	80.822
800.21	94.030
800.51	81.034
800.82	94.737
801.12	93.443
801.43	89.394
801.73	77.027
802.04	92.063
802.34	83.951
802.65	60.937
802.95	100.000
803.26	96.875
803.56	77.143
803.87	84.615
804.17	80.882
804.48	114.815
804.78	75.862
805.09	85.294
805.39	96.154
805.70	94.643
806.00	90.164
806.30	77.273
806.61	81.707
806.91	62.025
807.22	57.895
807.52	70.149
807.83	80.282
808.13	76.563
808.43	78.333
808.74	71.053
809.04	84.058
809.35	85.075
809.65	82.895
809.95	101.613
810.26	93.220
810.56	74.603
810.86	129.545
811.17	128.571
811.47	98.333
811.77	105.556
812.08	125.455
812.38	116.000
812.69	147.222
812.99	131.818
813.29	112.245
813.59	95.238
813.90	132.653
814.20	101.818
814.50	70.769
814.81	95.588
815.11	112.245
815.41	104.918
815.72	133.333
816.02	114.545
816.32	123.810
816.62	95.000
816.93	124.390
817.23	157.143
817.53	109.091
817.84	142.424
818.14	106.522
818.44	102.222
818.74	185.294
819.04	120.000
819.35	142.857
819.65	164.706
819.95	192.857
820.25	180.000
820.56	135.897
820.86	127.273
821.16	137.209
821.46	120.513
821.76	128.000
822.07	151.429
822.37	142.500
822.67	172.727
822.97	119.608
823.27	203.571
823.57	124.324
823.88	155.000
824.18	170.000
824.48	147.619
824.78	204.000
825.08	191.667
825.38	145.946
825.69	117.073
825.99	220.833
826.29	144.828
826.59	189.474
826.89	150.000
827.19	141.176
827.49	180.645
827.79	122.727
828.09	120.455
828.39	129.787
828.70	120.408
829.00	181.481
829.30	154.839
829.60	152.500
829.90	280.000
830.20	207.143
830.50	156.522
830.80	221.739
831.10	186.667
831.40	220.000
831.70	252.174
832.00	219.231
832.30	166.667
832.60	381.250
832.90	203.333
833.20	421.429
833.50	183.871
833.80	220.690
834.10	187.500
834.40	180.769
834.70	283.333
835.00	271.429
835.30	168.571
835.60	300.000
835.90	189.655
836.20	385.714
836.50	200.000
836.80	136.000
837.10	180.556
837.40	204.762
837.70	311.765
838.00	170.370
838.30	261.905
838.60	242.857
838.90	219.231
839.19	255.000
839.49	392.857
839.79	280.000
840.09	235.000
840.39	242.857
840.69	247.826
840.99	227.778
841.29	440.000
841.59	316.667
841.88	362.500
842.18	175.862
842.48	219.048
842.78	163.333
843.08	230.435
843.38	168.750
843.68	816.667
843.97	246.154
844.27	200.000
844.57	276.190
844.87	343.750
845.17	225.926
845.47	1500.000
845.76	466.667
846.06	276.471
846.36	487.500
846.66	321.429
846.96	318.750
847.25	536.364
847.55	490.909
847.85	265.217
848.15	460.000
848.44	350.000
848.74	222.222
849.04	317.647
849.34	540.000
849.63	273.684
849.93	381.818
850.23	1020.000
850.53	378.571
850.82	2100.000
851.12	-3700.000
851.42	5100.000
851.71	260.000
852.01	-1466.667
852.31	179.167
852.61	1366.667
852.90	214.286
853.20	208.000
853.50	300.000
853.79	247.619
854.09	191.667
854.39	362.500
854.68	181.081
854.98	174.194
855.28	173.333
855.57	193.103
855.87	196.296
856.17	178.947
856.46	200.000
856.76	270.588
857.05	189.655
857.35	283.333
857.65	320.000
857.94	226.087
858.24	211.538
858.53	310.000
858.83	250.000
859.13	273.333
859.42	0.000
859.72	644.444
860.01	527.273
860.31	245.455
860.60	268.421
860.90	226.087
861.20	544.444
861.49	458.333
861.79	-4300.000
862.08	612.500
862.38	252.381
862.67	276.923
862.97	382.353
863.26	566.667
863.56	294.444
863.85	366.667
864.15	575.000
864.44	393.333
864.74	683.333
865.03	650.000
865.33	273.684
865.62	463.636
865.92	430.769
866.21	366.667
866.51	0.000
866.80	445.455
867.10	1160.000
867.39	446.154
867.69	472.727
867.98	305.263
868.27	500.000
868.57	305.263
868.86	-3800.000
869.16	356.250
869.45	2050.000
869.75	-4500.000
870.04	483.333
870.33	628.571
870.63	1100.000
870.92	2800.000
871.22	857.143
871.51	329.412
871.80	233.333
872.10	392.857
>>>>>End Processed Spectral Data<<<<<
