SpectraSuite Data File
++++++++++++++++++++++++++++++++++++
Date: Wed May 13 16:21:39 PDT 2015
User: schluterlab
Dark Spectrum Present: Yes
Reference Spectrum Present: Yes
Number of Sampled Component Spectra: 1
Spectrometers: USB2E3373
Integration Time (usec): 3000 (USB2E3373)
Spectra Averaged: 3 (USB2E3373)
Boxcar Smoothing: 0 (USB2E3373)
Correct for Electrical Dark: No (USB2E3373)
Strobe/Lamp Enabled: No (USB2E3373)
Correct for Detector Non-linearity: No (USB2E3373)
Correct for Stray Light: No (USB2E3373)
Number of Pixels in Processed Spectrum: 2048
>>>>>Begin Processed Spectral Data<<<<<
178.53	0.000
178.91	-1400.000
179.29	-1125.000
179.67	-211.111
180.04	-1275.000
180.42	2550.000
180.80	980.000
181.18	-925.000
181.56	700.000
181.94	0.000
182.31	-657.143
182.69	1500.000
183.07	-475.000
183.45	-388.889
183.83	481.818
184.20	-310.000
184.58	1600.000
184.96	5600.000
185.34	-800.000
185.72	-612.500
186.09	-1950.000
186.47	2250.000
186.85	2500.000
187.23	4700.000
187.61	-1666.667
187.98	1175.000
188.36	500.000
188.74	381.818
189.12	-860.000
189.49	560.000
189.87	-4800.000
190.25	-1300.000
190.63	314.286
191.00	415.385
191.38	766.667
191.76	-1100.000
192.14	1225.000
192.51	500.000
192.89	916.667
193.27	700.000
193.65	-1350.000
194.02	450.000
194.40	960.000
194.78	540.000
195.15	491.667
195.53	520.000
195.91	-1800.000
196.29	343.750
196.66	284.211
197.04	-250.000
197.42	0.000
197.79	520.000
198.17	-5400.000
198.55	542.857
198.92	625.000
199.30	880.000
199.68	0.000
200.05	316.667
200.43	742.857
200.81	3400.000
201.18	1466.667
201.56	-1200.000
201.94	555.556
202.31	633.333
202.69	383.333
203.07	510.000
203.44	0.000
203.82	1050.000
204.19	700.000
204.57	428.571
204.95	687.500
205.32	1600.000
205.70	436.364
206.08	357.143
206.45	2350.000
206.83	300.000
207.20	900.000
207.58	580.000
207.96	288.889
208.33	675.000
208.71	-750.000
209.08	714.286
209.46	566.667
209.84	490.909
210.21	-1366.667
210.59	1275.000
210.96	-337.500
211.34	2200.000
211.71	590.000
212.09	716.667
212.46	0.000
212.84	1500.000
213.22	975.000
213.59	-4700.000
213.97	900.000
214.34	657.143
214.72	509.091
215.09	1040.000
215.47	-1950.000
215.84	-2400.000
216.22	1800.000
216.59	350.000
216.97	1225.000
217.34	454.545
217.72	-633.333
218.09	0.000
218.47	-4300.000
218.84	544.444
219.22	714.286
219.59	1733.333
219.97	-428.571
220.34	760.000
220.72	-1433.333
221.09	342.857
221.47	1325.000
221.84	-750.000
222.22	0.000
222.59	1175.000
222.97	-2500.000
223.34	1000.000
223.72	330.769
224.09	640.000
224.46	2100.000
224.84	-4400.000
225.21	-780.000
225.59	-4500.000
225.96	370.000
226.34	290.000
226.71	2100.000
227.08	350.000
227.46	530.000
227.83	-950.000
228.21	-1850.000
228.58	577.778
228.95	-2000.000
229.33	-1950.000
229.70	1666.667
230.08	614.286
230.45	-640.000
230.82	466.667
231.20	916.667
231.57	514.286
231.95	400.000
232.32	240.909
232.69	400.000
233.07	557.143
233.44	253.846
233.81	-1500.000
234.19	242.105
234.56	416.667
234.93	333.333
235.31	400.000
235.68	276.923
236.05	292.857
236.43	157.576
236.80	173.684
237.17	3700.000
237.55	176.190
237.92	167.857
238.29	200.000
238.67	129.032
239.04	155.172
239.41	130.556
239.79	102.174
240.16	92.857
240.53	100.000
240.91	92.157
241.28	74.000
241.65	72.000
242.02	72.464
242.40	50.000
242.77	75.000
243.14	49.462
243.51	56.180
243.89	47.059
244.26	47.778
244.63	44.086
245.00	43.617
245.38	46.535
245.75	41.121
246.12	36.697
246.49	45.985
246.87	45.600
247.24	41.538
247.61	31.429
247.98	31.373
248.36	27.027
248.73	26.115
249.10	26.115
249.47	24.859
249.84	29.947
250.22	24.599
250.59	20.710
250.96	27.273
251.33	23.697
251.70	28.218
252.08	22.857
252.45	18.834
252.82	19.130
253.19	21.277
253.56	17.647
253.94	20.747
254.31	20.703
254.68	19.231
255.05	15.867
255.42	17.073
255.79	18.382
256.16	17.690
256.54	18.021
256.91	17.438
257.28	16.187
257.65	14.851
258.02	19.565
258.39	17.035
258.76	11.371
259.14	17.857
259.51	14.590
259.88	11.180
260.25	12.689
260.62	15.318
260.99	13.043
261.36	16.517
261.73	12.894
262.10	13.663
262.47	14.366
262.85	13.649
263.22	9.687
263.59	14.530
263.96	12.912
264.33	16.188
264.70	11.316
265.07	15.345
265.44	9.091
265.81	11.192
266.18	11.809
266.55	10.732
266.92	11.057
267.29	12.500
267.66	9.633
268.03	10.682
268.40	10.047
268.77	8.831
269.14	10.811
269.51	13.770
269.88	9.790
270.25	10.384
270.62	11.011
270.99	15.484
271.36	12.017
271.73	9.813
272.10	11.522
272.47	12.258
272.84	12.987
273.21	12.159
273.58	7.205
273.95	9.015
274.32	8.884
274.69	9.850
275.06	9.252
275.43	9.787
275.80	10.822
276.17	7.943
276.54	11.642
276.91	10.079
277.28	9.570
277.65	10.638
278.02	9.110
278.39	9.766
278.76	10.909
279.13	8.113
279.50	9.311
279.87	9.960
280.23	9.381
280.60	7.544
280.97	8.318
281.34	8.319
281.71	10.182
282.08	8.829
282.45	6.909
282.82	9.769
283.19	8.200
283.56	10.526
283.92	10.321
284.29	8.995
284.66	9.256
285.03	9.765
285.40	8.627
285.77	9.596
286.14	7.772
286.51	9.167
286.87	8.547
287.24	10.098
287.61	7.544
287.98	8.442
288.35	7.607
288.72	7.788
289.08	9.077
289.45	6.755
289.82	7.967
290.19	7.849
290.56	8.576
290.93	5.589
291.29	6.288
291.66	7.670
292.03	10.174
292.40	10.279
292.77	6.953
293.13	9.254
293.50	7.434
293.87	7.852
294.24	5.926
294.60	6.259
294.97	5.814
295.34	8.745
295.71	8.097
296.08	5.698
296.44	6.052
296.81	6.341
297.18	8.266
297.55	4.354
297.91	6.201
298.28	8.032
298.65	8.616
299.02	6.719
299.38	6.507
299.75	6.065
300.12	5.492
300.48	6.875
300.85	5.549
301.22	5.987
301.59	6.187
301.95	6.801
302.32	5.648
302.69	6.093
303.05	5.576
303.42	5.679
303.79	6.569
304.15	5.361
304.52	4.519
304.89	5.575
305.25	7.193
305.62	6.569
305.99	6.257
306.35	6.935
306.72	6.502
307.09	6.104
307.45	6.869
307.82	5.022
308.19	5.629
308.55	7.551
308.92	6.445
309.29	5.808
309.65	5.726
310.02	6.131
310.38	5.269
310.75	4.224
311.12	6.653
311.48	5.747
311.85	5.765
312.22	6.660
312.58	4.782
312.95	7.392
313.31	5.825
313.68	5.613
314.05	7.495
314.41	6.734
314.78	5.438
315.14	5.958
315.51	5.973
315.87	7.030
316.24	4.866
316.61	6.238
316.97	6.164
317.34	4.599
317.70	6.023
318.07	6.352
318.43	7.241
318.80	7.310
319.16	6.591
319.53	5.816
319.89	6.476
320.26	6.100
320.62	6.349
320.99	7.980
321.35	7.071
321.72	7.495
322.08	6.910
322.45	6.866
322.81	7.849
323.18	7.514
323.54	8.627
323.91	7.925
324.27	8.031
324.64	7.363
325.00	8.025
325.37	9.554
325.73	8.707
326.10	8.561
326.46	7.258
326.83	9.318
327.19	8.967
327.56	8.885
327.92	10.499
328.29	11.180
328.65	10.221
329.01	10.469
329.38	10.823
329.74	10.619
330.11	11.027
330.47	11.295
330.84	12.224
331.20	10.838
331.56	11.101
331.93	11.389
332.29	11.269
332.66	12.655
333.02	12.249
333.38	12.285
333.75	11.854
334.11	12.544
334.48	12.955
334.84	12.316
335.20	12.818
335.57	12.602
335.93	11.875
336.29	12.912
336.66	12.353
337.02	11.674
337.38	13.056
337.75	11.586
338.11	12.355
338.47	12.799
338.84	12.924
339.20	11.651
339.56	13.686
339.93	11.818
340.29	12.591
340.65	12.299
341.02	14.136
341.38	12.367
341.74	14.298
342.11	12.576
342.47	12.952
342.83	13.014
343.20	13.333
343.56	12.131
343.92	12.105
344.28	13.180
344.65	12.382
345.01	10.943
345.37	11.578
345.73	12.606
346.10	11.594
346.46	12.881
346.82	13.262
347.19	12.281
347.55	12.397
347.91	13.673
348.27	12.490
348.63	13.712
349.00	12.298
349.36	12.972
349.72	12.430
350.08	11.994
350.45	12.531
350.81	12.266
351.17	12.237
351.53	12.203
351.89	11.799
352.26	12.470
352.62	12.751
352.98	11.507
353.34	12.408
353.70	12.275
354.07	12.823
354.43	12.381
354.79	12.228
355.15	12.370
355.51	13.269
355.87	12.735
356.24	12.378
356.60	12.831
356.96	12.148
357.32	11.529
357.68	12.992
358.04	12.114
358.40	13.618
358.77	13.302
359.13	12.076
359.49	11.843
359.85	10.556
360.21	11.563
360.57	13.385
360.93	12.385
361.29	12.472
361.66	12.539
362.02	12.313
362.38	12.624
362.74	11.682
363.10	11.621
363.46	12.032
363.82	12.623
364.18	12.115
364.54	12.036
364.90	12.535
365.26	12.059
365.62	12.783
365.98	12.272
366.35	11.246
366.71	13.521
367.07	13.256
367.43	12.990
367.79	12.777
368.15	13.434
368.51	12.500
368.87	13.419
369.23	12.729
369.59	13.251
369.95	12.794
370.31	12.963
370.67	13.116
371.03	13.858
371.39	13.411
371.75	13.824
372.11	13.087
372.47	14.516
372.83	14.265
373.19	12.717
373.55	13.082
373.91	14.875
374.27	13.127
374.63	13.018
374.99	14.124
375.35	13.050
375.71	13.365
376.07	14.815
376.42	13.205
376.78	14.911
377.14	13.772
377.50	13.775
377.86	13.763
378.22	14.096
378.58	13.221
378.94	14.016
379.30	13.677
379.66	14.086
380.02	14.312
380.38	13.661
380.74	14.766
381.09	14.059
381.45	14.874
381.81	14.742
382.17	14.459
382.53	13.962
382.89	14.506
383.25	14.134
383.61	15.056
383.97	15.760
384.32	15.221
384.68	14.560
385.04	15.120
385.40	14.365
385.76	14.496
386.12	15.479
386.48	15.607
386.83	14.689
387.19	15.708
387.55	15.646
387.91	14.813
388.27	14.592
388.62	15.489
388.98	15.725
389.34	15.770
389.70	16.125
390.06	16.160
390.42	15.045
390.77	16.349
391.13	15.444
391.49	16.624
391.85	14.704
392.20	15.394
392.56	14.836
392.92	15.715
393.28	14.379
393.64	16.127
393.99	15.027
394.35	16.191
394.71	15.496
395.07	15.639
395.42	15.822
395.78	16.221
396.14	15.767
396.50	16.980
396.85	15.957
397.21	15.536
397.57	16.243
397.92	16.466
398.28	15.975
398.64	16.249
399.00	16.340
399.35	15.228
399.71	15.104
400.07	15.671
400.42	16.135
400.78	16.586
401.14	16.220
401.49	16.000
401.85	16.031
402.21	15.210
402.57	15.114
402.92	16.520
403.28	15.990
403.63	16.213
403.99	15.860
404.35	16.545
404.70	15.887
405.06	14.851
405.42	15.658
405.77	15.829
406.13	15.181
406.49	16.203
406.84	16.775
407.20	16.312
407.55	16.465
407.91	16.267
408.27	15.316
408.62	16.797
408.98	16.483
409.34	15.867
409.69	16.645
410.05	15.799
410.40	15.780
410.76	16.428
411.11	16.405
411.47	16.038
411.83	15.944
412.18	15.584
412.54	15.504
412.89	16.145
413.25	16.116
413.60	16.800
413.96	15.665
414.31	16.039
414.67	16.540
415.03	15.762
415.38	16.688
415.74	16.656
416.09	17.113
416.45	16.533
416.80	15.929
417.16	16.957
417.51	16.191
417.87	16.313
418.22	17.413
418.58	16.979
418.93	16.769
419.29	16.295
419.64	17.128
420.00	16.159
420.35	16.464
420.71	17.513
421.06	15.990
421.42	17.018
421.77	16.312
422.12	16.339
422.48	15.057
422.83	17.065
423.19	16.630
423.54	17.237
423.90	16.000
424.25	17.309
424.61	16.250
424.96	16.210
425.31	16.002
425.67	15.169
426.02	16.800
426.38	17.582
426.73	17.086
427.09	17.508
427.44	16.561
427.79	17.424
428.15	17.381
428.50	16.852
428.85	16.925
429.21	17.062
429.56	16.330
429.92	17.061
430.27	16.832
430.62	16.487
430.98	16.399
431.33	17.320
431.68	16.806
432.04	17.093
432.39	17.419
432.74	17.475
433.10	17.714
433.45	18.076
433.80	17.184
434.16	17.254
434.51	17.158
434.86	18.130
435.22	17.510
435.57	17.933
435.92	17.262
436.28	17.794
436.63	19.647
436.98	17.230
437.34	17.472
437.69	18.670
438.04	17.763
438.39	18.030
438.75	18.652
439.10	18.268
439.45	18.595
439.81	18.248
440.16	18.182
440.51	18.981
440.86	17.776
441.22	17.353
441.57	18.577
441.92	18.731
442.27	18.837
442.63	18.483
442.98	19.268
443.33	18.913
443.68	18.534
444.03	18.302
444.39	18.062
444.74	19.210
445.09	18.868
445.44	18.589
445.79	18.803
446.15	19.322
446.50	18.525
446.85	18.345
447.20	18.205
447.55	18.705
447.91	18.919
448.26	18.753
448.61	19.050
448.96	18.882
449.31	19.798
449.66	19.021
450.02	18.273
450.37	18.991
450.72	19.289
451.07	18.038
451.42	18.663
451.77	19.143
452.12	19.284
452.47	19.714
452.83	19.172
453.18	20.293
453.53	20.594
453.88	18.783
454.23	19.068
454.58	20.472
454.93	19.644
455.28	19.514
455.63	19.721
455.98	20.655
456.34	20.415
456.69	20.163
457.04	20.805
457.39	19.404
457.74	19.733
458.09	20.012
458.44	19.498
458.79	19.469
459.14	20.316
459.49	20.724
459.84	20.000
460.19	19.564
460.54	20.139
460.89	19.803
461.24	20.644
461.59	20.860
461.94	21.023
462.29	21.068
462.64	20.038
462.99	20.820
463.34	21.333
463.69	21.451
464.04	20.754
464.39	20.348
464.74	20.559
465.09	20.567
465.44	20.499
465.79	20.246
466.14	20.142
466.49	20.690
466.84	20.665
467.19	21.183
467.54	20.500
467.89	20.168
468.24	20.303
468.59	20.879
468.94	21.197
469.29	21.144
469.64	21.486
469.99	21.651
470.34	21.400
470.68	20.690
471.03	21.497
471.38	22.446
471.73	22.985
472.08	22.632
472.43	22.487
472.78	22.515
473.13	22.144
473.48	21.660
473.83	21.098
474.17	21.220
474.52	22.146
474.87	22.709
475.22	22.171
475.57	22.139
475.92	21.030
476.27	21.139
476.61	22.008
476.96	20.836
477.31	21.664
477.66	22.101
478.01	21.589
478.36	21.840
478.70	21.340
479.05	22.204
479.40	21.904
479.75	22.115
480.10	21.173
480.45	21.418
480.79	21.261
481.14	21.624
481.49	21.974
481.84	22.131
482.19	21.854
482.53	21.422
482.88	21.545
483.23	22.290
483.58	21.611
483.92	21.509
484.27	20.697
484.62	21.983
484.97	21.206
485.31	21.233
485.66	20.624
486.01	19.215
486.36	18.563
486.70	17.917
487.05	18.584
487.40	19.280
487.75	19.797
488.09	19.897
488.44	19.913
488.79	20.362
489.13	20.932
489.48	20.799
489.83	21.666
490.17	22.008
490.52	21.391
490.87	22.026
491.22	21.510
491.56	21.868
491.91	22.708
492.26	22.416
492.60	21.567
492.95	21.983
493.30	21.916
493.64	22.165
493.99	22.423
494.34	22.895
494.68	23.168
495.03	22.462
495.37	22.662
495.72	22.222
496.07	22.923
496.41	21.372
496.76	22.032
497.11	22.152
497.45	22.170
497.80	22.361
498.14	22.850
498.49	22.439
498.84	22.771
499.18	22.476
499.53	22.792
499.87	22.833
500.22	22.751
500.56	22.961
500.91	22.981
501.26	23.518
501.60	23.873
501.95	22.915
502.29	22.915
502.64	23.883
502.98	22.814
503.33	22.806
503.67	22.599
504.02	23.059
504.36	22.929
504.71	22.570
505.06	23.133
505.40	23.189
505.75	22.854
506.09	23.907
506.44	23.483
506.78	23.332
507.13	23.927
507.47	23.838
507.82	23.708
508.16	24.012
508.51	24.049
508.85	23.883
509.19	24.592
509.54	23.571
509.88	23.854
510.23	23.856
510.57	24.923
510.92	24.495
511.26	24.152
511.61	24.326
511.95	24.374
512.30	24.814
512.64	24.073
512.98	24.598
513.33	24.411
513.67	23.906
514.02	23.431
514.36	25.232
514.70	25.125
515.05	24.205
515.39	25.014
515.74	25.788
516.08	25.321
516.42	25.694
516.77	26.867
517.11	25.028
517.46	25.677
517.80	25.668
518.14	25.420
518.49	26.313
518.83	26.023
519.17	26.155
519.52	25.976
519.86	26.526
520.20	26.821
520.55	25.673
520.89	26.034
521.23	27.081
521.58	26.291
521.92	26.822
522.26	26.174
522.61	26.791
522.95	26.335
523.29	27.085
523.64	27.073
523.98	27.603
524.32	26.297
524.66	26.639
525.01	26.348
525.35	27.323
525.69	25.800
526.04	26.168
526.38	27.212
526.72	26.503
527.06	27.244
527.41	26.176
527.75	27.010
528.09	27.489
528.43	27.470
528.78	28.273
529.12	26.303
529.46	27.495
529.80	27.104
530.15	27.539
530.49	26.277
530.83	27.342
531.17	27.937
531.51	28.405
531.86	27.419
532.20	28.357
532.54	27.482
532.88	27.985
533.22	27.171
533.57	26.667
533.91	26.911
534.25	26.549
534.59	26.541
534.93	26.829
535.27	26.373
535.62	26.984
535.96	27.872
536.30	26.764
536.64	27.817
536.98	27.206
537.32	26.860
537.66	28.400
538.01	27.452
538.35	27.796
538.69	28.079
539.03	26.576
539.37	26.390
539.71	26.183
540.05	27.059
540.39	27.309
540.73	26.585
541.07	27.839
541.42	26.680
541.76	28.000
542.10	27.749
542.44	25.894
542.78	27.141
543.12	26.871
543.46	26.885
543.80	27.196
544.14	25.546
544.48	26.667
544.82	26.299
545.16	26.285
545.50	25.321
545.84	27.083
546.18	27.205
546.52	27.805
546.86	27.766
547.20	27.782
547.54	26.587
547.88	27.870
548.22	26.588
548.56	27.044
548.90	27.017
549.24	27.138
549.58	27.694
549.92	26.168
550.26	28.054
550.60	26.833
550.94	27.676
551.28	27.432
551.62	28.109
551.96	27.368
552.30	27.577
552.64	26.775
552.98	27.119
553.32	27.310
553.66	27.471
554.00	27.385
554.34	27.329
554.68	28.112
555.02	26.869
555.36	26.514
555.69	26.116
556.03	27.389
556.37	26.535
556.71	26.944
557.05	27.241
557.39	27.852
557.73	28.299
558.07	27.049
558.41	27.352
558.75	27.553
559.08	27.815
559.42	26.531
559.76	28.088
560.10	27.266
560.44	26.834
560.78	26.347
561.12	25.528
561.45	26.141
561.79	26.104
562.13	26.761
562.47	26.913
562.81	26.499
563.15	26.756
563.48	26.194
563.82	25.506
564.16	25.638
564.50	25.846
564.84	25.411
565.17	25.804
565.51	26.645
565.85	26.142
566.19	25.423
566.52	26.409
566.86	24.955
567.20	25.295
567.54	25.285
567.88	23.846
568.21	24.603
568.55	23.964
568.89	24.125
569.23	23.886
569.56	22.632
569.90	22.830
570.24	21.744
570.57	22.135
570.91	22.043
571.25	21.001
571.59	21.208
571.92	21.515
572.26	20.913
572.60	21.051
572.93	20.960
573.27	21.532
573.61	20.659
573.95	20.879
574.28	20.653
574.62	20.117
574.96	19.904
575.29	19.835
575.63	19.715
575.97	19.813
576.30	19.756
576.64	20.217
576.98	20.005
577.31	19.848
577.65	20.022
577.98	19.723
578.32	19.102
578.66	19.224
578.99	19.676
579.33	19.317
579.67	19.046
580.00	19.755
580.34	19.198
580.67	19.901
581.01	19.856
581.35	19.534
581.68	19.025
582.02	18.576
582.35	19.005
582.69	19.140
583.02	18.874
583.36	19.161
583.70	19.680
584.03	19.671
584.37	19.763
584.70	19.984
585.04	19.154
585.37	19.595
585.71	19.314
586.04	19.353
586.38	19.749
586.72	20.215
587.05	20.049
587.39	19.525
587.72	19.660
588.06	19.210
588.39	19.781
588.73	20.182
589.06	20.349
589.40	20.505
589.73	20.697
590.07	20.498
590.40	20.095
590.73	20.219
591.07	21.042
591.40	20.666
591.74	21.558
592.07	21.204
592.41	21.496
592.74	20.599
593.08	20.686
593.41	19.899
593.75	19.238
594.08	19.477
594.41	20.325
594.75	20.665
595.08	20.544
595.42	20.350
595.75	20.192
596.09	20.015
596.42	20.668
596.75	20.684
597.09	20.736
597.42	20.278
597.75	21.044
598.09	20.565
598.42	20.404
598.76	19.700
599.09	19.840
599.42	19.687
599.76	19.802
600.09	20.291
600.42	19.686
600.76	19.643
601.09	19.709
601.42	19.597
601.76	20.076
602.09	19.091
602.42	19.188
602.76	20.274
603.09	20.181
603.42	20.344
603.76	19.627
604.09	19.271
604.42	19.976
604.76	20.371
605.09	20.183
605.42	20.436
605.75	19.992
606.09	19.479
606.42	19.820
606.75	19.535
607.09	20.260
607.42	19.983
607.75	19.325
608.08	20.104
608.42	20.260
608.75	19.838
609.08	20.259
609.41	20.371
609.75	20.629
610.08	21.159
610.41	19.413
610.74	20.057
611.07	20.702
611.41	20.608
611.74	21.317
612.07	20.342
612.40	20.042
612.73	20.158
613.07	21.336
613.40	20.853
613.73	19.822
614.06	20.269
614.39	20.399
614.72	20.737
615.06	21.166
615.39	19.268
615.72	20.654
616.05	19.351
616.38	20.567
616.71	21.081
617.05	20.966
617.38	20.084
617.71	20.180
618.04	20.613
618.37	20.402
618.70	20.909
619.03	20.658
619.36	21.589
619.69	21.972
620.03	22.596
620.36	22.059
620.69	22.671
621.02	22.566
621.35	22.161
621.68	22.586
622.01	22.678
622.34	22.693
622.67	21.825
623.00	21.497
623.33	21.515
623.66	21.873
623.99	22.018
624.32	21.398
624.65	21.469
624.99	20.609
625.32	21.651
625.65	21.863
625.98	22.829
626.31	22.084
626.64	22.776
626.97	22.860
627.30	22.111
627.63	22.559
627.96	23.633
628.29	23.885
628.62	23.696
628.95	25.472
629.28	24.270
629.61	23.556
629.94	22.952
630.26	22.688
630.59	22.402
630.92	23.084
631.25	23.001
631.58	24.925
631.91	23.225
632.24	23.523
632.57	24.869
632.90	23.136
633.23	25.391
633.56	24.859
633.89	25.934
634.22	23.383
634.55	26.509
634.88	24.072
635.20	25.806
635.53	25.060
635.86	25.248
636.19	24.000
636.52	24.452
636.85	24.628
637.18	23.272
637.51	27.069
637.83	21.825
638.16	24.425
638.49	25.693
638.82	26.802
639.15	24.750
639.48	25.436
639.81	26.408
640.13	26.823
640.46	26.846
640.79	25.760
641.12	23.521
641.45	25.559
641.77	27.835
642.10	25.877
642.43	25.526
642.76	26.625
643.09	26.227
643.41	26.555
643.74	28.549
644.07	26.524
644.40	27.607
644.73	25.984
645.05	27.892
645.38	24.803
645.71	26.892
646.04	26.080
646.36	27.713
646.69	29.766
647.02	26.701
647.35	27.320
647.67	28.319
648.00	26.667
648.33	26.073
648.66	25.455
648.98	28.036
649.31	24.963
649.64	26.158
649.96	27.124
650.29	24.645
650.62	26.537
650.94	26.742
651.27	27.534
651.60	26.290
651.92	28.435
652.25	25.570
652.58	26.012
652.90	26.540
653.23	24.499
653.56	25.197
653.88	27.892
654.21	26.698
654.54	25.908
654.86	24.611
655.19	21.351
655.52	14.465
655.84	12.444
656.17	15.624
656.49	20.891
656.82	20.735
657.15	15.689
657.47	11.465
657.80	8.881
658.13	9.194
658.45	14.324
658.78	14.013
659.10	14.429
659.43	15.010
659.75	16.347
660.08	18.544
660.41	20.484
660.73	24.651
661.06	25.159
661.38	27.818
661.71	26.923
662.03	29.191
662.36	26.243
662.68	27.510
663.01	28.485
663.33	27.389
663.66	27.311
663.98	28.510
664.31	26.681
664.63	26.923
664.96	25.352
665.28	28.074
665.61	26.316
665.93	25.956
666.26	26.166
666.58	27.406
666.91	28.753
667.23	29.438
667.56	27.430
667.88	28.205
668.21	27.932
668.53	26.898
668.86	27.489
669.18	31.557
669.50	27.609
669.83	28.758
670.15	29.111
670.48	28.976
670.80	29.310
671.13	28.662
671.45	27.021
671.77	27.088
672.10	26.248
672.42	25.265
672.75	25.041
673.07	24.296
673.39	24.412
673.72	23.047
674.04	23.725
674.37	27.961
674.69	24.131
675.01	24.477
675.34	28.542
675.66	27.158
675.98	25.662
676.31	25.840
676.63	27.601
676.95	27.254
677.28	27.103
677.60	26.593
677.92	27.426
678.25	25.667
678.57	25.697
678.89	26.052
679.22	27.308
679.54	25.382
679.86	25.321
680.18	25.045
680.51	24.468
680.83	22.598
681.15	25.660
681.48	25.709
681.80	25.919
682.12	23.180
682.44	24.565
682.77	26.477
683.09	26.824
683.41	26.608
683.73	25.607
684.06	26.653
684.38	24.462
684.70	26.938
685.02	25.704
685.34	25.458
685.67	23.427
685.99	21.993
686.31	24.061
686.63	22.261
686.96	21.071
687.28	25.090
687.60	21.739
687.92	22.669
688.24	23.954
688.56	23.092
688.89	23.651
689.21	26.638
689.53	27.349
689.85	26.829
690.17	25.466
690.49	26.752
690.82	23.832
691.14	24.554
691.46	22.785
691.78	22.289
692.10	23.554
692.42	25.948
692.74	21.577
693.06	25.745
693.39	24.435
693.71	25.328
694.03	26.105
694.35	23.593
694.67	24.027
694.99	28.049
695.31	23.284
695.63	25.837
695.95	26.406
696.27	25.381
696.59	27.202
696.91	27.461
697.23	23.239
697.56	26.226
697.88	19.836
698.20	22.500
698.52	24.086
698.84	24.722
699.16	25.115
699.48	24.228
699.80	28.744
700.12	30.390
700.44	27.321
700.76	29.834
701.08	31.322
701.40	26.816
701.72	30.612
702.04	34.375
702.36	27.195
702.68	28.045
703.00	26.593
703.32	26.862
703.64	26.542
703.96	25.627
704.28	27.907
704.60	30.205
704.91	27.003
705.23	28.152
705.55	28.904
705.87	32.890
706.19	27.915
706.51	29.283
706.83	28.788
707.15	27.731
707.47	23.737
707.79	28.010
708.11	25.114
708.43	25.714
708.74	24.745
709.06	26.753
709.38	25.722
709.70	29.070
710.02	27.893
710.34	24.545
710.66	30.448
710.98	30.398
711.29	28.198
711.61	31.268
711.93	28.846
712.25	33.119
712.57	31.618
712.89	31.142
713.20	27.356
713.52	29.276
713.84	27.215
714.16	26.220
714.48	24.713
714.80	30.699
715.11	29.107
715.43	25.223
715.75	26.087
716.07	26.198
716.39	29.467
716.70	34.219
717.02	27.698
717.34	26.855
717.66	27.612
717.97	35.060
718.29	31.852
718.61	33.577
718.93	28.676
719.24	30.450
719.56	26.441
719.88	30.169
720.20	28.716
720.51	31.707
720.83	28.996
721.15	27.612
721.46	27.660
721.78	29.032
722.10	32.453
722.42	32.707
722.73	30.712
723.05	28.279
723.37	32.794
723.68	33.977
724.00	26.016
724.32	31.855
724.63	32.114
724.95	28.452
725.27	31.579
725.58	30.078
725.90	32.117
726.22	31.321
726.53	26.389
726.85	28.669
727.16	27.758
727.48	26.596
727.80	31.818
728.11	26.812
728.43	31.538
728.74	26.882
729.06	31.387
729.38	30.147
729.69	28.114
730.01	24.232
730.32	24.653
730.64	31.438
730.96	25.083
731.27	29.139
731.59	26.300
731.90	25.656
732.22	25.155
732.53	21.981
732.85	22.756
733.16	23.794
733.48	26.578
733.80	27.922
734.11	25.796
734.43	25.148
734.74	20.571
735.06	21.490
735.37	24.566
735.69	20.701
736.00	30.065
736.32	27.103
736.63	25.559
736.95	26.837
737.26	23.129
737.58	24.516
737.89	26.087
738.21	29.693
738.52	28.929
738.83	27.170
739.15	26.923
739.46	27.737
739.78	28.472
740.09	27.385
740.41	26.129
740.72	23.345
741.04	27.778
741.35	26.667
741.66	33.333
741.98	25.943
742.29	35.885
742.61	37.931
742.92	33.937
743.23	39.744
743.55	32.400
743.86	29.825
744.18	34.956
744.49	28.708
744.80	36.620
745.12	34.545
745.43	37.004
745.74	30.180
746.06	31.651
746.37	35.426
746.68	35.747
747.00	34.722
747.31	32.381
747.62	29.646
747.94	30.837
748.25	27.234
748.56	35.242
748.88	30.198
749.19	35.000
749.50	26.047
749.82	28.862
750.13	26.531
750.44	24.088
750.75	28.772
751.07	28.939
751.38	26.829
751.69	24.910
752.01	28.947
752.32	26.354
752.63	30.496
752.94	27.869
753.26	32.400
753.57	22.764
753.88	30.078
754.19	27.857
754.51	33.333
754.82	24.549
755.13	27.547
755.44	30.451
755.75	28.832
756.07	25.532
756.38	26.642
756.69	27.517
757.00	23.952
757.31	24.036
757.63	24.269
757.94	23.056
758.25	21.569
758.56	21.235
758.87	23.118
759.18	25.455
759.50	23.824
759.81	25.545
760.12	19.687
760.43	24.928
760.74	24.728
761.05	21.469
761.36	23.262
761.67	24.148
761.99	23.602
762.30	25.347
762.61	26.336
762.92	28.906
763.23	29.832
763.54	26.400
763.85	28.906
764.16	30.769
764.47	31.939
764.78	26.148
765.10	21.203
765.41	25.369
765.72	22.455
766.03	26.332
766.34	22.000
766.65	30.213
766.96	29.060
767.27	30.457
767.58	30.208
767.89	34.211
768.20	34.483
768.51	29.949
768.82	32.110
769.13	26.829
769.44	26.316
769.75	29.185
770.06	27.064
770.37	34.389
770.68	29.630
770.99	32.444
771.30	25.820
771.61	30.045
771.92	27.049
772.23	35.294
772.54	34.872
772.85	37.173
773.16	36.170
773.47	35.870
773.78	41.624
774.09	33.929
774.39	43.275
774.70	46.296
775.01	43.478
775.32	49.020
775.63	42.763
775.94	41.007
776.25	47.244
776.56	49.254
776.87	39.344
777.18	42.188
777.48	56.489
777.79	48.485
778.10	49.630
778.41	44.643
778.72	41.606
779.03	38.255
779.34	42.953
779.65	29.730
779.95	42.331
780.26	38.562
780.57	45.517
780.88	42.969
781.19	48.120
781.50	46.622
781.80	41.509
782.11	31.638
782.42	33.544
782.73	34.969
783.04	44.595
783.34	41.549
783.65	54.110
783.96	47.015
784.27	33.566
784.57	40.288
784.88	40.741
785.19	50.000
785.50	53.774
785.81	45.522
786.11	50.820
786.42	51.163
786.73	48.673
787.04	56.604
787.34	56.250
787.65	52.000
787.96	57.658
788.26	42.149
788.57	50.847
788.88	52.066
789.19	43.056
789.49	53.788
789.80	42.748
790.11	52.381
790.41	50.495
790.72	54.217
791.03	52.174
791.33	51.163
791.64	57.732
791.95	67.327
792.25	60.000
792.56	58.442
792.87	67.949
793.17	79.747
793.48	71.264
793.79	56.322
794.09	60.227
794.40	44.538
794.70	41.912
795.01	40.000
795.32	37.410
795.62	34.646
795.93	44.828
796.23	53.097
796.54	52.941
796.85	77.027
797.15	78.873
797.46	69.697
797.76	75.904
798.07	67.089
798.37	80.000
798.68	68.182
798.99	67.606
799.29	74.026
799.60	51.136
799.90	72.603
800.21	68.657
800.51	89.655
800.82	78.947
801.12	93.443
801.43	86.364
801.73	75.676
802.04	92.063
802.34	74.074
802.65	79.687
802.95	77.966
803.26	82.813
803.56	74.286
803.87	70.769
804.17	91.176
804.48	111.111
804.78	84.483
805.09	77.941
805.39	90.385
805.70	94.643
806.00	90.164
806.30	59.091
806.61	58.537
806.91	58.228
807.22	57.895
807.52	46.269
807.83	69.014
808.13	85.938
808.43	98.333
808.74	56.579
809.04	81.159
809.35	88.060
809.65	71.053
809.95	100.000
810.26	84.746
810.56	95.238
810.86	109.091
811.17	121.429
811.47	76.667
811.77	81.481
812.08	94.545
812.38	130.000
812.69	147.222
812.99	118.182
813.29	106.122
813.59	80.952
813.90	108.163
814.20	90.909
814.50	73.846
814.81	92.647
815.11	112.245
815.41	75.410
815.72	111.905
816.02	110.909
816.32	126.190
816.62	115.000
816.93	117.073
817.23	114.286
817.53	115.909
817.84	133.333
818.14	100.000
818.44	84.444
818.74	123.529
819.04	120.000
819.35	111.429
819.65	120.588
819.95	125.000
820.25	190.000
820.56	133.333
820.86	113.636
821.16	137.209
821.46	123.077
821.76	130.000
822.07	134.286
822.37	102.500
822.67	136.364
822.97	86.275
823.27	171.429
823.57	127.027
823.88	150.000
824.18	143.333
824.48	119.048
824.78	204.000
825.08	158.333
825.38	140.541
825.69	112.195
825.99	220.833
826.29	144.828
826.59	136.842
826.89	128.947
827.19	170.588
827.49	145.161
827.79	143.182
828.09	138.636
828.39	97.872
828.70	112.245
829.00	159.259
829.30	135.484
829.60	115.000
829.90	260.000
830.20	167.857
830.50	173.913
830.80	221.739
831.10	173.333
831.40	150.000
831.70	173.913
832.00	211.538
832.30	177.778
832.60	287.500
832.90	166.667
833.20	350.000
833.50	196.774
833.80	158.621
834.10	196.875
834.40	173.077
834.70	244.444
835.00	261.905
835.30	122.857
835.60	292.308
835.90	141.379
836.20	228.571
836.50	165.517
836.80	136.000
837.10	158.333
837.40	228.571
837.70	270.588
838.00	166.667
838.30	209.524
838.60	266.667
838.90	200.000
839.19	280.000
839.49	314.286
839.79	285.000
840.09	235.000
840.39	238.095
840.69	208.696
840.99	261.111
841.29	440.000
841.59	283.333
841.88	268.750
842.18	179.310
842.48	242.857
842.78	170.000
843.08	239.130
843.38	134.375
843.68	683.333
843.97	188.462
844.27	182.759
844.57	247.619
844.87	325.000
845.17	203.704
845.47	1633.333
845.76	400.000
846.06	311.765
846.36	412.500
846.66	321.429
846.96	231.250
847.25	409.091
847.55	400.000
847.85	217.391
848.15	460.000
848.44	307.143
848.74	194.444
849.04	247.059
849.34	450.000
849.63	242.105
849.93	400.000
850.23	840.000
850.53	385.714
850.82	1550.000
851.12	-3300.000
851.42	2800.000
851.71	260.000
852.01	-1300.000
852.31	179.167
852.61	1433.333
852.90	233.333
853.20	220.000
853.50	305.882
853.79	185.714
854.09	179.167
854.39	256.250
854.68	148.649
854.98	151.613
855.28	133.333
855.57	200.000
855.87	222.222
856.17	194.737
856.46	193.333
856.76	276.471
857.05	175.862
857.35	216.667
857.65	260.000
857.94	213.043
858.24	196.154
858.53	235.000
858.83	218.182
859.13	280.000
859.42	0.000
859.72	511.111
860.01	445.455
860.31	245.455
860.60	278.947
860.90	169.565
861.20	488.889
861.49	433.333
861.79	-3900.000
862.08	587.500
862.38	300.000
862.67	338.462
862.97	323.529
863.26	533.333
863.56	277.778
863.85	383.333
864.15	462.500
864.44	346.667
864.74	716.667
865.03	537.500
865.33	263.158
865.62	336.364
865.92	376.923
866.21	316.667
866.51	0.000
866.80	354.545
867.10	1100.000
867.39	392.308
867.69	400.000
867.98	263.158
868.27	400.000
868.57	300.000
868.86	-3300.000
869.16	287.500
869.45	1900.000
869.75	-2500.000
870.04	316.667
870.33	614.286
870.63	1075.000
870.92	2600.000
871.22	642.857
871.51	288.235
871.80	238.095
872.10	335.714
>>>>>End Processed Spectral Data<<<<<
