SpectraSuite Data File
++++++++++++++++++++++++++++++++++++
Date: Wed May 13 15:59:39 PDT 2015
User: schluterlab
Dark Spectrum Present: Yes
Reference Spectrum Present: Yes
Number of Sampled Component Spectra: 1
Spectrometers: USB2E3373
Integration Time (usec): 3000 (USB2E3373)
Spectra Averaged: 3 (USB2E3373)
Boxcar Smoothing: 0 (USB2E3373)
Correct for Electrical Dark: No (USB2E3373)
Strobe/Lamp Enabled: No (USB2E3373)
Correct for Detector Non-linearity: No (USB2E3373)
Correct for Stray Light: No (USB2E3373)
Number of Pixels in Processed Spectrum: 2048
>>>>>Begin Processed Spectral Data<<<<<
178.53	0.000
178.91	-75.000
179.29	-275.000
179.67	5.556
180.04	-200.000
180.42	200.000
180.80	140.000
181.18	-75.000
181.56	114.286
181.94	0.000
182.31	-42.857
182.69	300.000
183.07	-162.500
183.45	-77.778
183.83	172.727
184.20	-60.000
184.58	-100.000
184.96	1100.000
185.34	-40.000
185.72	-125.000
186.09	-500.000
186.47	900.000
186.85	350.000
187.23	1400.000
187.61	-533.333
187.98	575.000
188.36	190.909
188.74	227.273
189.12	-60.000
189.49	140.000
189.87	-900.000
190.25	-225.000
190.63	142.857
191.00	69.231
191.38	100.000
191.76	-75.000
192.14	300.000
192.51	137.500
192.89	333.333
193.27	50.000
193.65	-0.000
194.02	110.000
194.40	420.000
194.78	230.000
195.15	225.000
195.53	190.000
195.91	-550.000
196.29	131.250
196.66	57.895
197.04	-20.000
197.42	0.000
197.79	200.000
198.17	-1000.000
198.55	214.286
198.92	187.500
199.30	100.000
199.68	0.000
200.05	127.778
200.43	228.571
200.81	800.000
201.18	300.000
201.56	-566.667
201.94	166.667
202.31	44.444
202.69	50.000
203.07	90.000
203.44	0.000
203.82	375.000
204.19	185.714
204.57	128.571
204.95	162.500
205.32	300.000
205.70	90.909
206.08	142.857
206.45	800.000
206.83	118.750
207.20	216.667
207.58	20.000
207.96	88.889
208.33	237.500
208.71	-116.667
209.08	271.429
209.46	166.667
209.84	100.000
210.21	-233.333
210.59	275.000
210.96	75.000
211.34	650.000
211.71	290.000
212.09	100.000
212.46	0.000
212.84	200.000
213.22	325.000
213.59	700.000
213.97	216.667
214.34	114.286
214.72	245.455
215.09	260.000
215.47	-250.000
215.84	-550.000
216.22	433.333
216.59	157.143
216.97	375.000
217.34	100.000
217.72	-50.000
218.09	0.000
218.47	-200.000
218.84	177.778
219.22	214.286
219.59	300.000
219.97	-14.286
220.34	20.000
220.72	-333.333
221.09	121.429
221.47	500.000
221.84	-266.667
222.22	0.000
222.59	400.000
222.97	-550.000
223.34	300.000
223.72	161.538
224.09	240.000
224.46	300.000
224.84	-900.000
225.21	-200.000
225.59	-400.000
225.96	240.000
226.34	95.000
226.71	750.000
227.08	212.500
227.46	150.000
227.83	50.000
228.21	-500.000
228.58	233.333
228.95	-450.000
229.33	-650.000
229.70	400.000
230.08	185.714
230.45	-80.000
230.82	75.000
231.20	50.000
231.57	157.143
231.95	91.667
232.32	72.727
232.69	18.182
233.07	57.143
233.44	92.308
233.81	-166.667
234.19	63.158
234.56	83.333
234.93	41.667
235.31	81.818
235.68	61.538
236.05	85.714
236.43	21.212
236.80	10.526
237.17	800.000
237.55	14.286
237.92	53.571
238.29	19.048
238.67	51.613
239.04	51.724
239.41	41.667
239.79	32.609
240.16	40.476
240.53	40.909
240.91	33.333
241.28	20.000
241.65	30.000
242.02	27.536
242.40	19.355
242.77	-1.667
243.14	21.505
243.51	22.472
243.89	15.294
244.26	17.778
244.63	13.978
245.00	1.064
245.38	14.851
245.75	14.019
246.12	4.587
246.49	28.467
246.87	21.600
247.24	16.923
247.61	15.000
247.98	17.647
248.36	3.378
248.73	7.006
249.10	15.287
249.47	5.085
249.84	18.182
250.22	14.439
250.59	5.325
250.96	15.657
251.33	14.218
251.70	9.406
252.08	12.857
252.45	8.072
252.82	6.087
253.19	9.787
253.56	11.765
253.94	16.183
254.31	14.453
254.68	10.769
255.05	11.439
255.42	10.976
255.79	10.662
256.16	10.830
256.54	6.360
256.91	9.253
257.28	8.633
257.65	8.581
258.02	9.317
258.39	11.672
258.76	10.368
259.14	10.714
259.51	9.119
259.88	10.559
260.25	9.970
260.62	7.803
260.99	9.317
261.36	8.709
261.73	9.742
262.10	6.686
262.47	11.549
262.85	8.635
263.22	8.262
263.59	10.541
263.96	10.714
264.33	10.183
264.70	8.421
265.07	8.184
265.44	8.333
265.81	9.489
266.18	8.291
266.55	8.293
266.92	8.108
267.29	10.185
267.66	9.862
268.03	8.182
268.40	8.645
268.77	6.921
269.14	6.982
269.51	8.126
269.88	7.925
270.25	7.449
270.62	6.517
270.99	10.538
271.36	7.725
271.73	9.346
272.10	8.043
272.47	10.538
272.84	10.173
273.21	9.015
273.58	5.459
273.95	5.031
274.32	8.678
274.69	7.066
275.06	7.480
275.43	8.723
275.80	8.016
276.17	9.369
276.54	7.692
276.91	6.719
277.28	6.836
277.65	10.058
278.02	7.867
278.39	9.375
278.76	8.000
279.13	8.113
279.50	9.497
279.87	8.167
280.23	7.585
280.60	8.317
280.97	8.872
281.34	11.150
281.71	8.727
282.08	8.445
282.45	6.909
282.82	9.769
283.19	7.130
283.56	6.491
283.92	7.614
284.29	7.231
284.66	7.623
285.03	5.425
285.40	7.042
285.77	7.407
286.14	7.427
286.51	7.167
286.87	8.376
287.24	7.003
287.61	6.902
287.98	7.955
288.35	7.448
288.72	6.854
289.08	8.138
289.45	7.578
289.82	7.642
290.19	6.436
290.56	6.126
290.93	3.474
291.29	6.595
291.66	6.637
292.03	8.576
292.40	8.811
292.77	7.988
293.13	5.970
293.50	6.122
293.87	6.667
294.24	5.037
294.60	5.095
294.97	5.814
295.34	6.770
295.71	5.114
296.08	4.843
296.44	6.465
296.81	6.473
297.18	9.214
297.55	5.145
297.91	5.409
298.28	6.158
298.65	6.789
299.02	6.456
299.38	6.507
299.75	3.908
300.12	4.725
300.48	4.250
300.85	6.042
301.22	6.115
301.59	5.556
301.95	5.668
302.32	5.648
302.69	6.691
303.05	6.182
303.42	4.938
303.79	6.569
304.15	5.944
304.52	4.056
304.89	5.459
305.25	4.988
305.62	5.436
305.99	4.486
306.35	5.034
306.72	5.493
307.09	6.104
307.45	6.644
307.82	5.246
308.19	5.850
308.55	7.012
308.92	5.263
309.29	6.019
309.65	4.984
310.02	5.603
310.38	6.237
310.75	6.441
311.12	5.527
311.48	5.538
311.85	7.128
312.22	4.995
312.58	5.613
312.95	5.491
313.31	4.951
313.68	5.925
314.05	7.988
314.41	6.332
314.78	6.042
315.14	5.660
315.51	4.634
315.87	5.842
316.24	5.660
316.61	5.458
316.97	6.556
317.34	4.795
317.70	6.119
318.07	6.545
318.43	5.088
318.80	5.998
319.16	6.121
319.53	5.816
319.89	7.333
320.26	6.500
320.62	5.456
320.99	6.667
321.35	5.960
321.72	7.084
322.08	6.614
322.45	7.662
322.81	6.783
323.18	7.514
323.54	6.679
323.91	7.075
324.27	6.119
324.64	6.244
325.00	5.771
325.37	7.097
325.73	7.092
326.10	4.854
326.46	6.272
326.83	7.248
327.19	7.173
327.56	6.533
327.92	6.387
328.29	7.276
328.65	6.814
329.01	6.949
329.38	5.458
329.74	5.817
330.11	6.786
330.47	6.244
330.84	8.180
331.20	6.193
331.56	6.514
331.93	5.463
332.29	5.501
332.66	6.814
333.02	6.216
333.38	6.865
333.75	7.398
334.11	6.406
334.48	5.945
334.84	6.342
335.20	7.273
335.57	5.802
335.93	6.161
336.29	5.769
336.66	6.041
337.02	5.792
337.38	7.037
337.75	5.971
338.11	6.625
338.47	5.433
338.84	5.408
339.20	5.138
339.56	6.296
339.93	5.727
340.29	5.888
340.65	6.328
341.02	6.545
341.38	6.139
341.74	6.228
342.11	6.550
342.47	6.167
342.83	6.079
343.20	6.234
343.56	6.318
343.92	5.526
344.28	5.782
344.65	6.879
345.01	5.387
345.37	5.317
345.73	6.345
346.10	6.309
346.46	5.763
346.82	5.437
347.19	6.015
347.55	5.911
347.91	6.877
348.27	6.327
348.63	7.441
349.00	6.230
349.36	6.158
349.72	6.335
350.08	5.673
350.45	6.021
350.81	6.093
351.17	5.673
351.53	5.979
351.89	5.116
352.26	5.998
352.62	5.854
352.98	7.131
353.34	5.588
353.70	5.237
354.07	5.726
354.43	4.841
354.79	4.907
355.15	5.188
355.51	5.995
355.87	5.878
356.24	6.352
356.60	5.854
356.96	5.471
357.32	5.151
357.68	5.669
358.04	5.305
358.40	6.334
358.77	5.790
359.13	4.736
359.49	6.196
359.85	3.968
360.21	4.785
360.57	6.226
360.93	5.308
361.29	5.518
361.66	5.263
362.02	6.493
362.38	5.247
362.74	5.655
363.10	5.699
363.46	5.723
363.82	5.064
364.18	6.021
364.54	6.315
364.90	6.586
365.26	5.294
365.62	5.332
365.98	5.259
366.35	4.728
366.71	5.206
367.07	5.462
367.43	5.878
367.79	5.639
368.15	6.537
368.51	5.305
368.87	5.068
369.23	4.243
369.59	6.010
369.95	4.706
370.31	5.698
370.67	5.652
371.03	6.442
371.39	6.195
371.75	5.588
372.11	6.543
372.47	6.378
372.83	6.412
373.19	5.275
373.55	5.543
373.91	6.480
374.27	5.223
374.63	4.655
374.99	6.709
375.35	5.164
375.71	6.306
376.07	6.241
376.42	6.602
376.78	6.627
377.14	6.377
377.50	6.093
377.86	4.588
378.22	6.827
378.58	5.138
378.94	5.468
379.30	5.598
379.66	5.774
380.02	5.651
380.38	5.829
380.74	6.002
381.09	6.479
381.45	6.269
381.81	6.204
382.17	6.624
382.53	6.541
382.89	5.864
383.25	5.816
383.61	6.753
383.97	5.691
384.32	6.800
384.68	5.390
385.04	5.470
385.40	5.511
385.76	5.897
386.12	6.153
386.48	6.167
386.83	5.837
387.19	6.988
387.55	6.555
387.91	6.348
388.27	5.763
388.62	6.761
388.98	6.695
389.34	6.446
389.70	6.009
390.06	6.147
390.42	6.096
390.77	7.125
391.13	6.254
391.49	6.282
391.85	6.174
392.20	5.615
392.56	6.250
392.92	6.710
393.28	5.503
393.64	7.194
393.99	6.842
394.35	6.079
394.71	7.340
395.07	5.981
395.42	6.366
395.78	6.679
396.14	5.773
396.50	7.018
396.85	6.484
397.21	5.857
397.57	6.200
397.92	6.010
398.28	5.942
398.64	7.109
399.00	6.715
399.35	6.204
399.71	6.481
400.07	7.037
400.42	6.135
400.78	6.514
401.14	5.732
401.49	6.209
401.85	5.324
402.21	5.928
402.57	5.922
402.92	5.801
403.28	6.433
403.63	6.188
403.99	6.306
404.35	6.242
404.70	5.815
405.06	6.232
405.42	6.051
405.77	6.400
406.13	6.038
406.49	6.328
406.84	6.556
407.20	6.028
407.55	5.871
407.91	6.467
408.27	5.680
408.62	5.960
408.98	6.066
409.34	6.150
409.69	6.129
410.05	6.258
410.40	6.177
410.76	6.332
411.11	6.031
411.47	5.751
411.83	6.659
412.18	6.432
412.54	6.102
412.89	6.265
413.25	5.667
413.60	6.547
413.96	5.343
414.31	6.318
414.67	6.274
415.03	5.894
415.38	6.379
415.74	6.174
416.09	5.617
416.45	5.823
416.80	5.750
417.16	6.501
417.51	6.238
417.87	5.523
418.22	6.562
418.58	6.520
418.93	6.572
419.29	6.302
419.64	7.242
420.00	6.463
420.35	6.203
420.71	6.216
421.06	6.325
421.42	6.667
421.77	6.895
422.12	5.222
422.48	5.127
422.83	6.057
423.19	6.188
423.54	5.920
423.90	6.783
424.25	6.756
424.61	5.833
424.96	6.122
425.31	5.980
425.67	6.348
426.02	6.057
426.38	7.265
426.73	5.968
427.09	6.444
427.44	6.038
427.79	5.865
428.15	6.845
428.50	6.027
428.85	6.675
429.21	6.019
429.56	5.910
429.92	5.989
430.27	6.207
430.62	5.940
430.98	6.072
431.33	6.289
431.68	6.283
432.04	5.911
432.39	6.568
432.74	6.344
433.10	5.999
433.45	7.055
433.80	6.541
434.16	6.303
434.51	6.368
434.86	6.784
435.22	6.392
435.57	6.079
435.92	5.676
436.28	6.109
436.63	7.395
436.98	6.010
437.34	6.440
437.69	6.126
438.04	6.071
438.39	5.910
438.75	6.856
439.10	6.313
439.45	6.434
439.81	5.680
440.16	6.324
440.51	6.034
440.86	7.122
441.22	5.895
441.57	6.635
441.92	6.448
442.27	6.620
442.63	6.214
442.98	6.366
443.33	6.196
443.68	6.402
444.03	6.589
444.39	5.648
444.74	6.602
445.09	6.307
445.44	6.452
445.79	6.630
446.15	7.305
446.50	6.139
446.85	6.115
447.20	6.782
447.55	6.142
447.91	7.005
448.26	6.511
448.61	6.727
448.96	6.423
449.31	6.637
449.66	6.415
450.02	5.682
450.37	6.122
450.72	6.261
451.07	6.033
451.42	6.565
451.77	6.753
452.12	6.813
452.47	6.157
452.83	6.993
453.18	6.724
453.53	6.988
453.88	6.497
454.23	6.934
454.58	7.268
454.93	6.929
455.28	6.671
455.63	7.342
455.98	6.667
456.34	6.721
456.69	6.575
457.04	6.440
457.39	6.604
457.74	6.326
458.09	6.843
458.44	6.328
458.79	5.857
459.14	7.111
459.49	7.122
459.84	6.316
460.19	6.305
460.54	6.597
460.89	6.363
461.24	6.740
461.59	6.798
461.94	6.720
462.29	6.766
462.64	7.211
462.99	5.921
463.34	7.467
463.69	7.255
464.04	7.362
464.39	7.304
464.74	6.477
465.09	6.092
465.44	6.759
465.79	6.376
466.14	6.349
466.49	6.340
466.84	6.655
467.19	6.457
467.54	7.063
467.89	6.603
468.24	7.853
468.59	7.387
468.94	5.620
469.29	6.491
469.64	7.898
469.99	6.022
470.34	7.001
470.68	7.328
471.03	6.803
471.38	7.019
471.73	6.729
472.08	7.105
472.43	6.658
472.78	7.505
473.13	7.445
473.48	6.742
473.83	6.829
474.17	6.845
474.52	7.444
474.87	7.005
475.22	7.081
475.57	6.717
475.92	7.010
476.27	6.652
476.61	6.674
476.96	6.047
477.31	6.489
477.66	6.729
478.01	6.900
478.36	6.875
478.70	6.334
479.05	6.550
479.40	6.448
479.75	6.507
480.10	6.610
480.45	6.473
480.79	6.641
481.14	6.409
481.49	7.119
481.84	6.356
482.19	7.133
482.53	6.743
482.88	6.840
483.23	6.776
483.58	6.824
483.92	6.654
484.27	5.664
484.62	6.638
484.97	6.543
485.31	6.712
485.66	6.244
486.01	5.637
486.36	5.817
486.70	5.802
487.05	5.954
487.40	6.052
487.75	6.380
488.09	6.551
488.44	6.171
488.79	6.546
489.13	6.608
489.48	6.525
489.83	6.388
490.17	6.181
490.52	6.200
490.87	6.920
491.22	6.094
491.56	6.014
491.91	6.049
492.26	6.523
492.60	6.820
492.95	5.659
493.30	6.121
493.64	6.813
493.99	6.546
494.34	7.262
494.68	6.914
495.03	6.955
495.37	6.840
495.72	6.579
496.07	6.775
496.41	6.416
496.76	6.860
497.11	6.799
497.45	6.893
497.80	6.478
498.14	5.845
498.49	6.195
498.84	6.903
499.18	6.048
499.53	6.743
499.87	6.058
500.22	6.783
500.56	6.990
500.91	6.635
501.26	6.496
501.60	6.597
501.95	6.233
502.29	6.701
502.64	6.844
502.98	6.966
503.33	5.941
503.67	6.682
504.02	6.642
504.36	6.364
504.71	6.937
505.06	6.747
505.40	6.077
505.75	7.281
506.09	6.900
506.44	6.364
506.78	6.576
507.13	6.411
507.47	6.768
507.82	6.940
508.16	6.434
508.51	6.646
508.85	6.653
509.19	6.531
509.54	7.194
509.88	6.131
510.23	5.964
510.57	7.018
510.92	7.043
511.26	6.835
511.61	6.795
511.95	6.785
512.30	6.681
512.64	6.663
512.98	7.610
513.33	7.655
513.67	6.457
514.02	6.818
514.36	6.718
514.70	6.586
515.05	6.470
515.39	7.515
515.74	6.813
516.08	7.490
516.42	7.214
516.77	7.469
517.11	7.214
517.46	5.982
517.80	6.969
518.14	6.948
518.49	7.176
518.83	7.159
519.17	7.102
519.52	7.301
519.86	7.188
520.20	7.514
520.55	7.780
520.89	6.813
521.23	6.815
521.58	6.843
521.92	6.981
522.26	6.467
522.61	7.103
522.95	7.305
523.29	6.573
523.64	7.317
523.98	6.593
524.32	7.117
524.66	7.336
525.01	6.740
525.35	6.753
525.69	7.328
526.04	7.352
526.38	7.383
526.72	6.994
527.06	7.156
527.41	6.374
527.75	7.267
528.09	7.001
528.43	7.202
528.78	7.498
529.12	7.333
529.46	7.900
529.80	7.364
530.15	7.788
530.49	7.446
530.83	6.835
531.17	7.702
531.51	7.069
531.86	6.452
532.20	7.562
532.54	7.559
532.88	7.895
533.22	7.245
533.57	8.025
533.91	6.683
534.25	6.987
534.59	6.467
534.93	6.960
535.27	6.820
535.62	8.059
535.96	7.345
536.30	6.484
536.64	7.019
536.98	7.167
537.32	6.583
537.66	7.133
538.01	7.439
538.35	7.434
538.69	8.168
539.03	6.758
539.37	6.134
539.71	6.546
540.05	6.536
540.39	7.243
540.73	6.662
541.07	7.657
541.42	7.567
541.76	8.452
542.10	7.374
542.44	6.755
542.78	8.169
543.12	6.846
543.46	7.344
543.80	7.807
544.14	7.381
544.48	6.921
544.82	6.928
545.16	7.222
545.50	6.877
545.84	6.720
546.18	6.667
546.52	7.915
546.86	6.873
547.20	7.485
547.54	7.882
547.88	7.972
548.22	6.849
548.56	7.484
548.90	6.274
549.24	6.532
549.58	7.026
549.92	7.692
550.26	7.528
550.60	6.570
550.94	8.028
551.28	5.999
551.62	6.758
551.96	6.737
552.30	7.372
552.64	7.505
552.98	7.458
553.32	7.080
553.66	8.862
554.00	8.099
554.34	7.384
554.68	7.725
555.02	6.841
555.36	6.889
555.69	6.495
556.03	7.537
556.37	6.685
556.71	7.572
557.05	7.073
557.39	7.348
557.73	7.410
558.07	6.672
558.41	6.585
558.75	6.760
559.08	7.233
559.42	7.105
559.76	7.426
560.10	7.209
560.44	6.569
560.78	6.387
561.12	7.058
561.45	8.018
561.79	7.449
562.13	7.042
562.47	7.377
562.81	6.834
563.15	7.492
563.48	7.759
563.82	6.784
564.16	6.606
564.50	6.836
564.84	7.269
565.17	6.950
565.51	6.454
565.85	7.741
566.19	6.888
566.52	6.650
566.86	7.052
567.20	6.781
567.54	6.735
567.88	6.735
568.21	6.931
568.55	6.320
568.89	6.518
569.23	6.595
569.56	6.640
569.90	6.528
570.24	6.459
570.57	6.290
570.91	6.432
571.25	5.713
571.59	6.598
571.92	6.308
572.26	6.239
572.60	6.306
572.93	6.357
573.27	6.507
573.61	6.086
573.95	6.279
574.28	6.357
574.62	5.977
574.96	6.141
575.29	6.038
575.63	6.352
575.97	6.274
576.30	6.320
576.64	6.040
576.98	6.223
577.31	6.030
577.65	6.037
577.98	5.770
578.32	5.858
578.66	6.205
578.99	6.254
579.33	6.124
579.67	5.960
580.00	6.138
580.34	6.312
580.67	5.909
581.01	6.409
581.35	6.013
581.68	6.212
582.02	5.842
582.35	6.148
582.69	5.988
583.02	6.215
583.36	6.041
583.70	6.144
584.03	6.479
584.37	6.561
584.70	6.165
585.04	6.238
585.37	6.454
585.71	6.391
586.04	6.451
586.38	6.426
586.72	6.159
587.05	6.221
587.39	6.016
587.72	6.210
588.06	6.083
588.39	6.145
588.73	6.542
589.06	6.295
589.40	6.498
589.73	6.054
590.07	6.299
590.40	6.577
590.73	6.596
591.07	6.960
591.40	6.748
591.74	6.450
592.07	6.632
592.41	6.490
592.74	6.330
593.08	6.962
593.41	6.675
593.75	6.277
594.08	6.202
594.41	7.034
594.75	6.137
595.08	6.764
595.42	6.690
595.75	6.624
596.09	6.947
596.42	7.033
596.75	7.176
597.09	7.273
597.42	6.745
597.75	6.641
598.09	7.609
598.42	7.045
598.76	6.364
599.09	6.651
599.42	6.405
599.76	7.321
600.09	6.047
600.42	6.172
600.76	6.357
601.09	6.266
601.42	5.936
601.76	6.300
602.09	6.798
602.42	6.688
602.76	6.691
603.09	6.491
603.42	6.560
603.76	6.707
604.09	6.979
604.42	6.523
604.76	7.170
605.09	6.684
605.42	6.413
605.75	6.623
606.09	6.466
606.42	6.334
606.75	6.968
607.09	7.200
607.42	6.504
607.75	7.131
608.08	6.426
608.42	6.544
608.75	6.537
609.08	6.337
609.41	6.854
609.75	6.717
610.08	6.645
610.41	6.564
610.74	6.764
611.07	6.176
611.41	6.575
611.74	7.441
612.07	6.884
612.40	6.873
612.73	7.000
613.07	6.735
613.40	7.109
613.73	6.188
614.06	6.989
614.39	6.660
614.72	7.263
615.06	6.670
615.39	6.263
615.72	6.953
616.05	7.071
616.38	6.726
616.71	7.007
617.05	7.597
617.38	6.554
617.71	6.306
618.04	7.632
618.37	6.742
618.70	7.156
619.03	7.961
619.36	7.468
619.69	6.549
620.03	7.280
620.36	7.420
620.69	7.603
621.02	7.375
621.35	7.831
621.68	6.464
622.01	7.585
622.34	7.867
622.67	6.920
623.00	6.750
623.33	6.719
623.66	7.076
623.99	7.143
624.32	6.562
624.65	6.497
624.99	5.807
625.32	7.169
625.65	6.912
625.98	7.686
626.31	7.698
626.64	7.265
626.97	7.398
627.30	7.149
627.63	7.711
627.96	7.738
628.29	8.574
628.62	7.411
628.95	8.302
629.28	7.391
629.61	8.066
629.94	6.571
630.26	7.340
630.59	8.198
630.92	6.705
631.25	7.305
631.58	8.208
631.91	8.316
632.24	6.646
632.57	7.765
632.90	7.675
633.23	6.376
633.56	6.780
633.89	7.475
634.22	8.059
634.55	8.402
634.88	8.383
635.20	8.841
635.53	7.349
635.86	6.931
636.19	6.588
636.52	6.920
636.85	7.675
637.18	5.760
637.51	8.274
637.83	6.782
638.16	7.801
638.49	7.683
638.82	9.229
639.15	8.125
639.48	8.105
639.81	8.043
640.13	8.854
640.46	8.993
640.79	9.247
641.12	6.190
641.45	7.402
641.77	7.806
642.10	7.602
642.43	7.808
642.76	7.276
643.09	7.975
643.41	8.042
643.74	9.568
644.07	7.927
644.40	10.583
644.73	7.874
645.05	8.558
645.38	8.373
645.71	7.729
646.04	8.306
646.36	9.349
646.69	10.201
647.02	9.524
647.35	9.794
647.67	8.850
648.00	11.220
648.33	7.591
648.66	9.545
648.98	9.745
649.31	6.577
649.64	8.969
649.96	9.240
650.29	7.899
650.62	7.929
650.94	8.104
651.27	10.811
651.60	10.483
651.92	9.744
652.25	7.166
652.58	9.190
652.90	8.847
653.23	7.858
653.56	8.661
653.88	8.082
654.21	10.269
654.54	7.261
654.86	8.567
655.19	8.514
655.52	5.977
655.84	5.313
656.17	6.309
656.49	8.528
656.82	8.819
657.15	6.945
657.47	5.346
657.80	4.216
658.13	4.311
658.45	6.839
658.78	6.984
659.10	7.373
659.43	8.237
659.75	7.816
660.08	8.797
660.41	8.473
660.73	9.657
661.06	7.962
661.38	8.727
661.71	9.231
662.03	7.890
662.36	8.350
662.68	8.032
663.01	9.091
663.33	7.219
663.66	8.403
663.98	8.639
664.31	10.714
664.63	6.883
664.96	6.439
665.28	9.836
665.61	9.357
665.93	8.451
666.26	7.099
666.58	9.205
666.91	10.148
667.23	8.539
667.56	9.071
667.88	11.752
668.21	7.463
668.53	7.158
668.86	8.009
669.18	10.448
669.50	9.565
669.83	10.675
670.15	8.222
670.48	6.972
670.80	10.345
671.13	11.890
671.45	8.085
671.77	8.147
672.10	9.242
672.42	8.304
672.75	8.292
673.07	6.514
673.39	7.052
673.72	6.250
674.04	6.471
674.37	10.680
674.69	7.157
675.01	7.950
675.34	9.651
675.66	9.263
675.98	11.405
676.31	8.613
676.63	9.130
676.95	10.692
677.28	5.607
677.60	5.934
677.92	10.127
678.25	10.472
678.57	9.960
678.89	6.814
679.22	8.841
679.54	7.824
679.86	9.541
680.18	8.229
680.51	8.156
680.83	9.431
681.15	7.925
681.48	12.476
681.80	8.317
682.12	7.088
682.44	7.544
682.77	8.758
683.09	11.588
683.41	8.204
683.73	8.389
684.06	11.157
684.38	7.045
684.70	7.558
685.02	7.129
685.34	8.791
685.67	7.343
685.99	8.419
686.31	7.509
686.63	9.011
686.96	7.143
687.28	8.845
687.60	9.783
687.92	7.678
688.24	7.034
688.56	8.835
688.89	12.033
689.21	11.572
689.53	7.307
689.85	7.095
690.17	8.282
690.49	10.828
690.82	8.178
691.14	7.366
691.46	7.595
691.78	8.233
692.10	7.231
692.42	9.780
692.74	5.809
693.06	8.511
693.39	10.062
693.71	7.205
694.03	10.316
694.35	9.524
694.67	8.696
694.99	10.244
695.31	7.843
695.63	10.287
695.95	9.046
696.27	5.838
696.59	7.772
696.91	8.549
697.23	5.869
697.56	13.006
697.88	6.748
698.20	6.667
698.52	6.667
698.84	9.577
699.16	8.525
699.48	7.838
699.80	8.213
700.12	10.909
700.44	7.958
700.76	7.182
701.08	7.184
701.40	8.659
701.72	10.787
702.04	12.216
702.36	9.065
702.68	8.215
703.00	10.249
703.32	7.181
703.64	6.166
703.96	8.635
704.28	6.105
704.60	9.677
704.91	9.199
705.23	9.384
705.55	8.638
705.87	9.635
706.19	8.127
706.51	8.723
706.83	10.606
707.15	9.244
707.47	9.091
707.79	8.354
708.11	8.676
708.43	10.714
708.74	8.673
709.06	10.649
709.38	9.711
709.70	10.465
710.02	10.089
710.34	9.697
710.66	10.149
710.98	14.205
711.29	9.012
711.61	10.914
711.93	7.692
712.25	13.505
712.57	6.618
712.89	10.035
713.20	9.119
713.52	5.921
713.84	6.646
714.16	7.622
714.48	9.195
714.80	14.590
715.11	9.798
715.43	8.902
715.75	10.145
716.07	9.265
716.39	10.658
716.70	9.302
717.02	12.590
717.34	12.721
717.66	10.821
717.97	11.554
718.29	8.148
718.61	9.489
718.93	9.559
719.24	7.266
719.56	8.814
719.88	10.508
720.20	12.162
720.51	10.105
720.83	11.896
721.15	7.463
721.46	10.284
721.78	9.677
722.10	8.679
722.42	9.023
722.73	9.738
723.05	9.426
723.37	11.336
723.68	9.266
724.00	10.569
724.32	7.258
724.63	5.285
724.95	7.113
725.27	12.955
725.58	12.891
725.90	12.774
726.22	7.925
726.53	12.500
726.85	9.215
727.16	11.744
727.48	10.638
727.80	10.985
728.11	10.870
728.43	8.077
728.74	10.394
729.06	10.219
729.38	16.176
729.69	11.744
730.01	7.850
730.32	5.208
730.64	12.709
730.96	10.561
731.27	11.921
731.59	9.786
731.90	9.329
732.22	7.143
732.53	5.263
732.85	7.692
733.16	6.431
733.48	10.299
733.80	11.039
734.11	8.599
734.43	8.876
734.74	9.429
735.06	6.877
735.37	8.671
735.69	7.962
736.00	10.458
736.32	11.838
736.63	10.224
736.95	12.780
737.26	6.463
737.58	7.419
737.89	10.033
738.21	10.239
738.52	9.286
738.83	9.057
739.15	7.308
739.46	12.774
739.78	7.639
740.09	8.615
740.41	10.323
740.72	5.226
741.04	8.889
741.35	7.500
741.66	13.778
741.98	5.660
742.29	13.397
742.61	13.362
742.92	8.597
743.23	10.684
743.55	11.600
743.86	11.404
744.18	11.062
744.49	13.397
744.80	15.493
745.12	11.818
745.43	14.097
745.74	17.117
746.06	11.009
746.37	13.453
746.68	11.765
747.00	13.889
747.31	11.429
747.62	7.965
747.94	6.608
748.25	9.362
748.56	16.740
748.88	5.446
749.19	17.500
749.50	6.512
749.82	12.195
750.13	7.755
750.44	6.204
750.75	9.474
751.07	10.289
751.38	12.892
751.69	7.220
752.01	9.774
752.32	7.581
752.63	12.411
752.94	6.148
753.26	12.400
753.57	7.317
753.88	11.328
754.19	7.143
754.51	11.111
754.82	4.693
755.13	7.547
755.44	9.774
755.75	9.124
756.07	7.801
756.38	4.380
756.69	10.067
757.00	9.880
757.31	8.309
757.63	11.404
757.94	10.992
758.25	8.088
758.56	7.160
758.87	7.258
759.18	10.909
759.50	7.837
759.81	9.657
760.12	5.625
760.43	7.736
760.74	6.793
761.05	9.040
761.36	10.695
761.67	10.795
761.99	11.180
762.30	5.903
762.61	8.397
762.92	10.937
763.23	8.824
763.54	9.600
763.85	7.812
764.16	15.000
764.47	9.125
764.78	7.774
765.10	11.392
765.41	10.029
765.72	11.078
766.03	7.210
766.34	9.667
766.65	9.362
766.96	9.829
767.27	14.721
767.58	14.062
767.89	17.895
768.20	9.195
768.51	11.675
768.82	11.468
769.13	13.008
769.44	7.287
769.75	9.442
770.06	2.294
770.37	11.312
770.68	11.111
770.99	7.556
771.30	5.738
771.61	11.659
771.92	10.656
772.23	15.966
772.54	9.744
772.85	15.707
773.16	12.234
773.47	14.674
773.78	17.766
774.09	8.929
774.39	12.281
774.70	14.815
775.01	9.420
775.32	17.647
775.63	13.816
775.94	17.266
776.25	18.110
776.56	23.134
776.87	13.115
777.18	14.844
777.48	15.267
777.79	19.697
778.10	15.556
778.41	15.179
778.72	12.409
779.03	10.738
779.34	8.725
779.65	6.757
779.95	18.405
780.26	18.954
780.57	15.862
780.88	17.188
781.19	12.030
781.50	19.595
781.80	6.289
782.11	10.169
782.42	10.127
782.73	14.110
783.04	10.811
783.34	16.197
783.65	18.493
783.96	4.478
784.27	11.888
784.57	15.827
784.88	1.852
785.19	23.016
785.50	19.811
785.81	17.164
786.11	15.574
786.42	10.853
786.73	5.310
787.04	17.925
787.34	5.357
787.65	13.000
787.96	21.622
788.26	15.702
788.57	14.407
788.88	11.570
789.19	20.139
789.49	18.182
789.80	10.687
790.11	24.762
790.41	23.762
790.72	10.843
791.03	8.696
791.33	9.302
791.64	15.464
791.95	24.752
792.25	13.333
792.56	32.468
792.87	29.487
793.17	24.051
793.48	25.287
793.79	18.391
794.09	9.091
794.40	21.849
794.70	22.794
795.01	15.556
795.32	13.669
795.62	18.110
795.93	6.034
796.23	14.159
796.54	16.471
796.85	22.973
797.15	39.437
797.46	10.606
797.76	22.892
798.07	20.253
798.37	15.385
798.68	15.152
798.99	14.085
799.29	11.688
799.60	15.909
799.90	12.329
800.21	26.866
800.51	25.862
800.82	22.807
801.12	21.311
801.43	31.818
801.73	8.108
802.04	22.222
802.34	25.926
802.65	17.188
802.95	16.949
803.26	45.312
803.56	8.571
803.87	16.923
804.17	27.941
804.48	20.370
804.78	13.793
805.09	16.176
805.39	23.077
805.70	28.571
806.00	31.148
806.30	27.273
806.61	24.390
806.91	15.190
807.22	17.105
807.52	7.463
807.83	21.127
808.13	20.313
808.43	23.333
808.74	21.053
809.04	28.986
809.35	14.925
809.65	18.421
809.95	40.323
810.26	25.424
810.56	28.571
810.86	27.273
811.17	33.333
811.47	33.333
811.77	22.222
812.08	36.364
812.38	26.000
812.69	47.222
812.99	45.455
813.29	20.408
813.59	9.524
813.90	44.898
814.20	18.182
814.50	20.000
814.81	36.765
815.11	18.367
815.41	27.869
815.72	28.571
816.02	36.364
816.32	11.905
816.62	22.500
816.93	17.073
817.23	16.667
817.53	27.273
817.84	42.424
818.14	21.739
818.44	51.111
818.74	41.176
819.04	22.500
819.35	54.286
819.65	61.765
819.95	25.000
820.25	15.000
820.56	71.795
820.86	38.636
821.16	58.140
821.46	38.462
821.76	42.000
822.07	20.000
822.37	20.000
822.67	45.455
822.97	31.373
823.27	64.286
823.57	45.946
823.88	60.000
824.18	80.000
824.48	71.429
824.78	36.000
825.08	-4.167
825.38	43.243
825.69	36.585
825.99	54.167
826.29	20.690
826.59	31.579
826.89	52.632
827.19	55.882
827.49	51.613
827.79	52.273
828.09	31.818
828.39	34.043
828.70	42.857
829.00	22.222
829.30	16.129
829.60	30.000
829.90	46.667
830.20	42.857
830.50	17.391
830.80	69.565
831.10	40.000
831.40	36.667
831.70	-39.130
832.00	61.538
832.30	25.926
832.60	37.500
832.90	96.667
833.20	121.429
833.50	67.742
833.80	24.138
834.10	68.750
834.40	84.615
834.70	61.111
835.00	80.952
835.30	42.857
835.60	15.385
835.90	68.966
836.20	28.571
836.50	51.724
836.80	32.000
837.10	55.556
837.40	38.095
837.70	70.588
838.00	62.963
838.30	19.048
838.60	100.000
838.90	50.000
839.19	40.000
839.49	85.714
839.79	125.000
840.09	60.000
840.39	28.571
840.69	95.652
840.99	77.778
841.29	70.000
841.59	-25.000
841.88	50.000
842.18	48.276
842.48	76.190
842.78	56.667
843.08	34.783
843.38	46.875
843.68	166.667
843.97	76.923
844.27	55.172
844.57	42.857
844.87	93.750
845.17	59.259
845.47	66.667
845.76	-33.333
846.06	11.765
846.36	12.500
846.66	100.000
846.96	37.500
847.25	54.545
847.55	127.273
847.85	95.652
848.15	20.000
848.44	121.429
848.74	50.000
849.04	58.824
849.34	60.000
849.63	36.842
849.93	54.545
850.23	100.000
850.53	92.857
850.82	450.000
851.12	-200.000
851.42	900.000
851.71	95.000
852.01	-166.667
852.31	87.500
852.61	133.333
852.90	76.190
853.20	64.000
853.50	117.647
853.79	76.190
854.09	70.833
854.39	37.500
854.68	59.459
854.98	45.161
855.28	50.000
855.57	48.276
855.87	37.037
856.17	52.632
856.46	-40.000
856.76	17.647
857.05	51.724
857.35	45.833
857.65	80.000
857.94	56.522
858.24	84.615
858.53	90.000
858.83	59.091
859.13	140.000
859.42	0.000
859.72	122.222
860.01	-27.273
860.31	68.182
860.60	89.474
860.90	39.130
861.20	55.556
861.49	166.667
861.79	-700.000
862.08	37.500
862.38	90.476
862.67	107.692
862.97	100.000
863.26	66.667
863.56	38.889
863.85	91.667
864.15	37.500
864.44	86.667
864.74	16.667
865.03	275.000
865.33	57.895
865.62	18.182
865.92	84.615
866.21	75.000
866.51	0.000
866.80	72.727
867.10	200.000
867.39	161.538
867.69	54.545
867.98	121.053
868.27	136.364
868.57	110.526
868.86	100.000
869.16	143.750
869.45	550.000
869.75	700.000
870.04	100.000
870.33	57.143
870.63	250.000
870.92	300.000
871.22	142.857
871.51	94.118
871.80	42.857
872.10	78.571
>>>>>End Processed Spectral Data<<<<<
