SpectraSuite Data File
++++++++++++++++++++++++++++++++++++
Date: Wed May 13 16:53:16 PDT 2015
User: schluterlab
Dark Spectrum Present: Yes
Reference Spectrum Present: Yes
Number of Sampled Component Spectra: 1
Spectrometers: USB2E3373
Integration Time (usec): 3000 (USB2E3373)
Spectra Averaged: 3 (USB2E3373)
Boxcar Smoothing: 0 (USB2E3373)
Correct for Electrical Dark: No (USB2E3373)
Strobe/Lamp Enabled: No (USB2E3373)
Correct for Detector Non-linearity: No (USB2E3373)
Correct for Stray Light: No (USB2E3373)
Number of Pixels in Processed Spectrum: 2048
>>>>>Begin Processed Spectral Data<<<<<
178.53	0.000
178.91	-1175.000
179.29	-1300.000
179.67	-272.222
180.04	-1375.000
180.42	2450.000
180.80	1040.000
181.18	-1125.000
181.56	700.000
181.94	0.000
182.31	-600.000
182.69	1366.667
183.07	-550.000
183.45	-444.444
183.83	509.091
184.20	-420.000
184.58	2200.000
184.96	5700.000
185.34	-920.000
185.72	-600.000
186.09	-2500.000
186.47	2750.000
186.85	2650.000
187.23	5200.000
187.61	-1400.000
187.98	1225.000
188.36	590.909
188.74	545.455
189.12	-1060.000
189.49	500.000
189.87	-5700.000
190.25	-1325.000
190.63	407.143
191.00	430.769
191.38	800.000
191.76	-1325.000
192.14	1300.000
192.51	687.500
192.89	800.000
193.27	700.000
193.65	-1225.000
194.02	460.000
194.40	840.000
194.78	530.000
195.15	541.667
195.53	630.000
195.91	-2300.000
196.29	318.750
196.66	289.474
197.04	-360.000
197.42	0.000
197.79	610.000
198.17	-4600.000
198.55	685.714
198.92	675.000
199.30	1020.000
199.68	0.000
200.05	383.333
200.43	757.143
200.81	4200.000
201.18	1666.667
201.56	-1533.333
201.94	577.778
202.31	633.333
202.69	508.333
203.07	490.000
203.44	0.000
203.82	1250.000
204.19	842.857
204.57	457.143
204.95	625.000
205.32	1666.667
205.70	536.364
206.08	392.857
206.45	2300.000
206.83	400.000
207.20	1083.333
207.58	720.000
207.96	316.667
208.33	575.000
208.71	-950.000
209.08	871.429
209.46	600.000
209.84	409.091
210.21	-1466.667
210.59	1750.000
210.96	-525.000
211.34	2900.000
211.71	570.000
212.09	716.667
212.46	0.000
212.84	1600.000
213.22	1250.000
213.59	-5100.000
213.97	816.667
214.34	800.000
214.72	572.727
215.09	1160.000
215.47	-2200.000
215.84	-2400.000
216.22	1933.333
216.59	385.714
216.97	1100.000
217.34	472.727
217.72	-800.000
218.09	0.000
218.47	-5300.000
218.84	566.667
219.22	700.000
219.59	1400.000
219.97	-557.143
220.34	940.000
220.72	-1400.000
221.09	385.714
221.47	1375.000
221.84	-933.333
222.22	0.000
222.59	1300.000
222.97	-2400.000
223.34	1180.000
223.72	461.538
224.09	1100.000
224.46	2200.000
224.84	-5000.000
225.21	-960.000
225.59	-5400.000
225.96	550.000
226.34	240.000
226.71	2500.000
227.08	625.000
227.46	470.000
227.83	-850.000
228.21	-2100.000
228.58	666.667
228.95	-2600.000
229.33	-2400.000
229.70	1433.333
230.08	771.429
230.45	-760.000
230.82	483.333
231.20	800.000
231.57	700.000
231.95	491.667
232.32	254.545
232.69	445.455
233.07	614.286
233.44	407.692
233.81	-1533.333
234.19	289.474
234.56	425.000
234.93	375.000
235.31	490.909
235.68	353.846
236.05	300.000
236.43	163.636
236.80	284.211
237.17	4000.000
237.55	180.952
237.92	185.714
238.29	195.238
238.67	164.516
239.04	172.414
239.41	152.778
239.79	126.087
240.16	145.238
240.53	115.909
240.91	72.549
241.28	98.000
241.65	76.000
242.02	84.058
242.40	77.419
242.77	75.000
243.14	55.914
243.51	61.798
243.89	57.647
244.26	48.889
244.63	52.688
245.00	38.298
245.38	50.495
245.75	42.991
246.12	37.615
246.49	41.606
246.87	47.200
247.24	40.000
247.61	31.429
247.98	34.641
248.36	30.405
248.73	33.121
249.10	32.484
249.47	26.554
249.84	31.016
250.22	29.412
250.59	32.544
250.96	25.758
251.33	21.801
251.70	30.198
252.08	26.190
252.45	19.283
252.82	18.696
253.19	23.830
253.56	19.608
253.94	21.992
254.31	21.875
254.68	21.538
255.05	22.509
255.42	19.919
255.79	16.912
256.16	19.134
256.54	19.435
256.91	17.082
257.28	13.309
257.65	16.832
258.02	17.391
258.39	15.457
258.76	16.388
259.14	17.857
259.51	12.766
259.88	15.217
260.25	17.825
260.62	14.451
260.99	11.491
261.36	15.916
261.73	16.619
262.10	13.953
262.47	13.803
262.85	13.370
263.22	11.681
263.59	13.675
263.96	14.560
264.33	15.405
264.70	15.526
265.07	16.624
265.44	11.869
265.81	10.949
266.18	10.804
266.55	13.902
266.92	11.548
267.29	14.120
267.66	13.532
268.03	11.364
268.40	11.682
268.77	10.263
269.14	13.063
269.51	13.544
269.88	11.888
270.25	12.190
270.62	13.258
270.99	13.118
271.36	13.734
271.73	11.916
272.10	11.087
272.47	11.183
272.84	11.905
273.21	11.740
273.58	11.572
273.95	9.434
274.32	9.711
274.69	9.208
275.06	9.646
275.43	10.213
275.80	11.824
276.17	9.572
276.54	11.850
276.91	9.684
277.28	8.984
277.65	9.284
278.02	8.282
278.39	11.719
278.76	10.727
279.13	12.642
279.50	9.683
279.87	11.355
280.23	11.178
280.60	8.897
280.97	7.948
281.34	10.265
281.71	10.364
282.08	9.597
282.45	6.545
282.82	8.348
283.19	7.843
283.56	9.649
283.92	10.998
284.29	7.937
284.66	7.260
285.03	8.680
285.40	7.570
285.77	8.754
286.14	6.736
286.51	9.833
286.87	8.205
287.24	9.609
287.61	10.754
287.98	9.578
288.35	8.082
288.72	10.125
289.08	10.955
289.45	8.237
289.82	7.317
290.19	7.378
290.56	6.279
290.93	8.157
291.29	7.209
291.66	8.702
292.03	10.465
292.40	7.930
292.77	7.249
293.13	8.209
293.50	7.872
293.87	8.296
294.24	6.815
294.60	7.278
294.97	7.558
295.34	8.322
295.71	8.665
296.08	7.550
296.44	5.915
296.81	7.001
297.18	7.182
297.55	5.409
297.91	6.332
298.28	8.032
298.65	7.311
299.02	7.510
299.38	6.640
299.75	4.178
300.12	6.130
300.48	6.875
300.85	6.782
301.22	5.987
301.59	6.061
301.95	6.801
302.32	5.392
302.69	8.124
303.05	5.818
303.42	6.914
303.79	6.455
304.15	6.061
304.52	5.678
304.89	6.504
305.25	4.988
305.62	6.455
305.99	7.202
306.35	6.711
306.72	6.166
307.09	6.548
307.45	7.658
307.82	5.357
308.19	5.850
308.55	6.688
308.92	6.874
309.29	6.336
309.65	5.196
310.02	5.391
310.38	6.237
310.75	6.336
311.12	6.244
311.48	6.061
311.85	6.604
312.22	5.619
312.58	5.405
312.95	5.597
313.31	5.340
313.68	6.549
314.05	7.002
314.41	5.930
314.78	5.438
315.14	6.256
315.51	5.355
315.87	5.842
316.24	5.362
316.61	6.433
316.97	5.969
317.34	4.990
317.70	6.214
318.07	6.064
318.43	5.088
318.80	6.279
319.16	5.932
319.53	6.942
319.89	6.000
320.26	6.100
320.62	6.746
320.99	6.667
321.35	6.364
321.72	6.879
322.08	6.811
322.45	7.363
322.81	6.880
323.18	7.322
323.54	6.401
323.91	7.736
324.27	6.788
324.64	5.965
325.00	6.402
325.37	6.733
325.73	7.899
326.10	6.796
326.46	7.079
326.83	7.075
327.19	7.088
327.56	7.404
327.92	7.262
328.29	7.631
328.65	7.551
329.01	8.032
329.38	7.493
329.74	6.648
330.11	6.315
330.47	8.356
330.84	8.824
331.20	7.286
331.56	8.991
331.93	6.667
332.29	7.010
332.66	7.876
333.02	7.587
333.38	8.401
333.75	8.021
334.11	7.562
334.48	7.276
334.84	7.904
335.20	9.091
335.57	7.162
335.93	7.411
336.29	7.692
336.66	8.115
337.02	7.783
337.38	7.963
337.75	6.595
338.11	7.789
338.47	7.274
338.84	7.424
339.20	6.422
339.56	8.394
339.93	6.364
340.29	6.884
340.65	7.308
341.02	7.592
341.38	7.295
341.74	7.807
342.11	8.035
342.47	7.225
342.83	7.021
343.20	7.532
343.56	6.824
343.92	7.281
344.28	7.398
344.65	6.363
345.01	6.229
345.37	6.089
345.73	6.684
346.10	6.138
346.46	7.034
346.82	7.578
347.19	5.681
347.55	6.897
347.91	7.201
348.27	7.067
348.63	7.609
349.00	6.715
349.36	6.240
349.72	7.217
350.08	6.969
350.45	7.730
350.81	7.230
351.17	6.807
351.53	7.289
351.89	6.601
352.26	7.735
352.62	7.217
352.98	6.645
353.34	7.477
353.70	6.710
354.07	6.532
354.43	6.508
354.79	6.999
355.15	6.464
355.51	7.754
355.87	7.510
356.24	6.352
356.60	6.656
356.96	6.758
357.32	6.541
357.68	6.535
358.04	7.363
358.40	7.680
358.77	7.277
359.13	5.919
359.49	7.451
359.85	4.762
360.21	6.459
360.57	6.770
360.93	6.769
361.29	6.349
361.66	5.882
362.02	7.090
362.38	7.224
362.74	6.622
363.10	6.662
363.46	6.090
363.82	6.198
364.18	7.122
364.54	7.281
364.90	6.941
365.26	6.176
365.62	6.793
365.98	6.355
366.35	6.232
366.71	6.869
367.07	7.138
367.43	7.112
367.79	6.995
368.15	7.256
368.51	6.032
368.87	6.781
369.23	6.291
369.59	6.445
369.95	6.618
370.31	6.909
370.67	7.246
371.03	7.491
371.39	6.924
371.75	6.324
372.11	6.686
372.47	6.818
372.83	7.997
373.19	6.936
373.55	6.874
373.91	7.585
374.27	7.491
374.63	6.691
374.99	7.698
375.35	6.769
375.71	7.814
376.07	7.545
376.42	7.084
376.78	7.488
377.14	7.327
377.50	7.152
377.86	6.782
378.22	7.016
378.58	6.955
378.94	6.474
379.30	6.807
379.66	6.916
380.02	7.310
380.38	6.618
380.74	7.083
381.09	8.007
381.45	7.560
381.81	7.555
382.17	7.707
382.53	6.667
382.89	7.407
383.25	7.129
383.61	7.869
383.97	7.692
384.32	7.548
384.68	7.807
385.04	7.253
385.40	7.059
385.76	7.064
386.12	8.290
386.48	7.867
386.83	8.724
387.19	8.225
387.55	8.163
387.91	7.739
388.27	7.419
388.62	8.974
388.98	7.924
389.34	9.136
389.70	8.461
390.06	8.682
390.42	7.782
390.77	8.397
391.13	7.786
391.49	8.756
391.85	8.275
392.20	7.319
392.56	8.965
392.92	8.181
393.28	7.396
393.64	8.034
393.99	8.613
394.35	8.189
394.71	8.218
395.07	8.287
395.42	8.467
395.78	8.206
396.14	8.939
396.50	9.211
396.85	8.900
397.21	8.816
397.57	8.246
397.92	8.774
398.28	8.408
398.64	8.961
399.00	9.010
399.35	7.840
399.71	8.912
400.07	8.693
400.42	8.405
400.78	9.831
401.14	8.780
401.49	8.896
401.85	8.893
402.21	7.904
402.57	8.822
402.92	9.142
403.28	8.994
403.63	8.911
403.99	8.917
404.35	9.455
404.70	8.693
405.06	8.270
405.42	8.422
405.77	8.971
406.13	8.691
406.49	8.634
406.84	9.273
407.20	8.806
407.55	9.126
407.91	9.267
408.27	8.743
408.62	8.910
408.98	8.640
409.34	9.287
409.69	9.548
410.05	8.860
410.40	9.174
410.76	9.140
411.11	9.168
411.47	9.201
411.83	8.735
412.18	8.101
412.54	9.776
412.89	9.578
413.25	9.150
413.60	9.141
413.96	8.865
414.31	8.748
414.67	9.886
415.03	9.404
415.38	10.567
415.74	9.132
416.09	9.863
416.45	9.639
416.80	8.526
417.16	10.523
417.51	9.954
417.87	9.249
418.22	9.464
418.58	10.652
418.93	10.258
419.29	9.548
419.64	9.824
420.00	9.451
420.35	9.913
420.71	9.384
421.06	8.532
421.42	9.415
421.77	9.249
422.12	8.815
422.48	8.095
422.83	8.736
423.19	9.448
423.54	9.402
423.90	9.913
424.25	9.157
424.61	9.345
424.96	9.446
425.31	8.970
425.67	8.876
426.02	9.257
426.38	10.195
426.73	8.602
427.09	9.422
427.44	9.086
427.79	9.201
428.15	10.119
428.50	9.304
428.85	10.072
429.21	9.056
429.56	9.383
429.92	9.512
430.27	9.384
430.62	9.268
430.98	9.808
431.33	9.175
431.68	9.372
432.04	9.744
432.39	9.081
432.74	9.934
433.10	9.281
433.45	10.204
433.80	9.424
434.16	9.936
434.51	8.947
434.86	9.920
435.22	9.894
435.57	9.726
435.92	9.596
436.28	9.846
436.63	10.651
436.98	9.159
437.34	9.958
437.69	10.385
438.04	9.725
438.39	9.851
438.75	9.994
439.10	9.665
439.45	9.622
439.81	9.607
440.16	9.430
440.51	9.666
440.86	10.481
441.22	9.344
441.57	10.085
441.92	10.184
442.27	9.580
442.63	9.426
442.98	10.085
443.33	9.293
443.68	9.912
444.03	10.102
444.39	9.348
444.74	9.361
445.09	10.135
445.44	10.224
445.79	9.896
446.15	10.641
446.50	9.155
446.85	9.455
447.20	9.842
447.55	10.274
447.91	10.370
448.26	10.128
448.61	9.610
448.96	10.078
449.31	10.461
449.66	10.523
450.02	10.139
450.37	9.807
450.72	9.701
451.07	9.750
451.42	9.544
451.77	11.333
452.12	10.566
452.47	10.572
452.83	10.140
453.18	10.697
453.53	11.070
453.88	10.278
454.23	10.520
454.58	10.176
454.93	10.871
455.28	9.726
455.63	10.983
455.98	11.667
456.34	9.862
456.69	11.396
457.04	11.022
457.39	10.520
457.74	10.737
458.09	10.523
458.44	10.775
458.79	10.249
459.14	10.327
459.49	10.333
459.84	10.028
460.19	10.371
460.54	10.532
460.89	10.532
461.24	10.565
461.59	11.970
461.94	10.604
462.29	10.504
462.64	10.083
462.99	11.386
463.34	12.000
463.69	10.632
464.04	10.783
464.39	10.957
464.74	10.814
465.09	11.037
465.44	9.861
465.79	10.459
466.14	10.071
466.49	11.123
466.84	10.625
467.19	11.104
467.54	11.250
467.89	10.624
468.24	10.937
468.59	11.294
468.94	10.690
469.29	10.797
469.64	11.647
469.99	11.096
470.34	10.832
470.68	11.279
471.03	10.952
471.38	11.814
471.73	11.659
472.08	11.842
472.43	11.181
472.78	10.928
473.13	10.719
473.48	11.423
473.83	11.402
474.17	10.765
474.52	11.290
474.87	11.851
475.22	10.969
475.57	11.016
475.92	9.984
476.27	10.598
476.61	10.535
476.96	11.215
477.31	10.884
477.66	11.105
478.01	10.612
478.36	10.841
478.70	10.177
479.05	10.543
479.40	11.259
479.75	9.964
480.10	9.891
480.45	10.662
480.79	10.559
481.14	10.176
481.49	10.584
481.84	10.242
482.19	10.223
482.53	10.229
482.88	10.377
483.23	10.047
483.58	10.965
483.92	10.403
484.27	10.065
484.62	10.172
484.97	10.051
485.31	9.795
485.66	9.145
486.01	8.327
486.36	8.105
486.70	7.870
487.05	8.615
487.40	8.427
487.75	8.762
488.09	9.190
488.44	9.273
488.79	9.693
489.13	9.511
489.48	9.829
489.83	9.840
490.17	9.952
490.52	10.407
490.87	10.086
491.22	10.095
491.56	10.114
491.91	10.330
492.26	9.692
492.60	10.323
492.95	9.355
493.30	9.486
493.64	10.219
493.99	9.749
494.34	11.193
494.68	10.943
495.03	10.808
495.37	10.749
495.72	10.088
496.07	10.255
496.41	9.425
496.76	10.290
497.11	9.680
497.45	10.759
497.80	9.789
498.14	9.758
498.49	9.561
498.84	10.211
499.18	10.238
499.53	10.446
499.87	9.739
500.22	10.504
500.56	10.777
500.91	10.288
501.26	9.957
501.60	11.106
501.95	9.945
502.29	10.872
502.64	10.335
502.98	10.472
503.33	10.329
503.67	10.348
504.02	10.337
504.36	10.716
504.71	11.041
505.06	10.120
505.40	10.112
505.75	9.884
506.09	10.544
506.44	10.113
506.78	10.765
507.13	10.651
507.47	10.455
507.82	10.638
508.16	10.740
508.51	10.299
508.85	10.725
509.19	10.612
509.54	10.510
509.88	11.231
510.23	10.540
510.57	11.352
510.92	10.927
511.26	10.997
511.61	11.670
511.95	10.595
512.30	10.074
512.64	10.478
512.98	11.790
513.33	11.670
513.67	10.993
514.02	10.444
514.36	11.415
514.70	11.345
515.05	10.708
515.39	10.937
515.74	11.430
516.08	12.130
516.42	11.210
516.77	12.207
517.11	11.099
517.46	11.512
517.80	12.021
518.14	10.944
518.49	10.618
518.83	11.761
519.17	11.663
519.52	11.545
519.86	11.466
520.20	11.965
520.55	12.448
520.89	11.740
521.23	12.425
521.58	11.825
521.92	12.247
522.26	11.592
522.61	12.025
522.95	11.602
523.29	11.990
523.64	12.439
523.98	11.460
524.32	11.761
524.66	12.808
525.01	11.703
525.35	11.896
525.69	11.330
526.04	12.212
526.38	11.775
526.72	11.963
527.06	13.120
527.41	11.572
527.75	12.154
528.09	11.946
528.43	12.046
528.78	12.293
529.12	11.515
529.46	12.492
529.80	12.438
530.15	12.274
530.49	11.262
530.83	12.089
531.17	12.728
531.51	13.165
531.86	11.742
532.20	13.429
532.54	13.133
532.88	12.580
533.22	11.743
533.57	12.407
533.91	12.041
534.25	11.725
534.59	13.118
534.93	12.374
535.27	12.010
535.62	12.149
535.96	12.367
536.30	12.142
536.64	12.106
536.98	13.271
537.32	12.969
537.66	13.133
538.01	13.101
538.35	13.058
538.69	12.827
539.03	12.995
539.37	11.949
539.71	11.277
540.05	12.222
540.39	12.292
540.73	11.966
541.07	12.589
541.42	13.307
541.76	13.161
542.10	12.354
542.44	12.384
542.78	12.846
543.12	11.196
543.46	12.984
543.80	12.167
544.14	12.580
544.48	12.571
544.82	12.059
545.16	12.687
545.50	12.211
545.84	12.970
546.18	12.593
546.52	13.283
546.86	12.921
547.20	13.351
547.54	12.692
547.88	13.776
548.22	12.267
548.56	12.327
548.90	11.780
549.24	11.515
549.58	13.302
549.92	12.569
550.26	13.352
550.60	13.347
550.94	12.465
551.28	12.070
551.62	13.947
551.96	12.912
552.30	13.038
552.64	13.928
552.98	13.153
553.32	13.688
553.66	13.633
554.00	12.766
554.34	13.527
554.68	13.162
555.02	12.906
555.36	12.387
555.69	12.517
556.03	12.921
556.37	12.824
556.71	12.415
557.05	13.165
557.39	13.926
557.73	13.197
558.07	13.706
558.41	12.880
558.75	14.842
559.08	14.243
559.42	13.076
559.76	13.088
560.10	12.848
560.44	13.277
560.78	12.641
561.12	13.193
561.45	13.820
561.79	12.986
562.13	13.213
562.47	12.568
562.81	12.622
563.15	13.244
563.48	12.666
563.82	12.916
564.16	12.361
564.50	11.393
564.84	12.389
565.17	12.484
565.51	12.077
565.85	13.071
566.19	12.336
566.52	12.540
566.86	11.634
567.20	12.205
567.54	12.272
567.88	11.841
568.21	11.799
568.55	11.375
568.89	11.187
569.23	10.873
569.56	10.810
569.90	10.830
570.24	10.405
570.57	10.337
570.91	9.664
571.25	9.852
571.59	9.985
571.92	9.389
572.26	9.474
572.60	10.300
572.93	9.895
573.27	9.642
573.61	9.966
573.95	9.793
574.28	9.171
574.62	9.135
574.96	9.247
575.29	9.045
575.63	9.400
575.97	9.477
576.30	9.506
576.64	9.325
576.98	9.042
577.31	8.988
577.65	9.229
577.98	8.826
578.32	8.797
578.66	9.057
578.99	8.765
579.33	9.150
579.67	9.171
580.00	9.158
580.34	8.946
580.67	9.170
581.01	9.512
581.35	9.000
581.68	8.778
582.02	8.309
582.35	8.571
582.69	8.622
583.02	8.558
583.36	8.969
583.70	9.216
584.03	9.535
584.37	9.513
584.70	9.352
585.04	9.026
585.37	9.133
585.71	9.211
586.04	8.915
586.38	9.378
586.72	9.859
587.05	9.209
587.39	9.103
587.72	9.199
588.06	9.178
588.39	9.767
588.73	9.240
589.06	10.315
589.40	9.865
589.73	9.680
590.07	10.142
590.40	9.938
590.73	10.422
591.07	10.094
591.40	10.755
591.74	10.606
592.07	10.733
592.41	10.748
592.74	9.813
593.08	9.793
593.41	9.997
593.75	9.525
594.08	9.454
594.41	10.569
594.75	9.575
595.08	9.914
595.42	10.053
595.75	9.900
596.09	10.702
596.42	10.688
596.75	10.511
597.09	11.039
597.42	9.992
597.75	10.436
598.09	10.565
598.42	10.567
598.76	9.891
599.09	9.464
599.42	9.862
599.76	10.029
600.09	9.763
600.42	9.094
600.76	9.607
601.09	9.909
601.42	10.122
601.76	10.323
602.09	9.881
602.42	9.753
602.76	10.480
603.09	10.031
603.42	10.269
603.76	9.985
604.09	9.461
604.42	10.069
604.76	10.164
605.09	10.310
605.42	9.662
605.75	10.182
606.09	10.085
606.42	9.685
606.75	10.120
607.09	10.423
607.42	9.457
607.75	10.084
608.08	10.421
608.42	10.175
608.75	10.144
609.08	10.407
609.41	10.471
609.75	10.910
610.08	10.650
610.41	9.544
610.74	9.697
611.07	10.079
611.41	10.795
611.74	9.854
612.07	10.973
612.40	10.965
612.73	10.263
613.07	10.614
613.40	11.164
613.73	9.858
614.06	10.645
614.39	10.645
614.72	11.474
615.06	10.662
615.39	10.191
615.72	10.532
616.05	9.888
616.38	10.395
616.71	10.808
617.05	10.718
617.38	11.064
617.71	10.511
618.04	10.938
618.37	10.822
618.70	10.890
619.03	11.842
619.36	12.016
619.69	11.901
620.03	12.019
620.36	11.497
620.69	11.986
621.02	11.873
621.35	12.060
621.68	10.903
622.01	11.378
622.34	12.557
622.67	12.776
623.00	11.225
623.33	11.222
623.66	11.866
623.99	12.371
624.32	11.626
624.65	11.370
624.99	10.694
625.32	11.441
625.65	11.871
625.98	11.376
626.31	12.208
626.64	12.490
626.97	12.386
627.30	12.303
627.63	12.387
627.96	13.120
628.29	13.211
628.62	13.449
628.95	13.585
629.28	13.047
629.61	13.382
629.94	13.429
630.26	13.060
630.59	12.869
630.92	13.027
631.25	12.636
631.58	13.113
631.91	13.387
632.24	12.447
632.57	13.536
632.90	14.035
633.23	13.758
633.56	14.915
633.89	14.156
634.22	14.302
634.55	15.385
634.88	14.731
635.20	15.293
635.53	15.060
635.86	13.985
636.19	14.824
636.52	15.456
636.85	13.288
637.18	13.825
637.51	14.657
637.83	12.577
638.16	14.450
638.49	15.491
638.82	14.539
639.15	15.375
639.48	14.963
639.81	15.684
640.13	16.146
640.46	16.779
640.79	16.248
641.12	14.580
641.45	15.642
641.77	14.580
642.10	15.643
642.43	14.715
642.76	15.480
643.09	17.025
643.41	15.478
643.74	16.049
644.07	16.006
644.40	18.558
644.73	17.165
645.05	18.384
645.38	16.746
645.71	15.459
646.04	16.944
646.36	19.032
646.69	15.719
647.02	16.667
647.35	16.838
647.67	15.044
648.00	17.398
648.33	16.172
648.66	14.848
648.98	14.243
649.31	15.097
649.64	16.442
649.96	16.841
650.29	15.008
650.62	16.990
650.94	17.180
651.27	17.736
651.60	17.637
651.92	17.093
652.25	14.821
652.58	16.355
652.90	16.588
653.23	16.179
653.56	16.220
653.88	16.640
654.21	17.536
654.54	16.667
654.86	16.355
655.19	14.459
655.52	8.667
655.84	6.164
656.17	7.667
656.49	10.157
656.82	10.380
657.15	7.988
657.47	5.915
657.80	4.708
658.13	5.109
658.45	7.466
658.78	7.775
659.10	8.166
659.43	8.850
659.75	9.558
660.08	11.266
660.41	12.663
660.73	15.883
661.06	15.605
661.38	17.818
661.71	18.654
662.03	18.146
662.36	16.899
662.68	19.478
663.01	18.788
663.33	16.985
663.66	20.378
663.98	16.847
664.31	17.647
664.63	19.636
664.96	15.694
665.28	17.623
665.61	18.324
665.93	16.700
666.26	19.675
666.58	19.247
666.91	20.507
667.23	19.326
667.56	16.199
667.88	17.521
668.21	18.977
668.53	17.570
668.86	19.264
669.18	21.748
669.50	20.435
669.83	22.004
670.15	17.778
670.48	20.261
670.80	19.828
671.13	20.807
671.45	16.170
671.77	19.756
672.10	17.375
672.42	16.961
672.75	15.920
673.07	15.845
673.39	15.732
673.72	17.383
674.04	17.647
674.37	15.922
674.69	16.564
675.01	16.946
675.34	20.329
675.66	19.579
675.98	19.145
676.31	20.798
676.63	16.561
676.95	17.400
677.28	18.458
677.60	18.681
677.92	19.620
678.25	18.070
678.57	17.331
678.89	16.633
679.22	16.896
679.54	15.458
679.86	20.917
680.18	16.100
680.51	16.489
680.83	17.794
681.15	18.868
681.48	19.471
681.80	16.248
682.12	16.284
682.44	16.441
682.77	18.126
683.09	18.884
683.41	17.738
683.73	18.543
684.06	19.008
684.38	17.025
684.70	19.186
685.02	18.011
685.34	17.582
685.67	15.210
685.99	15.120
686.31	14.846
686.63	14.134
686.96	15.536
687.28	16.606
687.60	15.217
687.92	17.733
688.24	14.449
688.56	19.277
688.89	20.332
689.21	21.179
689.53	17.745
689.85	18.404
690.17	14.907
690.49	19.108
690.82	19.159
691.14	16.518
691.46	15.823
691.78	18.273
692.10	16.529
692.42	15.968
692.74	17.635
693.06	16.170
693.39	17.864
693.71	16.594
694.03	17.684
694.35	17.749
694.67	20.366
694.99	20.976
695.31	21.324
695.63	20.335
695.95	21.027
696.27	14.213
696.59	21.503
696.91	21.244
697.23	17.371
697.56	18.337
697.88	13.701
698.20	16.458
698.52	18.925
698.84	18.486
699.16	17.281
699.48	20.190
699.80	17.150
700.12	20.779
700.44	21.751
700.76	20.442
701.08	19.828
701.40	22.067
701.72	24.198
702.04	25.284
702.36	17.847
702.68	19.263
703.00	19.668
703.32	21.011
703.64	19.303
703.96	22.563
704.28	21.221
704.60	19.062
704.91	22.255
705.23	20.235
705.55	21.595
705.87	24.917
706.19	21.555
706.51	25.234
706.83	22.121
707.15	24.090
707.47	18.182
707.79	19.902
708.11	21.689
708.43	18.333
708.74	16.071
709.06	22.338
709.38	20.997
709.70	21.802
710.02	23.442
710.34	18.788
710.66	23.881
710.98	23.295
711.29	20.640
711.61	24.484
711.93	19.551
712.25	26.045
712.57	23.529
712.89	24.221
713.20	24.316
713.52	24.671
713.84	19.620
714.16	19.207
714.48	20.115
714.80	22.796
715.11	20.173
715.43	19.585
715.75	23.188
716.07	22.684
716.39	23.197
716.70	23.256
717.02	23.741
717.34	20.495
717.66	27.612
717.97	25.498
718.29	28.889
718.61	22.263
718.93	26.103
719.24	22.837
719.56	24.746
719.88	24.068
720.20	27.365
720.51	22.648
720.83	27.138
721.15	23.881
721.46	24.468
721.78	25.090
722.10	29.057
722.42	25.188
722.73	24.345
723.05	26.230
723.37	25.506
723.68	25.097
724.00	23.984
724.32	22.177
724.63	28.455
724.95	23.013
725.27	30.364
725.58	28.906
725.90	25.182
726.22	23.774
726.53	22.222
726.85	27.645
727.16	24.555
727.48	24.468
727.80	25.758
728.11	22.101
728.43	24.615
728.74	24.373
729.06	27.737
729.38	23.529
729.69	26.335
730.01	22.867
730.32	22.569
730.64	22.074
730.96	18.152
731.27	26.821
731.59	20.795
731.90	20.117
732.22	20.807
732.53	19.195
732.85	21.795
733.16	19.614
733.48	24.252
733.80	23.701
734.11	23.248
734.43	21.893
734.74	18.286
735.06	20.917
735.37	26.012
735.69	17.834
736.00	23.529
736.32	23.364
736.63	25.240
736.95	22.684
737.26	17.347
737.58	20.323
737.89	21.405
738.21	24.915
738.52	23.571
738.83	21.509
739.15	24.615
739.46	28.467
739.78	24.653
740.09	23.385
740.41	24.516
740.72	21.603
741.04	25.926
741.35	26.667
741.66	29.333
741.98	29.245
742.29	32.057
742.61	33.190
742.92	30.769
743.23	27.350
743.55	26.400
743.86	23.684
744.18	27.876
744.49	33.014
744.80	32.864
745.12	34.091
745.43	33.921
745.74	33.784
746.06	24.771
746.37	29.596
746.68	25.792
747.00	29.630
747.31	31.429
747.62	24.779
747.94	25.991
748.25	28.511
748.56	30.396
748.88	24.752
749.19	34.000
749.50	29.302
749.82	27.642
750.13	26.122
750.44	28.102
750.75	26.316
751.07	25.723
751.38	23.345
751.69	23.827
752.01	20.301
752.32	22.022
752.63	24.468
752.94	25.410
753.26	30.000
753.57	24.390
753.88	25.391
754.19	22.143
754.51	28.125
754.82	19.495
755.13	23.396
755.44	24.812
755.75	24.453
756.07	25.532
756.38	22.993
756.69	23.490
757.00	19.760
757.31	19.585
757.63	19.006
757.94	20.375
758.25	19.608
758.56	19.753
758.87	19.086
759.18	22.121
759.50	17.241
759.81	22.430
760.12	17.500
760.43	21.490
760.74	20.924
761.05	19.774
761.36	18.984
761.67	21.023
761.99	21.118
762.30	23.611
762.61	25.954
762.92	28.516
763.23	28.992
763.54	29.200
763.85	21.875
764.16	27.692
764.47	25.475
764.78	21.201
765.10	17.405
765.41	22.124
765.72	22.455
766.03	22.257
766.34	22.000
766.65	24.255
766.96	30.342
767.27	26.396
767.58	31.250
767.89	37.895
768.20	33.333
768.51	32.487
768.82	33.486
769.13	29.268
769.44	19.838
769.75	26.180
770.06	22.018
770.37	29.412
770.68	30.556
770.99	32.444
771.30	25.410
771.61	31.839
771.92	25.410
772.23	30.252
772.54	25.641
772.85	32.984
773.16	28.191
773.47	39.130
773.78	36.041
774.09	29.762
774.39	32.164
774.70	33.333
775.01	45.652
775.32	45.098
775.63	44.079
775.94	41.727
776.25	44.882
776.56	40.299
776.87	47.541
777.18	50.000
777.48	51.908
777.79	43.939
778.10	45.185
778.41	40.179
778.72	35.766
779.03	41.611
779.34	38.255
779.65	32.432
779.95	36.196
780.26	37.908
780.57	42.069
780.88	55.469
781.19	42.857
781.50	40.541
781.80	33.962
782.11	31.073
782.42	36.076
782.73	38.650
783.04	44.595
783.34	42.254
783.65	54.110
783.96	41.791
784.27	37.063
784.57	42.446
784.88	32.407
785.19	51.587
785.50	48.113
785.81	52.985
786.11	50.000
786.42	57.364
786.73	45.133
787.04	49.057
787.34	45.536
787.65	55.000
787.96	49.550
788.26	48.760
788.57	54.237
788.88	52.893
789.19	44.444
789.49	53.788
789.80	58.015
790.11	55.238
790.41	55.446
790.72	59.036
791.03	63.043
791.33	61.628
791.64	59.794
791.95	58.416
792.25	53.333
792.56	62.338
792.87	79.487
793.17	74.684
793.48	73.563
793.79	67.816
794.09	59.091
794.40	52.101
794.70	52.206
795.01	38.519
795.32	42.446
795.62	48.031
795.93	54.310
796.23	53.982
796.54	57.647
796.85	62.162
797.15	81.690
797.46	72.727
797.76	74.699
798.07	64.557
798.37	56.923
798.68	90.909
798.99	66.197
799.29	74.026
799.60	67.045
799.90	73.973
800.21	86.567
800.51	75.862
800.82	94.737
801.12	111.475
801.43	101.515
801.73	72.973
802.04	93.651
802.34	64.198
802.65	75.000
802.95	108.475
803.26	100.000
803.56	81.429
803.87	69.231
804.17	91.176
804.48	101.852
804.78	89.655
805.09	86.765
805.39	94.231
805.70	82.143
806.00	91.803
806.30	80.303
806.61	79.268
806.91	64.557
807.22	65.789
807.52	53.731
807.83	74.648
808.13	81.250
808.43	71.667
808.74	63.158
809.04	84.058
809.35	85.075
809.65	69.737
809.95	100.000
810.26	88.136
810.56	80.952
810.86	100.000
811.17	130.952
811.47	100.000
811.77	98.148
812.08	100.000
812.38	102.000
812.69	144.444
812.99	147.727
813.29	128.571
813.59	107.143
813.90	124.490
814.20	90.909
814.50	89.231
814.81	95.588
815.11	100.000
815.41	93.443
815.72	128.571
816.02	103.636
816.32	126.190
816.62	115.000
816.93	131.707
817.23	150.000
817.53	118.182
817.84	163.636
818.14	97.826
818.44	128.889
818.74	150.000
819.04	115.000
819.35	151.429
819.65	182.353
819.95	192.857
820.25	220.000
820.56	148.718
820.86	109.091
821.16	123.256
821.46	123.077
821.76	132.000
822.07	160.000
822.37	127.500
822.67	145.455
822.97	96.078
823.27	192.857
823.57	116.216
823.88	137.500
824.18	203.333
824.48	157.143
824.78	188.000
825.08	120.833
825.38	151.351
825.69	139.024
825.99	187.500
826.29	131.034
826.59	168.421
826.89	134.211
827.19	152.941
827.49	183.871
827.79	140.909
828.09	118.182
828.39	106.383
828.70	118.367
829.00	174.074
829.30	145.161
829.60	140.000
829.90	300.000
830.20	175.000
830.50	165.217
830.80	165.217
831.10	200.000
831.40	170.000
831.70	191.304
832.00	234.615
832.30	218.519
832.60	300.000
832.90	210.000
833.20	378.571
833.50	190.323
833.80	155.172
834.10	181.250
834.40	238.462
834.70	316.667
835.00	304.762
835.30	174.286
835.60	284.615
835.90	158.621
836.20	271.429
836.50	172.414
836.80	192.000
837.10	180.556
837.40	271.429
837.70	305.882
838.00	203.704
838.30	233.333
838.60	252.381
838.90	200.000
839.19	280.000
839.49	400.000
839.79	355.000
840.09	240.000
840.39	247.619
840.69	208.696
840.99	233.333
841.29	490.000
841.59	325.000
841.88	312.500
842.18	182.759
842.48	247.619
842.78	210.000
843.08	247.826
843.38	156.250
843.68	933.333
843.97	234.615
844.27	182.759
844.57	290.476
844.87	281.250
845.17	218.519
845.47	1600.000
845.76	555.556
846.06	323.529
846.36	525.000
846.66	342.857
846.96	275.000
847.25	409.091
847.55	345.455
847.85	221.739
848.15	510.000
848.44	407.143
848.74	244.444
849.04	341.176
849.34	620.000
849.63	257.895
849.93	509.091
850.23	1000.000
850.53	471.429
850.82	2150.000
851.12	-4400.000
851.42	4900.000
851.71	255.000
852.01	-866.667
852.31	229.167
852.61	1633.333
852.90	304.762
853.20	216.000
853.50	329.412
853.79	285.714
854.09	204.167
854.39	287.500
854.68	156.757
854.98	167.742
855.28	156.667
855.57	189.655
855.87	200.000
856.17	273.684
856.46	253.333
856.76	223.529
857.05	203.448
857.35	258.333
857.65	333.333
857.94	243.478
858.24	242.308
858.53	265.000
858.83	263.636
859.13	320.000
859.42	0.000
859.72	622.222
860.01	481.818
860.31	286.364
860.60	310.526
860.90	278.261
861.20	388.889
861.49	533.333
861.79	-4100.000
862.08	650.000
862.38	276.190
862.67	369.231
862.97	341.176
863.26	500.000
863.56	255.556
863.85	400.000
864.15	587.500
864.44	406.667
864.74	883.333
865.03	712.500
865.33	273.684
865.62	518.182
865.92	446.154
866.21	375.000
866.51	0.000
866.80	445.455
867.10	1020.000
867.39	376.923
867.69	490.909
867.98	268.421
868.27	436.364
868.57	305.263
868.86	-4800.000
869.16	331.250
869.45	2300.000
869.75	-3100.000
870.04	425.000
870.33	757.143
870.63	1200.000
870.92	2850.000
871.22	728.571
871.51	352.941
871.80	228.571
872.10	357.143
>>>>>End Processed Spectral Data<<<<<
