SpectraSuite Data File
++++++++++++++++++++++++++++++++++++
Date: Wed May 13 16:51:21 PDT 2015
User: schluterlab
Dark Spectrum Present: Yes
Reference Spectrum Present: Yes
Number of Sampled Component Spectra: 1
Spectrometers: USB2E3373
Integration Time (usec): 3000 (USB2E3373)
Spectra Averaged: 3 (USB2E3373)
Boxcar Smoothing: 0 (USB2E3373)
Correct for Electrical Dark: No (USB2E3373)
Strobe/Lamp Enabled: No (USB2E3373)
Correct for Detector Non-linearity: No (USB2E3373)
Correct for Stray Light: No (USB2E3373)
Number of Pixels in Processed Spectrum: 2048
>>>>>Begin Processed Spectral Data<<<<<
178.53	0.000
178.91	-1100.000
179.29	-975.000
179.67	-244.444
180.04	-1300.000
180.42	2550.000
180.80	1180.000
181.18	-975.000
181.56	742.857
181.94	0.000
182.31	-571.429
182.69	1533.333
183.07	-512.500
183.45	-511.111
183.83	563.636
184.20	-480.000
184.58	2250.000
184.96	5800.000
185.34	-780.000
185.72	-562.500
186.09	-2000.000
186.47	2700.000
186.85	2550.000
187.23	5500.000
187.61	-1566.667
187.98	1300.000
188.36	527.273
188.74	472.727
189.12	-860.000
189.49	550.000
189.87	-4900.000
190.25	-1150.000
190.63	478.571
191.00	415.385
191.38	750.000
191.76	-900.000
192.14	1250.000
192.51	475.000
192.89	1016.667
193.27	500.000
193.65	-1200.000
194.02	510.000
194.40	800.000
194.78	500.000
195.15	550.000
195.53	640.000
195.91	-1950.000
196.29	343.750
196.66	310.526
197.04	-290.000
197.42	0.000
197.79	520.000
198.17	-4600.000
198.55	642.857
198.92	650.000
199.30	1020.000
199.68	0.000
200.05	344.444
200.43	742.857
200.81	3200.000
201.18	1533.333
201.56	-1500.000
201.94	555.556
202.31	477.778
202.69	350.000
203.07	640.000
203.44	0.000
203.82	1200.000
204.19	785.714
204.57	471.429
204.95	700.000
205.32	2100.000
205.70	472.727
206.08	342.857
206.45	2450.000
206.83	368.750
207.20	900.000
207.58	740.000
207.96	311.111
208.33	787.500
208.71	-816.667
209.08	757.143
209.46	600.000
209.84	509.091
210.21	-1333.333
210.59	1425.000
210.96	-450.000
211.34	2800.000
211.71	630.000
212.09	850.000
212.46	0.000
212.84	1833.333
213.22	1350.000
213.59	-4600.000
213.97	783.333
214.34	800.000
214.72	518.182
215.09	1100.000
215.47	-2500.000
215.84	-2400.000
216.22	1700.000
216.59	407.143
216.97	1175.000
217.34	400.000
217.72	-583.333
218.09	0.000
218.47	-4300.000
218.84	622.222
219.22	671.429
219.59	2000.000
219.97	-600.000
220.34	1080.000
220.72	-1633.333
221.09	371.429
221.47	1375.000
221.84	-983.333
222.22	0.000
222.59	1475.000
222.97	-2300.000
223.34	1020.000
223.72	446.154
224.09	1180.000
224.46	2300.000
224.84	-3900.000
225.21	-920.000
225.59	-4300.000
225.96	570.000
226.34	325.000
226.71	2000.000
227.08	600.000
227.46	590.000
227.83	-1150.000
228.21	-2000.000
228.58	544.444
228.95	-2400.000
229.33	-2250.000
229.70	1766.667
230.08	728.571
230.45	-840.000
230.82	400.000
231.20	716.667
231.57	600.000
231.95	391.667
232.32	263.636
232.69	372.727
233.07	528.571
233.44	369.231
233.81	-1833.333
234.19	305.263
234.56	366.667
234.93	291.667
235.31	518.182
235.68	315.385
236.05	328.571
236.43	148.485
236.80	263.158
237.17	3300.000
237.55	200.000
237.92	225.000
238.29	223.810
238.67	170.968
239.04	144.828
239.41	152.778
239.79	100.000
240.16	123.810
240.53	125.000
240.91	100.000
241.28	82.000
241.65	96.000
242.02	85.507
242.40	77.419
242.77	81.667
243.14	67.742
243.51	64.045
243.89	61.176
244.26	48.889
244.63	58.065
245.00	50.000
245.38	51.485
245.75	47.664
246.12	37.615
246.49	48.175
246.87	50.400
247.24	49.231
247.61	36.429
247.98	39.869
248.36	36.486
248.73	39.490
249.10	42.675
249.47	37.288
249.84	35.294
250.22	34.225
250.59	30.769
250.96	33.333
251.33	36.019
251.70	31.188
252.08	30.000
252.45	24.664
252.82	32.174
253.19	27.660
253.56	31.373
253.94	25.726
254.31	26.953
254.68	26.923
255.05	28.782
255.42	25.610
255.79	21.691
256.16	24.910
256.54	18.375
256.91	23.843
257.28	18.705
257.65	24.422
258.02	23.602
258.39	22.082
258.76	22.742
259.14	22.321
259.51	19.757
259.88	18.634
260.25	18.429
260.62	18.786
260.99	20.807
261.36	20.721
261.73	18.052
262.10	18.605
262.47	24.225
262.85	18.106
263.22	15.954
263.59	20.513
263.96	21.429
264.33	19.843
264.70	20.000
265.07	19.949
265.44	19.444
265.81	14.599
266.18	17.337
266.55	15.610
266.92	18.919
267.29	19.444
267.66	16.514
268.03	16.136
268.40	18.692
268.77	14.320
269.14	15.766
269.51	18.284
269.88	18.182
270.25	14.673
270.62	14.382
270.99	17.849
271.36	15.665
271.73	14.720
272.10	14.348
272.47	17.634
272.84	16.450
273.21	17.191
273.58	15.066
273.95	15.723
274.32	15.909
274.69	17.131
275.06	15.354
275.43	17.447
275.80	15.431
276.17	15.071
276.54	16.424
276.91	15.415
277.28	14.844
277.65	16.828
278.02	12.008
278.39	14.453
278.76	14.727
279.13	16.415
279.50	16.015
279.87	15.538
280.23	13.373
280.60	14.507
280.97	13.309
281.34	12.743
281.71	15.455
282.08	15.355
282.45	14.727
282.82	15.453
283.19	10.873
283.56	14.561
283.92	16.582
284.29	14.462
284.66	12.704
285.03	15.009
285.40	13.732
285.77	12.963
286.14	13.472
286.51	15.167
286.87	15.214
287.24	14.984
287.61	13.002
287.98	13.474
288.35	12.837
288.72	14.019
289.08	13.459
289.45	14.168
289.82	12.683
290.19	12.559
290.56	12.098
290.93	11.480
291.29	11.503
291.66	12.684
292.03	13.081
292.40	13.216
292.77	11.982
293.13	12.836
293.50	10.204
293.87	12.148
294.24	13.630
294.60	9.170
294.97	13.081
295.34	12.412
295.71	11.932
296.08	10.826
296.44	9.904
296.81	10.304
297.18	12.737
297.55	10.422
297.91	10.818
298.28	11.245
298.65	11.488
299.02	12.385
299.38	11.819
299.75	8.356
300.12	9.451
300.48	9.500
300.85	10.358
301.22	10.701
301.59	10.859
301.95	9.950
302.32	10.526
302.69	10.872
303.05	9.697
303.42	10.370
303.79	10.532
304.15	9.324
304.52	9.502
304.89	11.034
305.25	10.093
305.62	9.966
305.99	10.390
306.35	9.396
306.72	9.753
307.09	11.543
307.45	11.149
307.82	8.817
308.19	10.155
308.55	10.140
308.92	9.237
309.29	9.187
309.65	9.332
310.02	9.619
310.38	10.215
310.75	8.237
311.12	10.440
311.48	10.763
311.85	10.797
312.22	9.261
312.58	8.732
312.95	11.193
313.31	9.126
313.68	10.291
314.05	11.144
314.41	9.749
314.78	9.668
315.14	9.732
315.51	10.505
315.87	11.683
316.24	10.626
316.61	10.331
316.97	9.980
317.34	9.100
317.70	11.281
318.07	10.395
318.43	10.568
318.80	11.153
319.16	10.640
319.53	10.976
319.89	12.571
320.26	11.700
320.62	10.813
320.99	12.222
321.35	10.202
321.72	13.244
322.08	12.636
322.45	13.831
322.81	13.469
323.18	12.813
323.54	13.080
323.91	14.340
324.27	11.759
324.64	12.116
325.00	12.534
325.37	13.649
325.73	14.632
326.10	12.621
326.46	14.068
326.83	14.236
327.19	13.834
327.56	13.937
327.92	15.573
328.29	16.948
328.65	15.930
329.01	16.426
329.38	15.449
329.74	15.235
330.11	16.871
330.47	16.529
330.84	17.923
331.20	17.213
331.56	16.422
331.93	16.944
332.29	17.835
332.66	19.204
333.02	16.453
333.38	17.525
333.75	17.112
334.11	17.705
334.48	17.924
334.84	18.566
335.20	18.091
335.57	18.042
335.93	17.143
336.29	16.484
336.66	18.756
337.02	16.833
337.38	17.037
337.75	17.112
338.11	18.800
338.47	18.785
338.84	18.515
339.20	17.706
339.56	19.799
339.93	18.364
340.29	17.391
340.65	18.449
341.02	19.197
341.38	18.060
341.74	18.158
342.11	18.428
342.47	19.031
342.83	18.322
343.20	18.788
343.56	18.787
343.92	18.158
344.28	17.177
344.65	18.573
345.01	18.266
345.37	17.496
345.73	18.105
346.10	17.903
346.46	18.814
346.82	17.957
347.19	18.296
347.55	18.227
347.91	18.528
348.27	19.803
348.63	18.562
349.00	18.042
349.36	17.323
349.72	18.204
350.08	18.314
350.45	18.959
350.81	17.790
351.17	18.558
351.53	17.854
351.89	17.657
352.26	19.495
352.62	18.765
352.98	18.476
353.34	19.145
353.70	17.103
354.07	18.468
354.43	18.333
354.79	18.423
355.15	18.276
355.51	18.945
355.87	19.429
356.24	18.322
356.60	18.444
356.96	18.665
357.32	17.989
357.68	19.843
358.04	19.557
358.40	19.161
358.77	18.545
359.13	17.995
359.49	19.529
359.85	17.778
360.21	17.863
360.57	18.599
360.93	19.308
361.29	19.728
361.66	17.415
362.02	18.731
362.38	19.240
362.74	18.527
363.10	18.431
363.46	18.562
363.82	18.821
364.18	19.163
364.54	18.871
364.90	19.759
365.26	19.118
365.62	20.307
365.98	18.335
366.35	18.911
366.71	19.595
367.07	19.374
367.43	19.811
367.79	20.414
368.15	20.402
368.51	18.314
368.87	19.629
369.23	19.020
369.59	19.479
369.95	18.824
370.31	20.014
370.67	18.913
371.03	20.375
371.39	19.461
371.75	19.853
372.11	18.634
372.47	20.674
372.83	20.821
373.19	19.509
373.55	20.030
373.91	21.576
374.27	20.069
374.63	20.000
374.99	21.257
375.35	20.865
375.71	19.877
376.07	20.645
376.42	20.839
376.78	20.013
377.14	20.963
377.50	20.993
377.86	19.814
378.22	20.417
378.58	19.862
378.94	20.679
379.30	19.656
379.66	21.891
380.02	20.946
380.38	20.461
380.74	21.309
381.09	21.027
381.45	21.819
381.81	22.359
382.17	21.274
382.53	21.069
382.89	20.926
383.25	21.263
383.61	21.747
383.97	21.388
384.32	21.959
384.68	21.871
385.04	21.573
385.40	21.176
385.76	21.744
386.12	22.021
386.48	22.278
386.83	22.065
387.19	23.500
387.55	21.212
387.91	21.463
388.27	20.662
388.62	21.942
388.98	21.499
389.34	22.090
389.70	21.521
390.06	22.497
390.42	22.957
390.77	22.646
391.13	22.527
391.49	22.525
391.85	22.533
392.20	22.334
392.56	21.970
392.92	21.778
393.28	21.006
393.64	21.882
393.99	22.175
394.35	22.146
394.71	22.271
395.07	21.184
395.42	22.250
395.78	22.074
396.14	22.595
396.50	23.559
396.85	22.632
397.21	22.195
397.57	21.885
397.92	22.416
398.28	21.469
398.64	22.640
399.00	21.489
399.35	20.756
399.71	21.181
400.07	22.058
400.42	21.718
400.78	22.497
401.14	21.220
401.49	21.672
401.85	20.871
402.21	21.796
402.57	22.702
402.92	22.383
403.28	23.173
403.63	21.225
403.99	22.548
404.35	21.333
404.70	20.863
405.06	21.491
405.42	22.208
405.77	20.914
406.13	21.275
406.49	22.413
406.84	21.264
407.20	21.395
407.55	22.017
407.91	22.000
408.27	21.825
408.62	22.216
408.98	21.385
409.34	22.079
409.69	21.226
410.05	21.747
410.40	21.040
410.76	21.744
411.11	21.532
411.47	22.045
411.83	21.747
412.18	20.779
412.54	21.171
412.89	20.964
413.25	21.192
413.60	21.433
413.96	20.219
414.31	20.899
414.67	21.673
415.03	21.656
415.38	22.165
415.74	21.415
416.09	22.273
416.45	21.754
416.80	21.414
417.16	22.520
417.51	22.429
417.87	21.580
418.22	21.830
418.58	21.562
418.93	21.744
419.29	21.706
419.64	21.914
420.00	21.463
420.35	21.333
420.71	22.594
421.06	21.360
421.42	21.579
421.77	22.197
422.12	21.224
422.48	20.615
422.83	21.724
423.19	22.320
423.54	22.113
423.90	21.971
424.25	21.999
424.61	22.857
424.96	22.624
425.31	22.204
425.67	21.404
426.02	21.086
426.38	23.321
426.73	22.996
427.09	22.918
427.44	21.794
427.79	21.967
428.15	23.333
428.50	22.177
428.85	23.302
429.21	21.645
429.56	22.291
429.92	22.496
430.27	21.946
430.62	21.557
430.98	22.211
431.33	22.938
431.68	22.147
432.04	22.524
432.39	23.073
432.74	22.801
433.10	23.826
433.45	22.741
433.80	22.450
434.16	22.970
434.51	22.474
434.86	22.577
435.22	22.735
435.57	22.553
435.92	23.464
436.28	24.259
436.63	23.234
436.98	22.896
437.34	23.673
437.69	24.096
438.04	23.215
438.39	23.582
438.75	24.463
439.10	23.240
439.45	24.498
439.81	24.169
440.16	22.925
440.51	23.726
440.86	24.551
441.22	23.526
441.57	24.682
441.92	23.797
442.27	24.220
442.63	23.802
442.98	24.507
443.33	23.859
443.68	24.006
444.03	23.231
444.39	23.369
444.74	24.080
445.09	24.259
445.44	24.658
445.79	24.196
446.15	24.881
446.50	24.017
446.85	24.101
447.20	23.202
447.55	24.846
447.91	24.269
448.26	23.873
448.61	24.025
448.96	24.806
449.31	24.691
449.66	24.986
450.02	24.457
450.37	24.546
450.72	25.663
451.07	24.193
451.42	24.377
451.77	25.191
452.12	24.249
452.47	24.067
452.83	23.834
453.18	24.817
453.53	24.799
453.88	23.922
454.23	24.806
454.58	25.621
454.93	26.383
455.28	24.564
455.63	25.728
455.98	25.655
456.34	25.503
456.69	25.485
457.04	25.759
457.39	24.781
457.74	24.376
458.09	25.129
458.44	24.458
458.79	24.783
459.14	26.129
459.49	25.569
459.84	25.097
460.19	25.103
460.54	24.363
460.89	24.410
461.24	24.894
461.59	26.148
461.94	24.723
462.29	25.579
462.64	24.888
462.99	25.374
463.34	26.400
463.69	25.391
464.04	25.391
464.39	24.174
464.74	24.124
465.09	24.849
465.44	24.654
465.79	25.336
466.14	24.357
466.49	24.638
466.84	25.044
467.19	25.528
467.54	24.750
467.89	24.550
468.24	25.364
468.59	25.763
468.94	24.496
469.29	25.000
469.64	26.037
469.99	25.304
470.34	25.363
470.68	26.006
471.03	25.442
471.38	25.504
471.73	24.450
472.08	25.855
472.43	25.314
472.78	26.070
473.13	26.252
473.48	25.468
473.83	25.671
474.17	24.456
474.52	25.931
474.87	25.686
475.22	25.769
475.57	24.557
475.92	24.748
476.27	24.577
476.61	24.545
476.96	24.189
477.31	24.542
477.66	25.055
478.01	24.778
478.36	24.802
478.70	23.780
479.05	24.920
479.40	25.077
479.75	24.759
480.10	25.547
480.45	24.274
480.79	23.220
481.14	25.098
481.49	24.300
481.84	24.234
482.19	24.307
482.53	24.358
482.88	24.244
483.23	24.626
483.58	24.704
483.92	24.649
484.27	23.573
484.62	24.353
484.97	23.768
485.31	24.966
485.66	23.206
486.01	22.679
486.36	21.656
486.70	21.138
487.05	22.012
487.40	22.191
487.75	23.193
488.09	23.688
488.44	22.915
488.79	24.448
489.13	23.950
489.48	23.899
489.83	23.953
490.17	24.331
490.52	23.206
490.87	24.876
491.22	24.102
491.56	23.645
491.91	23.732
492.26	23.519
492.60	23.456
492.95	22.217
493.30	24.720
493.64	23.565
493.99	23.630
494.34	23.959
494.68	24.405
495.03	24.389
495.37	23.825
495.72	24.464
496.07	24.640
496.41	23.097
496.76	24.494
497.11	23.683
497.45	24.220
497.80	24.472
498.14	24.010
498.49	24.293
498.84	23.490
499.18	23.905
499.53	23.884
499.87	24.418
500.22	23.599
500.56	25.485
500.91	24.038
501.26	24.229
501.60	24.680
501.95	24.244
502.29	24.414
502.64	24.022
502.98	24.217
503.33	23.812
503.67	24.176
504.02	23.854
504.36	23.678
504.71	24.084
505.06	24.627
505.40	23.870
505.75	23.915
506.09	24.636
506.44	24.174
506.78	24.744
507.13	23.675
507.47	25.051
507.82	24.924
508.16	23.404
508.51	24.860
508.85	23.883
509.19	24.490
509.54	23.724
509.88	24.317
510.23	24.422
510.57	25.439
510.92	24.236
511.26	24.512
511.61	24.326
511.95	23.486
512.30	23.542
512.64	25.148
512.98	24.598
513.33	24.518
513.67	24.280
514.02	24.026
514.36	25.014
514.70	24.460
515.05	24.261
515.39	25.014
515.74	24.775
516.08	25.321
516.42	24.750
516.77	25.530
517.11	24.750
517.46	24.661
517.80	24.448
518.14	24.088
518.49	24.737
518.83	24.886
519.17	24.249
519.52	23.430
519.86	24.586
520.20	24.451
520.55	25.194
520.89	24.757
521.23	25.211
521.58	24.730
521.92	25.291
522.26	25.198
522.61	24.486
522.95	25.967
523.29	24.163
523.64	25.305
523.98	24.646
524.32	24.910
524.66	24.654
525.01	24.081
525.35	24.907
525.69	23.768
526.04	24.486
526.38	24.649
526.72	23.865
527.06	25.173
527.41	23.824
527.75	24.952
528.09	25.562
528.43	25.048
528.78	24.401
529.12	24.848
529.46	25.413
529.80	25.681
530.15	24.984
530.49	23.508
530.83	25.253
531.17	25.653
531.51	25.486
531.86	24.452
532.20	25.098
532.54	24.407
532.88	24.840
533.22	23.985
533.57	25.123
533.91	24.684
534.25	25.213
534.59	24.100
534.93	23.617
535.27	24.683
535.62	24.664
535.96	24.482
536.30	24.031
536.64	25.241
536.98	25.216
537.32	24.951
537.66	24.467
538.01	25.543
538.35	25.663
538.69	25.399
539.03	24.366
539.37	24.153
539.71	23.202
540.05	25.294
540.39	24.718
540.73	23.933
541.07	24.854
541.42	25.571
541.76	25.097
542.10	25.938
542.44	24.503
542.78	25.823
543.12	24.184
543.46	24.525
543.80	24.984
544.14	23.427
544.48	25.206
544.82	24.759
545.16	24.528
545.50	23.715
545.84	24.328
546.18	24.444
546.52	25.052
546.86	25.636
547.20	25.287
547.54	25.585
547.88	24.745
548.22	24.969
548.56	24.465
548.90	23.496
549.24	24.377
549.58	25.443
549.92	24.657
550.26	25.284
550.60	25.380
550.94	24.366
551.28	23.702
551.62	24.587
551.96	24.140
552.30	25.256
552.64	24.408
552.98	25.153
553.32	25.152
553.66	25.085
554.00	25.120
554.34	24.224
554.68	25.751
555.02	25.388
555.36	25.261
555.69	25.101
556.03	25.168
556.37	24.898
556.71	25.102
557.05	24.370
557.39	25.542
557.73	24.982
558.07	24.583
558.41	25.036
558.75	25.569
559.08	25.205
559.42	25.926
559.76	24.559
560.10	24.982
560.44	24.878
560.78	24.750
561.12	24.077
561.45	24.576
561.79	24.390
562.13	24.748
562.47	24.180
562.81	25.174
563.15	25.017
563.48	25.199
563.82	24.331
564.16	24.330
564.50	22.917
564.84	23.451
565.17	24.517
565.51	24.409
565.85	24.302
566.19	23.544
566.52	24.953
566.86	24.653
567.20	24.646
567.54	24.658
567.88	23.520
568.21	23.386
568.55	23.862
568.89	23.930
569.23	22.549
569.56	22.348
569.90	22.604
570.24	22.533
570.57	22.339
570.91	22.010
571.25	22.359
571.59	21.620
571.92	22.062
572.26	22.270
572.60	22.432
572.93	21.829
573.27	22.508
573.61	21.971
573.95	22.145
574.28	21.834
574.62	21.429
574.96	21.434
575.29	21.339
575.63	21.494
575.97	22.052
576.30	21.800
576.64	21.961
576.98	21.877
577.31	21.788
577.65	21.368
577.98	21.552
578.32	20.691
578.66	21.468
578.99	21.616
579.33	21.206
579.67	21.576
580.00	21.889
580.34	21.974
580.67	21.744
581.01	21.767
581.35	21.313
581.68	21.369
582.02	21.025
582.35	20.976
582.69	21.376
583.02	21.615
583.36	21.928
583.70	22.228
584.03	21.865
584.37	22.609
584.70	21.970
585.04	21.795
585.37	22.134
585.71	21.969
586.04	21.744
586.38	22.074
586.72	22.646
587.05	22.032
587.39	21.979
587.72	21.979
588.06	22.065
588.39	22.003
588.73	22.177
589.06	22.375
589.40	22.727
589.73	22.598
590.07	22.598
590.40	22.068
590.73	23.029
591.07	22.955
591.40	23.323
591.74	23.853
592.07	23.386
592.41	22.489
592.74	22.285
593.08	21.785
593.41	22.050
593.75	22.299
594.08	21.690
594.41	21.810
594.75	22.218
595.08	22.405
595.42	22.627
595.75	22.187
596.09	23.132
596.42	23.340
596.75	23.385
597.09	23.463
597.42	22.302
597.75	22.768
598.09	23.043
598.42	22.552
598.76	22.700
599.09	22.539
599.42	22.162
599.76	22.182
600.09	22.514
600.42	21.987
600.76	21.786
601.09	21.785
601.42	22.070
601.76	22.543
602.09	23.043
602.42	23.368
602.76	23.136
603.09	22.974
603.42	22.999
603.76	22.218
604.09	22.683
604.42	22.381
604.76	22.986
605.09	22.848
605.42	22.274
605.75	22.434
606.09	22.245
606.42	22.517
606.75	23.144
607.09	22.394
607.42	22.893
607.75	22.321
608.08	22.406
608.42	22.770
608.75	22.723
609.08	22.849
609.41	23.417
609.75	23.249
610.08	22.856
610.41	22.905
610.74	23.084
611.07	23.221
611.41	23.111
611.74	23.731
612.07	23.188
612.40	24.344
612.73	22.947
613.07	24.084
613.40	23.381
613.73	23.178
614.06	23.065
614.39	23.020
614.72	23.316
615.06	23.372
615.39	23.142
615.72	23.722
616.05	23.392
616.38	23.958
616.71	23.575
617.05	24.323
617.38	23.572
617.71	24.625
618.04	23.558
618.37	23.536
618.70	23.709
619.03	24.211
619.36	25.119
619.69	25.211
620.03	24.931
620.36	23.930
620.69	25.205
621.02	25.295
621.35	25.215
621.68	23.910
622.01	24.149
622.34	23.828
622.67	24.335
623.00	23.844
623.33	24.017
623.66	24.518
623.99	24.669
624.32	24.394
624.65	24.082
624.99	24.079
625.32	23.896
625.65	25.094
625.98	24.366
626.31	25.194
626.64	25.551
626.97	25.603
627.30	24.522
627.63	25.103
627.96	25.231
628.29	26.072
628.62	26.807
628.95	28.208
629.28	25.639
629.61	25.481
629.94	26.381
630.26	25.167
630.59	26.311
630.92	26.437
631.25	24.975
631.58	26.827
631.91	25.254
632.24	25.633
632.57	26.863
632.90	25.768
633.23	26.286
633.56	27.684
633.89	27.860
634.22	28.604
634.55	28.047
634.88	27.305
635.20	27.001
635.53	27.952
635.86	27.847
636.19	25.765
636.52	27.451
636.85	26.002
637.18	26.382
637.51	28.132
637.83	24.661
638.16	26.854
638.49	26.448
638.82	28.066
639.15	27.125
639.48	27.057
639.81	27.614
640.13	27.214
640.46	28.188
640.79	27.477
641.12	25.585
641.45	27.374
641.77	29.161
642.10	27.632
642.43	27.477
642.76	29.257
643.09	28.528
643.41	27.769
643.74	28.704
644.07	27.287
644.40	29.601
644.73	29.764
645.05	30.745
645.38	29.384
645.71	28.180
646.04	29.402
646.36	31.219
646.69	32.107
647.02	30.442
647.35	28.007
647.67	30.088
648.00	30.081
648.33	29.043
648.66	28.182
648.98	28.036
649.31	28.401
649.64	29.297
649.96	29.955
650.29	28.594
650.62	28.155
650.94	28.201
651.27	31.081
651.60	30.782
651.92	30.032
652.25	27.524
652.58	28.193
652.90	29.700
653.23	28.814
653.56	28.976
653.88	28.526
654.21	27.330
654.54	31.353
654.86	30.841
655.19	27.703
655.52	19.008
655.84	17.215
656.17	22.357
656.49	30.590
656.82	31.336
657.15	24.127
657.47	17.778
657.80	14.276
658.13	14.842
658.45	22.454
658.78	22.886
659.10	24.419
659.43	25.459
659.75	26.976
660.08	29.620
660.41	31.285
660.73	32.783
661.06	29.299
661.38	32.909
661.71	32.692
662.03	30.769
662.36	28.231
662.68	30.321
663.01	30.101
663.33	30.573
663.66	30.462
663.98	29.806
664.31	30.252
664.63	31.579
664.96	28.571
665.28	31.352
665.61	31.189
665.93	31.590
666.26	29.209
666.58	32.218
666.91	34.672
667.23	32.809
667.56	31.749
667.88	31.624
668.21	31.343
668.53	31.453
668.86	31.818
669.18	34.542
669.50	30.217
669.83	31.808
670.15	31.778
670.48	28.758
670.80	29.741
671.13	32.059
671.45	30.000
671.77	32.383
672.10	30.869
672.42	29.329
672.75	29.022
673.07	28.697
673.39	30.561
673.72	29.883
674.04	30.000
674.37	30.485
674.69	26.176
675.01	30.544
675.34	32.854
675.66	31.789
675.98	30.550
676.31	32.143
676.63	32.059
676.95	30.818
677.28	30.841
677.60	30.330
677.92	33.755
678.25	32.854
678.57	30.876
678.89	30.060
679.22	29.862
679.54	29.198
679.86	30.092
680.18	29.696
680.51	29.078
680.83	28.648
681.15	30.189
681.48	29.490
681.80	30.174
682.12	30.268
682.44	30.754
682.77	31.365
683.09	33.691
683.41	31.264
683.73	32.230
684.06	30.579
684.38	29.550
684.70	28.295
685.02	28.518
685.34	28.205
685.67	26.399
685.99	28.007
686.31	27.304
686.63	23.852
686.96	29.643
687.28	31.227
687.60	28.080
687.92	29.250
688.24	29.658
688.56	31.124
688.89	31.743
689.21	32.969
689.53	31.524
689.85	33.259
690.17	29.814
690.49	30.786
690.82	31.776
691.14	30.357
691.46	26.582
691.78	31.727
692.10	32.438
692.42	30.739
692.74	30.498
693.06	30.851
693.39	28.953
693.71	29.039
694.03	33.684
694.35	31.385
694.67	29.977
694.99	34.146
695.31	32.598
695.63	32.536
695.95	31.785
696.27	28.426
696.59	34.456
696.91	31.347
697.23	26.761
697.56	31.130
697.88	27.607
698.20	30.417
698.52	27.312
698.84	31.403
699.16	29.263
699.48	33.492
699.80	32.367
700.12	36.883
700.44	32.361
700.76	31.215
701.08	33.908
701.40	33.799
701.72	36.443
702.04	38.068
702.36	32.578
702.68	35.411
703.00	34.626
703.32	32.447
703.64	30.027
703.96	35.655
704.28	33.721
704.60	34.897
704.91	37.389
705.23	32.845
705.55	36.877
705.87	37.874
706.19	34.629
706.51	35.826
706.83	38.182
707.15	34.454
707.47	34.091
707.79	31.450
708.11	29.452
708.43	32.143
708.74	32.908
709.06	30.909
709.38	32.546
709.70	36.047
710.02	34.125
710.34	29.394
710.66	32.239
710.98	35.795
711.29	34.884
711.61	35.103
711.93	32.372
712.25	34.405
712.57	43.382
712.89	37.024
713.20	33.131
713.52	36.842
713.84	34.494
714.16	31.402
714.48	34.770
714.80	33.739
715.11	35.447
715.43	30.564
715.75	30.435
716.07	33.546
716.39	34.483
716.70	37.209
717.02	38.849
717.34	36.749
717.66	39.552
717.97	47.012
718.29	35.556
718.61	35.036
718.93	37.132
719.24	40.138
719.56	32.881
719.88	34.237
720.20	34.122
720.51	33.449
720.83	36.803
721.15	35.821
721.46	32.979
721.78	36.201
722.10	38.491
722.42	40.226
722.73	36.704
723.05	40.574
723.37	34.818
723.68	37.066
724.00	35.772
724.32	41.129
724.63	38.211
724.95	38.494
725.27	41.296
725.58	39.453
725.90	41.606
726.22	37.736
726.53	35.417
726.85	37.884
727.16	39.858
727.48	32.624
727.80	37.879
728.11	37.681
728.43	36.154
728.74	36.559
729.06	38.321
729.38	43.750
729.69	37.011
730.01	34.812
730.32	31.597
730.64	36.120
730.96	32.013
731.27	33.113
731.59	33.945
731.90	34.694
732.22	35.093
732.53	32.508
732.85	34.615
733.16	32.476
733.48	33.887
733.80	32.792
734.11	35.669
734.43	32.840
734.74	32.571
735.06	28.653
735.37	33.237
735.69	35.350
736.00	36.275
736.32	33.333
736.63	31.629
736.95	34.505
737.26	28.571
737.58	33.226
737.89	34.783
738.21	36.519
738.52	35.000
738.83	36.981
739.15	33.077
739.46	32.847
739.78	35.417
740.09	35.385
740.41	34.194
740.72	33.449
741.04	40.370
741.35	33.750
741.66	45.778
741.98	38.208
742.29	41.148
742.61	41.379
742.92	41.176
743.23	38.034
743.55	40.000
743.86	40.789
744.18	43.363
744.49	49.282
744.80	47.418
745.12	43.636
745.43	39.648
745.74	44.595
746.06	39.908
746.37	43.498
746.68	38.914
747.00	45.833
747.31	44.286
747.62	39.381
747.94	34.802
748.25	38.298
748.56	40.088
748.88	43.564
749.19	47.000
749.50	42.791
749.82	34.553
750.13	39.592
750.44	35.036
750.75	32.281
751.07	38.907
751.38	34.146
751.69	36.101
752.01	34.586
752.32	32.852
752.63	35.106
752.94	36.885
753.26	38.400
753.57	35.772
753.88	40.234
754.19	33.571
754.51	37.153
754.82	32.130
755.13	36.604
755.44	36.842
755.75	34.307
756.07	34.752
756.38	36.861
756.69	34.228
757.00	29.940
757.31	33.234
757.63	33.333
757.94	29.759
758.25	32.108
758.56	30.123
758.87	29.570
759.18	35.758
759.50	31.661
759.81	31.776
760.12	25.937
760.43	32.378
760.74	31.522
761.05	32.768
761.36	34.225
761.67	30.966
761.99	33.851
762.30	37.500
762.61	35.496
762.92	39.844
763.23	35.714
763.54	40.400
763.85	34.375
764.16	41.154
764.47	38.023
764.78	34.982
765.10	31.013
765.41	33.333
765.72	30.539
766.03	33.229
766.34	31.667
766.65	43.404
766.96	37.607
767.27	43.147
767.58	43.229
767.89	51.053
768.20	49.425
768.51	42.132
768.82	46.330
769.13	40.244
769.44	34.818
769.75	38.197
770.06	33.486
770.37	42.081
770.68	37.037
770.99	37.778
771.30	34.836
771.61	37.220
771.92	38.934
772.23	39.496
772.54	44.103
772.85	41.361
773.16	40.957
773.47	49.457
773.78	45.685
774.09	47.024
774.39	49.123
774.70	51.235
775.01	48.551
775.32	56.209
775.63	51.316
775.94	46.043
776.25	57.480
776.56	58.209
776.87	59.836
777.18	53.125
777.48	61.832
777.79	51.515
778.10	52.593
778.41	54.464
778.72	43.796
779.03	48.993
779.34	45.638
779.65	47.297
779.95	45.399
780.26	49.020
780.57	59.310
780.88	65.625
781.19	51.880
781.50	52.703
781.80	42.138
782.11	42.373
782.42	46.835
782.73	46.012
783.04	47.973
783.34	52.113
783.65	56.164
783.96	58.955
784.27	50.350
784.57	46.043
784.88	54.630
785.19	59.524
785.50	66.038
785.81	55.970
786.11	54.098
786.42	51.938
786.73	62.832
787.04	69.811
787.34	58.929
787.65	67.000
787.96	54.955
788.26	51.240
788.57	68.644
788.88	61.983
789.19	59.028
789.49	50.758
789.80	51.908
790.11	80.000
790.41	68.317
790.72	75.904
791.03	67.391
791.33	77.907
791.64	76.289
791.95	68.317
792.25	75.556
792.56	79.221
792.87	84.615
793.17	82.278
793.48	77.011
793.79	77.011
794.09	67.045
794.40	64.706
794.70	61.765
795.01	51.852
795.32	48.201
795.62	54.331
795.93	62.931
796.23	65.487
796.54	74.118
796.85	79.730
797.15	102.817
797.46	89.394
797.76	91.566
798.07	77.215
798.37	87.692
798.68	60.606
798.99	80.282
799.29	77.922
799.60	73.864
799.90	75.342
800.21	89.552
800.51	93.103
800.82	100.000
801.12	91.803
801.43	87.879
801.73	79.730
802.04	106.349
802.34	82.716
802.65	78.125
802.95	105.085
803.26	107.813
803.56	71.429
803.87	90.769
804.17	95.588
804.48	109.259
804.78	87.931
805.09	83.824
805.39	80.769
805.70	87.500
806.00	91.803
806.30	95.455
806.61	80.488
806.91	78.481
807.22	90.789
807.52	68.657
807.83	92.958
808.13	92.188
808.43	101.667
808.74	73.684
809.04	85.507
809.35	86.567
809.65	88.158
809.95	103.226
810.26	103.390
810.56	98.413
810.86	129.545
811.17	121.429
811.47	108.333
811.77	103.704
812.08	100.000
812.38	112.000
812.69	150.000
812.99	152.273
813.29	122.449
813.59	114.286
813.90	122.449
814.20	125.455
814.50	93.846
814.81	92.647
815.11	118.367
815.41	95.082
815.72	130.952
816.02	114.545
816.32	126.190
816.62	120.000
816.93	119.512
817.23	154.762
817.53	127.273
817.84	160.606
818.14	141.304
818.44	124.444
818.74	179.412
819.04	137.500
819.35	160.000
819.65	144.118
819.95	160.714
820.25	215.000
820.56	141.026
820.86	138.636
821.16	153.488
821.46	110.256
821.76	136.000
822.07	160.000
822.37	162.500
822.67	169.697
822.97	125.490
823.27	185.714
823.57	178.378
823.88	170.000
824.18	190.000
824.48	135.714
824.78	236.000
825.08	229.167
825.38	148.649
825.69	134.146
825.99	195.833
826.29	179.310
826.59	160.526
826.89	144.737
827.19	167.647
827.49	151.613
827.79	145.455
828.09	150.000
828.39	102.128
828.70	108.163
829.00	185.185
829.30	177.419
829.60	142.500
829.90	266.667
830.20	175.000
830.50	169.565
830.80	226.087
831.10	200.000
831.40	150.000
831.70	213.043
832.00	242.308
832.30	188.889
832.60	337.500
832.90	206.667
833.20	414.286
833.50	206.452
833.80	182.759
834.10	196.875
834.40	203.846
834.70	288.889
835.00	290.476
835.30	165.714
835.60	292.308
835.90	217.241
836.20	392.857
836.50	213.793
836.80	164.000
837.10	191.667
837.40	257.143
837.70	270.588
838.00	188.889
838.30	238.095
838.60	276.190
838.90	207.692
839.19	245.000
839.49	364.286
839.79	335.000
840.09	280.000
840.39	285.714
840.69	243.478
840.99	233.333
841.29	440.000
841.59	300.000
841.88	306.250
842.18	179.310
842.48	261.905
842.78	200.000
843.08	234.783
843.38	184.375
843.68	950.000
843.97	192.308
844.27	196.552
844.57	276.190
844.87	368.750
845.17	203.704
845.47	1566.667
845.76	500.000
846.06	294.118
846.36	462.500
846.66	407.143
846.96	312.500
847.25	354.545
847.55	400.000
847.85	243.478
848.15	490.000
848.44	321.429
848.74	266.667
849.04	294.118
849.34	490.000
849.63	247.368
849.93	381.818
850.23	800.000
850.53	350.000
850.82	2150.000
851.12	-3600.000
851.42	4000.000
851.71	210.000
852.01	-866.667
852.31	250.000
852.61	1100.000
852.90	266.667
853.20	236.000
853.50	258.824
853.79	252.381
854.09	204.167
854.39	331.250
854.68	172.973
854.98	174.194
855.28	180.000
855.57	189.655
855.87	222.222
856.17	273.684
856.46	240.000
856.76	288.235
857.05	224.138
857.35	245.833
857.65	333.333
857.94	230.435
858.24	223.077
858.53	305.000
858.83	272.727
859.13	386.667
859.42	0.000
859.72	611.111
860.01	409.091
860.31	231.818
860.60	284.211
860.90	217.391
861.20	488.889
861.49	475.000
861.79	-4000.000
862.08	612.500
862.38	280.952
862.67	300.000
862.97	294.118
863.26	500.000
863.56	272.222
863.85	358.333
864.15	700.000
864.44	306.667
864.74	866.667
865.03	650.000
865.33	289.474
865.62	463.636
865.92	407.692
866.21	433.333
866.51	0.000
866.80	527.273
867.10	1020.000
867.39	430.769
867.69	390.909
867.98	263.158
868.27	472.727
868.57	273.684
868.86	-3800.000
869.16	300.000
869.45	2000.000
869.75	-3700.000
870.04	458.333
870.33	642.857
870.63	1000.000
870.92	2350.000
871.22	742.857
871.51	294.118
871.80	276.190
872.10	364.286
>>>>>End Processed Spectral Data<<<<<
