SpectraSuite Data File
++++++++++++++++++++++++++++++++++++
Date: Wed May 13 16:23:30 PDT 2015
User: schluterlab
Dark Spectrum Present: Yes
Reference Spectrum Present: Yes
Number of Sampled Component Spectra: 1
Spectrometers: USB2E3373
Integration Time (usec): 3000 (USB2E3373)
Spectra Averaged: 3 (USB2E3373)
Boxcar Smoothing: 0 (USB2E3373)
Correct for Electrical Dark: No (USB2E3373)
Strobe/Lamp Enabled: No (USB2E3373)
Correct for Detector Non-linearity: No (USB2E3373)
Correct for Stray Light: No (USB2E3373)
Number of Pixels in Processed Spectrum: 2048
>>>>>Begin Processed Spectral Data<<<<<
178.53	0.000
178.91	-1175.000
179.29	-1325.000
179.67	-211.111
180.04	-1200.000
180.42	2500.000
180.80	960.000
181.18	-975.000
181.56	614.286
181.94	0.000
182.31	-657.143
182.69	1333.333
183.07	-412.500
183.45	-466.667
183.83	563.636
184.20	-420.000
184.58	2100.000
184.96	5200.000
185.34	-900.000
185.72	-537.500
186.09	-2250.000
186.47	2250.000
186.85	2350.000
187.23	4300.000
187.61	-1733.333
187.98	1325.000
188.36	509.091
188.74	527.273
189.12	-880.000
189.49	560.000
189.87	-4800.000
190.25	-1050.000
190.63	378.571
191.00	392.308
191.38	750.000
191.76	-1125.000
192.14	1350.000
192.51	550.000
192.89	916.667
193.27	537.500
193.65	-1375.000
194.02	440.000
194.40	940.000
194.78	520.000
195.15	516.667
195.53	550.000
195.91	-1950.000
196.29	343.750
196.66	268.421
197.04	-340.000
197.42	0.000
197.79	550.000
198.17	-4600.000
198.55	700.000
198.92	637.500
199.30	880.000
199.68	0.000
200.05	283.333
200.43	757.143
200.81	4600.000
201.18	1666.667
201.56	-1466.667
201.94	477.778
202.31	488.889
202.69	416.667
203.07	530.000
203.44	0.000
203.82	1250.000
204.19	642.857
204.57	450.000
204.95	512.500
205.32	1500.000
205.70	536.364
206.08	350.000
206.45	2050.000
206.83	325.000
207.20	816.667
207.58	860.000
207.96	311.111
208.33	775.000
208.71	-833.333
209.08	714.286
209.46	533.333
209.84	418.182
210.21	-1466.667
210.59	1400.000
210.96	-600.000
211.34	2050.000
211.71	550.000
212.09	700.000
212.46	0.000
212.84	1966.667
213.22	1250.000
213.59	-4300.000
213.97	916.667
214.34	814.286
214.72	618.182
215.09	1040.000
215.47	-2450.000
215.84	-2100.000
216.22	1733.333
216.59	400.000
216.97	1250.000
217.34	454.545
217.72	-616.667
218.09	0.000
218.47	-5100.000
218.84	566.667
219.22	642.857
219.59	1866.667
219.97	-600.000
220.34	880.000
220.72	-1400.000
221.09	357.143
221.47	1575.000
221.84	-1016.667
222.22	0.000
222.59	1375.000
222.97	-2550.000
223.34	1140.000
223.72	384.615
224.09	1140.000
224.46	2100.000
224.84	-4200.000
225.21	-840.000
225.59	-4200.000
225.96	520.000
226.34	310.000
226.71	2350.000
227.08	650.000
227.46	420.000
227.83	-1075.000
228.21	-2050.000
228.58	555.556
228.95	-2600.000
229.33	-2050.000
229.70	1466.667
230.08	814.286
230.45	-780.000
230.82	333.333
231.20	750.000
231.57	714.286
231.95	466.667
232.32	240.909
232.69	363.636
233.07	528.571
233.44	384.615
233.81	-1566.667
234.19	273.684
234.56	433.333
234.93	283.333
235.31	418.182
235.68	330.769
236.05	335.714
236.43	139.394
236.80	231.579
237.17	4300.000
237.55	252.381
237.92	189.286
238.29	233.333
238.67	151.613
239.04	148.276
239.41	141.667
239.79	110.870
240.16	111.905
240.53	100.000
240.91	92.157
241.28	90.000
241.65	96.000
242.02	78.261
242.40	87.097
242.77	93.333
243.14	65.591
243.51	82.022
243.89	68.235
244.26	61.111
244.63	62.366
245.00	52.128
245.38	48.515
245.75	49.533
246.12	52.294
246.49	56.204
246.87	52.800
247.24	51.538
247.61	49.286
247.98	43.791
248.36	39.189
248.73	39.490
249.10	39.490
249.47	37.853
249.84	43.316
250.22	35.829
250.59	33.728
250.96	35.354
251.33	36.019
251.70	40.099
252.08	30.476
252.45	33.184
252.82	30.870
253.19	33.191
253.56	32.549
253.94	32.365
254.31	33.203
254.68	30.000
255.05	29.151
255.42	29.675
255.79	31.618
256.16	33.574
256.54	26.148
256.91	30.605
257.28	28.417
257.65	27.393
258.02	27.019
258.39	28.391
258.76	23.077
259.14	26.786
259.51	26.748
259.88	22.671
260.25	28.701
260.62	25.145
260.99	25.776
261.36	24.324
261.73	22.923
262.10	23.837
262.47	27.324
262.85	27.019
263.22	21.937
263.59	28.775
263.96	23.901
264.33	22.454
264.70	25.526
265.07	26.087
265.44	24.495
265.81	23.844
266.18	23.618
266.55	24.878
266.92	22.604
267.29	24.074
267.66	23.624
268.03	21.818
268.40	21.729
268.77	21.241
269.14	20.946
269.51	23.025
269.88	23.543
270.25	19.413
270.62	24.270
270.99	23.011
271.36	23.176
271.73	20.794
272.10	21.304
272.47	20.645
272.84	22.511
273.21	23.270
273.58	16.812
273.95	19.287
274.32	20.868
274.69	22.056
275.06	20.079
275.43	20.213
275.80	21.443
276.17	22.403
276.54	23.285
276.91	19.368
277.28	18.750
277.65	21.663
278.02	21.946
278.39	22.070
278.76	19.818
279.13	21.321
279.50	19.739
279.87	20.319
280.23	20.359
280.60	20.116
280.97	20.148
281.34	19.469
281.71	22.000
282.08	21.689
282.45	20.000
282.82	20.604
283.19	17.469
283.56	19.825
283.92	18.274
284.29	18.695
284.66	19.964
285.03	16.275
285.40	19.190
285.77	20.034
286.14	17.098
286.51	19.167
286.87	18.291
287.24	19.218
287.61	15.891
287.98	20.942
288.35	18.225
288.72	17.134
289.08	17.371
289.45	18.451
289.82	18.211
290.19	17.582
290.56	15.926
290.93	16.616
291.29	16.564
291.66	16.519
292.03	19.186
292.40	18.943
292.77	15.533
293.13	19.104
293.50	17.493
293.87	14.963
294.24	15.111
294.60	14.265
294.97	18.023
295.34	18.900
295.71	15.483
296.08	17.236
296.44	15.818
296.81	15.720
297.18	17.073
297.55	13.456
297.91	15.172
298.28	16.734
298.65	15.927
299.02	15.283
299.38	15.538
299.75	14.555
300.12	15.709
300.48	15.125
300.85	16.153
301.22	15.414
301.59	14.646
301.95	16.121
302.32	15.148
302.69	15.173
303.05	15.758
303.42	14.321
303.79	16.421
304.15	13.403
304.52	14.484
304.89	15.099
305.25	14.965
305.62	15.742
305.99	16.529
306.35	15.660
306.72	16.256
307.09	15.649
307.45	15.541
307.82	15.067
308.19	16.004
308.55	14.347
308.92	15.467
309.29	14.256
309.65	14.952
310.02	15.856
310.38	15.806
310.75	15.628
311.12	15.763
311.48	15.465
311.85	17.505
312.22	15.713
312.58	15.281
312.95	15.945
313.31	16.019
313.68	16.424
314.05	19.034
314.41	17.487
314.78	17.523
315.14	17.478
315.51	16.993
315.87	17.228
316.24	17.478
316.61	17.836
316.97	18.004
317.34	17.417
317.70	18.834
318.07	18.768
318.43	18.982
318.80	19.588
319.16	18.832
319.53	19.043
319.89	20.476
320.26	20.800
320.62	19.643
320.99	21.313
321.35	20.303
321.72	23.409
322.08	22.409
322.45	24.080
322.81	21.996
323.18	23.988
323.54	24.304
323.91	24.434
324.27	25.908
324.64	23.952
325.00	24.346
325.37	26.661
325.73	27.917
326.10	26.743
326.46	26.613
326.83	27.092
327.19	28.608
327.56	28.136
327.92	30.096
328.29	29.725
328.65	30.571
329.01	29.332
329.38	30.620
329.74	30.194
330.11	32.045
330.47	31.038
330.84	31.526
331.20	30.783
331.56	30.550
331.93	32.407
332.29	31.233
332.66	32.389
333.02	31.170
333.38	31.978
333.75	31.818
334.11	32.384
334.48	31.588
334.84	32.996
335.20	32.727
335.57	32.548
335.93	31.964
336.29	33.150
336.66	32.372
337.02	33.213
337.38	32.685
337.75	31.640
338.11	33.393
338.47	32.689
338.84	31.989
339.20	31.743
339.56	33.942
339.93	32.273
340.29	32.971
340.65	32.709
341.02	32.897
341.38	32.562
341.74	33.246
342.11	31.616
342.47	33.040
342.83	33.647
343.20	33.853
343.56	31.761
343.92	31.404
344.28	32.653
344.65	33.706
345.01	31.902
345.37	31.904
345.73	32.487
346.10	32.396
346.46	33.559
346.82	32.208
347.19	30.911
347.55	32.841
347.91	33.252
348.27	32.539
348.63	32.609
349.00	32.362
349.36	31.609
349.72	32.478
350.08	32.253
350.45	31.652
350.81	32.169
351.17	32.658
351.53	31.941
351.89	32.096
352.26	32.439
352.62	33.119
352.98	33.387
353.34	32.786
353.70	31.751
354.07	33.387
354.43	32.063
354.79	33.307
355.15	32.003
355.51	33.573
355.87	33.306
356.24	33.876
356.60	33.200
356.96	32.180
357.32	32.298
357.68	32.520
358.04	31.037
358.40	33.333
358.77	33.568
359.13	32.676
359.49	32.549
359.85	31.667
360.21	32.297
360.57	34.241
360.93	33.538
361.29	31.822
361.66	32.585
362.02	33.507
362.38	34.068
362.74	33.631
363.10	31.976
363.46	32.355
363.82	33.182
364.18	33.480
364.54	34.547
364.90	32.649
365.26	33.971
365.62	33.966
365.98	32.579
366.35	32.808
366.71	32.321
367.07	33.576
367.43	33.599
367.79	34.832
368.15	34.770
368.51	33.648
368.87	34.475
369.23	34.016
369.59	34.902
369.95	34.044
370.31	34.259
370.67	35.145
371.03	36.404
371.39	34.548
371.75	35.000
372.11	33.713
372.47	35.337
372.83	35.807
373.19	35.043
373.55	35.477
373.91	35.862
374.27	34.227
374.63	35.709
374.99	35.240
375.35	34.543
375.71	35.504
376.07	35.460
376.42	35.695
376.78	36.581
377.14	35.957
377.50	35.828
377.86	35.572
378.22	35.904
378.58	34.398
378.94	35.701
379.30	36.260
379.66	36.739
380.02	35.872
380.38	35.398
380.74	35.774
381.09	36.430
381.45	36.693
381.81	36.241
382.17	36.115
382.53	37.610
382.89	36.852
383.25	36.648
383.61	37.546
383.97	36.523
384.32	37.118
384.68	36.927
385.04	37.124
385.40	35.789
385.76	37.224
386.12	37.111
386.48	38.011
386.83	38.101
387.19	37.786
387.55	37.415
387.91	37.122
388.27	36.419
388.62	37.923
388.98	37.776
389.34	38.924
389.70	36.726
390.06	38.150
390.42	38.067
390.77	37.786
391.13	37.971
391.49	37.817
391.85	37.492
392.20	37.350
392.56	38.510
392.92	38.199
393.28	36.982
393.64	37.530
393.99	38.546
394.35	37.531
394.71	37.767
395.07	38.505
395.42	38.628
395.78	37.977
396.14	37.741
396.50	38.972
396.85	39.479
397.21	38.101
397.57	38.066
397.92	38.041
398.28	37.108
398.64	37.993
399.00	38.220
399.35	37.112
399.71	37.789
400.07	38.261
400.42	38.344
400.78	36.791
401.14	38.293
401.49	38.507
401.85	37.205
402.21	37.425
402.57	37.816
402.92	37.201
403.28	37.789
403.63	37.562
403.99	37.389
404.35	37.515
404.70	37.110
405.06	35.818
405.42	37.555
405.77	36.343
406.13	37.190
406.49	37.907
406.84	37.507
407.20	37.589
407.55	37.715
407.91	37.800
408.27	38.226
408.62	36.484
408.98	36.703
409.34	37.515
409.69	38.387
410.05	37.485
410.40	36.820
410.76	37.575
411.11	37.093
411.47	36.997
411.83	38.668
412.18	37.662
412.54	38.045
412.89	37.771
413.25	36.777
413.60	37.245
413.96	37.098
414.31	36.148
414.67	37.452
415.03	37.682
415.38	37.758
415.74	37.106
416.09	36.839
416.45	37.751
416.80	38.334
417.16	38.539
417.51	37.823
417.87	36.866
418.22	38.233
418.58	38.154
418.93	37.346
419.29	38.001
419.64	37.280
420.00	38.659
420.35	37.681
420.71	38.972
421.06	37.709
421.42	36.842
421.77	36.827
422.12	36.889
422.48	37.399
422.83	38.264
423.19	37.293
423.54	38.015
423.90	37.913
424.25	38.582
424.61	37.202
424.96	37.959
425.31	37.652
425.67	36.910
426.02	36.400
426.38	38.828
426.73	38.092
427.09	38.176
427.44	37.263
427.79	38.355
428.15	37.262
428.50	36.805
428.85	38.558
429.21	37.714
429.56	37.843
429.92	37.242
430.27	37.587
430.62	36.457
430.98	36.793
431.33	37.165
431.68	37.749
432.04	37.593
432.39	36.950
432.74	38.600
433.10	38.031
433.45	38.426
433.80	38.581
434.16	37.447
434.51	37.684
434.86	38.655
435.22	38.744
435.57	38.480
435.92	38.444
436.28	38.434
436.63	38.190
436.98	37.836
437.34	39.058
437.69	38.390
438.04	38.111
438.39	39.104
438.75	39.744
439.10	38.268
439.45	38.076
439.81	38.429
440.16	38.679
440.51	38.664
440.86	39.433
441.22	38.654
441.57	38.694
441.92	38.536
442.27	39.074
442.63	38.336
442.98	39.099
443.33	38.641
443.68	37.739
444.03	38.214
444.39	37.634
444.74	39.123
445.09	39.030
445.44	38.218
445.79	38.347
446.15	39.174
446.50	38.449
446.85	38.541
447.20	39.113
447.55	39.587
447.91	38.886
448.26	39.121
448.61	39.231
448.96	39.092
449.31	39.370
449.66	38.267
450.02	39.499
450.37	39.059
450.72	39.143
451.07	38.208
451.42	38.663
451.77	39.812
452.12	39.088
452.47	39.552
452.83	39.452
453.18	39.425
453.53	39.951
453.88	38.748
454.23	39.928
454.58	39.794
454.93	39.161
455.28	38.965
455.63	39.078
455.98	40.179
456.34	39.259
456.69	39.136
457.04	40.248
457.39	37.522
457.74	38.421
458.09	39.160
458.44	39.453
458.79	38.124
459.14	38.883
459.49	38.879
459.84	39.335
460.19	38.892
460.54	38.600
460.89	39.879
461.24	39.709
461.59	39.977
461.94	39.704
462.29	40.356
462.64	39.630
462.99	39.623
463.34	40.000
463.69	39.400
464.04	39.362
464.39	40.116
464.74	38.681
465.09	39.204
465.44	38.393
465.79	37.919
466.14	37.822
466.49	37.375
466.84	39.813
467.19	38.322
467.54	39.688
467.89	38.115
468.24	39.558
468.59	40.049
468.94	38.668
469.29	40.424
469.64	40.361
469.99	39.378
470.34	39.960
470.68	41.020
471.03	39.456
471.38	39.333
471.73	39.107
472.08	40.855
472.43	39.008
472.78	39.105
473.13	38.960
473.48	39.388
473.83	38.659
474.17	38.830
474.52	39.764
474.87	39.463
475.22	38.712
475.57	39.119
475.92	38.449
476.27	39.402
476.61	38.058
476.96	38.483
477.31	38.619
477.66	39.333
478.01	37.689
478.36	38.340
478.70	38.733
479.05	38.339
479.40	38.178
479.75	38.892
480.10	39.165
480.45	38.125
480.79	37.840
481.14	38.748
481.49	38.633
481.84	38.729
482.19	38.483
482.53	37.706
482.88	39.041
483.23	38.925
483.58	38.672
483.92	39.082
484.27	37.996
484.62	37.759
484.97	37.249
485.31	37.877
485.66	36.136
486.01	34.396
486.36	32.775
486.70	31.460
487.05	33.875
487.40	34.602
487.75	35.761
488.09	36.518
488.44	36.858
488.79	38.481
489.13	38.235
489.48	38.622
489.83	38.843
490.17	38.536
490.52	37.467
490.87	38.263
491.22	37.881
491.56	37.904
491.91	37.366
492.26	36.472
492.60	37.189
492.95	38.307
493.30	37.430
493.64	37.517
493.99	37.512
494.34	38.252
494.68	38.462
495.03	38.252
495.37	37.925
495.72	38.450
496.07	38.747
496.41	37.965
496.76	37.467
497.11	37.596
497.45	37.587
497.80	38.724
498.14	38.068
498.49	39.024
498.84	38.686
499.18	37.952
499.53	37.797
499.87	37.512
500.22	37.965
500.56	38.301
500.91	37.885
501.26	38.028
501.60	38.586
501.95	37.626
502.29	38.894
502.64	38.082
502.98	37.915
503.33	37.843
503.67	38.515
504.02	37.512
504.36	37.857
504.71	38.251
505.06	38.699
505.40	37.579
505.75	37.705
506.09	38.776
506.44	37.543
506.78	38.091
507.13	38.617
507.47	38.030
507.82	38.956
508.16	38.754
508.51	39.320
508.85	38.133
509.19	39.286
509.54	38.112
509.88	37.609
510.23	37.738
510.57	38.493
510.92	39.099
511.26	38.952
511.61	38.900
511.95	37.683
512.30	39.236
512.64	39.549
512.98	39.925
513.33	38.865
513.67	38.154
514.02	38.203
514.36	39.541
514.70	39.956
515.05	38.204
515.39	39.035
515.74	40.259
516.08	39.743
516.42	39.012
516.77	39.130
517.11	38.901
517.46	38.995
517.80	40.070
518.14	39.606
518.49	40.373
518.83	39.659
519.17	40.242
519.52	40.011
519.86	39.932
520.20	40.173
520.55	40.634
520.89	40.693
521.23	41.013
521.58	40.456
521.92	41.090
522.26	39.658
522.61	40.561
522.95	39.533
523.29	40.170
523.64	39.817
523.98	40.419
524.32	39.626
524.66	39.808
525.01	39.890
525.35	39.653
525.69	39.717
526.04	41.308
526.38	39.963
526.72	39.141
527.06	40.301
527.41	38.800
527.75	40.000
528.09	40.398
528.43	40.217
528.78	40.197
529.12	38.727
529.46	40.294
529.80	39.666
530.15	39.626
530.49	39.138
530.83	40.316
531.17	40.992
531.51	40.532
531.86	39.677
532.20	40.548
532.54	39.846
532.88	40.757
533.22	39.600
533.57	38.889
533.91	39.193
534.25	39.915
534.59	39.109
534.93	38.905
535.27	39.771
535.62	38.889
535.96	39.422
536.30	39.797
536.64	39.214
536.98	40.610
537.32	39.697
537.66	39.867
538.01	39.829
538.35	40.401
538.69	39.438
539.03	39.376
539.37	39.489
539.71	37.719
540.05	39.085
540.39	40.465
540.73	38.680
541.07	39.779
541.42	39.726
541.76	40.194
542.10	39.909
542.44	39.669
542.78	40.184
543.12	38.580
543.46	40.328
543.80	40.013
544.14	38.768
544.48	39.810
544.82	39.641
545.16	39.753
545.50	39.589
545.84	39.852
546.18	39.663
546.52	40.743
546.86	39.725
547.20	40.391
547.54	41.216
547.88	40.306
548.22	39.352
548.56	38.868
548.90	38.476
549.24	37.778
549.58	38.881
549.92	39.286
550.26	40.625
550.60	39.281
550.94	40.211
551.28	40.819
551.62	40.690
551.96	39.298
552.30	40.273
552.64	40.230
552.98	40.000
553.32	39.177
553.66	39.877
554.00	40.288
554.34	39.406
554.68	40.415
555.02	39.774
555.36	40.571
555.69	39.513
556.03	38.493
556.37	39.905
556.71	39.018
557.05	39.566
557.39	39.118
557.73	40.085
558.07	39.956
558.41	39.797
558.75	41.367
559.08	41.089
559.42	41.270
559.76	40.074
560.10	38.901
560.44	39.273
560.78	39.388
561.12	38.786
561.45	39.048
561.79	39.288
562.13	39.235
562.47	39.617
562.81	39.958
563.15	38.796
563.48	39.523
563.82	38.943
564.16	39.307
564.50	39.128
564.84	38.369
565.17	38.610
565.51	39.489
565.85	38.579
566.19	38.447
566.52	38.759
566.86	38.095
567.20	38.797
567.54	38.584
567.88	37.643
568.21	38.201
568.55	37.260
568.89	36.381
569.23	36.497
569.56	35.506
569.90	34.264
570.24	34.266
570.57	33.526
570.91	33.581
571.25	33.508
571.59	33.196
571.92	33.180
572.26	33.102
572.60	34.084
572.93	32.924
573.27	33.392
573.61	33.166
573.95	33.127
574.28	32.714
574.62	32.604
574.96	32.449
575.29	32.202
575.63	32.215
575.97	32.648
576.30	32.528
576.64	32.828
576.98	33.082
577.31	32.255
577.65	32.465
577.98	31.866
578.32	31.811
578.66	31.803
578.99	32.527
579.33	32.244
579.67	32.401
580.00	32.582
580.34	32.701
580.67	32.475
581.01	32.449
581.35	32.215
581.68	32.379
582.02	31.345
582.35	31.555
582.69	31.874
583.02	31.555
583.36	32.811
583.70	33.142
584.03	33.542
584.37	34.124
584.70	33.568
585.04	33.244
585.37	33.062
585.71	32.636
586.04	32.327
586.38	33.438
586.72	33.996
587.05	32.355
587.39	32.559
587.72	33.007
588.06	33.324
588.39	33.416
588.73	33.500
589.06	34.092
589.40	34.613
589.73	34.600
590.07	34.733
590.40	33.650
590.73	35.558
591.07	35.450
591.40	35.470
591.74	35.974
592.07	35.820
592.41	34.436
592.74	34.382
593.08	34.111
593.41	33.565
593.75	33.198
594.08	33.389
594.41	33.369
594.75	34.085
595.08	34.324
595.42	34.361
595.75	34.117
596.09	34.435
596.42	35.953
596.75	35.880
597.09	35.152
597.42	35.034
597.75	35.576
598.09	35.043
598.42	34.837
598.76	34.333
599.09	33.485
599.42	33.588
599.76	33.529
600.09	33.625
600.42	33.638
600.76	32.964
601.09	33.807
601.42	33.638
601.76	33.890
602.09	34.427
602.42	34.037
602.76	35.026
603.09	34.540
603.42	34.830
603.76	33.537
604.09	35.014
604.42	35.018
604.76	35.976
605.09	35.518
605.42	35.271
605.75	34.851
606.09	33.672
606.42	34.042
606.75	34.094
607.09	35.077
607.42	35.088
607.75	34.430
608.08	34.390
608.42	35.365
608.75	34.581
609.08	34.783
609.41	35.745
609.75	35.255
610.08	35.580
610.41	34.078
610.74	35.099
611.07	36.957
611.41	36.016
611.74	36.450
612.07	35.973
612.40	36.936
612.73	36.263
613.07	37.231
613.40	36.967
613.73	35.396
614.06	35.860
614.39	35.973
614.72	35.684
615.06	36.397
615.39	35.510
615.72	34.969
616.05	35.513
616.38	37.688
616.71	37.114
617.05	37.456
617.38	38.124
617.71	38.018
618.04	37.680
618.37	36.665
618.70	37.212
619.03	37.632
619.36	38.357
619.69	38.662
620.03	38.049
620.36	37.834
620.69	39.110
621.02	39.233
621.35	39.781
621.68	39.174
622.01	38.854
622.34	40.015
622.67	39.544
623.00	38.665
623.33	37.598
623.66	37.527
623.99	38.807
624.32	38.445
624.65	37.712
624.99	38.314
625.32	37.799
625.65	38.317
625.98	40.430
626.31	39.580
626.64	39.837
626.97	41.563
627.30	41.230
627.63	40.443
627.96	40.286
628.29	41.907
628.62	42.543
628.95	43.302
629.28	41.332
629.61	43.171
629.94	42.286
630.26	41.277
630.59	41.373
630.92	41.188
631.25	41.955
631.58	42.242
631.91	43.408
632.24	42.827
632.57	43.442
632.90	44.298
633.23	43.512
633.56	43.277
633.89	42.695
634.22	44.722
634.55	45.562
634.88	43.114
635.20	46.237
635.53	43.976
635.86	45.421
636.19	42.588
636.52	44.060
636.85	43.986
637.18	42.972
637.51	44.917
637.83	43.033
638.16	44.246
638.49	44.458
638.82	45.006
639.15	45.375
639.48	45.137
639.81	47.453
640.13	46.094
640.46	45.906
640.79	45.443
641.12	43.741
641.45	46.089
641.77	46.981
642.10	46.930
642.43	46.997
642.76	47.523
643.09	47.086
643.41	46.434
643.74	49.074
644.07	48.018
644.40	49.387
644.73	46.457
645.05	49.762
645.38	46.288
645.71	49.114
646.04	49.336
646.36	48.581
646.69	46.990
647.02	48.980
647.35	50.000
647.67	50.973
648.00	48.943
648.33	47.195
648.66	46.515
648.98	47.226
649.31	45.441
649.64	44.395
649.96	46.498
650.29	47.709
650.62	47.411
650.94	47.974
651.27	48.986
651.60	47.255
651.92	46.965
652.25	44.463
652.58	45.950
652.90	47.393
653.23	45.300
653.56	45.039
653.88	47.227
654.21	46.130
654.54	45.875
654.86	46.729
655.19	43.108
655.52	29.827
655.84	25.687
656.17	32.207
656.49	43.538
656.82	44.763
657.15	34.396
657.47	25.993
657.80	20.409
658.13	21.643
658.45	32.751
658.78	33.472
659.10	35.888
659.43	38.666
659.75	40.152
660.08	42.911
660.41	47.579
660.73	49.936
661.06	49.841
661.38	52.364
661.71	51.538
662.03	51.085
662.36	48.111
662.68	51.205
663.01	50.303
663.33	47.983
663.66	51.471
663.98	52.052
664.31	49.790
664.63	48.988
664.96	45.674
665.28	52.459
665.61	47.563
665.93	47.082
666.26	47.059
666.58	50.418
666.91	52.854
667.23	54.382
667.56	46.868
667.88	49.359
668.21	51.173
668.53	50.108
668.86	49.784
669.18	50.320
669.50	51.304
669.83	52.070
670.15	51.111
670.48	49.673
670.80	50.000
671.13	48.408
671.45	47.660
671.77	50.509
672.10	47.874
672.42	45.053
672.75	46.103
673.07	44.894
673.39	44.485
673.72	47.266
674.04	51.176
674.37	45.631
674.69	47.239
675.01	47.699
675.34	49.692
675.66	52.421
675.98	51.324
676.31	50.420
676.63	49.469
676.95	51.572
677.28	50.467
677.60	50.769
677.92	52.321
678.25	50.308
678.57	49.004
678.89	49.299
679.22	46.365
679.54	47.328
679.86	46.422
680.18	46.333
680.51	45.922
680.83	47.331
681.15	46.038
681.48	48.393
681.80	47.582
682.12	46.743
682.44	45.648
682.77	51.120
683.09	52.790
683.41	49.667
683.73	52.097
684.06	48.347
684.38	45.401
684.70	46.705
685.02	46.341
685.34	45.604
685.67	44.580
685.99	44.502
686.31	45.222
686.63	41.696
686.96	40.893
687.28	45.487
687.60	46.196
687.92	46.069
688.24	45.627
688.56	46.787
688.89	48.133
689.21	48.908
689.53	47.808
689.85	49.224
690.17	44.513
690.49	49.469
690.82	50.000
691.14	48.661
691.46	47.679
691.78	48.795
692.10	48.347
692.42	47.106
692.74	48.133
693.06	48.723
693.39	47.639
693.71	46.070
694.03	49.474
694.35	47.619
694.67	46.911
694.99	49.512
695.31	48.529
695.63	49.282
695.95	49.633
696.27	52.284
696.59	48.705
696.91	49.482
697.23	44.601
697.56	46.055
697.88	43.558
698.20	43.333
698.52	45.161
698.84	48.107
699.16	48.848
699.48	48.931
699.80	46.135
700.12	56.104
700.44	49.867
700.76	50.829
701.08	50.000
701.40	52.235
701.72	53.061
702.04	57.386
702.36	50.142
702.68	52.125
703.00	50.139
703.32	49.202
703.64	47.721
703.96	52.368
704.28	51.744
704.60	54.252
704.91	51.632
705.23	55.425
705.55	57.475
705.87	57.143
706.19	53.357
706.51	52.960
706.83	50.606
707.15	51.541
707.47	48.232
707.79	48.403
708.11	46.347
708.43	47.381
708.74	47.194
709.06	50.390
709.38	48.819
709.70	54.942
710.02	50.742
710.34	50.606
710.66	53.134
710.98	52.841
711.29	48.256
711.61	53.097
711.93	52.564
712.25	56.592
712.57	59.191
712.89	58.131
713.20	47.720
713.52	52.303
713.84	50.633
714.16	50.915
714.48	47.414
714.80	56.535
715.11	49.568
715.43	48.071
715.75	47.246
716.07	49.521
716.39	49.530
716.70	53.821
717.02	55.396
717.34	53.357
717.66	58.955
717.97	62.151
718.29	59.630
718.61	55.109
718.93	58.456
719.24	52.249
719.56	51.864
719.88	54.576
720.20	54.730
720.51	56.794
720.83	55.019
721.15	49.627
721.46	53.191
721.78	53.047
722.10	54.717
722.42	58.271
722.73	53.933
723.05	56.557
723.37	57.085
723.68	54.440
724.00	55.285
724.32	58.468
724.63	55.691
724.95	56.067
725.27	55.061
725.58	58.203
725.90	54.015
726.22	52.453
726.53	53.125
726.85	49.829
727.16	54.448
727.48	51.773
727.80	52.273
728.11	52.174
728.43	53.846
728.74	54.122
729.06	56.569
729.38	58.456
729.69	51.957
730.01	46.758
730.32	49.653
730.64	49.164
730.96	46.535
731.27	48.675
731.59	47.706
731.90	48.980
732.22	49.379
732.53	45.201
732.85	53.205
733.16	48.875
733.48	53.156
733.80	47.727
734.11	46.815
734.43	43.787
734.74	40.857
735.06	44.413
735.37	48.555
735.69	50.000
736.00	54.902
736.32	49.221
736.63	46.645
736.95	47.284
737.26	45.578
737.58	45.161
737.89	51.505
738.21	49.829
738.52	52.857
738.83	52.075
739.15	51.923
739.46	52.920
739.78	45.833
740.09	49.538
740.41	50.323
740.72	45.993
741.04	54.444
741.35	52.500
741.66	60.444
741.98	50.943
742.29	67.464
742.61	55.603
742.92	62.896
743.23	55.556
743.55	52.400
743.86	55.263
744.18	61.947
744.49	62.679
744.80	57.746
745.12	60.909
745.43	55.947
745.74	61.712
746.06	58.257
746.37	53.363
746.68	57.466
747.00	57.870
747.31	63.333
747.62	51.770
747.94	53.744
748.25	50.638
748.56	57.709
748.88	59.901
749.19	65.000
749.50	55.814
749.82	50.000
750.13	51.837
750.44	45.620
750.75	49.474
751.07	50.482
751.38	48.432
751.69	50.903
752.01	47.368
752.32	46.570
752.63	52.837
752.94	53.279
753.26	57.200
753.57	48.374
753.88	51.562
754.19	48.571
754.51	51.042
754.82	43.321
755.13	50.943
755.44	47.368
755.75	48.905
756.07	47.163
756.38	45.255
756.69	48.322
757.00	41.916
757.31	43.917
757.63	45.029
757.94	40.483
758.25	40.931
758.56	39.506
758.87	42.473
759.18	45.152
759.50	39.812
759.81	46.106
760.12	41.250
760.43	42.980
760.74	39.402
761.05	43.785
761.36	41.979
761.67	44.602
761.99	45.342
762.30	50.694
762.61	47.710
762.92	46.094
763.23	48.319
763.54	51.200
763.85	51.172
764.16	51.538
764.47	52.091
764.78	43.463
765.10	39.873
765.41	43.068
765.72	45.509
766.03	47.962
766.34	43.333
766.65	54.894
766.96	50.427
767.27	57.360
767.58	58.854
767.89	65.263
768.20	58.046
768.51	55.838
768.82	52.752
769.13	50.000
769.44	46.559
769.75	49.785
770.06	47.706
770.37	54.751
770.68	49.537
770.99	51.556
771.30	39.344
771.61	52.915
771.92	47.541
772.23	54.622
772.54	58.462
772.85	53.927
773.16	61.170
773.47	54.891
773.78	51.269
774.09	62.500
774.39	60.819
774.70	57.407
775.01	71.739
775.32	64.052
775.63	61.184
775.94	72.662
776.25	80.315
776.56	64.925
776.87	68.852
777.18	69.531
777.48	64.885
777.79	69.697
778.10	60.000
778.41	74.107
778.72	56.204
779.03	58.389
779.34	65.772
779.65	58.108
779.95	58.282
780.26	63.399
780.57	71.724
780.88	75.781
781.19	69.925
781.50	63.514
781.80	59.748
782.11	52.542
782.42	51.266
782.73	50.920
783.04	55.405
783.34	63.380
783.65	65.068
783.96	67.910
784.27	62.238
784.57	61.871
784.88	64.815
785.19	79.365
785.50	68.868
785.81	65.672
786.11	77.049
786.42	64.341
786.73	69.912
787.04	68.868
787.34	73.214
787.65	77.000
787.96	70.270
788.26	71.074
788.57	77.966
788.88	74.380
789.19	65.972
789.49	75.000
789.80	75.573
790.11	88.571
790.41	78.218
790.72	85.542
791.03	88.043
791.33	79.070
791.64	88.660
791.95	72.277
792.25	81.111
792.56	96.104
792.87	106.410
793.17	91.139
793.48	90.805
793.79	82.759
794.09	70.455
794.40	66.387
794.70	68.382
795.01	59.259
795.32	62.590
795.62	60.630
795.93	62.931
796.23	72.566
796.54	84.706
796.85	85.135
797.15	100.000
797.46	95.455
797.76	89.157
798.07	94.937
798.37	101.538
798.68	100.000
798.99	90.141
799.29	87.013
799.60	84.091
799.90	93.151
800.21	117.910
800.51	100.000
800.82	124.561
801.12	91.803
801.43	100.000
801.73	97.297
802.04	115.873
802.34	81.481
802.65	90.625
802.95	113.559
803.26	118.750
803.56	95.714
803.87	96.923
804.17	105.882
804.48	114.815
804.78	96.552
805.09	105.882
805.39	119.231
805.70	89.286
806.00	124.590
806.30	104.545
806.61	96.341
806.91	87.342
807.22	93.421
807.52	83.582
807.83	80.282
808.13	103.125
808.43	111.667
808.74	71.053
809.04	84.058
809.35	95.522
809.65	94.737
809.95	124.194
810.26	103.390
810.56	119.048
810.86	143.182
811.17	154.762
811.47	110.000
811.77	111.111
812.08	125.455
812.38	134.000
812.69	147.222
812.99	159.091
813.29	112.245
813.59	116.667
813.90	146.939
814.20	121.818
814.50	101.538
814.81	108.824
815.11	120.408
815.41	101.639
815.72	157.143
816.02	134.545
816.32	145.238
816.62	137.500
816.93	168.293
817.23	138.095
817.53	129.545
817.84	184.848
818.14	115.217
818.44	126.667
818.74	185.294
819.04	147.500
819.35	168.571
819.65	144.118
819.95	160.714
820.25	200.000
820.56	169.231
820.86	140.909
821.16	141.860
821.46	143.590
821.76	154.000
822.07	165.714
822.37	140.000
822.67	142.424
822.97	129.412
823.27	178.571
823.57	135.135
823.88	160.000
824.18	193.333
824.48	150.000
824.78	208.000
825.08	170.833
825.38	172.973
825.69	129.268
825.99	208.333
826.29	144.828
826.59	165.789
826.89	157.895
827.19	173.529
827.49	180.645
827.79	131.818
828.09	147.727
828.39	140.426
828.70	128.571
829.00	185.185
829.30	183.871
829.60	142.500
829.90	353.333
830.20	217.857
830.50	200.000
830.80	186.957
831.10	166.667
831.40	186.667
831.70	191.304
832.00	223.077
832.30	207.407
832.60	275.000
832.90	186.667
833.20	328.571
833.50	203.226
833.80	217.241
834.10	193.750
834.40	234.615
834.70	338.889
835.00	314.286
835.30	168.571
835.60	407.692
835.90	203.448
836.20	257.143
836.50	193.103
836.80	172.000
837.10	144.444
837.40	280.952
837.70	323.529
838.00	225.926
838.30	257.143
838.60	271.429
838.90	226.923
839.19	270.000
839.49	385.714
839.79	340.000
840.09	265.000
840.39	295.238
840.69	308.696
840.99	294.444
841.29	480.000
841.59	333.333
841.88	268.750
842.18	175.862
842.48	252.381
842.78	190.000
843.08	239.130
843.38	175.000
843.68	833.333
843.97	261.538
844.27	189.655
844.57	309.524
844.87	393.750
845.17	214.815
845.47	1433.333
845.76	455.556
846.06	317.647
846.36	350.000
846.66	328.571
846.96	300.000
847.25	472.727
847.55	381.818
847.85	234.783
848.15	520.000
848.44	364.286
848.74	238.889
849.04	294.118
849.34	500.000
849.63	268.421
849.93	363.636
850.23	920.000
850.53	464.286
850.82	2400.000
851.12	-3800.000
851.42	4300.000
851.71	230.000
852.01	-1200.000
852.31	212.500
852.61	1733.333
852.90	242.857
853.20	216.000
853.50	264.706
853.79	261.905
854.09	175.000
854.39	381.250
854.68	178.378
854.98	203.226
855.28	166.667
855.57	237.931
855.87	225.926
856.17	205.263
856.46	233.333
856.76	258.824
857.05	196.552
857.35	204.167
857.65	406.667
857.94	243.478
858.24	234.615
858.53	280.000
858.83	245.455
859.13	366.667
859.42	0.000
859.72	522.222
860.01	527.273
860.31	245.455
860.60	236.842
860.90	239.130
861.20	633.333
861.49	441.667
861.79	-3600.000
862.08	550.000
862.38	266.667
862.67	346.154
862.97	329.412
863.26	566.667
863.56	261.111
863.85	391.667
864.15	425.000
864.44	406.667
864.74	783.333
865.03	612.500
865.33	247.368
865.62	500.000
865.92	423.077
866.21	375.000
866.51	0.000
866.80	472.727
867.10	1040.000
867.39	376.923
867.69	418.182
867.98	221.053
868.27	400.000
868.57	342.105
868.86	-4000.000
869.16	350.000
869.45	2200.000
869.75	-4100.000
870.04	466.667
870.33	642.857
870.63	950.000
870.92	2350.000
871.22	828.571
871.51	258.824
871.80	209.524
872.10	400.000
>>>>>End Processed Spectral Data<<<<<
