SpectraSuite Data File
++++++++++++++++++++++++++++++++++++
Date: Wed May 13 16:51:49 PDT 2015
User: schluterlab
Dark Spectrum Present: Yes
Reference Spectrum Present: Yes
Number of Sampled Component Spectra: 1
Spectrometers: USB2E3373
Integration Time (usec): 3000 (USB2E3373)
Spectra Averaged: 3 (USB2E3373)
Boxcar Smoothing: 0 (USB2E3373)
Correct for Electrical Dark: No (USB2E3373)
Strobe/Lamp Enabled: No (USB2E3373)
Correct for Detector Non-linearity: No (USB2E3373)
Correct for Stray Light: No (USB2E3373)
Number of Pixels in Processed Spectrum: 2048
>>>>>Begin Processed Spectral Data<<<<<
178.53	0.000
178.91	-1450.000
179.29	-1375.000
179.67	-238.889
180.04	-1375.000
180.42	2850.000
180.80	1000.000
181.18	-875.000
181.56	842.857
181.94	0.000
182.31	-714.286
182.69	1466.667
183.07	-587.500
183.45	-533.333
183.83	500.000
184.20	-510.000
184.58	2600.000
184.96	4800.000
185.34	-880.000
185.72	-537.500
186.09	-2500.000
186.47	3000.000
186.85	2800.000
187.23	5500.000
187.61	-1700.000
187.98	1350.000
188.36	509.091
188.74	545.455
189.12	-700.000
189.49	590.000
189.87	-5000.000
190.25	-1250.000
190.63	442.857
191.00	461.538
191.38	883.333
191.76	-1175.000
192.14	1300.000
192.51	587.500
192.89	883.333
193.27	625.000
193.65	-950.000
194.02	480.000
194.40	1020.000
194.78	550.000
195.15	550.000
195.53	530.000
195.91	-2100.000
196.29	343.750
196.66	321.053
197.04	-390.000
197.42	0.000
197.79	700.000
198.17	-4400.000
198.55	671.429
198.92	675.000
199.30	920.000
199.68	0.000
200.05	300.000
200.43	900.000
200.81	3400.000
201.18	1466.667
201.56	-1466.667
201.94	577.778
202.31	633.333
202.69	466.667
203.07	550.000
203.44	0.000
203.82	1200.000
204.19	757.143
204.57	457.143
204.95	662.500
205.32	1666.667
205.70	554.545
206.08	271.429
206.45	2600.000
206.83	362.500
207.20	816.667
207.58	780.000
207.96	277.778
208.33	575.000
208.71	-1016.667
209.08	728.571
209.46	544.444
209.84	481.818
210.21	-1600.000
210.59	1425.000
210.96	-562.500
211.34	2200.000
211.71	620.000
212.09	616.667
212.46	0.000
212.84	1566.667
213.22	1475.000
213.59	-4800.000
213.97	833.333
214.34	800.000
214.72	600.000
215.09	1140.000
215.47	-2400.000
215.84	-2600.000
216.22	1500.000
216.59	450.000
216.97	1275.000
217.34	500.000
217.72	-633.333
218.09	0.000
218.47	-4300.000
218.84	600.000
219.22	757.143
219.59	1733.333
219.97	-571.429
220.34	840.000
220.72	-1566.667
221.09	414.286
221.47	1400.000
221.84	-916.667
222.22	0.000
222.59	1400.000
222.97	-2400.000
223.34	1020.000
223.72	446.154
224.09	980.000
224.46	2000.000
224.84	-4900.000
225.21	-960.000
225.59	-5000.000
225.96	520.000
226.34	330.000
226.71	2650.000
227.08	687.500
227.46	600.000
227.83	-1050.000
228.21	-2600.000
228.58	655.556
228.95	-2200.000
229.33	-2300.000
229.70	1900.000
230.08	714.286
230.45	-940.000
230.82	450.000
231.20	716.667
231.57	600.000
231.95	383.333
232.32	209.091
232.69	354.545
233.07	671.429
233.44	392.308
233.81	-1666.667
234.19	321.053
234.56	466.667
234.93	400.000
235.31	390.909
235.68	369.231
236.05	342.857
236.43	172.727
236.80	315.789
237.17	4200.000
237.55	228.571
237.92	221.429
238.29	280.952
238.67	177.419
239.04	186.207
239.41	144.444
239.79	130.435
240.16	133.333
240.53	143.182
240.91	96.078
241.28	136.000
241.65	138.000
242.02	95.652
242.40	112.903
242.77	108.333
243.14	90.323
243.51	88.764
243.89	90.588
244.26	80.000
244.63	89.247
245.00	64.894
245.38	78.218
245.75	74.766
246.12	79.817
246.49	70.073
246.87	76.000
247.24	66.154
247.61	62.857
247.98	61.438
248.36	58.108
248.73	65.605
249.10	56.688
249.47	57.627
249.84	56.150
250.22	53.476
250.59	57.396
250.96	55.556
251.33	53.081
251.70	55.941
252.08	51.429
252.45	52.915
252.82	52.609
253.19	48.085
253.56	50.588
253.94	49.378
254.31	46.094
254.68	53.846
255.05	46.863
255.42	49.593
255.79	45.956
256.16	53.069
256.54	43.110
256.91	48.754
257.28	44.245
257.65	45.545
258.02	46.584
258.39	41.325
258.76	45.819
259.14	44.643
259.51	43.465
259.88	40.994
260.25	44.109
260.62	41.618
260.99	43.478
261.36	45.646
261.73	38.109
262.10	39.826
262.47	48.169
262.85	41.226
263.22	42.450
263.59	44.160
263.96	40.934
264.33	40.209
264.70	42.105
265.07	42.711
265.44	40.909
265.81	38.686
266.18	39.950
266.55	39.268
266.92	39.803
267.29	39.583
267.66	38.073
268.03	39.091
268.40	39.953
268.77	40.811
269.14	37.613
269.51	37.923
269.88	39.627
270.25	39.278
270.62	39.551
270.99	38.710
271.36	38.627
271.73	37.383
272.10	38.261
272.47	41.290
272.84	39.394
273.21	37.736
273.58	36.245
273.95	36.268
274.32	37.190
274.69	40.685
275.06	34.843
275.43	39.787
275.80	35.070
276.17	37.882
276.54	38.046
276.91	38.735
277.28	35.938
277.65	36.750
278.02	35.197
278.39	37.305
278.76	34.727
279.13	35.094
279.50	35.382
279.87	37.450
280.23	37.325
280.60	35.977
280.97	36.044
281.34	35.044
281.71	34.909
282.08	35.509
282.45	35.273
282.82	34.458
283.19	33.155
283.56	33.684
283.92	34.518
284.29	35.626
284.66	33.575
285.03	35.624
285.40	35.563
285.77	33.333
286.14	32.988
286.51	33.167
286.87	34.017
287.24	32.248
287.61	33.387
287.98	33.604
288.35	32.013
288.72	31.153
289.08	32.707
289.45	31.796
289.82	32.683
290.19	29.042
290.56	29.862
290.93	29.909
291.29	29.141
291.66	29.646
292.03	32.413
292.40	32.305
292.77	30.769
293.13	29.851
293.50	31.050
293.87	32.000
294.24	28.444
294.60	26.638
294.97	28.052
295.34	29.337
295.71	29.972
296.08	27.778
296.44	28.198
296.81	27.345
297.18	29.539
297.55	25.726
297.91	27.968
298.28	28.916
298.65	27.023
299.02	26.877
299.38	24.834
299.75	26.146
300.12	26.437
300.48	26.125
300.85	25.524
301.22	26.115
301.59	24.116
301.95	25.819
302.32	26.444
302.69	25.926
303.05	24.848
303.42	22.840
303.79	25.821
304.15	24.126
304.52	24.913
304.89	24.739
305.25	24.710
305.62	24.689
305.99	24.793
306.35	24.832
306.72	26.233
307.09	24.639
307.45	25.901
307.82	24.442
308.19	24.834
308.55	25.566
308.92	24.812
309.29	24.287
309.65	25.133
310.02	26.216
310.38	26.559
310.75	25.343
311.12	25.486
311.48	24.765
311.85	26.310
312.22	24.974
312.58	25.364
312.95	26.082
313.31	24.466
313.68	25.884
314.05	28.501
314.41	24.925
314.78	26.888
315.14	25.323
315.51	25.953
315.87	26.436
316.24	25.819
316.61	27.096
316.97	26.517
317.34	27.006
317.70	27.725
318.07	27.334
318.43	27.984
318.80	28.304
319.16	28.531
319.53	28.893
319.89	29.810
320.26	31.000
320.62	28.968
320.99	30.404
321.35	31.919
321.72	30.390
322.08	30.898
322.45	32.239
322.81	32.267
323.18	31.407
323.54	30.519
323.91	31.698
324.27	30.975
324.64	32.526
325.00	32.642
325.37	33.121
325.73	33.303
326.10	34.598
326.46	34.857
326.83	35.548
327.19	34.500
327.56	34.582
327.92	35.958
328.29	36.291
328.65	37.017
329.01	36.643
329.38	37.465
329.74	36.842
330.11	37.889
330.47	38.017
330.84	37.868
331.20	37.887
331.56	36.514
331.93	38.056
332.29	37.445
332.66	36.726
333.02	37.386
333.38	38.753
333.75	38.592
334.11	37.900
334.48	37.267
334.84	39.062
335.20	38.455
335.57	37.625
335.93	36.339
336.29	36.722
336.66	38.052
337.02	36.833
337.38	38.426
337.75	38.146
338.11	38.675
338.47	38.214
338.84	38.680
339.20	37.431
339.56	39.325
339.93	38.636
340.29	38.768
340.65	39.305
341.02	39.616
341.38	39.057
341.74	37.368
342.11	37.729
342.47	37.974
342.83	38.613
343.20	38.788
343.56	37.995
343.92	37.368
344.28	37.075
344.65	38.263
345.01	37.037
345.37	37.136
345.73	39.425
346.10	38.875
346.46	39.153
346.82	39.786
347.19	38.680
347.55	38.095
347.91	37.298
348.27	39.113
348.63	37.458
349.00	38.350
349.36	39.327
349.72	37.851
350.08	39.384
350.45	38.161
350.81	38.911
351.17	37.844
351.53	38.984
351.89	38.119
352.26	39.779
352.62	39.294
352.98	38.736
353.34	38.620
353.70	38.052
354.07	37.984
354.43	37.460
354.79	38.375
355.15	38.069
355.51	39.648
355.87	39.592
356.24	39.984
356.60	38.573
356.96	39.501
357.32	39.984
357.68	39.134
358.04	38.797
358.40	39.509
358.77	39.045
359.13	40.174
359.49	38.667
359.85	38.730
360.21	39.633
360.57	40.311
360.93	40.154
361.29	40.816
361.66	38.854
362.02	40.075
362.38	40.152
362.74	39.732
363.10	39.452
363.46	40.205
363.82	40.892
364.18	39.354
364.54	41.753
364.90	41.218
365.26	41.103
365.62	41.198
365.98	39.883
366.35	40.330
366.71	41.504
367.07	42.098
367.43	41.437
367.79	40.542
368.15	41.739
368.51	40.916
368.87	42.398
369.23	41.917
369.59	41.709
369.95	41.765
370.31	41.738
370.67	42.681
371.03	42.547
371.39	42.347
371.75	42.647
372.11	41.536
372.47	43.475
372.83	43.588
373.19	42.919
373.55	42.942
373.91	43.004
374.27	43.299
374.63	42.836
374.99	43.079
375.35	42.359
375.71	42.152
376.07	44.513
376.42	43.535
376.78	45.063
377.14	44.573
377.50	44.305
377.86	44.947
378.22	44.437
378.58	43.170
378.94	43.935
379.30	44.975
379.66	46.320
380.02	45.946
380.38	44.930
380.74	45.498
381.09	45.293
381.45	46.343
381.81	45.516
382.17	45.669
382.53	45.912
382.89	47.099
383.25	46.091
383.61	47.212
383.97	46.779
384.32	48.222
384.68	47.274
385.04	47.941
385.40	46.440
385.76	46.929
386.12	48.769
386.48	47.262
386.83	48.685
387.19	49.165
387.55	47.186
387.91	48.065
388.27	47.333
388.62	47.081
388.98	47.666
389.34	48.874
389.70	47.639
390.06	49.430
390.42	49.351
390.77	47.774
391.13	48.756
391.49	49.937
391.85	47.868
392.20	48.202
392.56	48.990
392.92	48.381
393.28	47.692
393.64	48.801
393.99	48.687
394.35	48.511
394.71	48.808
395.07	48.287
395.42	48.826
395.78	48.601
396.14	48.914
396.50	49.749
396.85	50.032
397.21	49.383
397.57	49.721
397.92	49.279
398.28	47.926
398.64	48.088
399.00	49.245
399.35	49.295
399.71	48.611
400.07	48.551
400.42	50.859
400.78	48.311
401.14	49.634
401.49	49.373
401.85	49.123
402.21	49.222
402.57	49.167
402.92	49.054
403.28	49.407
403.63	49.691
403.99	49.045
404.35	48.606
404.70	48.861
405.06	47.874
405.42	48.472
405.77	48.114
406.13	48.194
406.49	49.379
406.84	47.903
407.20	47.695
407.55	49.521
407.91	49.333
408.27	48.756
408.62	48.766
408.98	47.672
409.34	48.585
409.69	49.226
410.05	48.637
410.40	48.746
410.76	47.073
411.11	48.432
411.47	48.115
411.83	48.626
412.18	47.495
412.54	48.194
412.89	49.217
413.25	48.406
413.60	48.919
413.96	46.873
414.31	47.205
414.67	48.859
415.03	48.212
415.38	48.905
415.74	48.746
416.09	48.269
416.45	48.260
416.80	48.315
417.16	48.928
417.51	49.171
417.87	46.564
418.22	47.571
418.58	48.547
418.93	47.789
419.29	48.186
419.64	48.363
420.00	46.890
420.35	47.536
420.71	48.834
421.06	47.733
421.42	48.070
421.77	47.253
422.12	47.670
422.48	46.465
422.83	47.525
423.19	47.514
423.54	48.404
423.90	47.594
424.25	46.566
424.61	46.548
424.96	46.764
425.31	47.674
425.67	46.573
426.02	47.029
426.38	49.328
426.73	47.221
427.09	48.328
427.44	47.786
427.79	47.556
428.15	47.619
428.50	47.221
428.85	48.093
429.21	48.537
429.56	47.330
429.92	47.408
430.27	47.666
430.62	46.800
430.98	47.846
431.33	46.186
431.68	46.859
432.04	46.539
432.39	47.287
432.74	47.038
433.10	48.048
433.45	49.679
433.80	48.559
434.16	46.314
434.51	46.632
434.86	47.491
435.22	48.360
435.57	48.146
435.92	47.923
436.28	48.754
436.63	47.737
436.98	47.453
437.34	48.479
437.69	47.316
438.04	46.880
438.39	47.104
438.75	47.589
439.10	47.765
439.45	47.166
439.81	47.372
440.16	47.544
440.51	48.565
440.86	48.929
441.22	48.387
441.57	47.187
441.92	48.158
442.27	47.793
442.63	47.130
442.98	48.282
443.33	47.826
443.68	47.961
444.03	48.219
444.39	46.933
444.74	47.944
445.09	47.601
445.44	47.622
445.79	47.056
446.15	47.750
446.50	47.065
446.85	48.407
447.20	46.609
447.55	47.404
447.91	47.601
448.26	48.358
448.61	48.163
448.96	47.730
449.31	49.100
449.66	47.327
450.02	47.632
450.37	46.429
450.72	47.434
451.07	46.862
451.42	46.626
451.77	47.798
452.12	47.229
452.47	47.450
452.83	48.543
453.18	48.166
453.53	48.918
453.88	47.667
454.23	47.280
454.58	47.789
454.93	49.650
455.28	48.815
455.63	48.119
455.98	49.464
456.34	46.922
456.69	47.652
457.04	47.740
457.39	47.633
457.74	46.489
458.09	47.729
458.44	47.891
458.79	46.258
459.14	47.122
459.49	47.461
459.84	47.036
460.19	47.672
460.54	46.644
460.89	47.669
461.24	47.359
461.59	47.821
461.94	47.596
462.29	47.181
462.64	45.948
462.99	46.975
463.34	47.467
463.69	47.217
464.04	47.130
464.39	45.739
464.74	46.286
465.09	46.803
465.44	46.150
465.79	46.756
466.14	44.609
466.49	45.217
466.84	45.651
467.19	46.349
467.54	46.375
467.89	45.738
468.24	45.084
468.59	46.825
468.94	45.021
469.29	46.080
469.64	46.787
469.99	48.241
470.34	46.697
470.68	46.480
471.03	46.939
471.38	46.699
471.73	46.236
472.08	48.092
472.43	46.043
472.78	45.359
473.13	45.956
473.48	46.317
473.83	45.610
474.17	45.426
474.52	46.898
474.87	45.884
475.22	45.328
475.57	45.030
475.92	44.291
476.27	44.758
476.61	45.339
476.96	44.475
477.31	45.160
477.66	45.460
478.01	44.328
478.36	44.527
478.70	45.639
479.05	44.089
479.40	44.933
479.75	45.552
480.10	44.682
480.45	42.694
480.79	43.669
481.14	44.716
481.49	44.708
481.84	43.759
482.19	43.935
482.53	43.486
482.88	43.834
483.23	44.533
483.58	43.813
483.92	44.096
484.27	41.830
484.62	43.276
484.97	42.058
485.31	44.555
485.66	43.387
486.01	41.912
486.36	39.704
486.70	39.092
487.05	39.783
487.40	40.756
487.75	40.279
488.09	41.341
488.44	40.927
488.79	42.532
489.13	42.743
489.48	42.129
489.83	42.555
490.17	43.095
490.52	42.648
490.87	41.610
491.22	41.837
491.56	41.002
491.91	42.020
492.26	42.490
492.60	42.304
492.95	41.815
493.30	41.542
493.64	42.324
493.99	41.086
494.34	41.674
494.68	41.529
495.03	41.071
495.37	41.647
495.72	41.862
496.07	41.995
496.41	40.841
496.76	40.941
497.11	41.243
497.45	40.801
497.80	41.747
498.14	41.159
498.49	41.463
498.84	40.988
499.18	41.381
499.53	41.406
499.87	40.680
500.22	41.545
500.56	41.990
500.91	40.000
501.26	41.110
501.60	42.098
501.95	40.651
502.29	41.143
502.64	40.782
502.98	41.608
503.33	40.082
503.67	39.954
504.02	40.365
504.36	39.869
504.71	40.938
505.06	40.723
505.40	39.718
505.75	40.164
506.09	39.747
506.44	40.553
506.78	39.990
507.13	40.182
507.47	40.657
507.82	40.932
508.16	39.210
508.51	40.538
508.85	39.672
509.19	39.694
509.54	39.235
509.88	39.825
510.23	39.743
510.57	40.867
510.92	40.186
511.26	40.185
511.61	40.041
511.95	39.301
512.30	40.350
512.64	39.871
512.98	40.247
513.33	40.364
513.67	39.755
514.02	39.177
514.36	39.487
514.70	40.454
515.05	40.379
515.39	39.596
515.74	40.541
516.08	40.022
516.42	39.900
516.77	40.524
517.11	40.067
517.46	39.955
517.80	41.057
518.14	39.375
518.49	40.490
518.83	39.261
519.17	39.838
519.52	39.502
519.86	40.103
520.20	39.249
520.55	39.378
520.89	40.572
521.23	40.169
521.58	39.076
521.92	39.743
522.26	39.780
522.61	39.252
522.95	38.920
523.29	38.953
523.64	39.329
523.98	40.049
524.32	39.083
524.66	38.785
525.01	38.787
525.35	38.724
525.69	38.485
526.04	38.505
526.38	38.438
526.72	37.975
527.06	39.611
527.41	37.500
527.75	38.971
528.09	39.306
528.43	38.942
528.78	37.984
529.12	37.576
529.46	38.518
529.80	38.490
530.15	38.069
530.49	38.031
530.83	38.861
531.17	38.838
531.51	38.197
531.86	38.000
532.20	38.657
532.54	38.949
532.88	37.933
533.22	37.976
533.57	37.963
533.91	36.665
534.25	36.817
534.59	38.011
534.93	37.835
535.27	37.658
535.62	37.912
535.96	38.795
536.30	38.271
536.64	38.120
536.98	36.629
537.32	36.866
537.66	37.733
538.01	39.039
538.35	37.427
538.69	37.715
539.03	36.972
539.37	37.061
539.71	34.802
540.05	36.732
540.39	37.143
540.73	35.640
541.07	37.897
541.42	37.704
541.76	36.774
542.10	35.964
542.44	36.026
542.78	36.430
543.12	35.765
543.46	36.262
543.80	37.476
544.14	36.650
544.48	37.079
544.82	35.728
545.16	36.825
545.50	36.311
545.84	36.290
546.18	36.633
546.52	36.476
546.86	37.045
547.20	36.750
547.54	37.742
547.88	36.862
548.22	36.426
548.56	35.849
548.90	35.275
549.24	35.758
549.58	35.130
549.92	36.058
550.26	36.648
550.60	35.408
550.94	36.268
551.28	35.918
551.62	35.802
551.96	35.298
552.30	35.631
552.64	35.565
552.98	36.068
553.32	35.738
553.66	36.469
554.00	36.582
554.34	35.335
554.68	35.408
555.02	36.460
555.36	35.351
555.69	35.589
556.03	35.397
556.37	35.471
556.71	34.652
557.05	35.644
557.39	34.850
557.73	35.780
558.07	35.751
558.41	35.384
558.75	35.342
559.08	35.272
559.42	35.147
559.76	35.221
560.10	35.332
560.44	35.290
560.78	33.932
561.12	34.565
561.45	34.485
561.79	35.267
562.13	35.614
562.47	35.792
562.81	35.635
563.15	34.114
563.48	34.549
563.82	34.181
564.16	34.663
564.50	35.026
564.84	34.576
565.17	34.556
565.51	34.696
565.85	34.391
566.19	33.876
566.52	35.022
566.86	32.911
567.20	34.080
567.54	34.932
567.88	34.166
568.21	34.762
568.55	34.125
568.89	33.512
569.23	33.021
569.56	32.510
569.90	33.283
570.24	32.221
570.57	31.554
570.91	31.674
571.25	31.995
571.59	32.194
571.92	32.143
572.26	31.860
572.60	31.502
572.93	31.274
573.27	31.677
573.61	31.798
573.95	31.731
574.28	31.030
574.62	31.438
574.96	31.302
575.29	30.723
575.63	31.301
575.97	30.487
576.30	31.147
576.64	30.781
576.98	30.967
577.31	30.730
577.65	31.596
577.98	31.082
578.32	30.739
578.66	30.671
578.99	30.997
579.33	30.404
579.67	30.479
580.00	31.168
580.34	30.731
580.67	30.844
581.01	31.392
581.35	30.865
581.68	30.984
582.02	30.173
582.35	30.669
582.69	30.377
583.02	30.718
583.36	30.551
583.70	30.744
584.03	31.531
584.37	31.673
584.70	31.270
585.04	30.920
585.37	30.522
585.71	31.320
586.04	30.370
586.38	30.956
586.72	30.931
587.05	31.187
587.39	30.106
587.72	30.920
588.06	30.763
588.39	30.864
588.73	31.006
589.06	31.380
589.40	32.290
589.73	31.538
590.07	31.317
590.40	31.640
590.73	31.460
591.07	32.804
591.40	31.590
591.74	32.424
592.07	32.548
592.41	32.038
592.74	31.760
593.08	31.446
593.41	31.193
593.75	30.012
594.08	31.143
594.41	31.177
594.75	31.238
595.08	31.818
595.42	31.594
595.75	31.019
596.09	31.318
596.42	30.884
596.75	31.743
597.09	32.294
597.42	31.282
597.75	31.220
598.09	31.609
598.42	31.186
598.76	31.171
599.09	30.597
599.42	31.295
599.76	31.040
600.09	31.257
600.42	30.168
600.76	30.500
601.09	30.346
601.42	31.317
601.76	31.006
602.09	31.225
602.42	31.568
602.76	31.600
603.09	31.550
603.42	31.355
603.76	31.174
604.09	30.322
604.42	31.472
604.76	31.337
605.09	31.105
605.42	31.124
605.75	31.540
606.09	30.785
606.42	30.609
606.75	31.107
607.09	30.264
607.42	30.723
607.75	30.633
608.08	30.091
608.42	31.062
608.75	30.839
609.08	30.574
609.41	31.128
609.75	30.967
610.08	31.715
610.41	30.307
610.74	31.268
611.07	31.868
611.41	31.501
611.74	31.875
612.07	31.729
612.40	31.165
612.73	31.000
613.07	32.597
613.40	31.438
613.73	30.257
614.06	31.452
614.39	31.463
614.72	31.737
615.06	31.408
615.39	31.847
615.72	31.697
616.05	30.622
616.38	31.907
616.71	31.057
617.05	31.625
617.38	31.329
617.71	31.351
618.04	32.272
618.37	31.520
618.70	31.238
619.03	32.237
619.36	31.976
619.69	31.408
620.03	32.349
620.36	32.687
620.69	32.534
621.02	33.186
621.35	32.498
621.68	32.632
622.01	32.585
622.34	32.678
622.67	32.243
623.00	31.034
623.33	32.094
623.66	32.380
623.99	32.032
624.32	31.669
624.65	31.638
624.99	31.516
625.32	31.571
625.65	31.856
625.98	32.052
626.31	32.737
626.64	32.490
626.97	32.751
627.30	32.253
627.63	33.142
627.96	32.632
628.29	32.108
628.62	32.662
628.95	34.151
629.28	32.664
629.61	32.906
629.94	33.619
630.26	33.651
630.59	33.079
630.92	32.759
631.25	33.268
631.58	32.032
631.91	32.556
632.24	31.118
632.57	32.319
632.90	32.346
633.23	34.676
633.56	32.768
633.89	35.221
634.22	34.960
634.55	34.320
634.88	33.772
635.20	33.094
635.53	33.373
635.86	35.272
636.19	32.941
636.52	32.757
636.85	34.708
637.18	31.221
637.51	32.979
637.83	32.552
638.16	32.737
638.49	33.753
638.82	35.398
639.15	34.750
639.48	34.788
639.81	34.987
640.13	35.417
640.46	34.765
640.79	35.271
641.12	33.287
641.45	33.240
641.77	35.346
642.10	35.380
642.43	35.135
642.76	33.746
643.09	34.816
643.41	34.446
643.74	35.648
644.07	33.994
644.40	35.429
644.73	35.118
645.05	35.499
645.38	34.755
645.71	36.071
646.04	36.545
646.36	38.063
646.69	36.455
647.02	36.395
647.35	37.285
647.67	36.106
648.00	34.797
648.33	35.479
648.66	35.152
648.98	36.582
649.31	34.230
649.64	32.885
649.96	35.618
650.29	36.019
650.62	34.628
650.94	36.953
651.27	37.500
651.60	34.443
651.92	34.505
652.25	33.225
652.58	34.735
652.90	35.387
653.23	35.131
653.56	34.961
653.88	35.341
654.21	36.651
654.54	36.139
654.86	32.866
655.19	33.378
655.52	26.181
655.84	25.364
656.17	33.081
656.49	43.632
656.82	43.897
657.15	32.081
657.47	24.016
657.80	18.144
658.13	18.873
658.45	27.432
658.78	27.213
659.10	28.515
659.43	29.646
659.75	32.381
660.08	34.557
660.41	38.082
660.73	36.722
661.06	36.306
661.38	38.364
661.71	39.423
662.03	37.870
662.36	34.990
662.68	39.558
663.01	36.364
663.33	38.641
663.66	37.185
663.98	38.013
664.31	35.504
664.63	37.247
664.96	34.809
665.28	37.295
665.61	38.012
665.93	36.419
666.26	36.105
666.58	37.657
666.91	38.266
667.23	39.551
667.56	35.637
667.88	36.111
668.21	39.659
668.53	37.961
668.86	34.416
669.18	39.872
669.50	36.739
669.83	37.255
670.15	39.333
670.48	37.908
670.80	36.638
671.13	36.306
671.45	37.447
671.77	38.900
672.10	35.305
672.42	34.982
672.75	34.660
673.07	32.570
673.39	34.720
673.72	33.203
674.04	37.451
674.37	36.311
674.69	37.832
675.01	35.146
675.34	37.988
675.66	38.105
675.98	38.086
676.31	38.655
676.63	38.217
676.95	36.688
677.28	36.215
677.60	35.604
677.92	38.397
678.25	36.345
678.57	35.060
678.89	37.074
679.22	37.132
679.54	36.260
679.86	35.046
680.18	36.315
680.51	34.574
680.83	34.342
681.15	37.925
681.48	37.051
681.80	36.170
682.12	36.398
682.44	34.816
682.77	36.660
683.09	37.554
683.41	38.581
683.73	37.969
684.06	35.331
684.38	31.311
684.70	36.240
685.02	36.585
685.34	34.432
685.67	32.517
685.99	35.567
686.31	34.300
686.63	28.799
686.96	35.000
687.28	34.116
687.60	35.688
687.92	34.918
688.24	33.650
688.56	36.345
688.89	34.440
689.21	37.555
689.53	37.161
689.85	37.916
690.17	32.919
690.49	36.306
690.82	36.449
691.14	36.161
691.46	32.489
691.78	34.137
692.10	35.331
692.42	38.723
692.74	34.232
693.06	36.383
693.39	36.140
693.71	38.428
694.03	36.211
694.35	33.117
694.67	35.698
694.99	38.293
695.31	35.784
695.63	35.407
695.95	38.142
696.27	34.518
696.59	38.342
696.91	40.933
697.23	36.854
697.56	34.755
697.88	34.151
698.20	33.958
698.52	36.129
698.84	35.189
699.16	36.175
699.48	34.442
699.80	36.232
700.12	42.078
700.44	38.992
700.76	38.398
701.08	42.241
701.40	39.385
701.72	40.233
702.04	40.057
702.36	39.377
702.68	36.544
703.00	39.612
703.32	34.309
703.64	40.751
703.96	41.783
704.28	39.244
704.60	41.642
704.91	40.653
705.23	37.243
705.55	42.525
705.87	43.854
706.19	39.929
706.51	42.368
706.83	39.697
707.15	38.095
707.47	36.869
707.79	39.312
708.11	34.475
708.43	36.667
708.74	34.439
709.06	38.182
709.38	38.320
709.70	38.953
710.02	35.905
710.34	38.182
710.66	43.284
710.98	41.477
711.29	42.442
711.61	40.708
711.93	43.269
712.25	44.373
712.57	42.647
712.89	42.215
713.20	38.602
713.52	37.171
713.84	38.291
714.16	36.890
714.48	38.218
714.80	45.289
715.11	40.346
715.43	37.389
715.75	35.652
716.07	42.812
716.39	40.125
716.70	42.525
717.02	42.086
717.34	42.049
717.66	42.164
717.97	46.215
718.29	39.630
718.61	46.715
718.93	43.750
719.24	40.830
719.56	37.288
719.88	43.051
720.20	43.243
720.51	41.115
720.83	45.725
721.15	41.418
721.46	41.489
721.78	44.086
722.10	40.755
722.42	43.985
722.73	43.071
723.05	46.311
723.37	45.344
723.68	41.699
724.00	45.528
724.32	48.387
724.63	40.244
724.95	40.586
725.27	43.725
725.58	50.000
725.90	48.175
726.22	43.396
726.53	39.236
726.85	41.638
727.16	41.993
727.48	41.135
727.80	46.212
728.11	43.841
728.43	39.231
728.74	43.011
729.06	44.891
729.38	47.059
729.69	41.281
730.01	40.273
730.32	41.319
730.64	42.475
730.96	37.624
731.27	42.053
731.59	40.673
731.90	40.816
732.22	40.062
732.53	39.009
732.85	36.859
733.16	40.836
733.48	38.538
733.80	38.636
734.11	42.038
734.43	41.124
734.74	38.000
735.06	41.547
735.37	40.751
735.69	37.261
736.00	43.464
736.32	41.433
736.63	37.700
736.95	42.812
737.26	36.735
737.58	38.387
737.89	41.806
738.21	44.027
738.52	37.500
738.83	42.642
739.15	43.462
739.46	45.620
739.78	42.708
740.09	44.615
740.41	42.258
740.72	38.676
741.04	43.333
741.35	43.333
741.66	49.778
741.98	44.811
742.29	48.804
742.61	49.569
742.92	44.344
743.23	40.598
743.55	48.800
743.86	45.175
744.18	48.230
744.49	46.411
744.80	45.070
745.12	50.909
745.43	43.612
745.74	49.550
746.06	46.789
746.37	44.843
746.68	47.964
747.00	45.370
747.31	48.095
747.62	42.920
747.94	43.612
748.25	49.787
748.56	46.696
748.88	48.020
749.19	52.000
749.50	47.442
749.82	44.715
750.13	44.082
750.44	43.796
750.75	46.316
751.07	42.122
751.38	43.206
751.69	37.545
752.01	42.857
752.32	42.599
752.63	41.489
752.94	43.443
753.26	45.600
753.57	37.805
753.88	44.922
754.19	41.071
754.51	43.056
754.82	42.238
755.13	43.019
755.44	41.353
755.75	43.796
756.07	36.170
756.38	44.526
756.69	38.926
757.00	39.222
757.31	36.202
757.63	38.012
757.94	36.729
758.25	34.804
758.56	34.568
758.87	36.828
759.18	42.121
759.50	38.871
759.81	37.072
760.12	39.688
760.43	39.255
760.74	34.783
761.05	37.288
761.36	35.561
761.67	38.636
761.99	41.304
762.30	44.097
762.61	41.985
762.92	43.359
763.23	44.538
763.54	44.400
763.85	42.578
764.16	45.769
764.47	41.065
764.78	38.869
765.10	36.392
765.41	39.528
765.72	37.126
766.03	41.066
766.34	35.333
766.65	46.383
766.96	46.581
767.27	53.299
767.58	52.083
767.89	53.158
768.20	52.874
768.51	52.284
768.82	44.954
769.13	46.748
769.44	46.964
769.75	40.773
770.06	48.165
770.37	47.511
770.68	50.926
770.99	47.111
771.30	42.623
771.61	48.430
771.92	45.082
772.23	51.681
772.54	48.205
772.85	54.450
773.16	53.723
773.47	55.435
773.78	52.284
774.09	47.619
774.39	53.216
774.70	52.469
775.01	53.623
775.32	56.209
775.63	60.526
775.94	49.640
776.25	64.567
776.56	59.701
776.87	62.295
777.18	60.156
777.48	56.489
777.79	67.424
778.10	60.741
778.41	63.393
778.72	49.635
779.03	56.376
779.34	62.416
779.65	50.000
779.95	52.761
780.26	58.824
780.57	60.690
780.88	68.750
781.19	60.150
781.50	66.216
781.80	60.377
782.11	50.282
782.42	55.696
782.73	48.466
783.04	60.135
783.34	60.563
783.65	69.178
783.96	56.716
784.27	51.748
784.57	52.518
784.88	52.778
785.19	61.111
785.50	72.642
785.81	68.657
786.11	70.492
786.42	68.217
786.73	64.602
787.04	80.189
787.34	65.179
787.65	66.000
787.96	58.559
788.26	66.116
788.57	67.797
788.88	70.248
789.19	59.028
789.49	66.667
789.80	60.305
790.11	78.095
790.41	70.297
790.72	81.928
791.03	81.522
791.33	76.744
791.64	73.196
791.95	69.307
792.25	92.222
792.56	84.416
792.87	93.590
793.17	98.734
793.48	78.161
793.79	88.506
794.09	76.136
794.40	60.504
794.70	66.912
795.01	63.704
795.32	53.237
795.62	58.268
795.93	73.276
796.23	69.912
796.54	61.176
796.85	75.676
797.15	92.958
797.46	81.818
797.76	86.747
798.07	87.342
798.37	106.154
798.68	84.848
798.99	85.915
799.29	81.818
799.60	78.409
799.90	91.781
800.21	92.537
800.51	91.379
800.82	110.526
801.12	103.279
801.43	112.121
801.73	81.081
802.04	111.111
802.34	97.531
802.65	98.437
802.95	125.424
803.26	92.188
803.56	92.857
803.87	100.000
804.17	91.176
804.48	118.519
804.78	89.655
805.09	104.412
805.39	103.846
805.70	100.000
806.00	118.033
806.30	100.000
806.61	91.463
806.91	74.684
807.22	97.368
807.52	82.090
807.83	92.958
808.13	98.437
808.43	98.333
808.74	84.211
809.04	89.855
809.35	92.537
809.65	85.526
809.95	103.226
810.26	91.525
810.56	90.476
810.86	145.455
811.17	157.143
811.47	120.000
811.77	118.519
812.08	112.727
812.38	130.000
812.69	186.111
812.99	147.727
813.29	120.408
813.59	126.190
813.90	122.449
814.20	103.636
814.50	89.231
814.81	110.294
815.11	116.327
815.41	113.115
815.72	133.333
816.02	123.636
816.32	123.810
816.62	117.500
816.93	121.951
817.23	138.095
817.53	134.091
817.84	166.667
818.14	139.130
818.44	120.000
818.74	185.294
819.04	160.000
819.35	140.000
819.65	141.176
819.95	167.857
820.25	270.000
820.56	169.231
820.86	140.909
821.16	139.535
821.46	148.718
821.76	140.000
822.07	182.857
822.37	145.000
822.67	190.909
822.97	125.490
823.27	200.000
823.57	178.378
823.88	147.500
824.18	226.667
824.48	147.619
824.78	244.000
825.08	170.833
825.38	164.865
825.69	126.829
825.99	208.333
826.29	182.759
826.59	160.526
826.89	165.789
827.19	161.765
827.49	177.419
827.79	147.727
828.09	131.818
828.39	110.638
828.70	136.735
829.00	192.593
829.30	148.387
829.60	165.000
829.90	420.000
830.20	242.857
830.50	186.957
830.80	226.087
831.10	203.333
831.40	183.333
831.70	217.391
832.00	226.923
832.30	229.630
832.60	331.250
832.90	216.667
833.20	442.857
833.50	183.871
833.80	206.897
834.10	181.250
834.40	203.846
834.70	277.778
835.00	271.429
835.30	151.429
835.60	284.615
835.90	210.345
836.20	385.714
836.50	213.793
836.80	204.000
837.10	183.333
837.40	261.905
837.70	317.647
838.00	233.333
838.30	204.762
838.60	252.381
838.90	226.923
839.19	265.000
839.49	407.143
839.79	325.000
840.09	265.000
840.39	228.571
840.69	247.826
840.99	294.444
841.29	460.000
841.59	291.667
841.88	343.750
842.18	241.379
842.48	280.952
842.78	210.000
843.08	265.217
843.38	175.000
843.68	833.333
843.97	234.615
844.27	196.552
844.57	290.476
844.87	368.750
845.17	188.889
845.47	1500.000
845.76	455.556
846.06	311.765
846.36	475.000
846.66	357.143
846.96	350.000
847.25	390.909
847.55	436.364
847.85	260.870
848.15	420.000
848.44	350.000
848.74	222.222
849.04	364.706
849.34	460.000
849.63	257.895
849.93	445.455
850.23	720.000
850.53	421.429
850.82	2450.000
851.12	-4900.000
851.42	5000.000
851.71	295.000
852.01	-1200.000
852.31	208.333
852.61	1533.333
852.90	257.143
853.20	200.000
853.50	341.176
853.79	300.000
854.09	200.000
854.39	356.250
854.68	154.054
854.98	164.516
855.28	163.333
855.57	217.241
855.87	188.889
856.17	236.842
856.46	246.667
856.76	294.118
857.05	237.931
857.35	200.000
857.65	293.333
857.94	234.783
858.24	226.923
858.53	300.000
858.83	277.273
859.13	326.667
859.42	0.000
859.72	555.556
860.01	454.545
860.31	240.909
860.60	273.684
860.90	195.652
861.20	522.222
861.49	500.000
861.79	-4200.000
862.08	475.000
862.38	304.762
862.67	346.154
862.97	347.059
863.26	533.333
863.56	311.111
863.85	450.000
864.15	500.000
864.44	393.333
864.74	850.000
865.03	625.000
865.33	231.579
865.62	381.818
865.92	361.538
866.21	433.333
866.51	0.000
866.80	436.364
867.10	1000.000
867.39	453.846
867.69	363.636
867.98	289.474
868.27	372.727
868.57	289.474
868.86	-5100.000
869.16	337.500
869.45	1900.000
869.75	-3300.000
870.04	458.333
870.33	642.857
870.63	1275.000
870.92	2700.000
871.22	785.714
871.51	264.706
871.80	233.333
872.10	414.286
>>>>>End Processed Spectral Data<<<<<
