SpectraSuite Data File
++++++++++++++++++++++++++++++++++++
Date: Wed May 13 16:40:40 PDT 2015
User: schluterlab
Dark Spectrum Present: Yes
Reference Spectrum Present: Yes
Number of Sampled Component Spectra: 1
Spectrometers: USB2E3373
Integration Time (usec): 3000 (USB2E3373)
Spectra Averaged: 3 (USB2E3373)
Boxcar Smoothing: 0 (USB2E3373)
Correct for Electrical Dark: No (USB2E3373)
Strobe/Lamp Enabled: No (USB2E3373)
Correct for Detector Non-linearity: No (USB2E3373)
Correct for Stray Light: No (USB2E3373)
Number of Pixels in Processed Spectrum: 2048
>>>>>Begin Processed Spectral Data<<<<<
178.53	0.000
178.91	-1375.000
179.29	-1350.000
179.67	-244.444
180.04	-1300.000
180.42	2600.000
180.80	1000.000
181.18	-1325.000
181.56	700.000
181.94	0.000
182.31	-642.857
182.69	1966.667
183.07	-537.500
183.45	-500.000
183.83	545.455
184.20	-410.000
184.58	2650.000
184.96	5500.000
185.34	-960.000
185.72	-600.000
186.09	-2750.000
186.47	2850.000
186.85	2600.000
187.23	5300.000
187.61	-1766.667
187.98	1400.000
188.36	590.909
188.74	472.727
189.12	-780.000
189.49	620.000
189.87	-4400.000
190.25	-1150.000
190.63	450.000
191.00	500.000
191.38	783.333
191.76	-1175.000
192.14	1375.000
192.51	675.000
192.89	1033.333
193.27	625.000
193.65	-1400.000
194.02	550.000
194.40	780.000
194.78	570.000
195.15	566.667
195.53	680.000
195.91	-2050.000
196.29	400.000
196.66	363.158
197.04	-440.000
197.42	0.000
197.79	670.000
198.17	-4200.000
198.55	771.429
198.92	875.000
199.30	960.000
199.68	0.000
200.05	350.000
200.43	900.000
200.81	4700.000
201.18	1900.000
201.56	-1600.000
201.94	477.778
202.31	633.333
202.69	441.667
203.07	640.000
203.44	0.000
203.82	1375.000
204.19	771.429
204.57	421.429
204.95	637.500
205.32	1333.333
205.70	490.909
206.08	385.714
206.45	2350.000
206.83	368.750
207.20	766.667
207.58	860.000
207.96	338.889
208.33	725.000
208.71	-800.000
209.08	800.000
209.46	555.556
209.84	500.000
210.21	-1733.333
210.59	1275.000
210.96	-500.000
211.34	2650.000
211.71	540.000
212.09	833.333
212.46	0.000
212.84	1666.667
213.22	1400.000
213.59	-4800.000
213.97	950.000
214.34	842.857
214.72	636.364
215.09	1000.000
215.47	-2500.000
215.84	-2400.000
216.22	1633.333
216.59	414.286
216.97	1225.000
217.34	472.727
217.72	-800.000
218.09	0.000
218.47	-4500.000
218.84	688.889
219.22	771.429
219.59	1866.667
219.97	-714.286
220.34	1060.000
220.72	-1700.000
221.09	421.429
221.47	1475.000
221.84	-1083.333
222.22	0.000
222.59	1400.000
222.97	-2250.000
223.34	1160.000
223.72	453.846
224.09	1040.000
224.46	2450.000
224.84	-4800.000
225.21	-900.000
225.59	-4600.000
225.96	550.000
226.34	310.000
226.71	2700.000
227.08	625.000
227.46	520.000
227.83	-1075.000
228.21	-2150.000
228.58	622.222
228.95	-2450.000
229.33	-2350.000
229.70	1666.667
230.08	671.429
230.45	-720.000
230.82	491.667
231.20	966.667
231.57	828.571
231.95	458.333
232.32	272.727
232.69	354.545
233.07	700.000
233.44	353.846
233.81	-1800.000
234.19	289.474
234.56	400.000
234.93	300.000
235.31	436.364
235.68	353.846
236.05	364.286
236.43	175.758
236.80	263.158
237.17	3900.000
237.55	233.333
237.92	203.571
238.29	233.333
238.67	167.742
239.04	182.759
239.41	133.333
239.79	123.913
240.16	138.095
240.53	125.000
240.91	82.353
241.28	114.000
241.65	90.000
242.02	89.855
242.40	85.484
242.77	81.667
243.14	64.516
243.51	78.652
243.89	63.529
244.26	68.889
244.63	69.892
245.00	54.255
245.38	53.465
245.75	57.944
246.12	49.541
246.49	53.285
246.87	58.400
247.24	51.538
247.61	46.429
247.98	45.752
248.36	36.486
248.73	40.127
249.10	38.854
249.47	37.853
249.84	37.968
250.22	35.829
250.59	36.095
250.96	35.859
251.33	34.123
251.70	35.149
252.08	32.381
252.45	27.803
252.82	34.348
253.19	33.617
253.56	29.020
253.94	26.971
254.31	32.031
254.68	26.923
255.05	31.365
255.42	27.236
255.79	26.838
256.16	29.964
256.54	21.908
256.91	29.537
257.28	19.424
257.65	26.403
258.02	24.534
258.39	24.606
258.76	26.756
259.14	25.000
259.51	25.228
259.88	22.671
260.25	20.544
260.62	23.410
260.99	21.429
261.36	25.225
261.73	25.788
262.10	20.930
262.47	23.099
262.85	23.955
263.22	19.658
263.59	23.077
263.96	21.703
264.33	21.671
264.70	24.211
265.07	21.483
265.44	21.212
265.81	19.221
266.18	19.598
266.55	21.463
266.92	19.656
267.29	19.444
267.66	23.394
268.03	21.364
268.40	19.860
268.77	16.229
269.14	20.270
269.51	20.993
269.88	18.648
270.25	19.865
270.62	19.101
270.99	21.505
271.36	19.528
271.73	17.056
272.10	19.783
272.47	19.785
272.84	20.779
273.21	18.239
273.58	18.122
273.95	17.400
274.32	16.529
274.69	19.914
275.06	16.535
275.43	18.298
275.80	18.036
276.17	18.126
276.54	20.582
276.91	19.170
277.28	15.820
277.65	19.342
278.02	17.805
278.39	20.312
278.76	16.909
279.13	19.057
279.50	18.994
279.87	19.522
280.23	18.762
280.60	15.861
280.97	16.821
281.34	17.876
281.71	18.000
282.08	16.891
282.45	14.364
282.82	16.874
283.19	15.330
283.56	18.772
283.92	17.428
284.29	18.519
284.66	15.608
285.03	15.732
285.40	15.141
285.77	16.835
286.14	17.617
286.51	16.833
286.87	15.726
287.24	17.590
287.61	14.607
287.98	15.422
288.35	16.165
288.72	15.888
289.08	15.023
289.45	15.486
289.82	15.447
290.19	13.972
290.56	14.548
290.93	13.746
291.29	15.798
291.66	13.274
292.03	16.570
292.40	15.859
292.77	13.462
293.13	14.776
293.50	14.869
293.87	13.333
294.24	14.815
294.60	13.537
294.97	15.116
295.34	15.092
295.71	14.205
296.08	14.530
296.44	13.067
296.81	13.474
297.18	15.176
297.55	11.082
297.91	14.380
298.28	14.993
298.65	14.230
299.02	14.625
299.38	11.687
299.75	9.569
300.12	11.494
300.48	13.625
300.85	12.577
301.22	12.611
301.59	13.005
301.95	13.098
302.32	11.938
302.69	12.784
303.05	11.758
303.42	11.852
303.79	12.684
304.15	10.606
304.52	11.240
304.89	11.847
305.25	10.441
305.62	12.911
305.99	12.515
306.35	10.515
306.72	13.117
307.09	11.543
307.45	12.950
307.82	11.049
308.19	12.804
308.55	12.729
308.92	12.030
309.29	10.665
309.65	12.301
310.02	12.051
310.38	13.011
310.75	10.454
311.12	11.975
311.48	11.076
311.85	12.264
312.22	11.238
312.58	12.058
312.95	11.616
313.31	11.748
313.68	11.954
314.05	14.103
314.41	12.060
314.78	11.883
315.14	11.420
315.51	12.358
315.87	12.871
316.24	11.321
316.61	11.501
316.97	10.959
317.34	11.546
317.70	11.759
318.07	12.801
318.43	12.329
318.80	12.465
319.16	12.241
319.53	12.195
319.89	12.857
320.26	13.400
320.62	12.103
320.99	13.333
321.35	12.424
321.72	13.450
322.08	13.031
322.45	13.731
322.81	13.081
323.18	13.680
323.54	14.193
323.91	12.736
324.27	13.289
324.64	11.463
325.00	12.624
325.37	13.649
325.73	13.016
326.10	12.533
326.46	11.918
326.83	13.891
327.19	12.383
327.56	12.979
327.92	13.473
328.29	14.641
328.65	13.260
329.01	12.455
329.38	13.876
329.74	13.850
330.11	13.949
330.47	12.580
330.84	14.706
331.20	13.661
331.56	14.128
331.93	12.407
332.29	13.310
332.66	14.602
333.02	15.082
333.38	13.550
333.75	14.439
334.11	14.235
334.48	14.286
334.84	13.971
335.20	13.727
335.57	13.509
335.93	12.500
336.29	12.088
336.66	14.067
337.02	13.394
337.38	14.074
337.75	13.904
338.11	12.892
338.47	12.983
338.84	13.932
339.20	12.661
339.56	15.328
339.93	12.909
340.29	13.768
340.65	13.904
341.02	14.747
341.38	13.345
341.74	12.193
342.11	13.275
342.47	13.304
342.83	13.099
343.20	13.247
343.56	13.564
343.92	12.368
344.28	13.010
344.65	13.242
345.01	13.131
345.37	11.750
345.73	12.944
346.10	13.555
346.46	12.966
346.82	12.850
347.19	12.698
347.55	13.383
347.91	13.835
348.27	13.394
348.63	14.465
349.00	11.974
349.36	12.315
349.72	13.071
350.08	11.831
350.45	13.914
350.81	13.891
351.17	12.642
351.53	13.022
351.89	11.634
352.26	13.970
352.62	14.034
352.98	12.642
353.34	13.722
353.70	12.111
354.07	13.548
354.43	13.016
354.79	11.907
355.15	12.131
355.51	13.030
355.87	13.633
356.24	13.192
356.60	12.510
356.96	12.953
357.32	12.837
357.68	13.228
358.04	13.856
358.40	13.143
358.77	12.754
359.13	12.707
359.49	13.020
359.85	11.587
360.21	12.520
360.57	13.230
360.93	12.769
361.29	13.757
361.66	12.229
362.02	13.060
362.38	13.308
362.74	13.616
363.10	11.621
363.46	13.206
363.82	12.774
364.18	13.363
364.54	13.001
364.90	13.385
365.26	12.647
365.62	12.564
365.98	13.075
366.35	12.822
366.71	13.377
367.07	12.964
367.43	12.990
367.79	13.776
368.15	13.937
368.51	12.573
368.87	13.919
369.23	12.363
369.59	13.975
369.95	12.574
370.31	12.536
370.67	13.623
371.03	14.157
371.39	12.682
371.75	13.382
372.11	14.296
372.47	13.343
372.83	14.841
373.19	12.717
373.55	13.895
373.91	13.255
374.27	12.852
374.63	13.164
374.99	13.842
375.35	13.189
375.71	13.434
376.07	14.952
376.42	14.237
376.78	14.778
377.14	13.501
377.50	13.709
377.86	13.896
378.22	13.338
378.58	13.033
378.94	13.702
379.30	13.486
379.66	14.467
380.02	14.312
380.38	13.722
380.74	13.806
381.09	14.120
381.45	15.058
381.81	15.233
382.17	14.777
382.53	14.088
382.89	14.568
383.25	14.196
383.61	14.994
383.97	15.322
384.32	15.221
384.68	14.126
385.04	15.734
385.40	14.799
385.76	14.681
386.12	14.961
386.48	15.544
386.83	15.651
387.19	15.832
387.55	15.894
387.91	15.357
388.27	15.635
388.62	15.857
388.98	14.619
389.34	16.145
389.70	15.757
390.06	16.096
390.42	16.732
390.77	16.794
391.13	16.975
391.49	16.497
391.85	15.213
392.20	14.826
392.56	16.477
392.92	16.716
393.28	15.799
393.64	17.026
393.99	17.288
394.35	16.067
394.71	16.876
395.07	16.262
395.42	16.811
395.78	16.285
396.14	16.139
396.50	17.481
396.85	17.228
397.21	16.523
397.57	17.173
397.92	16.466
398.28	16.200
398.64	17.145
399.00	16.564
399.35	16.864
399.71	17.361
400.07	17.918
400.42	17.301
400.78	17.612
401.14	17.378
401.49	17.015
401.85	17.241
402.21	16.766
402.57	17.335
402.92	16.898
403.28	17.239
403.63	17.079
403.99	16.752
404.35	17.636
404.70	17.326
405.06	16.540
405.42	18.403
405.77	17.257
406.13	16.874
406.49	16.617
406.84	18.074
407.20	17.849
407.55	17.869
407.91	18.133
408.27	18.251
408.62	17.881
408.98	17.525
409.34	18.204
409.69	18.194
410.05	17.348
410.40	17.798
410.76	18.100
411.11	19.421
411.47	18.403
411.83	18.693
412.18	17.996
412.54	17.621
412.89	18.735
413.25	17.887
413.60	18.901
413.96	17.911
414.31	18.226
414.67	18.695
415.03	18.874
415.38	18.814
415.74	18.392
416.09	18.550
416.45	18.474
416.80	18.837
417.16	18.633
417.51	19.044
417.87	18.240
418.22	19.117
418.58	19.174
418.93	18.857
419.29	18.651
419.64	19.647
420.00	18.537
420.35	18.725
420.71	18.948
421.06	18.138
421.42	18.538
421.77	19.283
422.12	17.350
422.48	18.241
422.83	19.220
423.19	18.122
423.54	18.920
423.90	18.667
424.25	19.040
424.61	19.107
424.96	18.776
425.31	19.435
425.67	18.427
426.02	18.171
426.38	19.597
426.73	19.017
427.09	18.419
427.44	19.149
427.79	18.804
428.15	19.702
428.50	19.193
428.85	19.905
429.21	18.995
429.56	18.559
429.92	18.822
430.27	18.669
430.62	17.921
430.98	18.786
431.33	19.433
431.68	18.901
432.04	18.477
432.39	19.874
432.74	20.108
433.10	20.034
433.45	19.825
433.80	19.013
434.16	19.605
434.51	19.211
434.86	20.410
435.22	19.455
435.57	19.453
435.92	19.427
436.28	20.225
436.63	19.481
436.98	19.233
437.34	20.811
437.69	19.837
438.04	19.449
438.39	20.060
438.75	20.453
439.10	19.721
439.45	19.717
439.81	19.758
440.16	19.989
440.51	20.211
440.86	20.208
441.22	19.244
441.57	19.958
441.92	20.368
442.27	19.429
442.63	19.115
442.98	20.507
443.33	19.946
443.68	19.824
444.03	20.547
444.39	19.328
444.74	20.400
445.09	20.431
445.44	20.230
445.79	19.495
446.15	20.011
446.50	20.140
446.85	20.401
447.20	20.041
447.55	20.380
447.91	19.526
448.26	20.256
448.61	20.690
448.96	20.543
449.31	20.247
449.66	19.584
450.02	19.666
450.37	20.408
450.72	19.459
451.07	19.439
451.42	20.426
451.77	20.904
452.12	20.670
452.47	21.082
452.83	20.688
453.18	21.027
453.53	20.161
453.88	19.905
454.23	20.622
454.58	21.926
454.93	21.805
455.28	21.072
455.63	20.267
455.98	21.905
456.34	20.666
456.69	22.041
457.04	21.486
457.39	21.742
457.74	20.836
458.09	21.449
458.44	21.095
458.79	19.469
459.14	20.993
459.49	20.665
459.84	20.554
460.19	20.389
460.54	20.370
460.89	20.516
461.24	21.372
461.59	21.209
461.94	21.147
462.29	21.721
462.64	22.144
462.99	20.820
463.34	21.133
463.69	21.201
464.04	21.507
464.39	21.507
464.74	20.618
465.09	21.291
465.44	20.997
465.79	20.582
466.14	20.471
466.49	20.857
466.84	20.957
467.19	21.666
467.54	22.000
467.89	20.528
468.24	20.710
468.59	21.978
468.94	21.381
469.29	21.787
469.64	23.293
469.99	22.124
470.34	21.202
470.68	23.132
471.03	22.041
471.38	22.099
471.73	22.985
472.08	22.237
472.43	20.917
472.78	21.264
473.13	21.566
473.48	21.848
473.83	21.707
474.17	21.842
474.52	21.898
474.87	21.366
475.22	21.416
475.57	20.795
475.92	21.455
476.27	21.759
476.61	20.905
476.96	21.001
477.31	20.984
477.66	21.608
478.01	21.589
478.36	21.047
478.70	21.340
479.05	21.778
479.40	21.494
479.75	21.047
480.10	21.372
480.45	21.228
480.79	21.166
481.14	21.429
481.49	21.547
481.84	21.262
482.19	20.763
482.53	21.422
482.88	21.405
483.23	21.028
483.58	20.928
483.92	21.978
484.27	20.436
484.62	21.078
484.97	20.575
485.31	20.651
485.66	19.346
486.01	18.331
486.36	17.515
486.70	17.057
487.05	18.268
487.40	18.922
487.75	19.578
488.09	20.382
488.44	20.347
488.79	21.736
489.13	20.856
489.48	21.166
489.83	20.457
490.17	21.613
490.52	21.701
490.87	21.076
491.22	21.010
491.56	21.048
491.91	21.545
492.26	21.268
492.60	21.751
492.95	20.440
493.30	21.262
493.64	21.092
493.99	21.356
494.34	21.092
494.68	21.978
495.03	21.852
495.37	21.591
495.72	21.101
496.07	22.042
496.41	21.195
496.76	20.097
497.11	21.792
497.45	22.124
497.80	21.401
498.14	21.256
498.49	21.415
498.84	21.956
499.18	21.476
499.53	21.700
499.87	21.948
500.22	21.903
500.56	22.136
500.91	21.635
501.26	21.527
501.60	22.164
501.95	21.494
502.29	21.556
502.64	21.648
502.98	21.786
503.33	21.115
503.67	20.928
504.02	21.422
504.36	21.385
504.71	22.325
505.06	22.554
505.40	22.265
505.75	21.745
506.09	21.672
506.44	21.904
506.78	22.260
507.13	22.362
507.47	22.677
507.82	22.442
508.16	21.935
508.51	22.933
508.85	22.642
509.19	22.347
509.54	22.347
509.88	22.102
510.23	22.005
510.57	22.859
510.92	22.734
511.26	22.970
511.61	22.873
511.95	22.390
512.30	22.269
512.64	22.569
512.98	23.098
513.33	24.090
513.67	23.106
514.02	22.457
514.36	23.102
514.70	23.575
515.05	22.978
515.39	23.556
515.74	23.930
516.08	23.980
516.42	24.029
516.77	23.913
517.11	24.140
517.46	23.928
517.80	24.274
518.14	23.451
518.49	24.562
518.83	23.580
519.17	24.192
519.52	23.656
519.86	24.301
520.20	24.798
520.55	25.194
520.89	24.574
521.23	25.513
521.58	24.490
521.92	24.740
522.26	24.527
522.61	24.798
522.95	23.266
523.29	24.589
523.64	24.878
523.98	24.892
524.32	24.789
524.66	24.955
525.01	24.510
525.35	24.102
525.69	24.754
526.04	24.486
526.38	24.649
526.72	25.031
527.06	25.298
527.41	23.515
527.75	25.080
528.09	25.112
528.43	25.112
528.78	24.770
529.12	24.667
529.46	25.046
529.80	25.804
530.15	25.421
530.49	24.492
530.83	24.620
531.17	26.110
531.51	25.875
531.86	25.097
532.20	25.359
532.54	25.689
532.88	25.417
533.22	25.359
533.57	25.309
533.91	23.901
534.25	24.970
534.59	25.198
534.93	24.747
535.27	25.287
535.62	23.687
535.96	25.047
536.30	23.903
536.64	24.984
536.98	24.685
537.32	25.214
537.66	25.200
538.01	25.872
538.35	24.952
538.69	25.973
539.03	24.237
539.37	24.920
539.71	24.109
540.05	24.118
540.39	24.518
540.73	24.321
541.07	24.854
541.42	25.310
541.76	25.742
542.10	24.644
542.44	25.033
542.78	25.494
543.12	24.376
543.46	24.590
543.80	24.723
544.14	24.390
544.48	24.952
544.82	24.439
545.16	24.854
545.50	24.100
545.84	24.530
546.18	25.320
546.52	24.708
546.86	25.361
547.20	25.287
547.54	25.050
547.88	25.383
548.22	24.222
548.56	24.025
548.90	24.584
549.24	24.781
549.58	24.829
549.92	25.549
550.26	25.426
550.60	24.896
550.94	25.634
551.28	24.653
551.62	25.234
551.96	24.211
552.30	25.392
552.64	25.761
552.98	25.085
553.32	25.489
553.66	26.312
554.00	25.051
554.34	24.500
554.68	25.250
555.02	25.176
555.36	26.096
555.69	25.169
556.03	24.630
556.37	25.307
556.71	24.898
557.05	24.930
557.39	25.262
557.73	24.206
558.07	25.671
558.41	25.181
558.75	25.569
559.08	25.652
559.42	24.717
559.76	25.735
560.10	25.553
560.44	25.017
560.78	23.619
561.12	25.396
561.45	23.794
561.79	23.929
562.13	24.547
562.47	25.000
562.81	24.547
563.15	24.415
563.48	24.005
563.82	24.918
564.16	24.330
564.50	24.674
564.84	23.451
565.17	24.710
565.51	24.089
565.85	24.683
566.19	23.356
566.52	23.876
566.86	23.508
567.20	24.233
567.54	23.059
567.88	22.868
568.21	23.545
568.55	22.902
568.89	22.325
569.23	21.569
569.56	20.891
569.90	20.528
570.24	21.206
570.57	21.251
570.91	19.716
571.25	19.518
571.59	19.735
571.92	19.873
572.26	19.584
572.60	20.240
572.93	20.090
573.27	20.024
573.61	20.073
573.95	20.000
574.28	19.397
574.62	19.121
574.96	18.901
575.29	19.059
575.63	18.979
575.97	19.136
576.30	20.048
576.64	19.257
576.98	19.324
577.31	19.478
577.65	18.849
577.98	19.160
578.32	18.308
578.66	18.700
578.99	19.014
579.33	18.736
579.67	19.046
580.00	18.725
580.34	19.601
580.67	18.908
581.01	19.496
581.35	18.756
581.68	18.728
582.02	17.877
582.35	18.354
582.69	18.230
583.02	18.372
583.36	18.999
583.70	19.231
584.03	19.436
584.37	20.026
584.70	19.462
585.04	19.105
585.37	19.268
585.71	18.961
586.04	18.773
586.38	19.462
586.72	19.663
587.05	19.315
587.39	19.024
587.72	18.707
588.06	18.757
588.39	19.616
588.73	19.419
589.06	19.913
589.40	20.303
589.73	20.556
590.07	19.929
590.40	20.241
590.73	20.609
591.07	20.635
591.40	21.088
591.74	21.255
592.07	21.073
592.41	20.628
592.74	19.888
593.08	19.254
593.41	18.981
593.75	18.863
594.08	19.008
594.41	19.724
594.75	19.778
595.08	19.864
595.42	19.685
595.75	19.694
596.09	19.977
596.42	20.786
596.75	20.937
597.09	21.645
597.42	20.067
597.75	20.526
598.09	20.652
598.42	20.962
598.76	19.457
599.09	19.270
599.42	18.996
599.76	19.766
600.09	18.944
600.42	19.284
600.76	19.071
601.09	19.964
601.42	19.863
601.76	20.190
602.09	20.079
602.42	20.143
602.76	20.113
603.09	20.299
603.42	20.344
603.76	19.703
604.09	19.310
604.42	19.812
604.76	20.245
605.09	20.140
605.42	20.051
605.75	19.619
606.09	19.805
606.42	19.616
606.75	19.577
607.09	20.176
607.42	20.068
607.75	18.861
608.08	20.321
608.42	20.394
608.75	19.432
609.08	19.796
609.41	19.895
609.75	19.867
610.08	20.358
610.41	19.832
610.74	20.246
611.07	20.652
611.41	20.854
611.74	21.418
612.07	20.756
612.40	21.249
612.73	20.263
613.07	21.444
613.40	21.432
613.73	19.822
614.06	20.753
614.39	20.713
614.72	21.158
615.06	20.588
615.39	19.904
615.72	20.143
616.05	20.415
616.38	20.901
616.71	21.140
617.05	21.555
617.38	21.167
617.71	20.901
618.04	21.274
618.37	20.757
618.70	21.406
619.03	22.368
619.36	22.811
619.69	22.746
620.03	23.352
620.36	21.925
620.69	23.356
621.02	22.124
621.35	22.553
621.68	22.897
622.01	22.755
622.34	24.357
622.67	22.738
623.00	21.790
623.33	22.302
623.66	22.087
623.99	22.018
624.32	21.969
624.65	22.316
624.99	21.530
625.32	22.230
625.65	22.239
625.98	23.213
626.31	23.717
626.64	23.184
626.97	24.273
627.30	22.776
627.63	23.380
627.96	23.129
628.29	24.322
628.62	24.062
628.95	25.849
629.28	24.544
629.61	25.390
629.94	24.286
630.26	23.451
630.59	24.786
630.92	24.425
631.25	23.495
631.58	24.625
631.91	24.848
632.24	25.105
632.57	26.023
632.90	25.987
633.23	24.720
633.56	27.232
633.89	26.840
634.22	26.561
634.55	27.337
634.88	26.347
635.20	26.165
635.53	26.265
635.86	25.124
636.19	25.882
636.52	24.798
636.85	26.117
637.18	25.000
637.51	26.714
637.83	24.291
638.16	26.982
638.49	27.456
638.82	26.928
639.15	25.375
639.48	27.182
639.81	28.016
640.13	27.214
640.46	26.711
640.79	27.213
641.12	25.585
641.45	29.609
641.77	28.866
642.10	29.532
642.43	28.529
642.76	27.554
643.09	29.294
643.41	29.135
643.74	29.167
644.07	26.829
644.40	29.294
644.73	29.134
645.05	30.269
645.38	27.804
645.71	29.791
646.04	30.066
646.36	28.715
646.69	29.766
647.02	31.803
647.35	28.694
647.67	30.265
648.00	28.618
648.33	29.868
648.66	27.424
648.98	29.235
649.31	27.055
649.64	26.607
649.96	27.720
650.29	27.488
650.62	28.155
650.94	27.553
651.27	29.561
651.60	29.950
651.92	27.157
652.25	27.850
652.58	28.037
652.90	27.962
653.23	26.040
653.56	27.717
653.88	29.002
654.21	30.332
654.54	28.548
654.86	27.726
655.19	25.135
655.52	16.438
655.84	12.921
656.17	15.844
656.49	21.290
656.82	22.237
657.15	17.181
657.47	13.052
657.80	10.442
658.13	11.102
658.45	17.230
658.78	17.900
659.10	19.371
659.43	20.456
659.75	21.974
660.08	24.873
660.41	27.654
660.73	29.225
661.06	28.981
661.38	30.182
661.71	30.000
662.03	32.347
662.36	29.026
662.68	29.920
663.01	30.707
663.33	30.361
663.66	31.092
663.98	32.181
664.31	30.252
664.63	29.960
664.96	28.974
665.28	33.197
665.61	30.994
665.93	29.175
666.26	29.817
666.58	32.427
666.91	31.924
667.23	32.584
667.56	30.886
667.88	32.051
668.21	31.130
668.53	31.887
668.86	31.818
669.18	33.049
669.50	32.391
669.83	32.680
670.15	32.667
670.48	30.065
670.80	31.897
671.13	31.210
671.45	29.362
671.77	30.346
672.10	29.205
672.42	28.799
672.75	28.027
673.07	27.465
673.39	26.582
673.72	26.758
674.04	30.392
674.37	28.738
674.69	30.061
675.01	28.661
675.34	31.006
675.66	32.211
675.98	30.346
676.31	30.882
676.63	31.210
676.95	30.608
677.28	31.308
677.60	31.429
677.92	32.489
678.25	30.595
678.57	30.080
678.89	30.060
679.22	28.291
679.54	29.580
679.86	27.706
680.18	28.980
680.51	27.128
680.83	28.470
681.15	29.434
681.48	28.733
681.80	28.240
682.12	29.310
682.44	24.371
682.77	29.939
683.09	33.262
683.41	31.042
683.73	31.567
684.06	31.818
684.38	27.202
684.70	30.814
685.02	26.829
685.34	26.007
685.67	27.448
685.99	26.289
686.31	25.939
686.63	25.265
686.96	27.321
687.28	26.715
687.60	25.543
687.92	29.068
688.24	27.186
688.56	30.924
688.89	30.498
689.21	31.004
689.53	30.689
689.85	31.929
690.17	29.193
690.49	30.573
690.82	30.607
691.14	28.571
691.46	29.114
691.78	26.707
692.10	28.719
692.42	27.545
692.74	27.801
693.06	27.447
693.39	30.185
693.71	30.786
694.03	28.842
694.35	28.139
694.67	27.460
694.99	31.463
695.31	29.902
695.63	29.187
695.95	29.829
696.27	28.680
696.59	29.534
696.91	31.865
697.23	28.404
697.56	29.211
697.88	26.789
698.20	28.542
698.52	28.172
698.84	30.290
699.16	25.806
699.48	28.741
699.80	31.401
700.12	34.026
700.44	33.952
700.76	33.702
701.08	34.770
701.40	31.844
701.72	34.694
702.04	35.227
702.36	24.929
702.68	32.295
703.00	34.903
703.32	30.851
703.64	33.512
703.96	30.919
704.28	34.884
704.60	35.191
704.91	34.718
705.23	36.950
705.55	33.887
705.87	37.542
706.19	34.629
706.51	36.449
706.83	36.061
707.15	35.014
707.47	31.061
707.79	29.975
708.11	30.822
708.43	27.619
708.74	30.867
709.06	35.325
709.38	34.646
709.70	35.174
710.02	36.795
710.34	30.909
710.66	34.030
710.98	32.955
711.29	34.302
711.61	34.513
711.93	31.410
712.25	38.907
712.57	37.500
712.89	34.256
713.20	32.219
713.52	35.526
713.84	31.646
714.16	34.146
714.48	32.759
714.80	34.954
715.11	31.988
715.43	31.157
715.75	33.623
716.07	33.546
716.39	34.169
716.70	34.551
717.02	34.892
717.34	34.982
717.66	38.433
717.97	39.841
718.29	38.148
718.61	36.861
718.93	36.765
719.24	35.640
719.56	32.542
719.88	34.576
720.20	33.784
720.51	33.101
720.83	40.149
721.15	33.582
721.46	39.362
721.78	35.125
722.10	34.717
722.42	37.970
722.73	38.951
723.05	35.656
723.37	39.676
723.68	35.907
724.00	34.146
724.32	35.081
724.63	36.179
724.95	36.402
725.27	41.700
725.58	39.453
725.90	37.956
726.22	37.358
726.53	34.722
726.85	33.788
727.16	32.384
727.48	34.752
727.80	35.606
728.11	36.957
728.43	36.538
728.74	38.351
729.06	40.876
729.38	38.235
729.69	33.808
730.01	35.154
730.32	33.333
730.64	32.107
730.96	31.023
731.27	31.788
731.59	35.474
731.90	30.612
732.22	33.540
732.53	30.031
732.85	30.769
733.16	33.119
733.48	34.884
733.80	32.792
734.11	34.713
734.43	29.882
734.74	27.714
735.06	26.074
735.37	32.948
735.69	28.025
736.00	32.026
736.32	30.530
736.63	31.949
736.95	31.629
737.26	26.190
737.58	31.613
737.89	31.438
738.21	37.884
738.52	31.786
738.83	33.208
739.15	34.615
739.46	37.591
739.78	35.764
740.09	30.154
740.41	34.194
740.72	29.268
741.04	35.926
741.35	36.667
741.66	39.556
741.98	36.792
742.29	40.191
742.61	42.672
742.92	35.294
743.23	42.308
743.55	36.400
743.86	41.228
744.18	39.381
744.49	44.976
744.80	40.376
745.12	45.909
745.43	33.921
745.74	38.288
746.06	34.404
746.37	39.013
746.68	38.462
747.00	40.741
747.31	37.619
747.62	38.938
747.94	37.004
748.25	39.149
748.56	40.969
748.88	40.099
749.19	48.000
749.50	39.535
749.82	34.553
750.13	38.776
750.44	38.321
750.75	34.035
751.07	35.691
751.38	32.056
751.69	34.657
752.01	33.459
752.32	34.296
752.63	32.979
752.94	35.656
753.26	43.600
753.57	30.081
753.88	42.187
754.19	34.643
754.51	35.417
754.82	30.686
755.13	34.340
755.44	34.211
755.75	35.766
756.07	35.106
756.38	31.387
756.69	34.564
757.00	30.838
757.31	32.047
757.63	30.117
757.94	26.273
758.25	26.225
758.56	23.951
758.87	28.495
759.18	32.121
759.50	28.527
759.81	33.022
760.12	27.500
760.43	29.799
760.74	27.446
761.05	29.944
761.36	25.134
761.67	30.398
761.99	28.571
762.30	32.986
762.61	29.771
762.92	37.891
763.23	41.176
763.54	36.800
763.85	33.984
764.16	36.154
764.47	35.741
764.78	29.329
765.10	28.797
765.41	30.973
765.72	28.144
766.03	28.840
766.34	26.333
766.65	37.021
766.96	34.188
767.27	37.563
767.58	44.271
767.89	40.000
768.20	47.126
768.51	41.624
768.82	41.743
769.13	31.301
769.44	33.603
769.75	35.622
770.06	30.275
770.37	36.652
770.68	45.833
770.99	35.111
771.30	31.148
771.61	37.668
771.92	35.656
772.23	43.697
772.54	35.897
772.85	47.644
773.16	46.277
773.47	43.478
773.78	40.609
774.09	44.643
774.39	45.614
774.70	51.852
775.01	50.000
775.32	49.673
775.63	50.658
775.94	48.921
776.25	61.417
776.56	50.746
776.87	57.377
777.18	57.812
777.48	54.962
777.79	59.848
778.10	60.000
778.41	53.571
778.72	41.606
779.03	51.007
779.34	41.611
779.65	39.865
779.95	49.693
780.26	50.327
780.57	53.103
780.88	59.375
781.19	51.880
781.50	54.054
781.80	45.283
782.11	39.548
782.42	48.101
782.73	41.104
783.04	49.324
783.34	53.521
783.65	54.110
783.96	55.970
784.27	47.552
784.57	46.763
784.88	50.000
785.19	69.048
785.50	56.604
785.81	58.209
786.11	63.115
786.42	60.465
786.73	57.522
787.04	70.755
787.34	56.250
787.65	57.000
787.96	66.667
788.26	54.545
788.57	56.780
788.88	61.157
789.19	60.417
789.49	59.091
789.80	51.908
790.11	68.571
790.41	64.356
790.72	81.928
791.03	78.261
791.33	68.605
791.64	75.258
791.95	73.267
792.25	75.556
792.56	76.623
792.87	78.205
793.17	86.076
793.48	73.563
793.79	77.011
794.09	75.000
794.40	57.983
794.70	55.882
795.01	54.074
795.32	52.518
795.62	48.819
795.93	60.345
796.23	63.717
796.54	61.176
796.85	78.378
797.15	91.549
797.46	87.879
797.76	80.723
798.07	83.544
798.37	81.538
798.68	92.424
798.99	77.465
799.29	87.013
799.60	62.500
799.90	93.151
800.21	91.045
800.51	96.552
800.82	101.754
801.12	103.279
801.43	93.939
801.73	79.730
802.04	106.349
802.34	67.901
802.65	110.938
802.95	105.085
803.26	110.938
803.56	72.857
803.87	92.308
804.17	89.706
804.48	114.815
804.78	94.828
805.09	88.235
805.39	98.077
805.70	96.429
806.00	100.000
806.30	84.848
806.61	87.805
806.91	77.215
807.22	80.263
807.52	77.612
807.83	85.915
808.13	85.938
808.43	95.000
808.74	71.053
809.04	97.101
809.35	94.030
809.65	97.368
809.95	119.355
810.26	105.085
810.56	98.413
810.86	127.273
811.17	119.048
811.47	120.000
811.77	111.111
812.08	127.273
812.38	110.000
812.69	155.556
812.99	147.727
813.29	128.571
813.59	119.048
813.90	134.694
814.20	105.455
814.50	90.769
814.81	111.765
815.11	142.857
815.41	98.361
815.72	173.810
816.02	125.455
816.32	145.238
816.62	137.500
816.93	117.073
817.23	123.810
817.53	154.545
817.84	145.455
818.14	119.565
818.44	115.556
818.74	161.765
819.04	132.500
819.35	157.143
819.65	170.588
819.95	171.429
820.25	220.000
820.56	192.308
820.86	138.636
821.16	146.512
821.46	146.154
821.76	150.000
822.07	142.857
822.37	175.000
822.67	157.576
822.97	90.196
823.27	203.571
823.57	175.676
823.88	170.000
824.18	196.667
824.48	140.476
824.78	232.000
825.08	179.167
825.38	156.757
825.69	134.146
825.99	229.167
826.29	155.172
826.59	139.474
826.89	144.737
827.19	176.471
827.49	203.226
827.79	163.636
828.09	131.818
828.39	114.894
828.70	153.061
829.00	151.852
829.30	174.194
829.60	142.500
829.90	366.667
830.20	210.714
830.50	243.478
830.80	252.174
831.10	210.000
831.40	180.000
831.70	256.522
832.00	230.769
832.30	207.407
832.60	312.500
832.90	193.333
833.20	428.571
833.50	193.548
833.80	186.207
834.10	184.375
834.40	238.462
834.70	283.333
835.00	285.714
835.30	191.429
835.60	315.385
835.90	206.897
836.20	371.429
836.50	186.207
836.80	180.000
837.10	177.778
837.40	280.952
837.70	347.059
838.00	214.815
838.30	276.190
838.60	295.238
838.90	238.462
839.19	255.000
839.49	385.714
839.79	310.000
840.09	300.000
840.39	252.381
840.69	252.174
840.99	266.667
841.29	460.000
841.59	308.333
841.88	343.750
842.18	196.552
842.48	276.190
842.78	183.333
843.08	243.478
843.38	209.375
843.68	933.333
843.97	234.615
844.27	231.034
844.57	280.952
844.87	368.750
845.17	203.704
845.47	1600.000
845.76	488.889
846.06	258.824
846.36	575.000
846.66	378.571
846.96	337.500
847.25	472.727
847.55	509.091
847.85	243.478
848.15	550.000
848.44	442.857
848.74	266.667
849.04	394.118
849.34	490.000
849.63	289.474
849.93	363.636
850.23	1120.000
850.53	400.000
850.82	2250.000
851.12	-3500.000
851.42	4500.000
851.71	245.000
852.01	-1300.000
852.31	216.667
852.61	1533.333
852.90	285.714
853.20	252.000
853.50	394.118
853.79	290.476
854.09	225.000
854.39	337.500
854.68	175.676
854.98	193.548
855.28	186.667
855.57	234.483
855.87	222.222
856.17	247.368
856.46	306.667
856.76	294.118
857.05	206.897
857.35	237.500
857.65	373.333
857.94	217.391
858.24	276.923
858.53	240.000
858.83	218.182
859.13	400.000
859.42	0.000
859.72	411.111
860.01	536.364
860.31	250.000
860.60	300.000
860.90	239.130
861.20	644.444
861.49	516.667
861.79	-5300.000
862.08	637.500
862.38	276.190
862.67	400.000
862.97	352.941
863.26	600.000
863.56	338.889
863.85	391.667
864.15	500.000
864.44	353.333
864.74	800.000
865.03	762.500
865.33	305.263
865.62	418.182
865.92	407.692
866.21	400.000
866.51	0.000
866.80	490.909
867.10	960.000
867.39	469.231
867.69	500.000
867.98	289.474
868.27	527.273
868.57	347.368
868.86	-4200.000
869.16	381.250
869.45	2100.000
869.75	-5400.000
870.04	441.667
870.33	714.286
870.63	1000.000
870.92	2350.000
871.22	857.143
871.51	358.824
871.80	219.048
872.10	364.286
>>>>>End Processed Spectral Data<<<<<
