SpectraSuite Data File
++++++++++++++++++++++++++++++++++++
Date: Wed May 13 16:46:40 PDT 2015
User: schluterlab
Dark Spectrum Present: Yes
Reference Spectrum Present: Yes
Number of Sampled Component Spectra: 1
Spectrometers: USB2E3373
Integration Time (usec): 3000 (USB2E3373)
Spectra Averaged: 3 (USB2E3373)
Boxcar Smoothing: 0 (USB2E3373)
Correct for Electrical Dark: No (USB2E3373)
Strobe/Lamp Enabled: No (USB2E3373)
Correct for Detector Non-linearity: No (USB2E3373)
Correct for Stray Light: No (USB2E3373)
Number of Pixels in Processed Spectrum: 2048
>>>>>Begin Processed Spectral Data<<<<<
178.53	0.000
178.91	-1275.000
179.29	-1175.000
179.67	-233.333
180.04	-1125.000
180.42	2250.000
180.80	940.000
181.18	-1000.000
181.56	585.714
181.94	0.000
182.31	-657.143
182.69	1933.333
183.07	-587.500
183.45	-577.778
183.83	518.182
184.20	-330.000
184.58	2100.000
184.96	4900.000
185.34	-760.000
185.72	-600.000
186.09	-2100.000
186.47	2850.000
186.85	2250.000
187.23	4200.000
187.61	-1800.000
187.98	1475.000
188.36	463.636
188.74	518.182
189.12	-1060.000
189.49	460.000
189.87	-5300.000
190.25	-1225.000
190.63	407.143
191.00	330.769
191.38	766.667
191.76	-1275.000
192.14	1150.000
192.51	587.500
192.89	850.000
193.27	562.500
193.65	-925.000
194.02	490.000
194.40	820.000
194.78	640.000
195.15	475.000
195.53	640.000
195.91	-2050.000
196.29	350.000
196.66	294.737
197.04	-380.000
197.42	0.000
197.79	560.000
198.17	-4900.000
198.55	800.000
198.92	675.000
199.30	980.000
199.68	0.000
200.05	344.444
200.43	785.714
200.81	4400.000
201.18	1666.667
201.56	-1533.333
201.94	588.889
202.31	644.444
202.69	441.667
203.07	450.000
203.44	0.000
203.82	1025.000
204.19	771.429
204.57	442.857
204.95	600.000
205.32	1500.000
205.70	472.727
206.08	378.571
206.45	3050.000
206.83	362.500
207.20	766.667
207.58	780.000
207.96	350.000
208.33	750.000
208.71	-666.667
209.08	728.571
209.46	555.556
209.84	454.545
210.21	-1633.333
210.59	1225.000
210.96	-450.000
211.34	2400.000
211.71	500.000
212.09	800.000
212.46	0.000
212.84	1466.667
213.22	1325.000
213.59	-4000.000
213.97	850.000
214.34	814.286
214.72	581.818
215.09	920.000
215.47	-2150.000
215.84	-2050.000
216.22	1800.000
216.59	378.571
216.97	1225.000
217.34	554.545
217.72	-733.333
218.09	0.000
218.47	-4100.000
218.84	666.667
219.22	657.143
219.59	1700.000
219.97	-685.714
220.34	920.000
220.72	-1533.333
221.09	371.429
221.47	1575.000
221.84	-800.000
222.22	0.000
222.59	1400.000
222.97	-2350.000
223.34	1080.000
223.72	376.923
224.09	1160.000
224.46	2000.000
224.84	-4800.000
225.21	-920.000
225.59	-4600.000
225.96	580.000
226.34	270.000
226.71	3200.000
227.08	475.000
227.46	500.000
227.83	-875.000
228.21	-2350.000
228.58	555.556
228.95	-2600.000
229.33	-2450.000
229.70	1333.333
230.08	714.286
230.45	-760.000
230.82	441.667
231.20	766.667
231.57	514.286
231.95	391.667
232.32	227.273
232.69	354.545
233.07	714.286
233.44	361.538
233.81	-1300.000
234.19	315.789
234.56	475.000
234.93	391.667
235.31	372.727
235.68	369.231
236.05	321.429
236.43	172.727
236.80	273.684
237.17	4500.000
237.55	180.952
237.92	175.000
238.29	257.143
238.67	183.871
239.04	168.966
239.41	125.000
239.79	113.043
240.16	138.095
240.53	104.545
240.91	105.882
241.28	110.000
241.65	100.000
242.02	104.348
242.40	91.935
242.77	91.667
243.14	72.043
243.51	79.775
243.89	72.941
244.26	51.111
244.63	63.441
245.00	56.383
245.38	67.327
245.75	55.140
246.12	48.624
246.49	59.124
246.87	56.800
247.24	53.077
247.61	47.143
247.98	43.791
248.36	40.541
248.73	43.949
249.10	45.223
249.47	42.938
249.84	48.128
250.22	42.781
250.59	43.787
250.96	38.889
251.33	44.076
251.70	44.059
252.08	42.381
252.45	33.184
252.82	38.696
253.19	42.979
253.56	33.725
253.94	34.855
254.31	37.891
254.68	36.154
255.05	37.638
255.42	31.707
255.79	38.235
256.16	36.823
256.54	31.802
256.91	33.452
257.28	29.856
257.65	35.314
258.02	32.919
258.39	32.492
258.76	33.110
259.14	30.060
259.51	31.307
259.88	29.814
260.25	30.514
260.62	30.925
260.99	31.988
261.36	34.535
261.73	31.232
262.10	27.035
262.47	33.521
262.85	28.969
263.22	28.775
263.59	31.339
263.96	29.670
264.33	30.026
264.70	26.579
265.07	29.668
265.44	29.798
265.81	26.764
266.18	29.146
266.55	27.561
266.92	26.536
267.29	27.546
267.66	25.688
268.03	26.364
268.40	28.972
268.77	25.537
269.14	27.703
269.51	27.765
269.88	27.972
270.25	27.991
270.62	28.090
270.99	31.828
271.36	24.893
271.73	27.804
272.10	25.435
272.47	26.237
272.84	28.571
273.21	28.512
273.58	23.362
273.95	23.061
274.32	25.000
274.69	24.839
275.06	22.835
275.43	27.021
275.80	26.052
276.17	25.255
276.54	28.482
276.91	25.889
277.28	25.586
277.65	25.532
278.02	25.880
278.39	26.172
278.76	24.000
279.13	24.340
279.50	24.953
279.87	24.104
280.23	25.948
280.60	23.017
280.97	23.290
281.34	24.248
281.71	26.909
282.08	23.608
282.45	22.545
282.82	22.025
283.19	21.925
283.56	24.386
283.92	23.858
284.29	22.222
284.66	24.138
285.03	23.508
285.40	22.535
285.77	24.411
286.14	20.207
286.51	21.833
286.87	22.393
287.24	22.638
287.61	24.238
287.98	21.266
288.35	21.236
288.72	21.495
289.08	20.970
289.45	21.582
289.82	20.976
290.19	19.937
290.56	21.593
290.93	20.695
291.29	20.092
291.66	19.469
292.03	21.948
292.40	21.586
292.77	20.858
293.13	20.299
293.50	19.825
293.87	20.741
294.24	18.963
294.60	19.068
294.97	20.349
295.34	19.323
295.71	20.881
296.08	19.801
296.44	18.432
296.81	19.287
297.18	20.325
297.55	18.602
297.91	18.470
298.28	21.017
298.65	17.624
299.02	17.918
299.38	19.389
299.75	16.577
300.12	17.114
300.48	19.500
300.85	18.249
301.22	17.325
301.59	17.172
301.95	19.647
302.32	17.458
302.69	17.921
303.05	17.212
303.42	16.420
303.79	17.780
304.15	16.550
304.52	15.295
304.89	15.912
305.25	16.589
305.62	17.554
305.99	18.890
306.35	17.450
306.72	17.601
307.09	17.314
307.45	17.230
307.82	15.737
308.19	16.887
308.55	17.907
308.92	16.219
309.29	16.473
309.65	16.119
310.02	16.596
310.38	16.667
310.75	17.212
311.12	16.581
311.48	17.659
311.85	17.086
312.22	17.274
312.58	15.904
312.95	17.107
313.31	16.408
313.68	16.632
314.05	17.653
314.41	15.980
314.78	15.408
315.14	17.378
315.51	16.375
315.87	16.535
316.24	16.882
316.61	16.862
316.97	15.264
317.34	14.384
317.70	17.208
318.07	15.399
318.43	15.460
318.80	15.933
319.16	16.667
319.53	14.634
319.89	17.619
320.26	17.900
320.62	16.865
320.99	16.768
321.35	16.465
321.72	17.146
322.08	17.275
322.45	17.811
322.81	17.442
323.18	16.089
323.54	16.512
323.91	17.453
324.27	16.826
324.64	15.564
325.00	15.690
325.37	16.470
325.73	17.864
326.10	16.681
326.46	14.427
326.83	16.997
327.19	15.798
327.56	15.854
327.92	17.498
328.29	15.528
328.65	16.206
329.01	15.884
329.38	15.171
329.74	16.990
330.11	16.777
330.47	16.713
330.84	17.279
331.20	14.754
331.56	15.780
331.93	16.759
332.29	16.770
332.66	15.841
333.02	16.453
333.38	17.254
333.75	17.469
334.11	16.014
334.48	17.214
334.84	15.717
335.20	16.000
335.57	15.050
335.93	16.161
336.29	15.659
336.66	16.141
337.02	15.566
337.38	15.463
337.75	15.597
338.11	15.219
338.47	15.930
338.84	17.599
339.20	14.495
339.56	16.788
339.93	15.545
340.29	15.217
340.65	15.330
341.02	17.103
341.38	16.103
341.74	15.351
342.11	15.721
342.47	15.595
342.83	15.668
343.20	17.489
343.56	16.091
343.92	15.877
344.28	15.476
344.65	15.047
345.01	14.646
345.37	14.923
345.73	15.144
346.10	15.601
346.46	15.254
346.82	15.568
347.19	14.703
347.55	14.204
347.91	14.968
348.27	15.694
348.63	15.635
349.00	14.725
349.36	14.860
349.72	15.397
350.08	14.749
350.45	15.460
350.81	14.297
351.17	15.073
351.53	14.251
351.89	14.604
352.26	16.338
352.62	15.317
352.98	15.073
353.34	14.955
353.70	15.712
354.07	15.484
354.43	15.317
354.79	15.044
355.15	14.445
355.51	16.147
355.87	15.429
356.24	14.658
356.60	14.595
356.96	14.642
357.32	14.963
357.68	14.803
358.04	14.964
358.40	15.519
358.77	14.867
359.13	14.207
359.49	15.216
359.85	13.254
360.21	13.397
360.57	14.942
360.93	14.923
361.29	14.512
361.66	13.467
362.02	15.373
362.38	14.829
362.74	13.988
363.10	14.212
363.46	14.087
363.82	14.815
364.18	14.978
364.54	14.859
364.90	14.448
365.26	15.000
365.62	14.390
365.98	14.974
366.35	12.894
366.71	14.461
367.07	13.984
367.43	14.586
367.79	15.061
368.15	14.727
368.51	13.299
368.87	15.275
369.23	14.265
369.59	14.410
369.95	14.559
370.31	13.319
370.67	13.478
371.03	15.206
371.39	15.233
371.75	14.044
372.11	14.011
372.47	14.956
372.83	14.914
373.19	14.451
373.55	14.560
373.91	14.875
374.27	14.364
374.63	13.964
374.99	14.477
375.35	13.468
375.71	13.777
376.07	14.746
376.42	13.961
376.78	14.712
377.14	14.179
377.50	14.040
377.86	13.497
378.22	14.033
378.58	13.910
378.94	13.388
379.30	12.977
379.66	14.150
380.02	13.452
380.38	13.115
380.74	14.406
381.09	13.692
381.45	14.382
381.81	14.251
382.17	13.822
382.53	13.585
382.89	13.765
383.25	13.258
383.61	14.808
383.97	14.384
384.32	14.286
384.68	13.321
385.04	13.891
385.40	12.755
385.76	14.005
386.12	14.313
386.48	13.719
386.83	14.240
387.19	14.409
387.55	14.409
387.91	13.845
388.27	13.673
388.62	13.768
388.98	13.514
389.34	14.268
389.70	13.734
390.06	14.068
390.42	14.137
390.77	14.249
391.13	13.912
391.49	13.959
391.85	13.749
392.20	12.744
392.56	13.889
392.92	13.479
393.28	12.189
393.64	13.609
393.99	14.478
394.35	13.027
394.71	13.425
395.07	13.084
395.42	13.721
395.78	13.868
396.14	13.842
396.50	13.534
396.85	13.732
397.21	12.639
397.57	12.647
397.92	14.243
398.28	13.004
398.64	14.098
399.00	13.262
399.35	13.254
399.71	12.847
400.07	14.193
400.42	13.865
400.78	14.053
401.14	12.988
401.49	12.776
401.85	13.007
402.21	13.293
402.57	13.387
402.92	12.989
403.28	13.616
403.63	13.366
403.99	13.185
404.35	13.394
404.70	12.770
405.06	13.046
405.42	13.662
405.77	13.429
406.13	13.036
406.49	14.370
406.84	13.881
407.20	13.357
407.55	13.210
407.91	14.000
408.27	12.317
408.62	13.125
408.98	12.868
409.34	13.469
409.69	13.548
410.05	12.206
410.40	13.578
410.76	12.903
411.11	13.390
411.47	12.971
411.83	14.111
412.18	12.740
412.54	13.574
412.89	13.193
413.25	12.987
413.60	13.033
413.96	13.722
414.31	13.244
414.67	13.625
415.03	13.510
415.38	14.562
415.74	13.119
416.09	13.455
416.45	12.851
416.80	13.351
417.16	14.142
417.51	13.869
417.87	12.588
418.22	14.385
418.58	13.299
418.93	13.268
419.29	13.113
419.64	14.106
420.00	14.146
420.35	12.928
420.71	13.808
421.06	12.947
421.42	13.158
421.77	13.677
422.12	12.802
422.48	12.844
422.83	12.580
423.19	13.591
423.54	13.059
423.90	13.043
424.25	13.121
424.61	12.679
424.96	12.303
425.31	13.123
425.67	12.921
426.02	13.029
426.38	14.103
426.73	13.166
427.09	13.435
427.44	12.536
427.79	13.168
428.15	13.512
428.50	13.107
428.85	13.647
429.21	12.811
429.56	12.597
429.92	13.085
430.27	12.810
430.62	11.982
430.98	12.558
431.33	12.165
431.68	12.723
432.04	12.247
432.39	12.621
432.74	12.567
433.10	12.903
433.45	13.061
433.80	12.694
434.16	13.408
434.51	12.000
434.86	13.854
435.22	13.063
435.57	13.131
435.92	12.639
436.28	13.405
436.63	13.576
436.98	12.765
437.34	13.238
437.69	13.011
438.04	12.479
438.39	12.716
438.75	12.493
439.10	13.128
439.45	13.282
439.81	12.508
440.16	13.382
440.51	13.122
440.86	13.492
441.22	11.958
441.57	13.110
441.92	12.282
442.27	12.487
442.63	12.322
442.98	13.352
443.33	12.935
443.68	12.494
444.03	12.787
444.39	12.269
444.74	12.500
445.09	12.345
445.44	12.575
445.79	12.716
446.15	13.340
446.50	12.816
446.85	13.309
447.20	12.545
447.55	12.786
447.91	12.686
448.26	12.799
448.61	12.945
448.96	13.234
449.31	13.892
449.66	13.281
450.02	12.423
450.37	12.755
450.72	13.593
451.07	12.492
451.42	12.340
451.77	13.682
452.12	13.510
452.47	13.682
452.83	12.179
453.18	13.814
453.53	13.853
453.88	12.995
454.23	12.672
454.58	13.083
454.93	14.431
455.28	12.843
455.63	13.653
455.98	13.452
456.34	13.191
456.69	13.463
457.04	13.437
457.39	13.442
457.74	12.826
458.09	13.341
458.44	13.683
458.79	12.039
459.14	13.657
459.49	12.843
459.84	13.130
460.19	12.846
460.54	13.079
460.89	12.946
461.24	12.933
461.59	13.713
461.94	12.762
462.29	13.828
462.64	12.763
462.99	12.427
463.34	13.933
463.69	13.634
464.04	13.913
464.39	12.870
464.74	13.369
465.09	12.967
465.44	12.964
465.79	13.255
466.14	13.355
466.49	13.626
466.84	13.368
467.19	13.096
467.54	13.188
467.89	13.385
468.24	14.136
468.59	13.492
468.94	13.134
469.29	13.560
469.64	14.926
469.99	13.396
470.34	13.540
470.68	13.075
471.03	13.129
471.38	13.482
471.73	13.458
472.08	13.947
472.43	13.882
472.78	14.286
473.13	13.992
473.48	13.795
473.83	13.780
474.17	13.441
474.52	13.834
474.87	14.361
475.22	13.639
475.57	12.681
475.92	12.215
476.27	13.134
476.61	13.183
476.96	12.479
477.31	12.664
477.66	13.129
478.01	12.546
478.36	13.696
478.70	12.721
479.05	13.365
479.40	12.999
479.75	13.167
480.10	12.326
480.45	12.661
480.79	11.992
481.14	13.258
481.49	13.052
481.84	12.574
482.19	12.812
482.53	12.202
482.88	12.704
483.23	12.664
483.58	12.602
483.92	12.559
484.27	12.375
484.62	12.629
484.97	11.786
485.31	12.192
485.66	11.406
486.01	11.109
486.36	10.619
486.70	10.066
487.05	10.622
487.40	10.878
487.75	11.008
488.09	11.131
488.44	11.408
488.79	11.501
489.13	11.574
489.48	12.113
489.83	12.041
490.17	12.714
490.52	12.356
490.87	12.212
491.22	12.506
491.56	12.210
491.91	12.006
492.26	12.448
492.60	12.488
492.95	12.254
493.30	12.103
493.64	12.226
493.99	12.628
494.34	11.980
494.68	12.408
495.03	12.265
495.37	12.331
495.72	12.719
496.07	12.807
496.41	12.301
496.76	12.313
497.11	12.517
497.45	12.576
497.80	12.620
498.14	12.077
498.49	12.585
498.84	12.512
499.18	12.667
499.53	12.251
499.87	12.675
500.22	12.671
500.56	12.718
500.91	11.490
501.26	12.470
501.60	12.720
501.95	12.603
502.29	12.887
502.64	12.756
502.98	12.669
503.33	12.477
503.67	12.297
504.02	12.769
504.36	12.775
504.71	12.213
505.06	12.530
505.40	13.175
505.75	12.343
506.09	12.391
506.44	13.271
506.78	13.005
507.13	12.822
507.47	12.980
507.82	13.222
508.16	13.019
508.51	12.836
508.85	12.413
509.19	13.673
509.54	12.551
509.88	12.416
510.23	13.111
510.57	13.467
510.92	12.998
511.26	12.898
511.61	13.019
511.95	12.161
512.30	12.778
512.64	12.950
512.98	13.183
513.33	13.651
513.67	13.501
514.02	12.554
514.36	13.381
514.70	13.614
515.05	13.330
515.39	13.012
515.74	12.838
516.08	13.415
516.42	13.485
516.77	13.768
517.11	13.152
517.46	13.036
517.80	12.834
518.14	12.623
518.49	13.419
518.83	14.432
519.17	13.106
519.52	13.299
519.86	13.805
520.20	14.162
520.55	13.704
520.89	12.774
521.23	14.113
521.58	14.046
521.92	13.288
522.26	13.423
522.61	14.019
522.95	13.689
523.29	13.025
523.64	13.841
523.98	13.494
524.32	13.390
524.66	13.710
525.01	13.113
525.35	13.197
525.69	13.670
526.04	13.832
526.38	13.057
526.72	13.252
527.06	13.371
527.41	12.500
527.75	14.212
528.09	13.423
528.43	13.830
528.78	13.891
529.12	12.970
529.46	13.411
529.80	14.233
530.15	14.019
530.49	13.723
530.83	13.671
531.17	14.556
531.51	15.435
531.86	13.032
532.20	14.928
532.54	14.029
532.88	13.864
533.22	13.117
533.57	13.086
533.91	13.967
534.25	13.730
534.59	13.179
534.93	13.623
535.27	13.217
535.62	13.492
535.96	13.685
536.30	12.969
536.64	13.200
536.98	13.869
537.32	13.891
537.66	12.867
538.01	13.364
538.35	13.963
538.69	14.103
539.03	13.255
539.37	12.013
539.71	12.378
540.05	13.137
540.39	13.688
540.73	13.325
541.07	14.601
541.42	13.699
541.76	13.290
542.10	13.519
542.44	13.907
542.78	13.966
543.12	12.604
543.46	14.164
543.80	14.444
544.14	13.607
544.48	13.079
544.82	12.508
545.16	13.403
545.50	12.339
545.84	13.575
546.18	13.805
546.52	13.696
546.86	13.814
547.20	12.677
547.54	13.427
547.88	13.839
548.22	13.574
548.56	13.648
548.90	13.444
549.24	13.266
549.58	14.052
549.92	13.736
550.26	13.707
550.60	13.485
550.94	14.014
551.28	12.948
551.62	14.162
551.96	13.404
552.30	14.539
552.64	14.266
552.98	15.051
553.32	14.363
553.66	14.110
554.00	13.727
554.34	13.527
554.68	14.664
555.02	13.822
555.36	13.292
555.69	13.667
556.03	13.863
556.37	13.984
556.71	13.711
557.05	13.165
557.39	13.576
557.73	14.467
558.07	13.851
558.41	13.097
558.75	14.181
559.08	14.169
559.42	13.681
559.76	13.676
560.10	13.419
560.44	13.417
560.78	13.506
561.12	13.522
561.45	13.494
561.79	12.920
562.13	12.676
562.47	14.481
562.81	13.389
563.15	13.846
563.48	13.992
563.82	13.633
564.16	13.146
564.50	13.021
564.84	13.338
565.17	13.707
565.51	13.035
565.85	13.261
566.19	12.210
566.52	12.856
566.86	12.899
567.20	13.797
567.54	13.014
567.88	12.439
568.21	13.175
568.55	11.577
568.89	12.354
569.23	11.676
569.56	11.862
569.90	11.472
570.24	11.231
570.57	10.915
570.91	10.989
571.25	10.716
571.59	10.869
571.92	10.369
572.26	10.456
572.60	10.571
572.93	10.825
573.27	11.032
573.61	10.664
573.95	10.543
574.28	10.327
574.62	10.617
574.96	10.131
575.29	10.378
575.63	10.391
575.97	10.102
576.30	10.701
576.64	9.982
576.98	10.039
577.31	10.189
577.65	10.206
577.98	10.012
578.32	9.809
578.66	10.314
578.99	9.861
579.33	9.804
579.67	9.779
580.00	10.189
580.34	10.109
580.67	10.069
581.01	9.894
581.35	10.268
581.68	10.136
582.02	9.883
582.35	9.747
582.69	10.006
583.02	10.002
583.36	9.915
583.70	10.090
584.03	10.031
584.37	10.303
584.70	9.770
585.04	9.760
585.37	9.739
585.71	10.432
586.04	9.833
586.38	10.188
586.72	10.909
587.05	9.807
587.39	10.053
587.72	10.229
588.06	10.432
588.39	10.453
588.73	9.680
589.06	10.471
589.40	10.808
589.73	10.736
590.07	10.996
590.40	10.596
590.73	11.046
591.07	11.152
591.40	11.092
591.74	11.905
592.07	11.431
592.41	11.327
592.74	11.049
593.08	10.959
593.41	10.819
593.75	10.587
594.08	10.962
594.41	10.887
594.75	10.758
595.08	10.845
595.42	11.103
595.75	10.826
596.09	10.740
596.42	10.845
596.75	11.271
597.09	11.515
597.42	11.425
597.75	10.996
598.09	11.609
598.42	11.598
598.76	10.823
599.09	10.756
599.42	10.590
599.76	11.164
600.09	10.638
600.42	10.592
600.76	10.571
601.09	10.747
601.42	11.035
601.76	10.854
602.09	10.949
602.42	10.987
602.76	11.568
603.09	10.976
603.42	11.207
603.76	10.938
604.09	10.973
604.42	10.722
604.76	11.303
605.09	11.271
605.42	11.458
605.75	11.300
606.09	10.289
606.42	10.584
606.75	11.116
607.09	11.762
607.42	11.297
607.75	10.591
608.08	11.420
608.42	11.968
608.75	11.001
609.08	10.823
609.41	11.518
609.75	11.434
610.08	11.687
610.41	11.173
610.74	11.637
611.07	12.253
611.41	11.580
611.74	12.217
612.07	11.853
612.40	11.438
612.73	11.421
613.07	11.853
613.40	12.112
613.73	11.589
614.06	11.075
614.39	11.589
614.72	12.842
615.06	12.342
615.39	11.996
615.72	12.423
616.05	11.483
616.38	12.062
616.71	12.530
617.05	12.662
617.38	12.568
617.71	11.231
618.04	12.921
618.37	11.946
618.70	12.383
619.03	14.013
619.36	13.035
619.69	13.028
620.03	12.912
620.36	13.904
620.69	13.014
621.02	14.159
621.35	13.156
621.68	13.551
622.01	13.080
622.34	13.313
622.67	13.992
623.00	13.133
623.33	13.438
623.66	13.224
623.99	12.887
624.32	13.124
624.65	13.206
624.99	12.677
625.32	12.744
625.65	13.749
625.98	13.528
626.31	14.230
626.64	12.980
626.97	14.048
627.30	14.048
627.63	14.848
627.96	14.130
628.29	14.873
628.62	13.998
628.95	15.943
629.28	14.781
629.61	14.757
629.94	14.667
630.26	13.441
630.59	15.062
630.92	14.464
631.25	13.919
631.58	15.816
631.91	14.909
632.24	14.451
632.57	15.845
632.90	15.789
633.23	15.213
633.56	16.045
633.89	16.648
634.22	15.551
634.55	16.568
634.88	15.808
635.20	16.607
635.53	16.145
635.86	15.099
636.19	15.882
636.52	15.110
636.85	15.349
637.18	15.323
637.51	16.785
637.83	14.550
638.16	15.601
638.49	16.121
638.82	18.584
639.15	19.250
639.48	17.955
639.81	17.828
640.13	16.797
640.46	17.987
640.79	17.173
641.12	15.681
641.45	17.179
641.77	18.704
642.10	18.860
642.43	16.817
642.76	17.492
643.09	17.945
643.41	17.147
643.74	19.136
644.07	17.683
644.40	19.479
644.73	20.945
645.05	20.919
645.38	18.167
645.71	19.163
646.04	18.439
646.36	18.531
646.69	19.231
647.02	18.537
647.35	19.759
647.67	20.708
648.00	20.000
648.33	18.647
648.66	18.636
648.98	17.991
649.31	15.845
649.64	18.535
649.96	17.735
650.29	19.589
650.62	18.770
650.94	19.287
651.27	20.270
651.60	19.468
651.92	19.329
652.25	18.893
652.58	18.224
652.90	18.325
653.23	15.871
653.56	16.693
653.88	16.640
654.21	19.115
654.54	19.802
654.86	19.626
655.19	17.027
655.52	10.759
655.84	9.375
656.17	11.497
656.49	14.926
656.82	14.539
657.15	10.592
657.47	7.688
657.80	5.836
658.13	5.917
658.45	9.081
658.78	8.873
659.10	8.668
659.43	9.428
659.75	10.630
660.08	11.076
660.41	13.687
660.73	15.629
661.06	15.924
661.38	21.818
661.71	21.346
662.03	22.485
662.36	19.284
662.68	21.084
663.01	22.020
663.33	19.533
663.66	22.689
663.98	18.575
664.31	19.118
664.63	19.433
664.96	19.316
665.28	21.926
665.61	19.298
665.93	20.523
666.26	21.298
666.58	22.385
666.91	21.564
667.23	21.348
667.56	19.222
667.88	19.872
668.21	22.601
668.53	18.655
668.86	17.532
669.18	24.307
669.50	22.826
669.83	21.786
670.15	22.444
670.48	20.697
670.80	23.707
671.13	23.992
671.45	18.511
671.77	19.959
672.10	20.887
672.42	19.611
672.75	19.237
673.07	18.310
673.39	17.179
673.72	18.750
674.04	19.608
674.37	20.971
674.69	21.063
675.01	21.339
675.34	22.793
675.66	22.737
675.98	21.385
676.31	21.008
676.63	21.444
676.95	22.222
677.28	21.963
677.60	23.956
677.92	22.785
678.25	22.177
678.57	20.120
678.89	20.040
679.22	19.450
679.54	19.466
679.86	19.817
680.18	20.036
680.51	21.099
680.83	20.285
681.15	20.377
681.48	22.306
681.80	20.309
682.12	21.073
682.44	17.602
682.77	20.774
683.09	24.034
683.41	19.734
683.73	21.192
684.06	22.107
684.38	18.591
684.70	19.574
685.02	20.263
685.34	16.484
685.67	17.308
685.99	17.698
686.31	18.259
686.63	17.138
686.96	18.393
687.28	20.397
687.60	17.391
687.92	20.475
688.24	19.582
688.56	20.080
688.89	20.954
689.21	21.397
689.53	22.547
689.85	21.286
690.17	19.876
690.49	22.930
690.82	22.897
691.14	20.312
691.46	20.253
691.78	20.281
692.10	18.388
692.42	22.156
692.74	20.539
693.06	18.723
693.39	21.971
693.71	20.087
694.03	23.158
694.35	20.563
694.67	20.824
694.99	22.683
695.31	22.304
695.63	22.727
695.95	22.983
696.27	21.066
696.59	20.207
696.91	24.352
697.23	18.545
697.56	21.748
697.88	18.200
698.20	20.417
698.52	20.430
698.84	20.267
699.16	20.507
699.48	24.228
699.80	20.531
700.12	25.195
700.44	24.403
700.76	24.586
701.08	22.989
701.40	23.743
701.72	23.907
702.04	29.830
702.36	19.830
702.68	24.363
703.00	25.208
703.32	20.213
703.64	26.273
703.96	23.955
704.28	24.419
704.60	21.114
704.91	24.926
705.23	23.167
705.55	25.249
705.87	30.897
706.19	27.208
706.51	28.037
706.83	28.788
707.15	24.930
707.47	22.222
707.79	20.639
708.11	23.516
708.43	19.762
708.74	23.214
709.06	26.753
709.38	24.409
709.70	25.291
710.02	24.926
710.34	26.061
710.66	25.970
710.98	25.284
711.29	25.000
711.61	25.369
711.93	23.718
712.25	27.653
712.57	23.162
712.89	26.644
713.20	23.708
713.52	26.316
713.84	23.734
714.16	25.915
714.48	24.138
714.80	29.179
715.11	24.784
715.43	22.849
715.75	25.217
716.07	23.962
716.39	25.392
716.70	29.568
717.02	28.777
717.34	28.269
717.66	28.731
717.97	33.466
718.29	28.889
718.61	29.562
718.93	30.147
719.24	31.142
719.56	28.814
719.88	27.458
720.20	30.743
720.51	27.875
720.83	29.368
721.15	25.373
721.46	30.142
721.78	31.900
722.10	28.679
722.42	32.331
722.73	29.588
723.05	29.098
723.37	30.769
723.68	30.888
724.00	24.797
724.32	27.823
724.63	26.829
724.95	25.523
725.27	32.389
725.58	30.469
725.90	28.832
726.22	25.660
726.53	26.042
726.85	27.304
727.16	25.267
727.48	25.532
727.80	32.576
728.11	29.348
728.43	24.615
728.74	30.466
729.06	31.022
729.38	30.147
729.69	29.893
730.01	26.962
730.32	27.083
730.64	26.756
730.96	21.782
731.27	26.159
731.59	25.688
731.90	27.114
732.22	25.155
732.53	24.458
732.85	25.962
733.16	29.904
733.48	26.578
733.80	25.649
734.11	25.478
734.43	28.402
734.74	22.571
735.06	25.215
735.37	24.855
735.69	22.293
736.00	28.758
736.32	27.726
736.63	25.879
736.95	29.073
737.26	22.449
737.58	24.194
737.89	26.087
738.21	26.962
738.52	26.786
738.83	29.811
739.15	29.615
739.46	31.387
739.78	27.431
740.09	25.846
740.41	27.742
740.72	22.997
741.04	25.926
741.35	27.083
741.66	34.222
741.98	28.302
742.29	33.493
742.61	37.500
742.92	29.864
743.23	30.769
743.55	30.000
743.86	35.526
744.18	30.973
744.49	36.364
744.80	34.272
745.12	36.364
745.43	37.445
745.74	33.784
746.06	28.899
746.37	32.735
746.68	31.222
747.00	28.704
747.31	34.286
747.62	31.858
747.94	30.837
748.25	23.404
748.56	30.396
748.88	29.208
749.19	38.000
749.50	33.488
749.82	28.862
750.13	28.163
750.44	29.562
750.75	31.228
751.07	26.688
751.38	29.268
751.69	29.964
752.01	26.692
752.32	24.910
752.63	27.305
752.94	34.016
753.26	32.800
753.57	27.642
753.88	30.469
754.19	28.571
754.51	29.167
754.82	26.715
755.13	27.170
755.44	31.203
755.75	30.292
756.07	27.305
756.38	24.088
756.69	27.181
757.00	26.048
757.31	25.519
757.63	24.854
757.94	21.984
758.25	21.324
758.56	21.481
758.87	21.505
759.18	25.152
759.50	23.824
759.81	24.299
760.12	23.125
760.43	23.782
760.74	21.739
761.05	23.164
761.36	23.797
761.67	26.705
761.99	22.360
762.30	30.903
762.61	27.481
762.92	29.297
763.23	29.412
763.54	32.000
763.85	25.781
764.16	33.846
764.47	30.418
764.78	24.028
765.10	23.734
765.41	28.319
765.72	27.844
766.03	25.078
766.34	27.333
766.65	29.362
766.96	36.325
767.27	40.102
767.58	40.625
767.89	35.263
768.20	33.908
768.51	32.487
768.82	42.661
769.13	34.146
769.44	30.364
769.75	33.906
770.06	27.064
770.37	33.937
770.68	34.259
770.99	35.111
771.30	26.230
771.61	31.390
771.92	30.738
772.23	39.076
772.54	33.846
772.85	33.508
773.16	42.553
773.47	38.587
773.78	42.132
774.09	41.071
774.39	35.088
774.70	37.654
775.01	42.029
775.32	50.327
775.63	50.000
775.94	39.568
776.25	48.031
776.56	50.746
776.87	45.902
777.18	47.656
777.48	57.252
777.79	54.545
778.10	51.852
778.41	51.786
778.72	37.956
779.03	41.611
779.34	45.638
779.65	39.189
779.95	45.399
780.26	42.484
780.57	46.897
780.88	56.250
781.19	46.617
781.50	42.568
781.80	41.509
782.11	40.113
782.42	37.342
782.73	40.491
783.04	48.649
783.34	42.254
783.65	51.370
783.96	48.507
784.27	44.056
784.57	38.849
784.88	47.222
785.19	50.794
785.50	54.717
785.81	56.716
786.11	59.836
786.42	49.612
786.73	42.478
787.04	63.208
787.34	45.536
787.65	60.000
787.96	51.351
788.26	56.198
788.57	55.085
788.88	49.587
789.19	45.833
789.49	50.758
789.80	47.328
790.11	73.333
790.41	63.366
790.72	61.446
791.03	65.217
791.33	58.140
791.64	53.608
791.95	57.426
792.25	62.222
792.56	88.312
792.87	76.923
793.17	78.481
793.48	72.414
793.79	63.218
794.09	59.091
794.40	54.622
794.70	58.088
795.01	48.889
795.32	39.568
795.62	47.244
795.93	50.862
796.23	47.788
796.54	61.176
796.85	66.216
797.15	90.141
797.46	62.121
797.76	78.313
798.07	75.949
798.37	67.692
798.68	72.727
798.99	57.746
799.29	68.831
799.60	70.455
799.90	75.342
800.21	94.030
800.51	86.207
800.82	100.000
801.12	88.525
801.43	92.424
801.73	66.216
802.04	103.175
802.34	82.716
802.65	90.625
802.95	93.220
803.26	95.312
803.56	74.286
803.87	84.615
804.17	82.353
804.48	100.000
804.78	68.966
805.09	82.353
805.39	92.308
805.70	76.786
806.00	90.164
806.30	80.303
806.61	71.951
806.91	62.025
807.22	64.474
807.52	68.657
807.83	92.958
808.13	79.687
808.43	85.000
808.74	69.737
809.04	86.957
809.35	73.134
809.65	69.737
809.95	108.065
810.26	93.220
810.56	96.825
810.86	131.818
811.17	111.905
811.47	95.000
811.77	98.148
812.08	92.727
812.38	124.000
812.69	144.444
812.99	145.455
813.29	110.204
813.59	107.143
813.90	116.327
814.20	101.818
814.50	83.077
814.81	94.118
815.11	102.041
815.41	100.000
815.72	119.048
816.02	89.091
816.32	119.048
816.62	120.000
816.93	129.268
817.23	142.857
817.53	122.727
817.84	163.636
818.14	91.304
818.44	120.000
818.74	138.235
819.04	107.500
819.35	137.143
819.65	117.647
819.95	192.857
820.25	150.000
820.56	125.641
820.86	122.727
821.16	130.233
821.46	141.026
821.76	120.000
822.07	137.143
822.37	140.000
822.67	148.485
822.97	121.569
823.27	178.571
823.57	148.649
823.88	155.000
824.18	183.333
824.48	135.714
824.78	152.000
825.08	154.167
825.38	135.135
825.69	124.390
825.99	166.667
826.29	158.621
826.59	147.368
826.89	142.105
827.19	176.471
827.49	151.613
827.79	147.727
828.09	145.455
828.39	112.766
828.70	106.122
829.00	181.481
829.30	167.742
829.60	145.000
829.90	286.667
830.20	178.571
830.50	208.696
830.80	195.652
831.10	190.000
831.40	186.667
831.70	208.696
832.00	223.077
832.30	218.519
832.60	350.000
832.90	193.333
833.20	442.857
833.50	183.871
833.80	151.724
834.10	200.000
834.40	173.077
834.70	311.111
835.00	280.952
835.30	140.000
835.60	300.000
835.90	182.759
836.20	385.714
836.50	200.000
836.80	148.000
837.10	191.667
837.40	247.619
837.70	264.706
838.00	155.556
838.30	233.333
838.60	309.524
838.90	223.077
839.19	290.000
839.49	342.857
839.79	275.000
840.09	250.000
840.39	219.048
840.69	239.130
840.99	255.556
841.29	460.000
841.59	283.333
841.88	300.000
842.18	200.000
842.48	214.286
842.78	190.000
843.08	191.304
843.38	156.250
843.68	766.667
843.97	207.692
844.27	193.103
844.57	295.238
844.87	306.250
845.17	203.704
845.47	1100.000
845.76	522.222
846.06	317.647
846.36	487.500
846.66	392.857
846.96	268.750
847.25	436.364
847.55	390.909
847.85	247.826
848.15	360.000
848.44	307.143
848.74	250.000
849.04	258.824
849.34	500.000
849.63	231.579
849.93	354.545
850.23	760.000
850.53	385.714
850.82	2200.000
851.12	-4000.000
851.42	4100.000
851.71	240.000
852.01	-900.000
852.31	216.667
852.61	1666.667
852.90	257.143
853.20	220.000
853.50	276.471
853.79	261.905
854.09	229.167
854.39	331.250
854.68	151.351
854.98	170.968
855.28	183.333
855.57	234.483
855.87	196.296
856.17	242.105
856.46	286.667
856.76	229.412
857.05	186.207
857.35	200.000
857.65	333.333
857.94	226.087
858.24	269.231
858.53	280.000
858.83	218.182
859.13	280.000
859.42	0.000
859.72	500.000
860.01	445.455
860.31	231.818
860.60	268.421
860.90	239.130
861.20	511.111
861.49	341.667
861.79	-3500.000
862.08	562.500
862.38	238.095
862.67	323.077
862.97	317.647
863.26	488.889
863.56	244.444
863.85	366.667
864.15	437.500
864.44	366.667
864.74	716.667
865.03	500.000
865.33	305.263
865.62	500.000
865.92	415.385
866.21	366.667
866.51	0.000
866.80	427.273
867.10	960.000
867.39	523.077
867.69	436.364
867.98	189.474
868.27	400.000
868.57	215.789
868.86	-3400.000
869.16	325.000
869.45	2250.000
869.75	-3300.000
870.04	383.333
870.33	585.714
870.63	1050.000
870.92	2600.000
871.22	614.286
871.51	294.118
871.80	190.476
872.10	414.286
>>>>>End Processed Spectral Data<<<<<
