SpectraSuite Data File
++++++++++++++++++++++++++++++++++++
Date: Wed May 13 16:34:31 PDT 2015
User: schluterlab
Dark Spectrum Present: Yes
Reference Spectrum Present: Yes
Number of Sampled Component Spectra: 1
Spectrometers: USB2E3373
Integration Time (usec): 3000 (USB2E3373)
Spectra Averaged: 3 (USB2E3373)
Boxcar Smoothing: 0 (USB2E3373)
Correct for Electrical Dark: No (USB2E3373)
Strobe/Lamp Enabled: No (USB2E3373)
Correct for Detector Non-linearity: No (USB2E3373)
Correct for Stray Light: No (USB2E3373)
Number of Pixels in Processed Spectrum: 2048
>>>>>Begin Processed Spectral Data<<<<<
178.53	0.000
178.91	-1100.000
179.29	-1100.000
179.67	-177.778
180.04	-1025.000
180.42	2400.000
180.80	900.000
181.18	-1050.000
181.56	614.286
181.94	0.000
182.31	-657.143
182.69	1500.000
183.07	-437.500
183.45	-577.778
183.83	590.909
184.20	-450.000
184.58	2450.000
184.96	4800.000
185.34	-860.000
185.72	-587.500
186.09	-2150.000
186.47	2450.000
186.85	2550.000
187.23	4400.000
187.61	-1533.333
187.98	1475.000
188.36	572.727
188.74	527.273
189.12	-800.000
189.49	560.000
189.87	-5300.000
190.25	-1125.000
190.63	385.714
191.00	407.692
191.38	733.333
191.76	-1025.000
192.14	1250.000
192.51	575.000
192.89	800.000
193.27	525.000
193.65	-950.000
194.02	450.000
194.40	980.000
194.78	440.000
195.15	416.667
195.53	590.000
195.91	-2200.000
196.29	343.750
196.66	315.789
197.04	-320.000
197.42	0.000
197.79	540.000
198.17	-3900.000
198.55	642.857
198.92	687.500
199.30	900.000
199.68	0.000
200.05	227.778
200.43	628.571
200.81	3500.000
201.18	1600.000
201.56	-1666.667
201.94	466.667
202.31	511.111
202.69	408.333
203.07	400.000
203.44	0.000
203.82	1075.000
204.19	614.286
204.57	357.143
204.95	500.000
205.32	1633.333
205.70	481.818
206.08	407.143
206.45	2600.000
206.83	325.000
207.20	783.333
207.58	880.000
207.96	261.111
208.33	800.000
208.71	-850.000
209.08	728.571
209.46	488.889
209.84	427.273
210.21	-1400.000
210.59	1350.000
210.96	-387.500
211.34	2500.000
211.71	570.000
212.09	716.667
212.46	0.000
212.84	1400.000
213.22	1350.000
213.59	-3600.000
213.97	600.000
214.34	642.857
214.72	536.364
215.09	940.000
215.47	-2200.000
215.84	-1550.000
216.22	1666.667
216.59	378.571
216.97	1300.000
217.34	400.000
217.72	-783.333
218.09	0.000
218.47	-4200.000
218.84	611.111
219.22	685.714
219.59	1466.667
219.97	-457.143
220.34	760.000
220.72	-1500.000
221.09	342.857
221.47	1500.000
221.84	-883.333
222.22	0.000
222.59	1225.000
222.97	-2200.000
223.34	960.000
223.72	461.538
224.09	1020.000
224.46	2100.000
224.84	-4700.000
225.21	-900.000
225.59	-4600.000
225.96	620.000
226.34	270.000
226.71	2500.000
227.08	537.500
227.46	550.000
227.83	-800.000
228.21	-2800.000
228.58	455.556
228.95	-2050.000
229.33	-2150.000
229.70	1866.667
230.08	742.857
230.45	-860.000
230.82	333.333
231.20	633.333
231.57	571.429
231.95	458.333
232.32	268.182
232.69	372.727
233.07	657.143
233.44	300.000
233.81	-1566.667
234.19	331.579
234.56	425.000
234.93	375.000
235.31	354.545
235.68	253.846
236.05	264.286
236.43	130.303
236.80	252.632
237.17	3600.000
237.55	257.143
237.92	160.714
238.29	214.286
238.67	145.161
239.04	165.517
239.41	125.000
239.79	86.957
240.16	142.857
240.53	106.818
240.91	100.000
241.28	88.000
241.65	70.000
242.02	73.913
242.40	67.742
242.77	75.000
243.14	69.892
243.51	62.921
243.89	57.647
244.26	48.889
244.63	41.935
245.00	46.809
245.38	46.535
245.75	45.794
246.12	49.541
246.49	49.635
246.87	44.000
247.24	35.385
247.61	34.286
247.98	32.680
248.36	32.432
248.73	35.032
249.10	29.299
249.47	32.768
249.84	29.947
250.22	31.016
250.59	26.036
250.96	34.848
251.33	30.332
251.70	26.733
252.08	22.381
252.45	24.215
252.82	24.348
253.19	27.660
253.56	25.882
253.94	22.822
254.31	23.437
254.68	25.769
255.05	24.723
255.42	22.358
255.79	23.162
256.16	24.549
256.54	20.848
256.91	20.285
257.28	17.626
257.65	19.472
258.02	23.292
258.39	17.035
258.76	16.388
259.14	18.452
259.51	18.237
259.88	16.770
260.25	18.127
260.62	15.607
260.99	17.702
261.36	19.820
261.73	15.759
262.10	16.570
262.47	18.873
262.85	15.042
263.22	16.524
263.59	20.228
263.96	14.835
264.33	15.927
264.70	16.053
265.07	15.601
265.44	16.667
265.81	16.058
266.18	15.829
266.55	15.610
266.92	15.725
267.29	14.815
267.66	16.055
268.03	13.636
268.40	13.084
268.77	13.126
269.14	13.739
269.51	16.253
269.88	13.986
270.25	14.221
270.62	16.180
270.99	15.699
271.36	16.524
271.73	12.383
272.10	14.130
272.47	13.763
272.84	14.719
273.21	16.771
273.58	11.354
273.95	13.208
274.32	13.843
274.69	14.133
275.06	12.402
275.43	16.383
275.80	13.026
276.17	11.202
276.54	13.306
276.91	12.846
277.28	13.477
277.65	12.766
278.02	11.180
278.39	13.672
278.76	14.000
279.13	13.208
279.50	11.359
279.87	14.741
280.23	13.174
280.60	13.926
280.97	12.569
281.34	14.336
281.71	12.000
282.08	13.244
282.45	10.727
282.82	11.368
283.19	10.160
283.56	11.754
283.92	14.382
284.29	12.169
284.66	11.978
285.03	10.669
285.40	12.676
285.77	12.121
286.14	10.190
286.51	12.000
286.87	13.504
287.24	12.052
287.61	8.989
287.98	13.474
288.35	12.044
288.72	12.928
289.08	10.016
289.45	12.191
289.82	12.033
290.19	10.675
290.56	11.332
290.93	10.574
291.29	9.663
291.66	10.177
292.03	13.953
292.40	11.454
292.77	10.355
293.13	10.597
293.50	9.767
293.87	9.778
294.24	10.667
294.60	7.860
294.97	11.192
295.34	11.001
295.71	10.227
296.08	9.544
296.44	8.528
296.81	10.040
297.18	10.840
297.55	8.707
297.91	8.575
298.28	9.639
298.65	9.661
299.02	9.354
299.38	8.898
299.75	7.143
300.12	7.663
300.48	9.250
300.85	8.631
301.22	9.427
301.59	8.333
301.95	8.690
302.32	9.243
302.69	9.916
303.05	10.061
303.42	8.642
303.79	9.740
304.15	8.741
304.52	8.806
304.89	8.246
305.25	9.629
305.62	9.173
305.99	8.619
306.35	9.620
306.72	9.641
307.09	10.988
307.45	9.797
307.82	7.701
308.19	8.940
308.55	8.846
308.92	8.056
309.29	9.081
309.65	8.590
310.02	10.042
310.38	9.570
310.75	10.560
311.12	11.157
311.48	11.390
311.85	10.168
312.22	9.677
312.58	9.356
312.95	10.771
313.31	10.194
313.68	11.123
314.05	11.243
314.41	11.357
314.78	10.070
315.14	10.526
315.51	10.505
315.87	11.188
316.24	11.023
316.61	10.526
316.97	11.644
317.34	11.350
317.70	12.715
318.07	12.127
318.43	12.133
318.80	12.746
319.16	13.089
319.53	11.632
319.89	14.381
320.26	14.100
320.62	14.187
320.99	14.141
321.35	14.141
321.72	14.476
322.08	15.400
322.45	15.224
322.81	15.116
323.18	16.570
323.54	15.213
323.91	15.849
324.27	16.157
324.64	15.843
325.00	15.780
325.37	17.197
325.73	17.325
326.10	17.829
326.46	17.294
326.83	17.947
327.19	18.190
327.56	18.293
327.92	18.723
328.29	20.053
328.65	20.626
329.01	18.863
329.38	20.074
329.74	19.391
330.11	20.170
330.47	19.100
330.84	20.956
331.20	19.399
331.56	19.725
331.93	20.648
332.29	20.142
332.66	21.504
333.02	18.830
333.38	21.048
333.75	20.945
334.11	20.819
334.48	21.029
334.84	21.324
335.20	20.818
335.57	20.762
335.93	20.000
336.29	20.696
336.66	22.092
337.02	20.995
337.38	20.833
337.75	21.212
338.11	20.591
338.47	21.271
338.84	22.548
339.20	19.541
339.56	22.445
339.93	20.636
340.29	20.924
340.65	21.301
341.02	21.466
341.38	21.352
341.74	22.105
342.11	21.485
342.47	21.674
342.83	21.490
343.20	21.645
343.56	21.988
343.92	22.193
344.28	21.769
344.65	22.012
345.01	22.054
345.37	20.840
345.73	22.166
346.10	22.080
346.46	20.847
346.82	21.499
347.19	20.802
347.55	22.085
347.91	22.087
348.27	22.432
348.63	22.742
349.00	20.793
349.36	22.660
349.72	21.893
350.08	21.232
350.45	23.678
350.81	22.340
351.17	22.366
351.53	22.523
351.89	21.865
352.26	23.283
352.62	23.577
352.98	22.366
353.34	23.007
353.70	22.668
354.07	23.468
354.43	22.619
354.79	22.124
355.15	23.543
355.51	23.981
355.87	24.000
356.24	22.476
356.60	21.812
356.96	23.733
357.32	23.385
357.68	23.780
358.04	23.753
358.40	23.595
358.77	24.178
359.13	24.230
359.49	23.294
359.85	21.905
360.21	24.163
360.57	25.136
360.93	23.923
361.29	23.583
361.66	23.916
362.02	24.925
362.38	24.563
362.74	24.628
363.10	23.094
363.46	23.698
363.82	24.868
364.18	25.330
364.54	25.037
364.90	24.788
365.26	24.412
365.62	25.639
365.98	24.763
366.35	24.284
366.71	25.813
367.07	24.399
367.43	25.617
367.79	26.196
368.15	27.443
368.51	24.855
368.87	25.981
369.23	26.628
369.59	26.503
369.95	25.588
370.31	25.997
370.67	26.449
371.03	27.566
371.39	27.187
371.75	25.956
372.11	27.525
372.47	26.979
372.83	27.882
373.19	26.590
373.55	27.568
373.91	28.645
374.27	27.904
374.63	27.927
374.99	28.319
375.35	27.634
375.71	27.347
376.07	28.395
376.42	29.023
376.78	28.297
377.14	28.494
377.50	29.205
377.86	29.521
378.22	28.824
378.58	28.822
378.94	29.227
379.30	29.008
379.66	29.442
380.02	30.774
380.38	29.690
380.74	30.372
381.09	30.685
381.45	32.391
381.81	31.204
382.17	30.892
382.53	31.132
382.89	32.716
383.25	31.395
383.61	31.784
383.97	31.144
384.32	30.880
384.68	31.599
385.04	31.346
385.40	31.641
385.76	32.371
386.12	34.067
386.48	34.047
386.83	32.906
387.19	34.323
387.55	33.457
387.91	33.374
388.27	33.354
388.62	33.927
388.98	34.152
389.34	34.981
389.70	33.967
390.06	34.664
390.42	34.241
390.77	35.305
391.13	34.652
391.49	35.089
391.85	33.736
392.20	33.880
392.56	35.543
392.92	34.726
393.28	34.024
393.64	34.892
393.99	35.736
394.35	35.050
394.71	35.320
395.07	34.891
395.42	35.600
395.78	35.433
396.14	35.196
396.50	35.840
396.85	35.982
397.21	34.587
397.57	35.896
397.92	36.118
398.28	35.538
398.64	35.962
399.00	35.702
399.35	36.153
399.71	35.822
400.07	35.955
400.42	37.239
400.78	36.248
401.14	36.768
401.49	36.060
401.85	36.177
402.21	36.467
402.57	35.472
402.92	36.759
403.28	36.477
403.63	36.015
403.99	37.134
404.35	36.970
404.70	36.331
405.06	36.808
405.42	37.118
405.77	36.171
406.13	36.625
406.49	36.665
406.84	35.794
407.20	36.466
407.55	36.822
407.91	38.200
408.27	37.141
408.62	36.183
408.98	36.826
409.34	36.839
409.69	36.968
410.05	36.803
410.40	36.208
410.76	36.559
411.11	37.214
411.47	36.869
411.83	37.263
412.18	37.168
412.54	36.675
412.89	36.205
413.25	36.836
413.60	36.504
413.96	36.491
414.31	36.999
414.67	37.452
415.03	36.689
415.38	37.564
415.74	37.749
416.09	38.145
416.45	36.881
416.80	37.607
417.16	38.472
417.51	37.425
417.87	36.994
418.22	37.603
418.58	37.766
418.93	37.224
419.29	37.365
419.64	37.343
420.00	36.890
420.35	37.275
420.71	37.238
421.06	37.411
421.42	37.544
421.77	37.556
422.12	37.002
422.48	36.266
422.83	37.274
423.19	36.575
423.54	37.493
423.90	36.522
424.25	36.907
424.61	36.845
424.96	36.501
425.31	36.656
425.67	36.011
426.02	36.000
426.38	37.302
426.73	36.103
427.09	36.657
427.44	36.860
427.79	37.263
428.15	37.262
428.50	35.635
428.85	37.366
429.21	36.886
429.56	36.444
429.92	37.041
430.27	36.643
430.62	36.406
430.98	36.274
431.33	35.825
431.68	37.435
432.04	36.315
432.39	37.179
432.74	37.343
433.10	37.351
433.45	37.726
433.80	37.639
434.16	36.271
434.51	36.947
434.86	36.830
435.22	37.966
435.57	37.021
435.92	37.215
436.28	38.256
436.63	36.093
436.98	37.149
437.34	36.852
437.69	36.464
438.04	37.549
438.39	36.776
438.75	37.420
439.10	37.877
439.45	38.017
439.81	37.281
440.16	36.646
440.51	37.258
440.86	37.058
441.22	36.207
441.57	37.261
441.92	37.769
442.27	37.083
442.63	36.335
442.98	36.901
443.33	36.957
443.68	35.467
444.03	36.847
444.39	35.346
444.74	36.742
445.09	36.334
445.44	35.156
445.79	36.121
446.15	36.316
446.50	35.972
446.85	35.766
447.20	36.614
447.55	36.683
447.91	36.349
448.26	37.618
448.61	36.744
448.96	35.770
449.31	36.502
449.66	36.579
450.02	35.989
450.37	37.018
450.72	35.702
451.07	35.710
451.42	36.049
451.77	36.876
452.12	35.450
452.47	36.007
452.83	36.655
453.18	35.819
453.53	36.982
453.88	36.799
454.23	36.760
454.58	36.705
454.93	38.207
455.28	36.658
455.63	36.833
455.98	37.857
456.34	36.432
456.69	36.631
457.04	37.461
457.39	35.476
457.74	35.810
458.09	36.055
458.44	35.633
458.79	35.792
459.14	37.077
459.49	36.369
459.84	35.568
460.19	35.533
460.54	34.375
460.89	35.107
461.24	37.037
461.59	36.781
461.94	36.128
462.29	36.795
462.64	35.035
462.99	34.743
463.34	36.533
463.69	35.522
464.04	36.406
464.39	35.188
464.74	35.710
465.09	35.283
465.44	35.014
465.79	34.620
466.14	35.030
466.49	34.928
466.84	34.910
467.19	35.425
467.54	35.562
467.89	35.354
468.24	34.497
468.59	35.409
468.94	34.881
469.29	36.440
469.64	36.212
469.99	35.453
470.34	35.403
470.68	35.489
471.03	34.762
471.38	34.260
471.73	34.044
472.08	35.132
472.43	34.296
472.78	35.616
473.13	34.596
473.48	34.332
473.83	35.305
474.17	34.163
474.52	35.298
474.87	35.377
475.22	35.345
475.57	33.530
475.92	34.413
476.27	33.596
476.61	34.253
476.96	33.095
477.31	33.281
477.66	33.425
478.01	33.560
478.36	33.897
478.70	32.970
479.05	33.440
479.40	34.442
479.75	33.808
480.10	33.499
480.45	32.842
480.79	33.015
481.14	33.513
481.49	32.890
481.84	33.150
482.19	33.394
482.53	34.037
482.88	33.225
483.23	32.710
483.58	33.576
483.92	32.896
484.27	31.678
484.62	31.552
484.97	31.809
485.31	33.356
485.66	32.006
486.01	30.711
486.36	29.230
486.70	28.697
487.05	29.003
487.40	29.469
487.75	30.641
488.09	30.604
488.44	30.620
488.79	32.080
489.13	32.659
489.48	31.648
489.83	32.024
490.17	32.267
490.52	31.887
490.87	32.338
491.22	32.196
491.56	31.754
491.91	31.875
492.26	32.154
492.60	31.429
492.95	31.618
493.30	31.075
493.64	31.825
493.99	31.198
494.34	31.406
494.68	31.822
495.03	31.814
495.37	31.410
495.72	30.945
496.07	32.019
496.41	30.619
496.76	31.530
497.11	30.392
497.45	31.253
497.80	31.622
498.14	30.628
498.49	31.171
498.84	31.496
499.18	31.429
499.53	31.529
499.87	31.407
500.22	30.476
500.56	31.311
500.91	29.856
501.26	30.631
501.60	31.514
501.95	30.522
502.29	30.881
502.64	31.145
502.98	30.669
503.33	30.165
503.67	30.070
504.02	29.607
504.36	30.136
504.71	30.337
505.06	30.651
505.40	31.405
505.75	30.231
506.09	29.738
506.44	30.587
506.78	30.443
507.13	31.045
507.47	30.455
507.82	31.358
508.16	29.889
508.51	30.898
508.85	30.238
509.19	30.663
509.54	30.510
509.88	30.242
510.23	30.746
510.57	31.321
510.92	30.502
511.26	29.856
511.61	30.654
511.95	30.271
512.30	29.905
512.64	30.897
512.98	30.707
513.33	30.407
513.67	30.149
514.02	29.545
514.36	30.421
514.70	30.216
515.05	30.396
515.39	30.062
515.74	30.968
516.08	31.414
516.42	31.077
516.77	30.713
517.11	29.911
517.46	30.474
517.80	31.185
518.14	30.284
518.49	30.280
518.83	30.455
519.17	29.850
519.52	30.221
519.86	30.804
520.20	29.595
520.55	31.239
520.89	31.509
521.23	30.941
521.58	29.952
521.92	30.006
522.26	29.530
522.61	30.654
522.95	30.141
523.29	29.823
523.64	29.756
523.98	30.376
524.32	30.097
524.66	30.307
525.01	30.086
525.35	30.050
525.69	29.865
526.04	29.470
526.38	29.713
526.72	29.939
527.06	30.508
527.41	29.517
527.75	29.839
528.09	29.929
528.43	30.338
528.78	30.301
529.12	30.061
529.46	30.374
529.80	30.074
530.15	29.657
530.49	28.985
530.83	29.557
531.17	29.504
531.51	31.518
531.86	30.258
532.20	29.922
532.54	29.981
532.88	29.846
533.22	29.856
533.57	29.321
533.91	27.935
534.25	28.797
534.59	29.591
534.93	28.435
535.27	28.847
535.62	28.571
535.96	28.814
536.30	28.353
536.64	28.075
536.98	29.197
537.32	29.230
537.66	29.200
538.01	28.835
538.35	29.412
538.69	28.845
539.03	28.785
539.37	28.115
539.71	27.090
540.05	29.020
540.39	29.236
540.73	28.331
541.07	29.072
541.42	29.746
541.76	28.903
542.10	28.978
542.44	28.079
542.78	28.590
543.12	27.383
543.46	28.393
543.80	28.302
544.14	26.701
544.48	27.619
544.82	27.710
545.16	27.521
545.50	28.599
545.84	27.487
546.18	27.003
546.52	28.355
546.86	27.354
547.20	28.523
547.54	28.524
547.88	28.125
548.22	27.584
548.56	27.107
548.90	26.825
549.24	27.946
549.58	27.967
549.92	27.610
550.26	29.545
550.60	27.870
550.94	27.606
551.28	27.725
551.62	28.325
551.96	27.439
552.30	28.328
552.64	28.262
552.98	28.407
553.32	27.107
553.66	26.585
554.00	27.385
554.34	26.570
554.68	27.754
555.02	27.504
555.36	26.931
555.69	26.116
556.03	27.793
556.37	27.217
556.71	26.739
557.05	27.451
557.39	27.292
557.73	26.958
558.07	26.976
558.41	26.990
558.75	27.700
559.08	27.368
559.42	27.513
559.76	28.529
560.10	26.338
560.44	27.463
560.78	25.948
561.12	26.517
561.45	26.467
561.79	26.368
562.13	26.090
562.47	27.596
562.81	26.360
563.15	26.622
563.48	26.724
563.82	26.484
564.16	25.965
564.50	26.367
564.84	25.664
565.17	26.126
565.51	26.198
565.85	25.952
566.19	24.922
566.52	26.092
566.86	24.533
567.20	25.590
567.54	25.913
567.88	24.226
568.21	25.291
568.55	24.671
568.89	23.589
569.23	24.332
569.56	22.753
569.90	23.208
570.24	23.933
570.57	23.121
570.91	22.172
571.25	22.730
571.59	22.592
571.92	22.581
572.26	22.935
572.60	22.793
572.93	21.889
573.27	22.153
573.61	22.390
573.95	22.532
574.28	21.935
574.62	21.623
574.96	21.720
575.29	21.799
575.63	21.697
575.97	21.244
576.30	22.066
576.64	22.365
576.98	21.682
577.31	21.372
577.65	21.629
577.98	21.632
578.32	20.949
578.66	21.048
578.99	20.977
579.33	21.375
579.67	21.090
580.00	21.434
580.34	21.642
580.67	21.508
581.01	21.273
581.35	21.190
581.68	21.164
582.02	20.885
582.35	20.814
582.69	20.731
583.02	20.485
583.36	21.167
583.70	21.379
584.03	21.160
584.37	21.713
584.70	21.473
585.04	21.062
585.37	21.086
585.71	20.888
586.04	21.068
586.38	21.186
586.72	21.596
587.05	20.945
587.39	20.607
587.72	21.567
588.06	21.425
588.39	21.481
588.73	21.091
589.06	21.658
589.40	21.582
589.73	21.155
590.07	21.673
590.40	21.301
590.73	22.131
591.07	22.548
591.40	22.438
591.74	22.900
592.07	22.600
592.41	22.654
592.74	21.685
593.08	21.352
593.41	21.829
593.75	21.205
594.08	21.153
594.41	21.456
594.75	21.183
595.08	21.510
595.42	21.331
595.75	21.474
596.09	21.855
596.42	21.925
596.75	21.022
597.09	22.554
597.42	21.206
597.75	22.122
598.09	21.130
598.42	21.521
598.76	21.362
599.09	21.171
599.42	20.997
599.76	20.900
600.09	21.129
600.42	20.562
600.76	21.107
601.09	21.166
601.42	20.967
601.76	20.645
602.09	21.146
602.42	21.139
602.76	22.048
603.09	21.125
603.42	21.945
603.76	21.341
604.09	20.783
604.42	21.402
604.76	21.299
605.09	21.057
605.42	21.847
605.75	21.192
606.09	20.943
606.42	21.332
606.75	21.112
607.09	21.473
607.42	21.566
607.75	20.464
608.08	21.190
608.42	21.874
608.75	21.416
609.08	20.675
609.41	21.799
609.75	21.582
610.08	22.008
610.41	20.670
610.74	20.530
611.07	22.134
611.41	21.295
611.74	21.870
612.07	22.050
612.40	22.298
612.73	21.684
613.07	22.683
613.40	21.696
613.73	20.556
614.06	22.366
614.39	21.447
614.72	21.368
615.06	21.429
615.39	21.125
615.72	21.012
616.05	21.478
616.38	21.957
616.71	22.743
617.05	22.615
617.38	22.309
617.71	22.523
618.04	21.755
618.37	21.585
618.70	22.402
619.03	22.895
619.36	22.743
619.69	22.465
620.03	23.626
620.36	22.928
620.69	23.699
621.02	23.820
621.35	22.553
621.68	23.598
622.01	22.678
622.34	22.693
622.67	23.574
623.00	22.524
623.33	22.659
623.66	22.588
623.99	22.533
624.32	23.252
624.65	22.669
624.99	21.459
625.32	22.158
625.65	23.366
625.98	23.444
626.31	23.406
626.64	23.837
626.97	22.610
627.30	23.940
627.63	24.200
627.96	23.886
628.29	23.272
628.62	23.879
628.95	25.472
629.28	25.547
629.61	23.923
629.94	23.429
630.26	24.118
630.59	23.928
630.92	24.138
631.25	23.889
631.58	24.525
631.91	25.254
632.24	24.156
632.57	24.659
632.90	24.890
633.23	24.609
633.56	25.876
633.89	25.595
634.22	24.745
634.55	26.627
634.88	24.671
635.20	26.882
635.53	24.699
635.86	26.485
636.19	24.471
636.52	24.913
636.85	24.971
637.18	24.770
637.51	25.650
637.83	24.538
638.16	26.343
638.49	25.315
638.82	26.043
639.15	26.000
639.48	25.436
639.81	26.676
640.13	25.000
640.46	25.503
640.79	25.892
641.12	25.585
641.45	25.978
641.77	26.510
642.10	24.708
642.43	26.727
642.76	25.697
643.09	28.374
643.41	26.252
643.74	27.160
644.07	27.744
644.40	28.067
644.73	29.134
645.05	26.149
645.38	26.382
645.71	27.375
646.04	27.907
646.36	31.386
646.69	27.258
647.02	30.102
647.35	27.148
647.67	28.673
648.00	28.130
648.33	29.208
648.66	26.061
648.98	26.837
649.31	26.009
649.64	26.607
649.96	26.528
650.29	27.014
650.62	26.699
650.94	27.066
651.27	27.365
651.60	28.453
651.92	26.358
652.25	25.570
652.58	24.766
652.90	28.120
653.23	24.807
653.56	26.929
653.88	26.783
654.21	26.698
654.54	26.568
654.86	25.389
655.19	25.135
655.52	17.753
655.84	14.636
656.17	18.672
656.49	24.811
656.82	25.149
657.15	18.843
657.47	14.299
657.80	10.883
658.13	11.252
658.45	17.287
658.78	17.395
659.10	17.865
659.43	19.775
659.75	20.813
660.08	22.342
660.41	24.115
660.73	26.048
661.06	26.433
661.38	28.182
661.71	28.846
662.03	29.783
662.36	26.839
662.68	28.715
663.01	30.505
663.33	28.875
663.66	27.731
663.98	30.670
664.31	28.361
664.63	29.150
664.96	24.950
665.28	30.533
665.61	28.265
665.93	27.767
666.26	30.020
666.58	27.615
666.91	31.501
667.23	31.236
667.56	28.294
667.88	29.274
668.21	29.638
668.53	29.501
668.86	26.840
669.18	31.343
669.50	33.261
669.83	30.719
670.15	28.444
670.48	27.233
670.80	30.819
671.13	33.333
671.45	28.298
671.77	26.680
672.10	27.726
672.42	25.972
672.75	27.032
673.07	25.704
673.39	27.306
673.72	27.148
674.04	28.627
674.37	27.184
674.69	27.198
675.01	26.987
675.34	29.569
675.66	31.368
675.98	28.310
676.31	28.151
676.63	29.512
676.95	28.931
677.28	25.467
677.60	29.231
677.92	29.536
678.25	29.158
678.57	25.697
678.89	28.457
679.22	24.951
679.54	26.718
679.86	28.440
680.18	25.045
680.51	25.000
680.83	27.580
681.15	27.736
681.48	27.977
681.80	28.820
682.12	26.628
682.44	26.499
682.77	26.273
683.09	31.974
683.41	30.377
683.73	27.815
684.06	26.240
684.38	28.376
684.70	27.713
685.02	26.454
685.34	28.022
685.67	24.476
685.99	25.258
686.31	23.891
686.63	24.205
686.96	25.893
687.28	25.451
687.60	25.725
687.92	27.239
688.24	27.376
688.56	27.309
688.89	28.631
689.21	29.694
689.53	26.931
689.85	31.042
690.17	25.052
690.49	29.512
690.82	27.336
691.14	26.116
691.46	25.949
691.78	26.707
692.10	28.099
692.42	27.545
692.74	26.141
693.06	28.298
693.39	26.283
693.71	26.419
694.03	27.158
694.35	26.407
694.67	26.545
694.99	30.244
695.31	29.902
695.63	29.904
695.95	31.051
696.27	28.426
696.59	27.979
696.91	29.793
697.23	23.709
697.56	27.719
697.88	27.403
698.20	27.708
698.52	26.667
698.84	28.062
699.16	28.111
699.48	28.741
699.80	27.778
700.12	30.130
700.44	32.626
700.76	30.939
701.08	33.333
701.40	31.564
701.72	34.111
702.04	35.227
702.36	28.329
702.68	27.479
703.00	29.917
703.32	29.521
703.64	31.099
703.96	29.805
704.28	29.651
704.60	32.551
704.91	33.234
705.23	31.965
705.55	34.219
705.87	36.545
706.19	28.975
706.51	33.022
706.83	34.848
707.15	29.692
707.47	26.768
707.79	31.695
708.11	28.539
708.43	27.143
708.74	26.020
709.06	27.792
709.38	30.709
709.70	32.267
710.02	30.267
710.34	28.788
710.66	29.254
710.98	32.670
711.29	29.651
711.61	33.333
711.93	31.731
712.25	34.727
712.57	34.559
712.89	31.142
713.20	29.483
713.52	35.197
713.84	31.646
714.16	33.232
714.48	29.310
714.80	33.435
715.11	33.429
715.43	29.970
715.75	31.594
716.07	29.393
716.39	31.661
716.70	33.223
717.02	32.014
717.34	30.742
717.66	36.940
717.97	35.060
718.29	34.074
718.61	28.102
718.93	35.294
719.24	29.412
719.56	31.864
719.88	32.203
720.20	34.122
720.51	35.540
720.83	39.405
721.15	30.224
721.46	35.816
721.78	34.767
722.10	33.208
722.42	34.211
722.73	37.453
723.05	34.836
723.37	33.603
723.68	35.521
724.00	31.301
724.32	31.048
724.63	29.675
724.95	35.983
725.27	35.628
725.58	34.375
725.90	35.401
726.22	32.453
726.53	30.208
726.85	32.423
727.16	33.452
727.48	30.496
727.80	35.227
728.11	33.333
728.43	32.692
728.74	31.183
729.06	36.496
729.38	36.397
729.69	35.231
730.01	29.352
730.32	28.472
730.64	34.783
730.96	30.363
731.27	33.444
731.59	30.275
731.90	28.280
732.22	31.056
732.53	27.864
732.85	31.731
733.16	30.225
733.48	29.236
733.80	33.766
734.11	32.166
734.43	30.769
734.74	26.857
735.06	25.501
735.37	30.636
735.69	28.344
736.00	29.085
736.32	29.907
736.63	28.435
736.95	31.949
737.26	23.810
737.58	30.000
737.89	32.441
738.21	28.669
738.52	31.429
738.83	32.075
739.15	32.692
739.46	35.036
739.78	30.556
740.09	31.385
740.41	31.613
740.72	32.404
741.04	36.667
741.35	29.167
741.66	40.000
741.98	34.906
742.29	42.584
742.61	39.224
742.92	35.294
743.23	37.179
743.55	34.400
743.86	35.965
744.18	42.478
744.49	41.627
744.80	39.906
745.12	44.091
745.43	37.885
745.74	39.189
746.06	35.321
746.37	39.013
746.68	38.462
747.00	38.426
747.31	40.952
747.62	36.726
747.94	30.837
748.25	27.660
748.56	42.731
748.88	40.099
749.19	45.000
749.50	37.674
749.82	32.520
750.13	32.653
750.44	32.847
750.75	33.333
751.07	37.942
751.38	35.540
751.69	32.852
752.01	32.707
752.32	34.296
752.63	31.915
752.94	34.426
753.26	39.200
753.57	28.049
753.88	34.375
754.19	32.857
754.51	37.847
754.82	27.437
755.13	31.321
755.44	35.338
755.75	33.577
756.07	32.979
756.38	32.847
756.69	35.235
757.00	29.042
757.31	28.487
757.63	29.825
757.94	27.078
758.25	26.716
758.56	26.914
758.87	25.806
759.18	31.212
759.50	28.527
759.81	28.972
760.12	26.563
760.43	31.232
760.74	29.348
761.05	26.836
761.36	27.540
761.67	32.102
761.99	30.124
762.30	31.250
762.61	30.153
762.92	34.375
763.23	31.933
763.54	38.400
763.85	30.469
764.16	38.846
764.47	37.262
764.78	29.682
765.10	27.848
765.41	27.729
765.72	29.042
766.03	28.527
766.34	30.333
766.65	36.596
766.96	35.897
767.27	39.594
767.58	44.271
767.89	44.737
768.20	39.080
768.51	37.056
768.82	37.615
769.13	26.016
769.44	34.818
769.75	30.043
770.06	27.064
770.37	36.652
770.68	37.037
770.99	36.000
771.30	29.098
771.61	34.978
771.92	32.787
772.23	37.395
772.54	36.923
772.85	39.791
773.16	40.426
773.47	47.826
773.78	42.132
774.09	41.071
774.39	42.690
774.70	45.062
775.01	47.101
775.32	49.020
775.63	53.289
775.94	43.165
776.25	55.118
776.56	42.537
776.87	60.656
777.18	47.656
777.48	55.725
777.79	50.758
778.10	52.593
778.41	45.536
778.72	43.066
779.03	47.651
779.34	50.336
779.65	44.595
779.95	42.945
780.26	48.366
780.57	51.034
780.88	60.937
781.19	47.368
781.50	46.622
781.80	40.881
782.11	38.418
782.42	47.468
782.73	48.466
783.04	52.027
783.34	48.592
783.65	47.945
783.96	55.224
784.27	49.650
784.57	46.043
784.88	45.370
785.19	55.556
785.50	57.547
785.81	50.746
786.11	49.180
786.42	52.713
786.73	44.248
787.04	71.698
787.34	62.500
787.65	61.000
787.96	58.559
788.26	44.628
788.57	61.864
788.88	52.893
789.19	47.222
789.49	50.758
789.80	55.725
790.11	73.333
790.41	59.406
790.72	51.807
791.03	76.087
791.33	81.395
791.64	68.041
791.95	77.228
792.25	76.667
792.56	81.818
792.87	76.923
793.17	86.076
793.48	80.460
793.79	70.115
794.09	69.318
794.40	52.101
794.70	52.206
795.01	45.185
795.32	41.727
795.62	46.457
795.93	51.724
796.23	63.717
796.54	74.118
796.85	62.162
797.15	90.141
797.46	87.879
797.76	67.470
798.07	82.278
798.37	76.923
798.68	81.818
798.99	77.465
799.29	85.714
799.60	65.909
799.90	93.151
800.21	80.597
800.51	100.000
800.82	85.965
801.12	81.967
801.43	89.394
801.73	67.568
802.04	93.651
802.34	79.012
802.65	95.312
802.95	88.136
803.26	100.000
803.56	82.857
803.87	86.154
804.17	91.176
804.48	94.444
804.78	91.379
805.09	70.588
805.39	88.462
805.70	103.571
806.00	91.803
806.30	100.000
806.61	71.951
806.91	81.013
807.22	69.737
807.52	71.642
807.83	87.324
808.13	90.625
808.43	91.667
808.74	57.895
809.04	89.855
809.35	85.075
809.65	81.579
809.95	111.290
810.26	91.525
810.56	104.762
810.86	125.000
811.17	140.476
811.47	103.333
811.77	90.741
812.08	120.000
812.38	96.000
812.69	163.889
812.99	127.273
813.29	122.449
813.59	100.000
813.90	104.082
814.20	94.545
814.50	81.538
814.81	95.588
815.11	120.408
815.41	93.443
815.72	133.333
816.02	107.273
816.32	109.524
816.62	107.500
816.93	100.000
817.23	119.048
817.53	118.182
817.84	142.424
818.14	108.696
818.44	113.333
818.74	150.000
819.04	155.000
819.35	148.571
819.65	155.882
819.95	185.714
820.25	205.000
820.56	179.487
820.86	129.545
821.16	130.233
821.46	120.513
821.76	136.000
822.07	137.143
822.37	155.000
822.67	121.212
822.97	98.039
823.27	164.286
823.57	143.243
823.88	175.000
824.18	210.000
824.48	135.714
824.78	236.000
825.08	183.333
825.38	129.730
825.69	139.024
825.99	195.833
826.29	155.172
826.59	144.737
826.89	144.737
827.19	158.824
827.49	193.548
827.79	154.545
828.09	109.091
828.39	127.660
828.70	114.286
829.00	155.556
829.30	158.065
829.60	125.000
829.90	273.333
830.20	200.000
830.50	165.217
830.80	165.217
831.10	190.000
831.40	210.000
831.70	182.609
832.00	211.538
832.30	188.889
832.60	300.000
832.90	226.667
833.20	421.429
833.50	180.645
833.80	182.759
834.10	184.375
834.40	203.846
834.70	272.222
835.00	290.476
835.30	142.857
835.60	353.846
835.90	189.655
836.20	271.429
836.50	203.448
836.80	200.000
837.10	183.333
837.40	238.095
837.70	247.059
838.00	185.185
838.30	233.333
838.60	323.810
838.90	238.462
839.19	295.000
839.49	407.143
839.79	330.000
840.09	245.000
840.39	252.381
840.69	234.783
840.99	244.444
841.29	400.000
841.59	325.000
841.88	368.750
842.18	155.172
842.48	233.333
842.78	180.000
843.08	230.435
843.38	168.750
843.68	833.333
843.97	184.615
844.27	179.310
844.57	271.429
844.87	337.500
845.17	211.111
845.47	1466.667
845.76	477.778
846.06	282.353
846.36	450.000
846.66	364.286
846.96	300.000
847.25	381.818
847.55	400.000
847.85	239.130
848.15	360.000
848.44	307.143
848.74	216.667
849.04	264.706
849.34	460.000
849.63	263.158
849.93	427.273
850.23	700.000
850.53	435.714
850.82	1700.000
851.12	-4400.000
851.42	4000.000
851.71	305.000
852.01	-933.333
852.31	241.667
852.61	1500.000
852.90	290.476
853.20	240.000
853.50	323.529
853.79	266.667
854.09	200.000
854.39	293.750
854.68	172.973
854.98	183.871
855.28	183.333
855.57	227.586
855.87	229.630
856.17	215.789
856.46	293.333
856.76	205.882
857.05	193.103
857.35	225.000
857.65	213.333
857.94	230.435
858.24	261.538
858.53	270.000
858.83	263.636
859.13	326.667
859.42	0.000
859.72	577.778
860.01	454.545
860.31	245.455
860.60	257.895
860.90	230.435
861.20	533.333
861.49	516.667
861.79	-5700.000
862.08	550.000
862.38	233.333
862.67	269.231
862.97	276.471
863.26	566.667
863.56	300.000
863.85	425.000
864.15	550.000
864.44	380.000
864.74	766.667
865.03	712.500
865.33	294.737
865.62	454.545
865.92	338.462
866.21	358.333
866.51	0.000
866.80	400.000
867.10	920.000
867.39	353.846
867.69	481.818
867.98	221.053
868.27	427.273
868.57	289.474
868.86	-3600.000
869.16	312.500
869.45	1950.000
869.75	-4300.000
870.04	425.000
870.33	528.571
870.63	775.000
870.92	1850.000
871.22	671.429
871.51	335.294
871.80	214.286
872.10	407.143
>>>>>End Processed Spectral Data<<<<<
