SpectraSuite Data File
++++++++++++++++++++++++++++++++++++
Date: Wed May 13 16:13:21 PDT 2015
User: schluterlab
Dark Spectrum Present: Yes
Reference Spectrum Present: Yes
Number of Sampled Component Spectra: 1
Spectrometers: USB2E3373
Integration Time (usec): 3000 (USB2E3373)
Spectra Averaged: 3 (USB2E3373)
Boxcar Smoothing: 0 (USB2E3373)
Correct for Electrical Dark: No (USB2E3373)
Strobe/Lamp Enabled: No (USB2E3373)
Correct for Detector Non-linearity: No (USB2E3373)
Correct for Stray Light: No (USB2E3373)
Number of Pixels in Processed Spectrum: 2048
>>>>>Begin Processed Spectral Data<<<<<
178.53	0.000
178.91	-1100.000
179.29	-750.000
179.67	-133.333
180.04	-700.000
180.42	2000.000
180.80	740.000
181.18	-1025.000
181.56	500.000
181.94	0.000
182.31	-514.286
182.69	1366.667
183.07	-487.500
183.45	-355.556
183.83	418.182
184.20	-380.000
184.58	1800.000
184.96	4000.000
185.34	-680.000
185.72	-412.500
186.09	-1700.000
186.47	1850.000
186.85	1850.000
187.23	3800.000
187.61	-1566.667
187.98	1250.000
188.36	481.818
188.74	372.727
189.12	-580.000
189.49	570.000
189.87	-3800.000
190.25	-825.000
190.63	342.857
191.00	330.769
191.38	683.333
191.76	-825.000
192.14	1100.000
192.51	475.000
192.89	716.667
193.27	375.000
193.65	-750.000
194.02	380.000
194.40	680.000
194.78	440.000
195.15	425.000
195.53	450.000
195.91	-1700.000
196.29	300.000
196.66	268.421
197.04	-230.000
197.42	0.000
197.79	540.000
198.17	-3400.000
198.55	557.143
198.92	537.500
199.30	780.000
199.68	0.000
200.05	261.111
200.43	557.143
200.81	3100.000
201.18	933.333
201.56	-1400.000
201.94	344.444
202.31	488.889
202.69	383.333
203.07	450.000
203.44	0.000
203.82	1050.000
204.19	685.714
204.57	314.286
204.95	437.500
205.32	1066.667
205.70	409.091
206.08	292.857
206.45	2000.000
206.83	275.000
207.20	783.333
207.58	560.000
207.96	233.333
208.33	500.000
208.71	-616.667
209.08	471.429
209.46	400.000
209.84	354.545
210.21	-833.333
210.59	1150.000
210.96	-412.500
211.34	1700.000
211.71	590.000
212.09	583.333
212.46	0.000
212.84	1400.000
213.22	1025.000
213.59	-3600.000
213.97	550.000
214.34	628.571
214.72	481.818
215.09	740.000
215.47	-2000.000
215.84	-1450.000
216.22	1200.000
216.59	300.000
216.97	1125.000
217.34	390.909
217.72	-600.000
218.09	0.000
218.47	-3800.000
218.84	488.889
219.22	585.714
219.59	1200.000
219.97	-414.286
220.34	680.000
220.72	-1500.000
221.09	264.286
221.47	1200.000
221.84	-650.000
222.22	0.000
222.59	900.000
222.97	-2150.000
223.34	760.000
223.72	376.923
224.09	860.000
224.46	1500.000
224.84	-4400.000
225.21	-720.000
225.59	-4500.000
225.96	520.000
226.34	205.000
226.71	2150.000
227.08	550.000
227.46	420.000
227.83	-800.000
228.21	-1650.000
228.58	588.889
228.95	-1950.000
229.33	-1800.000
229.70	1100.000
230.08	657.143
230.45	-640.000
230.82	400.000
231.20	633.333
231.57	542.857
231.95	450.000
232.32	204.545
232.69	336.364
233.07	414.286
233.44	269.231
233.81	-1233.333
234.19	247.368
234.56	233.333
234.93	325.000
235.31	345.455
235.68	153.846
236.05	250.000
236.43	142.424
236.80	257.895
237.17	2800.000
237.55	157.143
237.92	132.143
238.29	138.095
238.67	141.935
239.04	144.828
239.41	113.889
239.79	95.652
240.16	116.667
240.53	111.364
240.91	80.392
241.28	92.000
241.65	84.000
242.02	89.855
242.40	54.839
242.77	83.333
243.14	76.344
243.51	70.787
243.89	55.294
244.26	53.333
244.63	52.688
245.00	48.936
245.38	53.465
245.75	42.991
246.12	44.037
246.49	49.635
246.87	51.200
247.24	47.692
247.61	47.143
247.98	41.830
248.36	38.514
248.73	34.395
249.10	40.764
249.47	37.288
249.84	35.829
250.22	36.364
250.59	39.053
250.96	35.354
251.33	32.701
251.70	36.139
252.08	32.857
252.45	29.596
252.82	30.435
253.19	29.362
253.56	30.588
253.94	34.025
254.31	31.250
254.68	31.538
255.05	33.579
255.42	32.927
255.79	31.618
256.16	33.935
256.54	28.622
256.91	32.028
257.28	27.338
257.65	27.393
258.02	27.950
258.39	29.653
258.76	27.090
259.14	31.548
259.51	26.444
259.88	26.087
260.25	26.888
260.62	28.613
260.99	30.124
261.36	27.327
261.73	28.080
262.10	25.872
262.47	28.169
262.85	29.526
263.22	21.368
263.59	27.066
263.96	25.824
264.33	26.371
264.70	23.947
265.07	28.645
265.44	25.758
265.81	20.195
266.18	26.633
266.55	25.854
266.92	23.833
267.29	27.778
267.66	24.083
268.03	24.773
268.40	24.766
268.77	22.196
269.14	26.126
269.51	24.831
269.88	21.678
270.25	23.928
270.62	24.494
270.99	26.882
271.36	23.391
271.73	21.963
272.10	20.870
272.47	26.452
272.84	23.160
273.21	24.109
273.58	21.397
273.95	21.384
274.32	21.488
274.69	25.054
275.06	24.016
275.43	22.128
275.80	22.445
276.17	22.403
276.54	27.443
276.91	21.344
277.28	23.242
277.65	23.404
278.02	24.017
278.39	24.219
278.76	21.455
279.13	23.962
279.50	21.415
279.87	21.315
280.23	21.357
280.60	23.598
280.97	21.072
281.34	22.832
281.71	21.091
282.08	22.265
282.45	21.091
282.82	22.380
283.19	21.212
283.56	22.632
283.92	20.812
284.29	22.222
284.66	20.871
285.03	20.976
285.40	22.711
285.77	22.391
286.14	20.725
286.51	23.667
286.87	23.077
287.24	21.173
287.61	20.225
287.98	20.455
288.35	19.017
288.72	19.782
289.08	21.127
289.45	20.099
289.82	18.862
290.19	18.838
290.56	20.827
290.93	17.523
291.29	17.945
291.66	19.764
292.03	18.605
292.40	20.117
292.77	19.083
293.13	19.701
293.50	18.367
293.87	17.037
294.24	16.741
294.60	16.012
294.97	19.477
295.34	18.900
295.71	18.040
296.08	18.091
296.44	17.469
296.81	18.230
297.18	18.835
297.55	15.567
297.91	16.623
298.28	17.805
298.65	17.232
299.02	17.260
299.38	16.999
299.75	16.712
300.12	14.559
300.48	17.750
300.85	15.413
301.22	17.070
301.59	15.909
301.95	17.003
302.32	16.560
302.69	17.921
303.05	17.212
303.42	15.185
303.79	17.214
304.15	16.084
304.52	15.411
304.89	16.609
305.25	16.589
305.62	17.554
305.99	16.529
306.35	16.331
306.72	15.583
307.09	16.426
307.45	16.554
307.82	15.848
308.19	14.901
308.55	15.965
308.92	16.004
309.29	15.628
309.65	15.907
310.02	15.328
310.38	15.376
310.75	16.156
311.12	15.967
311.48	16.928
311.85	16.247
312.22	15.713
312.58	16.632
312.95	17.001
313.31	13.981
313.68	16.216
314.05	18.047
314.41	16.884
314.78	17.120
315.14	15.889
315.51	17.611
315.87	17.723
316.24	16.683
316.61	16.277
316.97	17.025
317.34	16.438
317.70	18.164
318.07	18.479
318.43	18.200
318.80	19.306
319.16	18.267
319.53	16.886
319.89	18.381
320.26	18.900
320.62	18.353
320.99	18.283
321.35	19.293
321.72	20.123
322.08	20.237
322.45	21.194
322.81	21.221
323.18	20.713
323.54	19.202
323.91	19.717
324.27	19.216
324.64	19.944
325.00	18.756
325.37	21.201
325.73	20.736
326.10	21.359
326.46	19.892
326.83	21.311
327.19	20.495
327.56	22.213
327.92	21.085
328.29	21.207
328.65	22.192
329.01	21.661
329.38	22.664
329.74	21.884
330.11	22.526
330.47	22.773
330.84	22.243
331.20	22.131
331.56	22.018
331.93	21.759
332.29	22.449
332.66	22.478
333.02	22.395
333.38	22.493
333.75	23.440
334.11	23.043
334.48	21.118
334.84	23.070
335.20	22.455
335.57	22.575
335.93	22.232
336.29	22.619
336.66	21.821
337.02	21.991
337.38	23.056
337.75	21.836
338.11	22.381
338.47	22.560
338.84	22.090
339.20	21.743
339.56	23.266
339.93	22.545
340.29	22.283
340.65	21.836
341.02	22.077
341.38	22.776
341.74	21.930
342.11	23.231
342.47	23.700
342.83	22.774
343.20	23.290
343.56	21.735
343.92	22.193
344.28	22.109
344.65	23.732
345.01	20.960
345.37	22.213
345.73	21.743
346.10	22.933
346.46	23.390
346.82	22.982
347.19	21.303
347.55	22.332
347.91	23.463
348.27	23.418
348.63	22.408
349.00	22.006
349.36	22.496
349.72	22.534
350.08	21.799
350.45	21.318
350.81	22.258
351.17	21.961
351.53	21.458
351.89	21.535
352.26	23.047
352.62	21.732
352.98	22.285
353.34	21.118
353.70	21.031
354.07	22.742
354.43	22.302
354.79	23.009
355.15	22.267
355.51	22.382
355.87	22.776
356.24	22.394
356.60	22.053
356.96	22.446
357.32	22.486
357.68	21.969
358.04	22.803
358.40	22.961
358.77	22.379
359.13	22.178
359.49	22.510
359.85	21.190
360.21	21.611
360.57	22.568
360.93	21.692
361.29	22.373
361.66	21.362
362.02	22.090
362.38	22.129
362.74	21.801
363.10	21.466
363.46	21.203
363.82	22.222
364.18	22.761
364.54	22.808
364.90	22.946
365.26	22.059
365.62	22.644
365.98	21.914
366.35	21.203
366.71	22.560
367.07	22.214
367.43	23.222
367.79	23.483
368.15	23.491
368.51	21.875
368.87	23.555
369.23	22.677
369.59	23.896
369.95	21.985
370.31	22.578
370.67	22.391
371.03	23.446
371.39	23.251
371.75	23.824
372.11	22.546
372.47	23.021
372.83	23.919
373.19	22.977
373.55	23.725
373.91	24.742
374.27	23.711
374.63	23.418
374.99	23.517
375.35	22.959
375.71	23.441
376.07	24.691
376.42	23.590
376.78	24.254
377.14	24.016
377.50	24.570
377.86	23.604
378.22	23.894
378.58	23.120
378.94	23.696
379.30	23.155
379.66	24.112
380.02	24.447
380.38	24.408
380.74	24.430
381.09	24.328
381.45	24.708
381.81	24.140
382.17	24.968
382.53	24.717
382.89	25.062
383.25	25.141
383.61	24.907
383.97	25.516
384.32	25.328
384.68	24.659
385.04	24.401
385.40	25.511
385.76	25.246
386.12	25.842
386.48	26.117
386.83	25.593
387.19	25.665
387.55	26.345
387.91	25.393
388.27	26.119
388.62	25.384
388.98	25.000
389.34	26.220
389.70	25.996
390.06	26.743
390.42	25.746
390.77	27.290
391.13	25.846
391.49	26.459
391.85	25.907
392.20	25.868
392.56	25.694
392.92	25.839
393.28	26.213
393.64	26.918
393.99	25.290
394.35	26.923
394.71	25.157
395.07	25.670
395.42	26.576
395.78	26.845
396.14	26.505
396.50	27.318
396.85	26.510
397.21	26.079
397.57	26.720
397.92	26.022
398.28	25.392
398.64	26.762
399.00	26.581
399.35	26.565
399.71	26.100
400.07	25.902
400.42	27.055
400.78	27.443
401.14	26.585
401.49	26.149
401.85	26.255
402.21	25.988
402.57	25.910
402.92	26.482
403.28	27.483
403.63	26.238
403.99	25.860
404.35	25.939
404.70	26.259
405.06	26.267
405.42	26.388
405.77	25.943
406.13	25.734
406.49	26.789
406.84	27.053
407.20	26.182
407.55	26.867
407.91	26.733
408.27	26.420
408.62	27.574
408.98	26.103
409.34	26.937
409.69	26.581
410.05	26.518
410.40	26.361
410.76	26.703
411.11	26.055
411.47	25.942
411.83	25.779
412.18	26.778
412.54	27.024
412.89	26.386
413.25	26.860
413.60	25.942
413.96	25.501
414.31	26.185
414.67	26.362
415.03	26.291
415.38	26.740
415.74	26.559
416.09	27.694
416.45	26.908
416.80	26.966
417.16	27.011
417.51	27.605
417.87	26.782
418.22	27.697
418.58	27.050
418.93	27.457
419.29	26.989
419.64	27.456
420.00	26.402
420.35	26.145
420.71	27.376
421.06	26.850
421.42	26.374
421.77	27.242
422.12	26.334
422.48	26.444
422.83	26.849
423.19	27.072
423.54	26.291
423.90	26.203
424.25	26.466
424.61	26.488
424.96	27.580
425.31	26.800
425.67	26.348
426.02	27.029
426.38	28.571
426.73	26.741
427.09	26.748
427.44	26.797
427.79	26.394
428.15	27.857
428.50	27.443
428.85	27.950
429.21	27.002
429.56	26.905
429.92	25.868
430.27	25.869
430.62	26.370
430.98	26.570
431.33	27.062
431.68	27.277
432.04	26.837
432.39	26.099
432.74	27.708
433.10	26.655
433.45	27.755
433.80	26.663
434.16	27.671
434.51	27.263
434.86	27.594
435.22	27.071
435.57	26.930
435.92	27.326
436.28	27.402
436.63	27.980
436.98	27.304
437.34	28.086
437.69	27.363
438.04	27.150
438.39	26.806
438.75	27.891
439.10	26.927
439.45	28.394
439.81	27.855
440.16	27.047
440.51	27.885
440.86	28.836
441.22	27.364
441.57	28.025
441.92	27.892
442.27	27.772
442.63	27.278
442.98	27.831
443.33	28.098
443.68	27.827
444.03	27.526
444.39	27.167
444.74	28.247
445.09	27.493
445.44	27.556
445.79	27.660
446.15	27.687
446.50	27.033
446.85	27.646
447.20	27.537
447.55	28.085
447.91	28.461
448.26	27.880
448.61	28.151
448.96	28.018
449.31	28.459
449.66	29.150
450.02	28.022
450.37	27.608
450.72	28.032
451.07	27.605
451.42	27.416
451.77	28.362
452.12	28.464
452.47	28.109
452.83	28.671
453.18	28.240
453.53	29.004
453.88	28.588
454.23	29.348
454.58	28.952
454.93	28.671
455.28	28.117
455.63	29.187
455.98	29.583
456.34	28.706
456.69	28.491
457.04	28.978
457.39	28.404
457.74	28.207
458.09	28.005
458.44	28.677
458.79	28.308
459.14	28.160
459.49	28.255
459.84	28.753
460.19	28.403
460.54	27.373
460.89	28.579
461.24	29.083
461.59	29.576
461.94	28.545
462.29	29.258
462.64	29.611
462.99	29.018
463.34	30.333
463.69	29.581
464.04	28.928
464.39	28.174
464.74	28.461
465.09	27.805
465.44	28.920
465.79	28.188
466.14	27.860
466.49	28.142
466.84	29.480
467.19	28.183
467.54	29.750
467.89	29.292
468.24	29.203
468.59	29.121
468.94	28.589
469.29	29.177
469.64	31.058
469.99	30.311
470.34	29.392
470.68	30.316
471.03	29.728
471.38	29.604
471.73	29.780
472.08	30.461
472.43	29.899
472.78	29.427
473.13	29.332
473.48	29.338
473.83	28.720
474.17	28.998
474.52	29.715
474.87	29.539
475.22	29.135
475.57	29.285
475.92	28.837
476.27	29.087
476.61	29.068
476.96	28.917
477.31	28.310
477.66	28.993
478.01	28.542
478.36	29.244
478.70	29.024
479.05	29.446
479.40	29.478
479.75	29.741
480.10	28.827
480.45	29.319
480.79	28.476
481.14	29.110
481.49	29.758
481.84	28.441
482.19	29.259
482.53	28.119
482.88	28.618
483.23	29.112
483.58	29.390
483.92	29.335
484.27	28.192
484.62	28.750
484.97	28.892
485.31	28.767
485.66	26.844
486.01	25.590
486.36	24.718
486.70	24.451
487.05	25.440
487.40	26.430
487.75	26.232
488.09	27.753
488.44	27.919
488.79	28.535
489.13	28.992
489.48	28.507
489.83	29.046
490.17	29.285
490.52	28.964
490.87	29.353
491.22	28.786
491.56	29.385
491.91	29.828
492.26	29.628
492.60	30.092
492.95	28.578
493.30	29.346
493.64	29.631
493.99	29.341
494.34	29.371
494.68	28.846
495.03	29.323
495.37	29.269
495.72	29.435
496.07	30.116
496.41	28.938
496.76	29.068
497.11	29.221
497.45	29.390
497.80	29.942
498.14	30.000
498.49	30.488
498.84	29.530
499.18	29.714
499.53	30.579
499.87	29.637
500.22	28.921
500.56	29.806
500.91	30.096
501.26	29.872
501.60	30.565
501.95	29.881
502.29	30.412
502.64	30.214
502.98	30.248
503.33	29.662
503.67	28.770
504.02	29.794
504.36	29.761
504.71	29.946
505.06	30.072
505.40	29.655
505.75	29.315
506.09	30.466
506.44	29.748
506.78	30.102
507.13	30.288
507.47	30.253
507.82	30.294
508.16	30.598
508.51	30.746
508.85	30.586
509.19	31.122
509.54	30.459
509.88	30.345
510.23	30.488
510.57	31.424
510.92	30.295
511.26	30.267
511.61	29.979
511.95	30.950
512.30	30.647
512.64	31.005
512.98	30.654
513.33	32.013
513.67	30.736
514.02	30.195
514.36	32.441
514.70	30.935
515.05	31.288
515.39	31.520
515.74	31.982
516.08	31.414
516.42	31.909
516.77	32.274
517.11	31.021
517.46	31.828
517.80	31.765
518.14	31.963
518.49	32.322
518.83	32.273
519.17	31.640
519.52	31.805
519.86	32.116
520.20	32.543
520.55	33.154
520.89	32.786
521.23	32.569
521.58	32.173
521.92	33.374
522.26	32.886
522.61	32.274
522.95	32.658
523.29	33.232
523.64	33.415
523.98	32.779
524.32	32.268
524.66	32.411
525.01	33.578
525.35	32.962
525.69	32.389
526.04	32.150
526.38	32.154
526.72	32.699
527.06	33.522
527.41	32.735
527.75	32.862
528.09	33.526
528.43	33.461
528.78	33.067
529.12	32.727
529.46	32.945
529.80	32.921
530.15	33.396
530.49	32.246
530.83	33.038
531.17	33.420
531.51	33.787
531.86	33.161
532.20	33.638
532.54	33.184
532.88	32.863
533.22	32.230
533.57	32.160
533.91	32.390
534.25	32.199
534.59	32.459
534.93	31.588
535.27	32.287
535.62	31.319
535.96	32.706
536.30	32.168
536.64	32.646
536.98	33.709
537.32	32.587
537.66	32.333
538.01	32.982
538.35	31.997
538.69	32.482
539.03	32.229
539.37	32.077
539.71	30.525
540.05	32.353
540.39	31.761
540.73	31.177
541.07	32.901
541.42	31.833
541.76	32.710
542.10	32.406
542.44	32.517
542.78	33.531
543.12	31.222
543.46	32.918
543.80	32.206
544.14	32.157
544.48	32.254
544.82	31.495
545.16	31.620
545.50	31.620
545.84	32.661
546.18	32.121
546.52	32.897
546.86	33.402
547.20	33.109
547.54	31.931
547.88	32.334
548.22	31.631
548.56	30.755
548.90	31.242
549.24	32.189
549.58	32.538
549.92	32.143
550.26	33.452
550.60	32.365
550.94	33.380
551.28	32.553
551.62	33.573
551.96	31.789
552.30	31.672
552.64	32.725
552.98	31.661
553.32	32.569
553.66	31.970
554.00	31.846
554.34	32.781
554.68	32.690
555.02	31.735
555.36	32.777
555.69	32.003
556.03	31.359
556.37	32.606
556.71	31.924
557.05	32.143
557.39	31.700
557.73	31.122
558.07	33.067
558.41	31.838
558.75	32.035
559.08	32.438
559.42	32.880
559.76	33.162
560.10	31.335
560.44	33.403
560.78	32.202
561.12	31.398
561.45	31.877
561.79	31.312
562.13	31.522
562.47	32.582
562.81	33.194
563.15	31.572
563.48	32.162
563.82	31.963
564.16	31.066
564.50	31.771
564.84	31.037
565.17	31.338
565.51	31.949
565.85	30.393
566.19	31.309
566.52	31.729
566.86	30.802
567.20	31.309
567.54	30.308
567.88	30.201
568.21	30.370
568.55	29.980
568.89	28.940
569.23	27.986
569.56	27.733
569.90	27.698
570.24	27.521
570.57	26.692
570.91	25.856
571.25	26.436
571.59	26.598
571.92	25.922
572.26	26.112
572.60	26.456
572.93	26.267
573.27	26.767
573.61	26.159
573.95	25.866
574.28	25.176
574.62	25.413
574.96	25.329
575.29	25.291
575.63	25.305
575.97	25.670
576.30	25.544
576.64	25.272
576.98	24.939
577.31	25.023
577.65	24.582
577.98	24.769
578.32	24.365
578.66	24.633
578.99	24.446
579.33	25.345
579.67	24.495
580.00	24.958
580.34	25.131
580.67	25.053
581.01	25.118
581.35	25.015
581.68	24.549
582.02	24.139
582.35	23.725
582.69	24.408
583.02	24.650
583.36	24.856
583.70	25.350
584.03	25.235
584.37	26.113
584.70	25.575
585.04	25.636
585.37	24.977
585.71	25.399
586.04	25.030
586.38	25.000
586.72	25.960
587.05	25.020
587.39	24.960
587.72	25.354
588.06	25.667
588.39	25.405
588.73	25.697
589.06	26.644
589.40	27.104
589.73	26.857
590.07	26.584
590.40	26.452
590.73	27.244
591.07	27.391
591.40	26.866
591.74	27.489
592.07	28.272
592.41	26.829
592.74	26.180
593.08	25.683
593.41	25.941
593.75	24.828
594.08	25.813
594.41	26.299
594.75	26.691
595.08	26.521
595.42	26.690
595.75	26.531
596.09	26.587
596.42	26.326
596.75	26.256
597.09	27.273
597.42	26.855
597.75	27.210
598.09	26.696
598.42	27.019
598.76	25.983
599.09	25.542
599.42	25.328
599.76	25.805
600.09	25.574
600.42	25.383
600.76	25.821
601.09	25.501
601.42	25.837
601.76	25.806
602.09	26.601
602.42	26.274
602.76	26.441
603.09	26.593
603.42	26.904
603.76	25.800
604.09	25.553
604.42	26.784
604.76	26.908
605.09	26.038
605.42	26.251
605.75	26.821
606.09	26.027
606.42	25.255
606.75	26.586
607.09	26.287
607.42	26.316
607.75	25.738
608.08	26.140
608.42	26.401
608.75	26.195
609.08	25.948
609.41	26.368
609.75	26.965
610.08	26.767
610.41	26.304
610.74	26.159
611.07	27.619
611.41	26.889
611.74	27.552
612.07	27.226
612.40	27.702
612.73	27.000
613.07	27.909
613.40	27.435
613.73	27.163
614.06	26.452
614.39	26.796
614.72	26.789
615.06	26.628
615.39	26.805
615.72	27.198
616.05	26.901
616.38	27.460
616.71	27.613
617.05	28.269
617.38	27.661
617.71	27.688
618.04	27.825
618.37	26.789
618.70	28.065
619.03	28.421
619.36	28.921
619.69	28.873
620.03	29.945
620.36	29.412
620.69	29.384
621.02	30.678
621.35	29.131
621.68	30.374
622.01	30.186
622.34	29.501
622.67	29.430
623.00	28.833
623.33	28.449
623.66	28.735
623.99	29.308
624.32	30.029
624.65	28.955
624.99	27.762
625.32	29.544
625.65	29.376
625.98	30.669
626.31	29.860
626.64	31.429
626.97	30.341
627.30	30.756
627.63	30.025
627.96	30.950
628.29	31.584
628.62	31.199
628.95	32.642
629.28	30.109
629.61	30.981
629.94	31.238
630.26	32.412
630.59	31.554
630.92	30.843
631.25	30.997
631.58	31.532
631.91	31.643
632.24	31.540
632.57	32.739
632.90	33.443
633.23	32.998
633.56	35.367
633.89	32.729
634.22	34.733
634.55	34.320
634.88	33.054
635.20	34.886
635.53	32.771
635.86	34.035
636.19	33.529
636.52	34.371
636.85	32.302
637.18	31.221
637.51	34.870
637.83	31.566
638.16	35.294
638.49	34.509
638.82	34.513
639.15	32.750
639.48	34.040
639.81	32.976
640.13	35.417
640.46	33.557
640.79	33.686
641.12	32.875
641.45	34.358
641.77	38.144
642.10	34.795
642.43	34.985
642.76	34.830
643.09	34.356
643.41	36.115
643.74	36.728
644.07	35.061
644.40	35.276
644.73	35.591
645.05	38.193
645.38	34.913
645.71	35.105
646.04	34.884
646.36	39.566
646.69	38.629
647.02	36.905
647.35	37.457
647.67	35.929
648.00	37.561
648.33	35.974
648.66	33.485
648.98	33.883
649.31	33.333
649.64	33.333
649.96	32.936
650.29	36.335
650.62	36.570
650.94	36.629
651.27	37.500
651.60	35.108
651.92	38.179
652.25	34.365
652.58	33.956
652.90	36.335
653.23	33.898
653.56	33.386
653.88	35.499
654.21	35.703
654.54	34.983
654.86	33.489
655.19	32.703
655.52	21.757
655.84	17.834
656.17	22.688
656.49	30.148
656.82	30.937
657.15	23.736
657.47	17.846
657.80	13.928
658.13	14.712
658.45	22.644
658.78	22.974
659.10	24.022
659.43	25.425
659.75	27.200
660.08	28.797
660.41	33.240
660.73	33.545
661.06	34.236
661.38	37.818
661.71	36.731
662.03	37.475
662.36	37.575
662.68	36.546
663.01	38.182
663.33	35.669
663.66	38.025
663.98	38.229
664.31	36.975
664.63	35.020
664.96	34.809
665.28	42.008
665.61	34.308
665.93	35.614
666.26	37.120
666.58	36.611
666.91	37.421
667.23	39.551
667.56	39.525
667.88	38.034
668.21	40.725
668.53	37.744
668.86	38.961
669.18	40.299
669.50	40.217
669.83	41.612
670.15	38.667
670.48	38.998
670.80	35.560
671.13	36.943
671.45	37.234
671.77	36.049
672.10	35.305
672.42	31.272
672.75	31.675
673.07	33.099
673.39	35.624
673.72	34.180
674.04	36.667
674.37	36.117
674.69	36.810
675.01	35.565
675.34	40.452
675.66	37.895
675.98	37.882
676.31	37.605
676.63	38.641
676.95	37.736
677.28	36.916
677.60	37.143
677.92	36.920
678.25	36.756
678.57	35.060
678.89	35.471
679.22	34.971
679.54	34.924
679.86	31.927
680.18	34.526
680.51	34.397
680.83	32.918
681.15	36.981
681.48	35.917
681.80	35.397
682.12	33.333
682.44	33.462
682.77	36.049
683.09	37.768
683.41	38.581
683.73	36.203
684.06	36.157
684.38	34.051
684.70	35.271
685.02	34.334
685.34	32.601
685.67	30.070
685.99	31.100
686.31	30.205
686.63	30.389
686.96	32.321
687.28	34.477
687.60	31.159
687.92	32.724
688.24	32.890
688.56	33.735
688.89	36.722
689.21	34.061
689.53	34.656
689.85	37.472
690.17	32.298
690.49	35.881
690.82	37.150
691.14	36.161
691.46	36.920
691.78	32.530
692.10	33.884
692.42	36.327
692.74	31.743
693.06	33.617
693.39	33.881
693.71	33.406
694.03	34.526
694.35	33.117
694.67	35.011
694.99	35.854
695.31	32.598
695.63	35.646
695.95	35.697
696.27	35.279
696.59	37.306
696.91	38.342
697.23	31.455
697.56	35.181
697.88	32.311
698.20	30.208
698.52	35.269
698.84	34.076
699.16	34.332
699.48	35.392
699.80	35.990
700.12	38.961
700.44	36.605
700.76	37.845
701.08	37.644
701.40	37.151
701.72	38.776
702.04	42.045
702.36	36.544
702.68	42.210
703.00	36.842
703.32	34.309
703.64	39.678
703.96	34.540
704.28	37.209
704.60	36.950
704.91	37.389
705.23	37.830
705.55	44.518
705.87	45.847
706.19	38.869
706.51	34.891
706.83	38.788
707.15	39.776
707.47	36.364
707.79	33.661
708.11	33.562
708.43	34.524
708.74	32.398
709.06	37.403
709.38	37.008
709.70	39.535
710.02	39.466
710.34	35.758
710.66	37.612
710.98	37.500
711.29	38.081
711.61	38.053
711.93	32.692
712.25	40.193
712.57	42.279
712.89	38.408
713.20	37.690
713.52	40.132
713.84	38.291
714.16	37.500
714.48	36.207
714.80	39.818
715.11	32.853
715.43	34.125
715.75	33.043
716.07	38.019
716.39	35.110
716.70	39.203
717.02	44.964
717.34	40.283
717.66	46.642
717.97	45.418
718.29	40.741
718.61	37.956
718.93	38.603
719.24	40.830
719.56	35.932
719.88	37.288
720.20	35.135
720.51	41.115
720.83	41.636
721.15	38.806
721.46	37.234
721.78	39.785
722.10	37.736
722.42	43.233
722.73	38.951
723.05	40.164
723.37	41.700
723.68	38.996
724.00	38.618
724.32	39.516
724.63	36.585
724.95	35.565
725.27	39.676
725.58	41.797
725.90	39.781
726.22	38.113
726.53	37.847
726.85	38.567
727.16	33.808
727.48	37.943
727.80	35.985
728.11	40.942
728.43	35.769
728.74	37.634
729.06	41.241
729.38	41.912
729.69	38.790
730.01	33.106
730.32	36.458
730.64	36.455
730.96	34.983
731.27	39.404
731.59	36.086
731.90	33.819
732.22	34.161
732.53	31.579
732.85	35.577
733.16	33.441
733.48	36.877
733.80	35.390
734.11	34.395
734.43	36.095
734.74	30.000
735.06	32.378
735.37	33.526
735.69	28.344
736.00	39.542
736.32	35.514
736.63	34.505
736.95	39.617
737.26	29.932
737.58	32.903
737.89	37.793
738.21	38.225
738.52	37.143
738.83	36.226
739.15	36.154
739.46	39.416
739.78	35.069
740.09	35.385
740.41	35.161
740.72	31.707
741.04	33.704
741.35	38.333
741.66	41.778
741.98	36.792
742.29	47.847
742.61	41.810
742.92	38.462
743.23	37.179
743.55	39.200
743.86	44.737
744.18	42.478
744.49	43.541
744.80	51.174
745.12	41.818
745.43	41.410
745.74	39.640
746.06	39.908
746.37	42.152
746.68	41.176
747.00	43.981
747.31	40.476
747.62	41.593
747.94	40.529
748.25	40.426
748.56	44.934
748.88	40.594
749.19	47.500
749.50	38.605
749.82	41.463
750.13	35.102
750.44	36.861
750.75	37.544
751.07	36.013
751.38	38.328
751.69	37.545
752.01	38.346
752.32	32.491
752.63	37.589
752.94	38.934
753.26	40.800
753.57	35.366
753.88	39.844
754.19	36.429
754.51	36.458
754.82	33.574
755.13	38.113
755.44	38.346
755.75	36.861
756.07	33.688
756.38	31.752
756.69	37.584
757.00	33.533
757.31	32.344
757.63	30.409
757.94	31.367
758.25	28.676
758.56	29.383
758.87	28.763
759.18	32.121
759.50	31.348
759.81	31.776
760.12	31.250
760.43	32.378
760.74	29.620
761.05	29.379
761.36	30.214
761.67	31.818
761.99	32.919
762.30	36.458
762.61	33.969
762.92	39.844
763.23	36.134
763.54	42.800
763.85	33.984
764.16	36.538
764.47	37.262
764.78	32.509
765.10	27.848
765.41	31.563
765.72	32.335
766.03	30.094
766.34	30.667
766.65	40.426
766.96	36.325
767.27	50.254
767.58	44.271
767.89	45.263
768.20	43.678
768.51	40.102
768.82	35.780
769.13	34.553
769.44	30.364
769.75	35.193
770.06	34.404
770.37	38.914
770.68	40.741
770.99	34.667
771.30	33.197
771.61	41.704
771.92	37.295
772.23	42.017
772.54	42.564
772.85	40.838
773.16	49.468
773.47	45.652
773.78	44.162
774.09	43.452
774.39	47.953
774.70	48.148
775.01	52.899
775.32	48.366
775.63	48.026
775.94	41.007
776.25	53.543
776.56	53.731
776.87	51.639
777.18	51.563
777.48	54.198
777.79	50.758
778.10	54.815
778.41	59.821
778.72	43.796
779.03	40.940
779.34	45.638
779.65	40.541
779.95	41.718
780.26	55.556
780.57	47.586
780.88	52.344
781.19	45.865
781.50	52.027
781.80	49.057
782.11	38.983
782.42	36.709
782.73	41.104
783.04	47.297
783.34	47.183
783.65	52.740
783.96	47.761
784.27	44.056
784.57	39.568
784.88	53.704
785.19	47.619
785.50	51.887
785.81	45.522
786.11	64.754
786.42	49.612
786.73	57.522
787.04	52.830
787.34	51.786
787.65	61.000
787.96	64.865
788.26	45.455
788.57	66.102
788.88	57.025
789.19	58.333
789.49	53.788
789.80	46.565
790.11	63.810
790.41	61.386
790.72	53.012
791.03	61.957
791.33	51.163
791.64	59.794
791.95	59.406
792.25	58.889
792.56	53.247
792.87	78.205
793.17	73.418
793.48	65.517
793.79	66.667
794.09	72.727
794.40	49.580
794.70	51.471
795.01	46.667
795.32	39.568
795.62	40.157
795.93	48.276
796.23	55.752
796.54	61.176
796.85	68.919
797.15	74.648
797.46	78.788
797.76	73.494
798.07	69.620
798.37	69.231
798.68	87.879
798.99	73.239
799.29	68.831
799.60	56.818
799.90	75.342
800.21	85.075
800.51	87.931
800.82	100.000
801.12	80.328
801.43	72.727
801.73	85.135
802.04	88.889
802.34	80.247
802.65	79.687
802.95	84.746
803.26	82.813
803.56	62.857
803.87	70.769
804.17	69.118
804.48	103.704
804.78	68.966
805.09	83.824
805.39	75.000
805.70	87.500
806.00	91.803
806.30	65.152
806.61	70.732
806.91	56.962
807.22	63.158
807.52	67.164
807.83	74.648
808.13	89.062
808.43	70.000
808.74	60.526
809.04	73.913
809.35	68.657
809.65	75.000
809.95	108.065
810.26	93.220
810.56	88.889
810.86	109.091
811.17	97.619
811.47	91.667
811.77	85.185
812.08	78.182
812.38	96.000
812.69	108.333
812.99	125.000
813.29	97.959
813.59	78.571
813.90	104.082
814.20	78.182
814.50	70.769
814.81	83.824
815.11	95.918
815.41	100.000
815.72	119.048
816.02	103.636
816.32	88.095
816.62	115.000
816.93	104.878
817.23	116.667
817.53	122.727
817.84	151.515
818.14	126.087
818.44	93.333
818.74	132.353
819.04	115.000
819.35	111.429
819.65	120.588
819.95	167.857
820.25	155.000
820.56	141.026
820.86	106.818
821.16	120.930
821.46	135.897
821.76	122.000
822.07	154.286
822.37	125.000
822.67	133.333
822.97	98.039
823.27	153.571
823.57	118.919
823.88	152.500
824.18	146.667
824.48	126.190
824.78	220.000
825.08	150.000
825.38	132.432
825.69	121.951
825.99	170.833
826.29	117.241
826.59	131.579
826.89	126.316
827.19	144.118
827.49	161.290
827.79	106.818
828.09	122.727
828.39	95.745
828.70	108.163
829.00	125.926
829.30	116.129
829.60	122.500
829.90	220.000
830.20	150.000
830.50	213.043
830.80	178.261
831.10	150.000
831.40	136.667
831.70	121.739
832.00	180.769
832.30	166.667
832.60	237.500
832.90	166.667
833.20	292.857
833.50	158.065
833.80	168.966
834.10	168.750
834.40	200.000
834.70	183.333
835.00	233.333
835.30	125.714
835.60	269.231
835.90	162.069
836.20	228.571
836.50	158.621
836.80	148.000
837.10	169.444
837.40	195.238
837.70	235.294
838.00	159.259
838.30	180.952
838.60	252.381
838.90	207.692
839.19	205.000
839.49	335.714
839.79	240.000
840.09	200.000
840.39	209.524
840.69	186.957
840.99	250.000
841.29	300.000
841.59	266.667
841.88	300.000
842.18	106.897
842.48	228.571
842.78	140.000
843.08	165.217
843.38	150.000
843.68	633.333
843.97	192.308
844.27	144.828
844.57	261.905
844.87	312.500
845.17	170.370
845.47	1033.333
845.76	422.222
846.06	235.294
846.36	450.000
846.66	314.286
846.96	262.500
847.25	254.545
847.55	327.273
847.85	178.261
848.15	370.000
848.44	257.143
848.74	250.000
849.04	247.059
849.34	380.000
849.63	178.947
849.93	300.000
850.23	800.000
850.53	307.143
850.82	1450.000
851.12	-2100.000
851.42	4500.000
851.71	200.000
852.01	-933.333
852.31	233.333
852.61	1300.000
852.90	209.524
853.20	188.000
853.50	241.176
853.79	257.143
854.09	133.333
854.39	281.250
854.68	148.649
854.98	148.387
855.28	126.667
855.57	168.966
855.87	177.778
856.17	221.053
856.46	140.000
856.76	217.647
857.05	186.207
857.35	150.000
857.65	266.667
857.94	143.478
858.24	196.154
858.53	240.000
858.83	227.273
859.13	293.333
859.42	0.000
859.72	444.444
860.01	281.818
860.31	213.636
860.60	268.421
860.90	204.348
861.20	377.778
861.49	333.333
861.79	-3700.000
862.08	412.500
862.38	214.286
862.67	323.077
862.97	241.176
863.26	433.333
863.56	244.444
863.85	191.667
864.15	375.000
864.44	393.333
864.74	583.333
865.03	450.000
865.33	247.368
865.62	354.545
865.92	353.846
866.21	308.333
866.51	0.000
866.80	345.455
867.10	720.000
867.39	338.462
867.69	363.636
867.98	184.211
868.27	372.727
868.57	221.053
868.86	-3000.000
869.16	281.250
869.45	1650.000
869.75	-2800.000
870.04	383.333
870.33	471.429
870.63	925.000
870.92	2450.000
871.22	714.286
871.51	241.176
871.80	133.333
872.10	328.571
>>>>>End Processed Spectral Data<<<<<
