SpectraSuite Data File
++++++++++++++++++++++++++++++++++++
Date: Wed May 13 16:38:21 PDT 2015
User: schluterlab
Dark Spectrum Present: Yes
Reference Spectrum Present: Yes
Number of Sampled Component Spectra: 1
Spectrometers: USB2E3373
Integration Time (usec): 3000 (USB2E3373)
Spectra Averaged: 3 (USB2E3373)
Boxcar Smoothing: 0 (USB2E3373)
Correct for Electrical Dark: No (USB2E3373)
Strobe/Lamp Enabled: No (USB2E3373)
Correct for Detector Non-linearity: No (USB2E3373)
Correct for Stray Light: No (USB2E3373)
Number of Pixels in Processed Spectrum: 2048
>>>>>Begin Processed Spectral Data<<<<<
178.53	0.000
178.91	-1150.000
179.29	-1375.000
179.67	-300.000
180.04	-1475.000
180.42	2650.000
180.80	940.000
181.18	-1350.000
181.56	685.714
181.94	0.000
182.31	-685.714
182.69	1700.000
183.07	-662.500
183.45	-466.667
183.83	463.636
184.20	-410.000
184.58	2150.000
184.96	5200.000
185.34	-820.000
185.72	-500.000
186.09	-2250.000
186.47	2450.000
186.85	2100.000
187.23	5200.000
187.61	-1900.000
187.98	1325.000
188.36	536.364
188.74	563.636
189.12	-820.000
189.49	560.000
189.87	-4800.000
190.25	-1000.000
190.63	450.000
191.00	407.692
191.38	850.000
191.76	-1225.000
192.14	1550.000
192.51	625.000
192.89	900.000
193.27	550.000
193.65	-1200.000
194.02	520.000
194.40	1160.000
194.78	680.000
195.15	541.667
195.53	640.000
195.91	-2450.000
196.29	381.250
196.66	289.474
197.04	-340.000
197.42	0.000
197.79	630.000
198.17	-3700.000
198.55	571.429
198.92	650.000
199.30	920.000
199.68	0.000
200.05	361.111
200.43	857.143
200.81	5100.000
201.18	1466.667
201.56	-1333.333
201.94	622.222
202.31	577.778
202.69	400.000
203.07	690.000
203.44	0.000
203.82	1350.000
204.19	814.286
204.57	450.000
204.95	712.500
205.32	1666.667
205.70	490.909
206.08	407.143
206.45	2750.000
206.83	425.000
207.20	833.333
207.58	920.000
207.96	344.444
208.33	675.000
208.71	-800.000
209.08	742.857
209.46	666.667
209.84	436.364
210.21	-1400.000
210.59	1375.000
210.96	-487.500
211.34	2200.000
211.71	680.000
212.09	800.000
212.46	0.000
212.84	1666.667
213.22	1250.000
213.59	-5500.000
213.97	716.667
214.34	757.143
214.72	545.455
215.09	980.000
215.47	-2550.000
215.84	-2450.000
216.22	1833.333
216.59	378.571
216.97	1325.000
217.34	518.182
217.72	-683.333
218.09	0.000
218.47	-5000.000
218.84	588.889
219.22	842.857
219.59	1833.333
219.97	-685.714
220.34	860.000
220.72	-1500.000
221.09	442.857
221.47	1450.000
221.84	-783.333
222.22	0.000
222.59	1225.000
222.97	-2550.000
223.34	1280.000
223.72	476.923
224.09	800.000
224.46	2350.000
224.84	-5000.000
225.21	-1060.000
225.59	-4700.000
225.96	470.000
226.34	280.000
226.71	2550.000
227.08	737.500
227.46	580.000
227.83	-1225.000
228.21	-2400.000
228.58	622.222
228.95	-2450.000
229.33	-2550.000
229.70	1566.667
230.08	842.857
230.45	-980.000
230.82	433.333
231.20	783.333
231.57	800.000
231.95	533.333
232.32	195.455
232.69	418.182
233.07	585.714
233.44	369.231
233.81	-1700.000
234.19	284.211
234.56	416.667
234.93	425.000
235.31	445.455
235.68	353.846
236.05	321.429
236.43	166.667
236.80	184.211
237.17	4000.000
237.55	152.381
237.92	200.000
238.29	219.048
238.67	170.968
239.04	155.172
239.41	111.111
239.79	91.304
240.16	121.429
240.53	120.455
240.91	80.392
241.28	92.000
241.65	82.000
242.02	76.812
242.40	70.968
242.77	68.333
243.14	62.366
243.51	61.798
243.89	60.000
244.26	56.667
244.63	55.914
245.00	51.064
245.38	48.515
245.75	35.514
246.12	42.202
246.49	49.635
246.87	56.000
247.24	40.769
247.61	37.143
247.98	38.562
248.36	30.405
248.73	29.299
249.10	37.580
249.47	33.333
249.84	31.551
250.22	22.460
250.59	24.852
250.96	31.818
251.33	31.754
251.70	26.238
252.08	21.905
252.45	22.422
252.82	23.043
253.19	23.830
253.56	25.098
253.94	25.311
254.31	22.266
254.68	23.846
255.05	19.188
255.42	21.138
255.79	19.853
256.16	18.051
256.54	14.841
256.91	18.861
257.28	21.583
257.65	15.182
258.02	18.323
258.39	15.457
258.76	14.047
259.14	17.560
259.51	16.717
259.88	13.665
260.25	14.199
260.62	14.451
260.99	13.975
261.36	18.919
261.73	13.181
262.10	14.244
262.47	17.183
262.85	11.978
263.22	12.251
263.59	15.100
263.96	15.110
264.33	14.621
264.70	13.947
265.07	15.601
265.44	11.364
265.81	10.462
266.18	12.563
266.55	12.683
266.92	15.233
267.29	14.815
267.66	13.761
268.03	14.091
268.40	11.916
268.77	10.740
269.14	9.910
269.51	14.221
269.88	14.219
270.25	11.964
270.62	11.685
270.99	13.333
271.36	13.519
271.73	13.785
272.10	10.435
272.47	10.753
272.84	12.987
273.21	12.369
273.58	12.664
273.95	12.579
274.32	10.950
274.69	10.064
275.06	8.858
275.43	11.702
275.80	9.419
276.17	12.627
276.54	11.642
276.91	12.253
277.28	12.305
277.65	11.219
278.02	9.938
278.39	12.695
278.76	10.182
279.13	10.189
279.50	10.987
279.87	9.761
280.23	9.581
280.60	9.091
280.97	9.057
281.34	9.204
281.71	11.091
282.08	9.597
282.45	10.364
282.82	10.124
283.19	7.130
283.56	9.123
283.92	9.475
284.29	8.818
284.66	9.619
285.03	8.137
285.40	8.451
285.77	8.081
286.14	8.981
286.51	10.667
286.87	10.085
287.24	9.121
287.61	8.989
287.98	9.578
288.35	8.399
288.72	9.657
289.08	9.703
289.45	8.896
289.82	9.593
290.19	7.378
290.56	8.270
290.93	7.855
291.29	8.742
291.66	7.817
292.03	10.756
292.40	9.398
292.77	8.728
293.13	10.597
293.50	9.329
293.87	7.704
294.24	7.407
294.60	6.841
294.97	8.140
295.34	8.604
295.71	7.812
296.08	6.695
296.44	7.978
296.81	6.473
297.18	9.621
297.55	6.069
297.91	8.047
298.28	8.032
298.65	7.572
299.02	8.300
299.38	6.640
299.75	6.065
300.12	6.769
300.48	7.375
300.85	7.152
301.22	6.242
301.59	6.187
301.95	7.557
302.32	7.702
302.69	7.407
303.05	6.424
303.42	6.914
303.79	7.814
304.15	7.576
304.52	6.141
304.89	6.969
305.25	7.773
305.62	6.455
305.99	7.792
306.35	7.494
306.72	7.960
307.09	7.214
307.45	7.770
307.82	6.138
308.19	8.168
308.55	8.306
308.92	6.767
309.29	7.920
309.65	6.363
310.02	7.294
310.38	6.022
310.75	6.864
311.12	8.700
311.48	7.210
311.85	7.757
312.22	7.388
312.58	6.861
312.95	7.709
313.31	6.699
313.68	8.628
314.05	9.862
314.41	8.744
314.78	8.359
315.14	7.944
315.51	8.754
315.87	8.911
316.24	8.540
316.61	8.577
316.97	9.589
317.34	7.632
317.70	10.325
318.07	10.010
318.43	9.589
318.80	10.965
319.16	11.582
319.53	10.788
319.89	11.238
320.26	12.100
320.62	11.706
320.99	11.717
321.35	13.333
321.72	12.526
322.08	13.524
322.45	14.826
322.81	14.244
323.18	13.969
323.54	14.286
323.91	15.566
324.27	15.201
324.64	15.284
325.00	15.509
325.37	16.106
325.73	16.697
326.10	17.123
326.46	17.294
326.83	17.515
327.19	18.190
327.56	17.160
327.92	19.073
328.29	18.634
328.65	19.337
329.01	19.134
329.38	19.056
329.74	20.037
330.11	19.698
330.47	21.579
330.84	21.599
331.20	20.947
331.56	21.376
331.93	20.833
332.29	21.828
332.66	22.566
333.02	22.029
333.38	21.409
333.75	22.282
334.11	21.530
334.48	22.449
334.84	21.875
335.20	22.727
335.57	21.940
335.93	21.964
336.29	22.802
336.66	22.453
337.02	20.814
337.38	22.778
337.75	22.727
338.11	22.113
338.47	22.744
338.84	23.831
339.20	22.752
339.56	23.449
339.93	22.727
340.29	22.645
340.65	21.480
341.02	23.037
341.38	23.399
341.74	22.281
342.11	23.231
342.47	24.405
342.83	23.545
343.20	24.156
343.56	22.831
343.92	22.719
344.28	23.214
344.65	24.076
345.01	23.316
345.37	22.470
345.73	23.604
346.10	23.615
346.46	23.051
346.82	23.147
347.19	23.392
347.55	24.056
347.91	23.625
348.27	24.486
348.63	24.415
349.00	24.272
349.36	24.713
349.72	24.699
350.08	23.744
350.45	25.549
350.81	23.639
351.17	23.744
351.53	25.061
351.89	22.525
352.26	24.862
352.62	24.138
352.98	24.959
353.34	24.651
353.70	24.468
354.07	23.629
354.43	25.000
354.79	23.411
355.15	24.661
355.51	25.500
355.87	25.224
356.24	25.814
356.60	25.100
356.96	26.146
357.32	26.247
357.68	26.299
358.04	25.337
358.40	26.128
358.77	25.509
359.13	26.046
359.49	25.098
359.85	25.000
360.21	25.598
360.57	26.070
360.93	26.154
361.29	26.379
361.66	24.845
362.02	27.015
362.38	27.681
362.74	26.042
363.10	26.647
363.46	26.926
363.82	26.757
364.18	26.065
364.54	28.083
364.90	27.691
365.26	26.985
365.62	28.269
365.98	27.319
366.35	27.364
366.71	28.633
367.07	28.332
367.43	28.592
367.79	28.694
368.15	29.526
368.51	27.834
368.87	28.694
369.23	27.579
369.59	28.313
369.95	28.603
370.31	29.416
370.67	29.638
371.03	29.813
371.39	30.466
371.75	29.706
372.11	30.441
372.47	31.012
372.83	31.052
373.19	30.275
373.55	30.968
373.91	32.622
374.27	31.065
374.63	31.345
374.99	32.062
375.35	31.054
375.71	30.843
376.07	32.030
376.42	32.600
376.78	32.472
377.14	32.022
377.50	32.583
377.86	32.580
378.22	33.375
378.58	31.642
378.94	32.935
379.30	33.333
379.66	34.201
380.02	34.644
380.38	33.576
380.74	34.514
381.09	35.024
381.45	35.956
381.81	35.258
382.17	35.605
382.53	35.660
382.89	35.370
383.25	36.148
383.61	36.493
383.97	36.085
384.32	36.369
384.68	36.741
385.04	36.755
385.40	36.037
385.76	36.916
386.12	37.630
386.48	37.319
386.83	39.064
387.19	38.899
387.55	38.219
387.91	37.908
388.27	37.462
388.62	39.152
388.98	37.899
389.34	38.861
389.70	38.443
390.06	39.227
390.42	39.429
390.77	39.504
391.13	40.459
391.49	39.594
391.85	39.083
392.20	38.612
392.56	41.477
392.92	40.789
393.28	40.592
393.64	39.868
393.99	40.990
394.35	40.943
394.71	42.346
395.07	40.810
395.42	42.522
395.78	40.331
396.14	42.272
396.50	42.481
396.85	41.640
397.21	41.615
397.57	42.467
397.92	42.308
398.28	41.031
398.64	42.473
399.00	41.802
399.35	42.301
399.71	43.171
400.07	42.874
400.42	43.190
400.78	43.004
401.14	43.232
401.49	44.358
401.85	42.771
402.21	43.234
402.57	44.170
402.92	44.010
403.28	43.535
403.63	43.626
403.99	44.904
404.35	44.121
404.70	44.005
405.06	43.331
405.42	44.105
405.77	44.457
406.13	42.946
406.49	44.648
406.84	43.060
407.20	43.972
407.55	44.225
407.91	45.733
408.27	44.927
408.62	44.311
408.98	44.056
409.34	44.895
409.69	45.419
410.05	45.477
410.40	45.505
410.76	44.922
411.11	44.994
411.47	45.048
411.83	46.793
412.18	45.331
412.54	46.638
412.89	44.940
413.25	46.163
413.60	46.881
413.96	45.294
414.31	45.565
414.67	45.247
415.03	46.821
415.38	46.263
415.74	46.174
416.09	47.420
416.45	47.390
416.80	46.993
417.16	47.386
417.51	47.644
417.87	46.821
418.22	47.129
418.58	47.256
418.93	46.806
419.29	47.040
419.64	47.859
420.00	48.354
420.35	48.290
420.71	48.715
421.06	48.210
421.42	47.895
421.77	47.814
422.12	47.951
422.48	47.059
422.83	49.097
423.19	47.901
423.54	48.230
423.90	48.406
424.25	48.744
424.61	48.750
424.96	49.796
425.31	48.782
425.67	47.865
426.02	49.200
426.38	51.099
426.73	48.917
427.09	50.334
427.44	49.109
427.79	49.281
428.15	49.881
428.50	49.561
428.85	50.536
429.21	50.525
429.56	48.989
429.92	48.868
430.27	48.858
430.62	48.490
430.98	49.559
431.33	49.330
431.68	50.576
432.04	49.255
432.39	51.571
432.74	51.047
433.10	51.839
433.45	51.720
433.80	50.610
434.16	51.335
434.51	50.316
434.86	51.026
435.22	51.529
435.57	52.340
435.92	51.375
436.28	51.601
436.63	51.932
436.98	50.944
437.34	51.103
437.69	52.567
438.04	53.120
438.39	51.761
438.75	52.469
439.10	51.453
439.45	50.826
439.81	52.689
440.16	52.739
440.51	52.783
440.86	53.561
441.22	52.113
441.57	53.132
441.92	51.740
442.27	52.314
442.63	51.237
442.98	52.563
443.33	51.848
443.68	52.297
444.03	52.172
444.39	50.925
444.74	52.652
445.09	53.261
445.44	53.144
445.79	52.152
446.15	50.979
446.50	52.450
446.85	52.672
447.20	52.014
447.55	53.155
447.91	52.510
448.26	52.810
448.61	53.307
448.96	53.045
449.31	51.350
449.66	52.504
450.02	52.089
450.37	52.154
450.72	52.510
451.07	51.432
451.42	50.881
451.77	52.965
452.12	52.540
452.47	53.731
452.83	53.788
453.18	52.873
453.53	54.298
453.88	53.337
454.23	53.377
454.58	53.362
454.93	54.355
455.28	52.307
455.63	54.066
455.98	53.631
456.34	53.392
456.69	54.289
457.04	54.799
457.39	53.770
457.74	54.266
458.09	52.559
458.44	53.307
458.79	51.573
459.14	52.765
459.49	53.357
459.84	52.244
460.19	52.445
460.54	50.926
460.89	52.496
461.24	54.402
461.59	53.457
461.94	53.391
462.29	54.243
462.64	52.521
462.99	52.635
463.34	53.333
463.69	52.408
464.04	54.029
464.39	51.826
464.74	52.466
465.09	51.870
465.44	52.078
465.79	51.342
466.14	51.724
466.49	52.336
466.84	51.781
467.19	52.263
467.54	52.312
467.89	52.581
468.24	52.589
468.59	52.259
468.94	52.108
469.29	52.699
469.64	53.079
469.99	53.721
470.34	52.906
470.68	53.305
471.03	52.857
471.38	54.135
471.73	52.165
472.08	52.303
472.43	52.198
472.78	53.983
473.13	51.348
473.48	52.996
473.83	52.195
474.17	51.711
474.52	51.551
474.87	52.481
475.22	51.306
475.57	51.370
475.92	51.885
476.27	51.184
476.61	51.462
476.96	51.622
477.31	50.968
477.66	52.024
478.01	50.653
478.36	51.401
478.70	50.415
479.05	50.692
479.40	51.945
479.75	51.042
480.10	50.547
480.45	50.071
480.79	50.311
481.14	50.881
481.49	50.356
481.84	50.617
482.19	49.841
482.53	50.275
482.88	50.349
483.23	50.794
483.58	49.682
483.92	50.562
484.27	48.715
484.62	50.043
484.97	49.034
485.31	50.137
485.66	48.574
486.01	46.315
486.36	44.135
486.70	43.485
487.05	44.723
487.40	46.195
487.75	46.495
488.09	48.286
488.44	47.999
488.79	49.439
489.13	49.580
489.48	50.449
489.83	48.943
490.17	48.531
490.52	48.184
490.87	49.163
491.22	49.523
491.56	48.292
491.91	49.093
492.26	48.507
492.60	48.249
492.95	47.615
493.30	48.505
493.64	48.903
493.99	47.632
494.34	48.011
494.68	48.626
495.03	49.107
495.37	47.324
495.72	48.928
496.07	49.142
496.41	47.699
496.76	47.142
497.11	47.771
497.45	48.347
497.80	48.321
498.14	47.923
498.49	48.488
498.84	47.939
499.18	48.381
499.53	48.196
499.87	47.577
500.22	47.668
500.56	49.515
500.91	47.500
501.26	47.274
501.60	49.217
501.95	47.296
502.29	48.969
502.64	47.719
502.98	47.920
503.33	47.258
503.67	46.032
504.02	47.240
504.36	46.373
504.71	47.435
505.06	48.000
505.40	46.962
505.75	46.866
506.09	48.299
506.44	47.459
506.78	47.881
507.13	48.309
507.47	47.273
507.82	48.075
508.16	47.872
508.51	48.199
508.85	47.319
509.19	47.449
509.54	47.602
509.88	47.604
510.23	47.661
510.57	47.059
510.92	47.903
511.26	46.763
511.61	47.614
511.95	46.503
512.30	46.819
512.64	48.898
512.98	48.124
513.33	48.501
513.67	47.385
514.02	47.024
514.36	47.570
514.70	48.201
515.05	48.132
515.39	47.504
515.74	48.311
516.08	47.680
516.42	47.947
516.77	48.439
517.11	47.891
517.46	48.533
517.80	48.897
518.14	47.423
518.49	48.833
518.83	47.216
519.17	48.037
519.52	47.538
519.86	47.519
520.20	47.630
520.55	47.935
520.89	49.574
521.23	48.733
521.58	48.860
521.92	48.561
522.26	47.285
522.61	49.034
522.95	47.821
523.29	47.657
523.64	48.537
523.98	47.751
524.32	47.889
524.66	47.264
525.01	47.917
525.35	48.203
525.69	47.352
526.04	47.601
526.38	48.444
526.72	47.730
527.06	48.650
527.41	45.978
527.75	48.939
528.09	48.170
528.43	48.184
528.78	47.634
529.12	45.939
529.46	47.091
529.80	47.958
530.15	48.037
530.49	45.969
530.83	47.468
531.17	47.911
531.51	47.925
531.86	48.774
532.20	48.566
532.54	47.982
532.88	47.176
533.22	46.596
533.57	46.852
533.91	46.057
534.25	46.537
534.59	45.455
534.93	46.222
535.27	45.625
535.62	45.971
535.96	46.893
536.30	46.790
536.64	47.135
536.98	46.782
537.32	47.860
537.66	46.467
538.01	46.017
538.35	45.443
538.69	45.692
539.03	46.199
539.37	45.623
539.71	44.977
540.05	45.425
540.39	46.844
540.73	45.990
541.07	45.879
541.42	46.836
541.76	46.645
542.10	45.731
542.44	46.358
542.78	45.982
543.12	45.042
543.46	45.967
543.80	46.324
544.14	44.544
544.48	46.349
544.82	45.863
545.16	46.519
545.50	45.308
545.84	45.699
546.18	45.185
546.52	45.423
546.86	44.880
547.20	45.448
547.54	45.291
547.88	45.408
548.22	44.271
548.56	44.654
548.90	45.519
549.24	45.589
549.58	45.907
549.92	45.261
550.26	46.591
550.60	45.436
550.94	45.423
551.28	44.916
551.62	46.729
551.96	45.614
552.30	46.553
552.64	45.909
552.98	44.881
553.32	43.965
553.66	46.012
554.00	45.642
554.34	44.375
554.68	46.066
555.02	44.499
555.36	43.981
555.69	45.805
556.03	44.549
556.37	43.383
556.71	44.134
557.05	44.328
557.39	44.507
557.73	44.460
558.07	46.193
558.41	45.876
558.75	45.481
559.08	45.488
559.42	47.317
559.76	44.485
560.10	43.826
560.44	44.165
560.78	43.846
561.12	43.865
561.45	44.589
561.79	43.573
562.13	43.058
562.47	44.604
562.81	45.328
563.15	43.746
563.48	43.037
563.82	43.444
564.16	43.754
564.50	42.904
564.84	42.478
565.17	43.951
565.51	44.153
565.85	43.211
566.19	43.770
566.52	45.028
566.86	42.254
567.20	43.573
567.54	41.610
567.88	42.151
568.21	42.063
568.55	41.860
568.89	41.391
569.23	40.731
569.56	39.919
569.90	39.019
570.24	39.828
570.57	38.966
570.91	38.235
571.25	38.110
571.59	38.144
571.92	37.702
572.26	37.811
572.60	38.979
572.93	38.471
573.27	38.628
573.61	38.414
573.95	38.191
574.28	37.060
574.62	38.095
574.96	37.013
575.29	36.421
575.63	37.271
575.97	37.204
576.30	36.856
576.64	36.619
576.98	37.312
577.31	37.038
577.65	37.025
577.98	36.148
578.32	35.902
578.66	36.101
578.99	36.339
579.33	36.722
579.67	36.487
580.00	36.586
580.34	37.423
580.67	36.894
581.01	37.194
581.35	36.470
581.68	36.470
582.02	35.263
582.35	35.805
582.69	36.365
583.02	35.635
583.36	37.145
583.70	37.338
584.03	37.539
584.37	37.892
584.70	38.532
585.04	36.840
585.37	37.022
585.71	36.466
586.04	36.869
586.38	37.069
586.72	37.586
587.05	36.457
587.39	36.491
587.72	36.795
588.06	37.513
588.39	37.037
588.73	37.665
589.06	37.862
589.40	38.384
589.73	38.754
590.07	37.616
590.40	38.034
590.73	39.188
591.07	39.520
591.40	39.435
591.74	39.264
592.07	38.743
592.41	39.438
592.74	37.079
593.08	37.209
593.41	36.761
593.75	35.478
594.08	37.211
594.41	37.469
594.75	37.819
595.08	37.187
595.42	37.723
595.75	37.464
596.09	39.016
596.42	38.507
596.75	39.004
597.09	39.351
597.42	37.901
597.75	39.759
598.09	38.478
598.42	37.672
598.76	38.184
599.09	37.058
599.42	37.045
599.76	37.116
600.09	36.831
600.42	36.925
600.76	36.679
601.09	37.450
601.42	37.595
601.76	37.571
602.09	36.838
602.42	38.376
602.76	37.646
603.09	37.962
603.42	38.110
603.76	37.119
604.09	37.069
604.42	37.872
604.76	37.663
605.09	38.445
605.42	37.580
605.75	37.086
606.09	37.170
606.42	37.924
606.75	37.910
607.09	37.756
607.42	37.570
607.75	37.595
608.08	37.212
608.42	38.324
608.75	38.503
609.08	38.113
609.41	37.934
609.75	38.018
610.08	38.926
610.41	37.663
610.74	38.269
611.07	39.279
611.41	38.027
611.74	39.869
612.07	39.803
612.40	39.507
612.73	39.421
613.07	39.224
613.40	39.652
613.73	37.861
614.06	39.462
614.39	38.595
614.72	38.474
615.06	38.866
615.39	38.270
615.72	38.446
616.05	38.543
616.38	39.244
616.71	40.143
617.05	40.106
617.38	39.327
617.71	39.580
618.04	39.363
618.37	39.681
618.70	40.635
619.03	40.658
619.36	41.073
619.69	40.493
620.03	41.277
620.36	40.709
620.69	40.274
621.02	42.183
621.35	41.738
621.68	40.888
622.01	41.641
622.34	42.284
622.67	41.521
623.00	41.159
623.33	40.172
623.66	40.529
623.99	41.532
624.32	40.942
624.65	40.819
624.99	39.448
625.32	39.899
625.65	41.548
625.98	41.583
626.31	42.379
626.64	42.041
626.97	42.477
627.30	41.646
627.63	42.986
627.96	43.230
628.29	42.520
628.62	43.275
628.95	44.340
629.28	42.883
629.61	43.263
629.94	42.571
630.26	42.993
630.59	43.565
630.92	43.391
631.25	44.719
631.58	44.144
631.91	44.320
632.24	42.405
632.57	45.226
632.90	43.421
633.23	45.302
633.56	47.006
633.89	46.093
634.22	46.992
634.55	45.562
634.88	45.629
635.20	45.520
635.53	46.265
635.86	46.411
636.19	46.235
636.52	45.559
636.85	44.101
637.18	44.931
637.51	45.035
637.83	43.403
638.16	45.396
638.49	44.962
638.82	47.282
639.15	45.750
639.48	46.758
639.81	47.587
640.13	47.005
640.46	45.638
640.79	46.631
641.12	44.842
641.45	46.369
641.77	50.221
642.10	47.076
642.43	47.748
642.76	48.142
643.09	48.160
643.41	46.889
643.74	49.691
644.07	48.780
644.40	48.926
644.73	48.661
645.05	49.762
645.38	46.919
645.71	49.436
646.04	50.664
646.36	53.589
646.69	52.174
647.02	48.980
647.35	52.062
647.67	50.973
648.00	50.244
648.33	48.350
648.66	46.818
648.98	48.876
649.31	45.142
649.64	47.982
649.96	46.051
650.29	47.077
650.62	46.440
650.94	51.864
651.27	49.831
651.60	48.419
651.92	49.042
652.25	48.697
652.58	48.754
652.90	48.025
653.23	44.838
653.56	45.354
653.88	48.336
654.21	48.815
654.54	50.165
654.86	46.262
655.19	44.324
655.52	32.397
655.84	27.801
656.17	36.172
656.49	48.460
656.82	49.966
657.15	38.119
657.47	28.632
657.80	22.250
658.13	23.540
658.45	35.600
658.78	36.152
659.10	38.214
659.43	41.661
659.75	42.519
660.08	45.949
660.41	50.093
660.73	53.113
661.06	50.318
661.38	53.818
661.71	52.308
662.03	52.071
662.36	51.093
662.68	49.197
663.01	51.313
663.33	52.017
663.66	51.261
663.98	50.540
664.31	49.790
664.63	49.190
664.96	50.101
665.28	52.049
665.61	50.292
665.93	50.101
666.26	49.696
666.58	50.628
666.91	53.277
667.23	55.056
667.56	50.972
667.88	52.137
668.21	51.812
668.53	51.627
668.86	49.567
669.18	53.092
669.50	49.783
669.83	53.159
670.15	54.222
670.48	50.109
670.80	53.017
671.13	49.682
671.45	50.851
671.77	51.527
672.10	46.765
672.42	48.410
672.75	45.771
673.07	46.831
673.39	45.570
673.72	49.609
674.04	47.059
674.37	47.184
674.69	50.307
675.01	48.954
675.34	49.281
675.66	53.474
675.98	48.473
676.31	52.941
676.63	50.318
676.95	49.686
677.28	49.533
677.60	51.868
677.92	50.422
678.25	49.487
678.57	50.199
678.89	49.699
679.22	47.741
679.54	46.756
679.86	48.991
680.18	47.764
680.51	48.582
680.83	46.619
681.15	50.189
681.48	48.960
681.80	50.097
682.12	49.234
682.44	47.002
682.77	49.491
683.09	51.717
683.41	52.772
683.73	51.876
684.06	51.033
684.38	47.945
684.70	49.806
685.02	48.593
685.34	46.154
685.67	44.406
685.99	43.471
686.31	46.246
686.63	45.583
686.96	45.536
687.28	46.570
687.60	43.841
687.92	47.715
688.24	46.958
688.56	49.799
688.89	48.340
689.21	50.873
689.53	51.566
689.85	51.441
690.17	48.654
690.49	52.229
690.82	50.935
691.14	46.652
691.46	47.257
691.78	49.197
692.10	48.760
692.42	48.303
692.74	46.058
693.06	48.936
693.39	48.460
693.71	47.817
694.03	48.421
694.35	49.134
694.67	45.309
694.99	52.439
695.31	48.039
695.63	50.957
695.95	52.078
696.27	45.178
696.59	52.073
696.91	53.886
697.23	47.653
697.56	46.055
697.88	44.172
698.20	46.458
698.52	46.882
698.84	48.552
699.16	46.774
699.48	52.257
699.80	50.242
700.12	51.429
700.44	51.989
700.76	56.077
701.08	51.149
701.40	54.190
701.72	53.353
702.04	53.409
702.36	50.425
702.68	53.541
703.00	57.341
703.32	50.798
703.64	49.330
703.96	51.532
704.28	54.651
704.60	54.839
704.91	55.490
705.23	52.493
705.55	61.462
705.87	56.811
706.19	57.244
706.51	53.894
706.83	54.848
707.15	53.782
707.47	46.970
707.79	51.597
708.11	46.804
708.43	49.048
708.74	47.194
709.06	49.610
709.38	52.493
709.70	52.326
710.02	54.006
710.34	51.818
710.66	52.836
710.98	50.568
711.29	54.070
711.61	51.622
711.93	52.564
712.25	57.556
712.57	58.824
712.89	55.017
713.20	51.976
713.52	55.263
713.84	51.582
714.16	53.049
714.48	52.874
714.80	55.623
715.11	54.179
715.43	51.632
715.75	48.986
716.07	55.272
716.39	54.232
716.70	54.817
717.02	59.353
717.34	54.417
717.66	57.463
717.97	56.574
718.29	55.185
718.61	59.489
718.93	56.250
719.24	55.017
719.56	54.915
719.88	56.949
720.20	55.743
720.51	55.401
720.83	57.993
721.15	54.478
721.46	52.837
721.78	56.272
722.10	59.623
722.42	57.519
722.73	54.682
723.05	61.066
723.37	59.109
723.68	57.143
724.00	55.285
724.32	58.871
724.63	58.943
724.95	56.904
725.27	59.919
725.58	58.203
725.90	55.474
726.22	58.113
726.53	54.167
726.85	53.925
727.16	51.601
727.48	57.447
727.80	57.955
728.11	53.261
728.43	53.462
728.74	52.688
729.06	59.489
729.38	57.721
729.69	52.669
730.01	52.901
730.32	52.778
730.64	52.508
730.96	49.835
731.27	53.974
731.59	50.459
731.90	46.647
732.22	53.106
732.53	47.988
732.85	51.282
733.16	50.482
733.48	53.821
733.80	51.623
734.11	53.185
734.43	50.592
734.74	50.571
735.06	52.722
735.37	51.734
735.69	51.911
736.00	50.654
736.32	50.779
736.63	49.840
736.95	53.674
737.26	45.918
737.58	48.710
737.89	53.512
738.21	56.314
738.52	52.500
738.83	48.679
739.15	51.923
739.46	52.920
739.78	50.000
740.09	49.231
740.41	54.839
740.72	50.523
741.04	54.074
741.35	53.750
741.66	61.333
741.98	60.849
742.29	61.722
742.61	60.776
742.92	56.109
743.23	58.974
743.55	59.600
743.86	57.895
744.18	68.584
744.49	61.722
744.80	61.033
745.12	63.636
745.43	56.828
745.74	59.009
746.06	55.963
746.37	60.538
746.68	62.443
747.00	60.648
747.31	62.857
747.62	54.425
747.94	57.709
748.25	53.617
748.56	57.269
748.88	63.366
749.19	67.000
749.50	60.000
749.82	55.691
750.13	50.204
750.44	52.920
750.75	55.439
751.07	51.447
751.38	52.962
751.69	52.347
752.01	54.887
752.32	48.736
752.63	49.291
752.94	57.377
753.26	64.000
753.57	54.878
753.88	55.859
754.19	50.357
754.51	52.431
754.82	50.181
755.13	55.094
755.44	58.271
755.75	50.365
756.07	53.546
756.38	48.905
756.69	50.671
757.00	49.401
757.31	48.071
757.63	48.538
757.94	42.091
758.25	45.343
758.56	43.951
758.87	41.667
759.18	50.303
759.50	44.828
759.81	47.040
760.12	44.062
760.43	44.699
760.74	45.109
761.05	48.870
761.36	43.316
761.67	48.864
761.99	47.516
762.30	50.347
762.61	52.672
762.92	50.781
763.23	55.462
763.54	56.000
763.85	51.953
764.16	55.769
764.47	52.471
764.78	44.523
765.10	39.241
765.41	47.198
765.72	50.000
766.03	45.141
766.34	47.667
766.65	57.872
766.96	56.838
767.27	61.421
767.58	59.896
767.89	63.684
768.20	62.644
768.51	57.360
768.82	56.881
769.13	53.252
769.44	49.393
769.75	55.365
770.06	48.624
770.37	63.348
770.68	55.556
770.99	50.667
771.30	51.230
771.61	55.605
771.92	51.639
772.23	59.244
772.54	55.385
772.85	58.639
773.16	60.106
773.47	60.870
773.78	59.391
774.09	60.119
774.39	60.819
774.70	65.432
775.01	80.435
775.32	72.549
775.63	68.421
775.94	74.820
776.25	80.315
776.56	67.164
776.87	78.689
777.18	73.438
777.48	78.626
777.79	73.485
778.10	72.593
778.41	83.036
778.72	70.073
779.03	63.758
779.34	69.799
779.65	62.838
779.95	65.644
780.26	70.588
780.57	64.828
780.88	78.906
781.19	70.677
781.50	72.973
781.80	64.151
782.11	62.147
782.42	62.658
782.73	60.123
783.04	60.135
783.34	68.310
783.65	63.699
783.96	80.597
784.27	65.734
784.57	64.029
784.88	75.926
785.19	80.952
785.50	75.472
785.81	79.104
786.11	76.230
786.42	81.395
786.73	76.991
787.04	79.245
787.34	75.000
787.65	85.000
787.96	75.676
788.26	71.074
788.57	83.898
788.88	80.165
789.19	72.917
789.49	82.576
789.80	67.176
790.11	96.190
790.41	90.099
790.72	85.542
791.03	91.304
791.33	90.698
791.64	98.969
791.95	82.178
792.25	93.333
792.56	101.299
792.87	108.974
793.17	105.063
793.48	79.310
793.79	89.655
794.09	86.364
794.40	80.672
794.70	73.529
795.01	64.444
795.32	66.906
795.62	57.480
795.93	75.000
796.23	84.071
796.54	92.941
796.85	91.892
797.15	107.042
797.46	106.061
797.76	108.434
798.07	84.810
798.37	103.077
798.68	100.000
798.99	81.690
799.29	100.000
799.60	86.364
799.90	95.890
800.21	122.388
800.51	106.897
800.82	126.316
801.12	113.115
801.43	107.576
801.73	102.703
802.04	104.762
802.34	92.593
802.65	125.000
802.95	122.034
803.26	100.000
803.56	84.286
803.87	104.615
804.17	120.588
804.48	157.407
804.78	113.793
805.09	101.471
805.39	138.462
805.70	114.286
806.00	116.393
806.30	107.576
806.61	87.805
806.91	94.937
807.22	100.000
807.52	98.507
807.83	116.901
808.13	114.062
808.43	108.333
808.74	82.895
809.04	102.899
809.35	117.910
809.65	98.684
809.95	124.194
810.26	108.475
810.56	111.111
810.86	159.091
811.17	173.810
811.47	123.333
811.77	127.778
812.08	130.909
812.38	126.000
812.69	166.667
812.99	159.091
813.29	130.612
813.59	130.952
813.90	136.735
814.20	125.455
814.50	100.000
814.81	116.176
815.11	130.612
815.41	109.836
815.72	140.476
816.02	130.909
816.32	147.619
816.62	127.500
816.93	136.585
817.23	140.476
817.53	129.545
817.84	178.788
818.14	154.348
818.44	151.111
818.74	197.059
819.04	150.000
819.35	140.000
819.65	173.529
819.95	214.286
820.25	215.000
820.56	182.051
820.86	156.818
821.16	155.814
821.46	153.846
821.76	128.000
822.07	205.714
822.37	165.000
822.67	218.182
822.97	115.686
823.27	228.571
823.57	159.459
823.88	187.500
824.18	216.667
824.48	157.143
824.78	220.000
825.08	204.167
825.38	167.568
825.69	134.146
825.99	250.000
826.29	175.862
826.59	163.158
826.89	163.158
827.19	191.176
827.49	206.452
827.79	138.636
828.09	127.273
828.39	144.681
828.70	130.612
829.00	174.074
829.30	164.516
829.60	147.500
829.90	313.333
830.20	242.857
830.50	252.174
830.80	256.522
831.10	166.667
831.40	206.667
831.70	213.043
832.00	234.615
832.30	218.519
832.60	306.250
832.90	233.333
833.20	392.857
833.50	196.774
833.80	189.655
834.10	231.250
834.40	207.692
834.70	311.111
835.00	290.476
835.30	182.857
835.60	307.692
835.90	227.586
836.20	342.857
836.50	175.862
836.80	228.000
837.10	177.778
837.40	304.762
837.70	305.882
838.00	248.148
838.30	257.143
838.60	300.000
838.90	246.154
839.19	255.000
839.49	442.857
839.79	315.000
840.09	280.000
840.39	285.714
840.69	278.261
840.99	327.778
841.29	430.000
841.59	333.333
841.88	381.250
842.18	182.759
842.48	266.667
842.78	210.000
843.08	256.522
843.38	196.875
843.68	966.667
843.97	257.692
844.27	206.897
844.57	304.762
844.87	400.000
845.17	225.926
845.47	1733.333
845.76	566.667
846.06	288.235
846.36	512.500
846.66	357.143
846.96	343.750
847.25	418.182
847.55	418.182
847.85	317.391
848.15	550.000
848.44	321.429
848.74	255.556
849.04	317.647
849.34	570.000
849.63	268.421
849.93	463.636
850.23	980.000
850.53	407.143
850.82	2400.000
851.12	-5700.000
851.42	5200.000
851.71	260.000
852.01	-1000.000
852.31	241.667
852.61	1700.000
852.90	285.714
853.20	236.000
853.50	311.765
853.79	257.143
854.09	237.500
854.39	318.750
854.68	178.378
854.98	203.226
855.28	183.333
855.57	251.724
855.87	203.704
856.17	268.421
856.46	326.667
856.76	294.118
857.05	193.103
857.35	229.167
857.65	366.667
857.94	256.522
858.24	242.308
858.53	325.000
858.83	250.000
859.13	360.000
859.42	0.000
859.72	633.333
860.01	418.182
860.31	245.455
860.60	247.368
860.90	239.130
861.20	611.111
861.49	466.667
861.79	-5800.000
862.08	600.000
862.38	300.000
862.67	438.462
862.97	347.059
863.26	566.667
863.56	250.000
863.85	433.333
864.15	600.000
864.44	366.667
864.74	816.667
865.03	700.000
865.33	289.474
865.62	536.364
865.92	469.231
866.21	400.000
866.51	0.000
866.80	554.545
867.10	1060.000
867.39	415.385
867.69	381.818
867.98	268.421
868.27	463.636
868.57	315.789
868.86	-5100.000
869.16	362.500
869.45	1900.000
869.75	-4100.000
870.04	508.333
870.33	571.429
870.63	875.000
870.92	2500.000
871.22	857.143
871.51	400.000
871.80	290.476
872.10	414.286
>>>>>End Processed Spectral Data<<<<<
