SpectraSuite Data File
++++++++++++++++++++++++++++++++++++
Date: Wed May 13 16:36:54 PDT 2015
User: schluterlab
Dark Spectrum Present: Yes
Reference Spectrum Present: Yes
Number of Sampled Component Spectra: 1
Spectrometers: USB2E3373
Integration Time (usec): 3000 (USB2E3373)
Spectra Averaged: 3 (USB2E3373)
Boxcar Smoothing: 0 (USB2E3373)
Correct for Electrical Dark: No (USB2E3373)
Strobe/Lamp Enabled: No (USB2E3373)
Correct for Detector Non-linearity: No (USB2E3373)
Correct for Stray Light: No (USB2E3373)
Number of Pixels in Processed Spectrum: 2048
>>>>>Begin Processed Spectral Data<<<<<
178.53	0.000
178.91	-1625.000
179.29	-1400.000
179.67	-222.222
180.04	-1325.000
180.42	2300.000
180.80	1160.000
181.18	-1025.000
181.56	714.286
181.94	0.000
182.31	-742.857
182.69	1933.333
183.07	-587.500
183.45	-588.889
183.83	554.545
184.20	-410.000
184.58	2450.000
184.96	5400.000
185.34	-780.000
185.72	-500.000
186.09	-2550.000
186.47	2550.000
186.85	2700.000
187.23	4900.000
187.61	-1600.000
187.98	1475.000
188.36	636.364
188.74	481.818
189.12	-860.000
189.49	580.000
189.87	-3800.000
190.25	-1400.000
190.63	400.000
191.00	500.000
191.38	816.667
191.76	-1275.000
192.14	1375.000
192.51	612.500
192.89	950.000
193.27	562.500
193.65	-1075.000
194.02	540.000
194.40	940.000
194.78	610.000
195.15	441.667
195.53	710.000
195.91	-2200.000
196.29	312.500
196.66	321.053
197.04	-420.000
197.42	0.000
197.79	590.000
198.17	-5400.000
198.55	685.714
198.92	787.500
199.30	760.000
199.68	0.000
200.05	377.778
200.43	757.143
200.81	4500.000
201.18	1666.667
201.56	-1566.667
201.94	677.778
202.31	566.667
202.69	433.333
203.07	490.000
203.44	0.000
203.82	1400.000
204.19	828.571
204.57	400.000
204.95	787.500
205.32	1733.333
205.70	509.091
206.08	350.000
206.45	2800.000
206.83	325.000
207.20	933.333
207.58	660.000
207.96	327.778
208.33	625.000
208.71	-850.000
209.08	785.714
209.46	622.222
209.84	481.818
210.21	-1633.333
210.59	1475.000
210.96	-612.500
211.34	2150.000
211.71	650.000
212.09	783.333
212.46	0.000
212.84	1933.333
213.22	1400.000
213.59	-5300.000
213.97	866.667
214.34	657.143
214.72	545.455
215.09	900.000
215.47	-2700.000
215.84	-2650.000
216.22	1866.667
216.59	385.714
216.97	1450.000
217.34	500.000
217.72	-683.333
218.09	0.000
218.47	-4500.000
218.84	655.556
219.22	857.143
219.59	1666.667
219.97	-714.286
220.34	1020.000
220.72	-1900.000
221.09	364.286
221.47	1175.000
221.84	-950.000
222.22	0.000
222.59	1525.000
222.97	-2600.000
223.34	1180.000
223.72	423.077
224.09	1180.000
224.46	2150.000
224.84	-5400.000
225.21	-860.000
225.59	-4800.000
225.96	590.000
226.34	320.000
226.71	2450.000
227.08	675.000
227.46	460.000
227.83	-1175.000
228.21	-2600.000
228.58	566.667
228.95	-2800.000
229.33	-2400.000
229.70	1733.333
230.08	857.143
230.45	-940.000
230.82	400.000
231.20	783.333
231.57	785.714
231.95	533.333
232.32	240.909
232.69	390.909
233.07	757.143
233.44	369.231
233.81	-1733.333
234.19	300.000
234.56	466.667
234.93	358.333
235.31	463.636
235.68	361.538
236.05	328.571
236.43	163.636
236.80	263.158
237.17	4300.000
237.55	247.619
237.92	196.429
238.29	290.476
238.67	177.419
239.04	231.034
239.41	177.778
239.79	126.087
240.16	152.381
240.53	127.273
240.91	103.922
241.28	114.000
241.65	122.000
242.02	100.000
242.40	96.774
242.77	105.000
243.14	86.022
243.51	80.899
243.89	88.235
244.26	71.111
244.63	73.118
245.00	81.915
245.38	75.248
245.75	66.355
246.12	67.890
246.49	75.182
246.87	61.600
247.24	56.923
247.61	60.714
247.98	49.020
248.36	51.351
248.73	58.599
249.10	63.057
249.47	51.412
249.84	52.406
250.22	53.476
250.59	54.438
250.96	55.556
251.33	51.185
251.70	54.950
252.08	49.048
252.45	48.430
252.82	50.000
253.19	50.638
253.56	48.235
253.94	46.058
254.31	46.484
254.68	39.231
255.05	46.494
255.42	41.463
255.79	43.750
256.16	47.653
256.54	42.403
256.91	43.772
257.28	36.331
257.65	44.884
258.02	36.957
258.39	40.063
258.76	37.124
259.14	41.071
259.51	40.122
259.88	39.752
260.25	36.858
260.62	39.884
260.99	37.267
261.36	40.541
261.73	38.682
262.10	34.593
262.47	37.465
262.85	37.604
263.22	31.339
263.59	35.897
263.96	34.890
264.33	37.859
264.70	36.579
265.07	36.317
265.44	37.374
265.81	34.307
266.18	37.186
266.55	34.146
266.92	38.821
267.29	35.417
267.66	34.862
268.03	32.500
268.40	36.916
268.77	34.845
269.14	34.009
269.51	35.892
269.88	35.897
270.25	35.892
270.62	33.933
270.99	35.484
271.36	33.691
271.73	35.047
272.10	33.913
272.47	32.688
272.84	35.931
273.21	34.382
273.58	31.878
273.95	31.656
274.32	34.298
274.69	32.762
275.06	31.496
275.43	34.255
275.80	34.469
276.17	35.234
276.54	34.096
276.91	32.016
277.28	31.641
277.65	32.302
278.02	31.263
278.39	32.617
278.76	31.636
279.13	29.434
279.50	31.657
279.87	32.072
280.23	31.537
280.60	29.207
280.97	32.163
281.34	31.327
281.71	31.273
282.08	31.286
282.45	28.909
282.82	31.794
283.19	30.303
283.56	30.351
283.92	31.641
284.29	30.511
284.66	29.764
285.03	31.465
285.40	28.697
285.77	30.471
286.14	29.361
286.51	32.000
286.87	31.282
287.24	30.456
287.61	27.769
287.98	27.760
288.35	30.745
288.72	27.414
289.08	28.169
289.45	27.183
289.82	27.642
290.19	28.728
290.56	28.178
290.93	25.831
291.29	28.528
291.66	27.729
292.03	26.599
292.40	27.753
292.77	26.183
293.13	25.373
293.50	26.822
293.87	25.481
294.24	25.037
294.60	24.017
294.97	25.145
295.34	25.529
295.71	25.000
296.08	24.644
296.44	23.521
296.81	24.042
297.18	24.932
297.55	20.844
297.91	23.219
298.28	24.766
298.65	24.674
299.02	25.165
299.38	23.639
299.75	22.237
300.12	21.456
300.48	21.500
300.85	23.428
301.22	23.567
301.59	22.727
301.95	22.796
302.32	22.721
302.69	22.222
303.05	22.182
303.42	22.840
303.79	21.404
304.15	22.145
304.52	21.205
304.89	20.790
305.25	21.114
305.62	22.310
305.99	22.432
306.35	21.029
306.72	21.973
307.09	21.199
307.45	22.185
307.82	21.094
308.19	21.413
308.55	22.114
308.92	22.234
309.29	20.591
309.65	20.785
310.02	20.402
310.38	22.151
310.75	21.542
311.12	20.880
311.48	22.048
311.85	21.488
312.22	21.852
312.58	21.414
312.95	21.753
313.31	19.806
313.68	21.622
314.05	23.373
314.41	21.508
314.78	22.054
315.14	21.648
315.51	22.348
315.87	21.683
316.24	21.847
316.61	21.345
316.97	21.526
317.34	21.820
317.70	22.562
318.07	21.944
318.43	22.896
318.80	21.743
319.16	22.881
319.53	22.045
319.89	23.619
320.26	23.600
320.62	24.107
320.99	21.919
321.35	22.727
321.72	22.895
322.08	23.495
322.45	23.881
322.81	22.578
323.18	24.277
323.54	22.913
323.91	23.774
324.27	24.474
324.64	23.020
325.00	22.633
325.37	24.113
325.73	24.417
326.10	24.360
326.46	23.208
326.83	24.418
327.19	24.936
327.56	22.997
327.92	24.584
328.29	24.667
328.65	24.862
329.01	23.466
329.38	24.422
329.74	24.561
330.11	23.657
330.47	24.426
330.84	24.724
331.20	23.042
331.56	24.128
331.93	24.722
332.29	24.224
332.66	24.425
333.02	24.040
333.38	25.113
333.75	24.955
334.11	24.644
334.48	24.756
334.84	25.643
335.20	24.455
335.57	24.297
335.93	22.679
336.29	23.626
336.66	24.346
337.02	24.072
337.38	23.981
337.75	23.886
338.11	24.709
338.47	23.849
338.84	22.823
339.20	23.486
339.56	24.270
339.93	24.455
340.29	24.094
340.65	23.619
341.02	23.909
341.38	24.288
341.74	23.421
342.11	23.406
342.47	24.053
342.83	23.973
343.20	23.983
343.56	23.926
343.92	23.509
344.28	23.129
344.65	24.162
345.01	23.569
345.37	22.642
345.73	23.012
346.10	23.018
346.46	23.475
346.82	23.147
347.19	23.225
347.55	22.989
347.91	24.110
348.27	23.418
348.63	22.492
349.00	22.087
349.36	22.742
349.72	22.694
350.08	22.123
350.45	24.085
350.81	22.096
351.17	23.420
351.53	22.768
351.89	21.535
352.26	22.573
352.62	23.336
352.98	22.366
353.34	22.843
353.70	23.077
354.07	22.339
354.43	21.984
354.79	22.204
355.15	21.788
355.51	23.581
355.87	22.776
356.24	22.068
356.60	22.213
356.96	22.848
357.32	21.995
357.68	22.756
358.04	23.120
358.40	23.199
358.77	22.457
359.13	22.021
359.49	22.353
359.85	21.429
360.21	22.807
360.57	22.412
360.93	21.538
361.29	21.920
361.66	20.898
362.02	21.940
362.38	22.814
362.74	22.098
363.10	21.910
363.46	21.937
363.82	21.391
364.18	22.834
364.54	22.437
364.90	22.380
365.26	21.838
365.62	23.521
365.98	20.745
366.35	21.848
366.71	21.475
367.07	22.141
367.43	22.351
367.79	22.341
368.15	23.420
368.51	21.584
368.87	21.770
369.23	22.238
369.59	22.303
369.95	21.176
370.31	21.296
370.67	21.304
371.03	22.846
371.39	22.813
371.75	21.985
372.11	21.479
372.47	23.387
372.83	22.118
373.19	22.182
373.55	22.321
373.91	23.122
374.27	21.718
374.63	21.745
374.99	23.305
375.35	21.703
375.71	22.207
376.07	22.771
376.42	21.458
376.78	22.465
377.14	21.235
377.50	22.053
377.86	21.077
378.22	22.377
378.58	20.739
378.94	21.433
379.30	21.756
379.66	21.764
380.02	22.850
380.38	20.826
380.74	22.269
381.09	21.271
381.45	22.434
381.81	22.359
382.17	21.911
382.53	21.509
382.89	21.852
383.25	21.764
383.61	21.685
383.97	21.639
384.32	21.896
384.68	21.437
385.04	22.434
385.40	22.167
385.76	21.622
386.12	22.085
386.48	22.593
386.83	23.092
387.19	23.191
387.55	22.882
387.91	21.644
388.27	21.459
388.62	21.758
388.98	20.823
389.34	22.904
389.70	22.379
390.06	22.497
390.42	22.309
390.77	22.074
391.13	22.080
391.49	22.906
391.85	22.024
392.20	22.082
392.56	22.727
392.92	22.366
393.28	21.065
393.64	21.583
393.99	21.075
394.35	21.960
394.71	21.330
395.07	21.745
395.42	21.508
395.78	21.565
396.14	22.408
396.50	23.120
396.85	22.695
397.21	21.887
397.57	20.769
397.92	21.995
398.28	21.244
398.64	22.401
399.00	21.321
399.35	21.094
399.71	21.644
400.07	21.407
400.42	22.209
400.78	22.437
401.14	21.098
401.49	22.209
401.85	21.960
402.21	21.078
402.57	20.790
402.92	21.879
403.28	21.362
403.63	21.411
403.99	21.274
404.35	20.970
404.70	21.043
405.06	20.617
405.42	22.084
405.77	20.914
406.13	20.993
406.49	21.171
406.84	21.323
407.20	20.508
407.55	21.123
407.91	22.067
408.27	20.932
408.62	22.276
408.98	20.956
409.34	19.680
409.69	21.613
410.05	21.375
410.40	22.080
410.76	21.266
411.11	20.989
411.47	21.150
411.83	21.258
412.18	21.583
412.54	21.171
412.89	21.084
413.25	20.779
413.60	20.877
413.96	21.311
414.31	20.656
414.67	20.849
415.03	21.258
415.38	20.876
415.74	21.672
416.09	21.032
416.45	21.218
416.80	20.423
417.16	22.185
417.51	21.234
417.87	21.387
418.22	21.199
418.58	21.369
418.93	21.376
419.29	21.260
419.64	21.348
420.00	21.585
420.35	21.217
420.71	21.817
421.06	21.360
421.42	20.526
421.77	20.796
422.12	20.382
422.48	19.752
422.83	21.025
423.19	20.939
423.54	21.126
423.90	20.870
424.25	21.552
424.61	21.190
424.96	20.700
425.31	20.709
425.67	20.393
426.02	20.171
426.38	21.001
426.73	20.538
427.09	19.939
427.44	20.932
427.79	20.184
428.15	21.845
428.50	20.714
428.85	20.560
429.21	19.879
429.56	20.321
429.92	20.433
430.27	20.308
430.62	19.662
430.98	20.239
431.33	20.515
431.68	20.209
432.04	20.501
432.39	20.845
432.74	20.527
433.10	20.656
433.45	20.408
433.80	20.621
434.16	20.833
434.51	20.211
434.86	21.494
435.22	20.011
435.57	20.669
435.92	20.363
436.28	20.996
436.63	21.689
436.98	20.664
437.34	20.930
437.69	20.945
438.04	20.405
438.39	20.896
438.75	20.802
439.10	20.391
439.45	20.661
439.81	19.758
440.16	20.102
440.51	20.562
440.86	21.019
441.22	20.912
441.57	20.807
441.92	20.266
442.27	20.129
442.63	20.169
442.98	20.620
443.33	20.489
443.68	20.599
444.03	20.644
444.39	20.058
444.74	20.617
445.09	20.755
445.44	21.159
445.79	20.139
446.15	20.434
446.50	20.355
446.85	20.092
447.20	20.041
447.55	21.385
447.91	20.849
448.26	20.646
448.61	19.955
448.96	20.764
449.31	21.204
449.66	19.865
450.02	19.777
450.37	19.955
450.72	20.361
451.07	18.952
451.42	21.337
451.77	20.787
452.12	20.439
452.47	20.771
452.83	20.280
453.18	20.416
453.53	20.346
453.88	20.024
454.23	20.861
454.58	20.654
454.93	21.551
455.28	20.324
455.63	20.328
455.98	21.786
456.34	20.791
456.69	21.102
457.04	20.248
457.39	20.222
457.74	20.255
458.09	20.299
458.44	19.384
458.79	19.577
459.14	19.639
459.49	20.315
459.84	20.166
460.19	19.800
460.54	19.850
460.89	20.132
461.24	20.826
461.59	21.325
461.94	20.222
462.29	20.237
462.64	20.868
462.99	20.429
463.34	21.267
463.69	20.888
464.04	20.406
464.39	20.638
464.74	19.905
465.09	20.326
465.44	20.111
465.79	19.966
466.14	19.540
466.49	19.633
466.84	20.140
467.19	19.553
467.54	20.625
467.89	19.988
468.24	20.361
468.59	20.879
468.94	20.220
469.29	20.501
469.64	21.084
469.99	20.771
470.34	20.211
470.68	20.905
471.03	19.592
471.38	20.778
471.73	20.120
472.08	20.724
472.43	19.849
472.78	19.684
473.13	20.347
473.48	19.913
473.83	20.061
474.17	19.540
474.52	20.720
474.87	20.490
475.22	20.371
475.57	20.312
475.92	19.490
476.27	19.109
476.61	19.746
476.96	19.021
477.31	19.362
477.66	20.350
478.01	19.185
478.36	19.672
478.70	19.263
479.05	20.075
479.40	20.215
479.75	19.776
480.10	19.185
480.45	19.515
480.79	18.777
481.14	19.080
481.49	20.076
481.84	19.616
482.19	18.810
482.53	19.174
482.88	18.986
483.23	19.019
483.58	19.245
483.92	19.541
484.27	18.344
484.62	19.397
484.97	18.841
485.31	18.904
485.66	18.461
486.01	18.055
486.36	17.032
486.70	16.398
487.05	16.825
487.40	17.365
487.75	17.497
488.09	18.562
488.44	18.145
488.79	18.987
489.13	19.022
489.48	18.475
489.83	19.076
490.17	18.457
490.52	17.848
490.87	18.363
491.22	18.508
491.56	17.722
491.91	18.427
492.26	18.787
492.60	18.848
492.95	18.475
493.30	18.271
493.64	18.619
493.99	18.524
494.34	18.455
494.68	18.452
495.03	18.609
495.37	18.567
495.72	18.860
496.07	18.329
496.41	17.788
496.76	17.942
497.11	18.595
497.45	18.537
497.80	18.330
498.14	18.164
498.49	18.537
498.84	18.408
499.18	18.381
499.53	18.566
499.87	18.173
500.22	18.512
500.56	18.835
500.91	18.221
501.26	18.587
501.60	19.079
501.95	18.103
502.29	19.025
502.64	18.622
502.98	17.952
503.33	18.601
503.67	18.190
504.02	18.288
504.36	18.250
504.71	18.613
505.06	19.036
505.40	18.425
505.75	17.695
506.09	18.173
506.44	18.352
506.78	18.071
507.13	18.425
507.47	18.333
507.82	18.896
508.16	18.288
508.51	19.178
508.85	18.222
509.19	18.571
509.54	18.316
509.88	18.805
510.23	18.509
510.57	19.350
510.92	18.436
511.26	18.756
511.61	18.517
511.95	18.006
512.30	18.240
512.64	19.022
512.98	19.346
513.33	18.897
513.67	17.396
514.02	17.208
514.36	19.115
514.70	18.816
515.05	18.293
515.39	18.172
515.74	19.764
516.08	18.949
516.42	19.034
516.77	19.231
517.11	18.535
517.46	18.962
517.80	18.293
518.14	18.066
518.49	18.378
518.83	18.977
519.17	17.841
519.52	19.128
519.86	19.224
520.20	18.497
520.55	18.791
520.89	18.796
521.23	19.180
521.58	18.307
521.92	20.269
522.26	18.182
522.61	18.505
522.95	19.398
523.29	18.868
523.64	18.598
523.98	19.347
524.32	18.878
524.66	18.761
525.01	18.076
525.35	17.968
525.69	18.966
526.04	18.692
526.38	18.975
526.72	18.712
527.06	18.519
527.41	17.760
527.75	18.328
528.09	19.268
528.43	18.929
528.78	19.299
529.12	18.303
529.46	19.351
529.80	18.564
530.15	19.252
530.49	18.646
530.83	18.797
531.17	19.321
531.51	19.780
531.86	19.161
532.20	18.840
532.54	18.322
532.88	19.255
533.22	18.176
533.57	18.395
533.91	18.603
534.25	18.165
534.59	18.121
534.93	18.501
535.27	18.467
535.62	18.193
535.96	18.456
536.30	17.483
536.64	17.836
536.98	18.779
537.32	18.170
537.66	19.133
538.01	18.894
538.35	18.681
538.69	18.379
539.03	17.349
539.37	18.275
539.71	17.498
540.05	18.235
540.39	18.538
540.73	18.758
541.07	18.884
541.42	18.330
541.76	18.581
542.10	18.887
542.44	18.278
542.78	18.577
543.12	17.722
543.46	19.410
543.80	18.738
544.14	18.421
544.48	18.159
544.82	17.383
545.16	18.608
545.50	17.931
545.84	18.011
546.18	17.643
546.52	18.720
546.86	17.320
547.20	19.353
547.54	18.036
547.88	18.878
548.22	18.804
548.56	18.365
548.90	17.798
549.24	17.172
549.58	18.349
549.92	18.132
550.26	19.815
550.60	18.811
550.94	18.803
551.28	17.776
551.62	19.554
551.96	18.526
552.30	19.590
552.64	18.053
552.98	18.915
553.32	18.139
553.66	18.814
554.00	18.806
554.34	17.805
554.68	18.813
555.02	18.829
555.36	17.815
555.69	17.118
556.03	17.968
556.37	17.872
556.71	17.531
557.05	18.557
557.39	18.334
557.73	18.278
558.07	18.782
558.41	18.234
558.75	18.736
559.08	18.792
559.42	18.821
559.76	17.941
560.10	17.773
560.44	18.029
560.78	17.764
561.12	17.546
561.45	18.840
561.79	17.666
562.13	17.773
562.47	17.828
562.81	18.061
563.15	18.261
563.48	17.374
563.82	18.852
564.16	18.705
564.50	17.513
564.84	17.826
565.17	17.954
565.51	17.380
565.85	17.322
566.19	17.032
566.52	18.176
566.86	17.661
567.20	17.394
567.54	17.808
567.88	17.110
568.21	17.672
568.55	17.594
568.89	17.267
569.23	16.934
569.56	16.599
569.90	16.566
570.24	16.864
570.57	16.355
570.91	16.193
571.25	15.781
571.59	16.053
571.92	15.985
572.26	15.598
572.60	15.976
572.93	16.102
573.27	16.297
573.61	16.611
573.95	16.537
574.28	15.829
574.62	16.254
574.96	15.556
575.29	15.349
575.63	15.574
575.97	15.777
576.30	15.959
576.64	15.795
576.98	15.435
577.31	15.504
577.65	15.939
577.98	15.440
578.32	15.389
578.66	15.451
578.99	15.887
579.33	16.122
579.67	15.325
580.00	15.608
580.34	16.279
580.67	15.788
581.01	16.011
581.35	15.197
581.68	15.511
582.02	15.253
582.35	14.810
582.69	15.520
583.02	15.359
583.36	15.748
583.70	15.984
584.03	15.987
584.37	16.232
584.70	16.118
585.04	15.925
585.37	15.960
585.71	15.860
586.04	15.535
586.38	15.883
586.72	16.542
587.05	15.539
587.39	15.778
587.72	15.743
588.06	15.608
588.39	15.940
588.73	16.075
589.06	16.641
589.40	16.633
589.73	16.015
590.07	16.228
590.40	15.857
590.73	16.901
591.07	16.565
591.40	16.955
591.74	16.710
592.07	17.190
592.41	17.073
592.74	16.067
593.08	16.056
593.41	16.229
593.75	15.428
594.08	15.387
594.41	15.977
594.75	16.673
595.08	16.142
595.42	16.462
595.75	16.061
596.09	16.673
596.42	16.857
596.75	16.674
597.09	17.446
597.42	16.105
597.75	16.128
598.09	16.783
598.42	16.624
598.76	16.092
599.09	16.154
599.42	16.157
599.76	15.922
600.09	15.301
600.42	15.924
600.76	16.107
601.09	15.920
601.42	15.944
601.76	16.243
602.09	16.126
602.42	16.521
602.76	17.050
603.09	16.404
603.42	16.009
603.76	15.854
604.09	15.781
604.42	16.103
604.76	16.196
605.09	16.470
605.42	16.417
605.75	16.639
606.09	16.063
606.42	16.020
606.75	16.342
607.09	16.827
607.42	15.875
607.75	16.160
608.08	15.936
608.42	16.450
608.75	15.645
609.08	16.189
609.41	16.468
609.75	15.865
610.08	16.635
610.41	16.341
610.74	15.847
611.07	17.095
611.41	16.683
611.74	16.541
612.07	16.770
612.40	16.842
612.73	16.474
613.07	17.726
613.40	16.377
613.73	16.466
614.06	16.452
614.39	16.413
614.72	17.000
615.06	16.964
615.39	17.304
615.72	16.871
616.05	16.215
616.38	16.565
616.71	16.924
617.05	17.138
617.38	16.717
617.71	16.637
618.04	16.587
618.37	16.854
618.70	17.486
619.03	18.092
619.36	17.515
619.69	17.042
620.03	17.926
620.36	17.580
620.69	18.425
621.02	18.510
621.35	17.698
621.68	17.835
622.01	17.337
622.34	17.700
622.67	18.327
623.00	17.461
623.33	16.726
623.66	17.727
623.99	17.526
624.32	17.332
624.65	16.525
624.99	17.351
625.32	17.089
625.65	17.355
625.98	18.294
626.31	18.196
626.64	17.959
626.97	18.620
627.30	17.456
627.63	18.212
627.96	18.587
628.29	17.848
628.62	19.488
628.95	20.566
629.28	17.974
629.61	19.615
629.94	17.429
630.26	18.970
630.59	18.780
630.92	18.391
631.25	18.263
631.58	19.119
631.91	17.546
632.24	17.722
632.57	18.363
632.90	19.627
633.23	20.246
633.56	18.870
633.89	20.385
634.22	19.977
634.55	21.420
634.88	18.922
635.20	19.833
635.53	19.759
635.86	20.050
636.19	20.706
636.52	20.185
636.85	19.817
637.18	19.240
637.51	20.567
637.83	18.496
638.16	19.565
638.49	20.277
638.82	21.997
639.15	19.875
639.48	20.324
639.81	20.777
640.13	21.094
640.46	20.940
640.79	21.136
641.12	19.807
641.45	20.950
641.77	22.533
642.10	20.614
642.43	19.970
642.76	21.207
643.09	22.086
643.41	20.941
643.74	22.377
644.07	21.646
644.40	21.626
644.73	22.362
645.05	22.187
645.38	20.853
645.71	21.739
646.04	21.595
646.36	23.038
646.69	25.418
647.02	21.939
647.35	23.196
647.67	21.239
648.00	22.602
648.33	20.297
648.66	21.970
648.98	22.939
649.31	21.226
649.64	20.478
649.96	19.821
650.29	22.117
650.62	20.227
650.94	22.690
651.27	21.791
651.60	23.461
651.92	23.962
652.25	20.033
652.58	21.495
652.90	21.169
653.23	20.801
653.56	22.047
653.88	22.029
654.21	21.169
654.54	25.083
654.86	20.405
655.19	19.865
655.52	13.329
655.84	12.366
656.17	16.108
656.49	21.901
656.82	22.356
657.15	16.715
657.47	12.449
657.80	9.908
658.13	10.369
658.45	15.597
658.78	15.792
659.10	17.072
659.43	18.176
659.75	19.205
660.08	20.759
660.41	23.836
660.73	23.888
661.06	21.815
661.38	24.545
661.71	22.692
662.03	24.852
662.36	20.676
662.68	23.293
663.01	24.040
663.33	23.355
663.66	23.529
663.98	22.894
664.31	22.689
664.63	23.077
664.96	22.938
665.28	25.205
665.61	22.222
665.93	23.139
666.26	22.110
666.58	23.222
666.91	25.370
667.23	24.494
667.56	24.190
667.88	24.359
668.21	23.881
668.53	24.295
668.86	22.511
669.18	27.505
669.50	25.870
669.83	27.015
670.15	24.667
670.48	24.183
670.80	22.198
671.13	24.416
671.45	18.511
671.77	25.458
672.10	22.551
672.42	21.908
672.75	22.388
673.07	20.423
673.39	20.072
673.72	22.656
674.04	24.706
674.37	22.524
674.69	22.699
675.01	23.640
675.34	24.846
675.66	27.158
675.98	22.811
676.31	23.739
676.63	25.265
676.95	22.642
677.28	23.131
677.60	26.154
677.92	25.105
678.25	22.587
678.57	24.900
678.89	22.044
679.22	22.200
679.54	23.473
679.86	24.404
680.18	21.825
680.51	21.809
680.83	23.843
681.15	23.962
681.48	24.575
681.80	23.404
682.12	20.690
682.44	22.824
682.77	24.440
683.09	26.395
683.41	24.612
683.73	24.283
684.06	23.554
684.38	20.939
684.70	24.225
685.02	23.827
685.34	21.062
685.67	20.804
685.99	19.931
686.31	20.307
686.63	19.788
686.96	20.536
687.28	20.939
687.60	19.565
687.92	21.755
688.24	22.814
688.56	23.494
688.89	23.859
689.21	27.074
689.53	24.635
689.85	24.612
690.17	23.602
690.49	25.053
690.82	26.402
691.14	24.330
691.46	23.418
691.78	24.498
692.10	23.967
692.42	22.954
692.74	22.199
693.06	24.043
693.39	26.489
693.71	24.672
694.03	25.263
694.35	25.541
694.67	22.883
694.99	27.073
695.31	22.549
695.63	25.120
695.95	24.939
696.27	21.827
696.59	25.648
696.91	24.093
697.23	22.066
697.56	25.800
697.88	21.063
698.20	23.542
698.52	24.086
698.84	25.167
699.16	23.272
699.48	25.416
699.80	26.087
700.12	28.831
700.44	26.260
700.76	26.243
701.08	26.724
701.40	23.464
701.72	28.571
702.04	31.818
702.36	26.912
702.68	27.762
703.00	26.593
703.32	24.468
703.64	24.665
703.96	27.298
704.28	29.942
704.60	27.566
704.91	27.893
705.23	28.739
705.55	31.229
705.87	29.568
706.19	31.449
706.51	29.283
706.83	27.879
707.15	28.011
707.47	24.242
707.79	26.044
708.11	26.256
708.43	24.524
708.74	24.745
709.06	26.494
709.38	26.509
709.70	27.035
710.02	27.596
710.34	27.273
710.66	31.343
710.98	26.989
711.29	27.616
711.61	31.563
711.93	25.641
712.25	33.441
712.57	32.353
712.89	28.374
713.20	27.052
713.52	31.579
713.84	28.797
714.16	28.963
714.48	26.724
714.80	31.307
715.11	27.378
715.43	29.674
715.75	25.797
716.07	30.032
716.39	27.273
716.70	31.894
717.02	29.137
717.34	29.682
717.66	32.090
717.97	34.661
718.29	34.815
718.61	29.927
718.93	34.926
719.24	30.450
719.56	25.424
719.88	32.881
720.20	30.405
720.51	31.359
720.83	31.970
721.15	28.358
721.46	31.206
721.78	33.692
722.10	29.434
722.42	30.827
722.73	31.835
723.05	31.148
723.37	29.555
723.68	31.660
724.00	33.333
724.32	33.871
724.63	35.366
724.95	27.197
725.27	36.032
725.58	33.203
725.90	35.401
726.22	30.566
726.53	31.597
726.85	31.741
727.16	32.028
727.48	29.433
727.80	29.167
728.11	29.710
728.43	30.000
728.74	28.674
729.06	35.766
729.38	30.882
729.69	31.673
730.01	29.010
730.32	25.347
730.64	30.100
730.96	25.413
731.27	29.801
731.59	29.664
731.90	29.738
732.22	29.814
732.53	25.387
732.85	26.923
733.16	29.260
733.48	27.907
733.80	29.545
734.11	32.166
734.43	27.219
734.74	22.286
735.06	24.928
735.37	30.636
735.69	27.070
736.00	32.680
736.32	29.595
736.63	27.157
736.95	31.310
737.26	22.789
737.58	27.419
737.89	27.090
738.21	27.645
738.52	30.714
738.83	29.057
739.15	31.538
739.46	33.942
739.78	29.167
740.09	31.077
740.41	31.613
740.72	28.223
741.04	30.000
741.35	28.750
741.66	36.444
741.98	36.321
742.29	35.407
742.61	35.776
742.92	34.389
743.23	38.034
743.55	36.800
743.86	28.947
744.18	38.053
744.49	34.450
744.80	38.498
745.12	39.091
745.43	29.956
745.74	40.991
746.06	37.156
746.37	33.632
746.68	37.104
747.00	34.722
747.31	34.762
747.62	30.973
747.94	37.445
748.25	34.043
748.56	36.564
748.88	34.158
749.19	37.000
749.50	39.070
749.82	32.927
750.13	34.694
750.44	35.766
750.75	29.123
751.07	32.476
751.38	27.178
751.69	35.740
752.01	31.203
752.32	27.798
752.63	29.433
752.94	28.689
753.26	36.000
753.57	25.610
753.88	37.109
754.19	32.500
754.51	33.681
754.82	29.603
755.13	33.962
755.44	32.331
755.75	33.577
756.07	28.723
756.38	28.467
756.69	31.544
757.00	28.443
757.31	28.783
757.63	26.901
757.94	24.933
758.25	27.451
758.56	26.173
758.87	28.226
759.18	28.182
759.50	25.078
759.81	28.037
760.12	26.563
760.43	26.361
760.74	25.543
761.05	27.401
761.36	26.738
761.67	27.273
761.99	27.640
762.30	29.861
762.61	30.153
762.92	34.766
763.23	31.092
763.54	35.600
763.85	28.906
764.16	34.615
764.47	28.517
764.78	27.915
765.10	25.633
765.41	29.204
765.72	29.341
766.03	32.915
766.34	30.333
766.65	34.894
766.96	35.470
767.27	41.624
767.58	38.542
767.89	42.632
768.20	40.805
768.51	38.579
768.82	37.156
769.13	32.927
769.44	31.984
769.75	34.335
770.06	32.110
770.37	38.462
770.68	32.870
770.99	40.889
771.30	28.689
771.61	37.220
771.92	34.016
772.23	36.975
772.54	38.974
772.85	41.885
773.16	40.426
773.47	42.391
773.78	42.640
774.09	41.071
774.39	42.105
774.70	46.296
775.01	51.449
775.32	49.673
775.63	51.974
775.94	47.482
776.25	53.543
776.56	51.493
776.87	58.197
777.18	41.406
777.48	49.618
777.79	51.515
778.10	53.333
778.41	47.321
778.72	52.555
779.03	47.651
779.34	42.282
779.65	44.595
779.95	47.853
780.26	50.327
780.57	48.276
780.88	61.719
781.19	53.383
781.50	50.000
781.80	42.767
782.11	38.983
782.42	41.139
782.73	43.558
783.04	45.270
783.34	46.479
783.65	54.110
783.96	44.776
784.27	39.161
784.57	43.885
784.88	31.481
785.19	50.794
785.50	53.774
785.81	55.970
786.11	52.459
786.42	51.163
786.73	49.558
787.04	58.491
787.34	58.036
787.65	65.000
787.96	57.658
788.26	50.413
788.57	58.475
788.88	62.810
789.19	58.333
789.49	60.606
789.80	54.962
790.11	69.524
790.41	66.337
790.72	59.036
791.03	65.217
791.33	68.605
791.64	67.010
791.95	63.366
792.25	68.889
792.56	68.831
792.87	84.615
793.17	68.354
793.48	81.609
793.79	72.414
794.09	77.273
794.40	60.504
794.70	57.353
795.01	46.667
795.32	48.921
795.62	46.457
795.93	46.552
796.23	54.867
796.54	64.706
796.85	81.081
797.15	107.042
797.46	75.758
797.76	84.337
798.07	78.481
798.37	76.923
798.68	83.333
798.99	80.282
799.29	76.623
799.60	55.682
799.90	98.630
800.21	89.552
800.51	77.586
800.82	107.018
801.12	100.000
801.43	101.515
801.73	81.081
802.04	101.587
802.34	86.420
802.65	79.687
802.95	106.780
803.26	103.125
803.56	72.857
803.87	84.615
804.17	83.824
804.48	109.259
804.78	91.379
805.09	79.412
805.39	92.308
805.70	92.857
806.00	114.754
806.30	81.818
806.61	73.171
806.91	74.684
807.22	76.316
807.52	71.642
807.83	77.465
808.13	96.875
808.43	93.333
808.74	69.737
809.04	89.855
809.35	82.090
809.65	88.158
809.95	104.839
810.26	100.000
810.56	84.127
810.86	113.636
811.17	123.810
811.47	103.333
811.77	111.111
812.08	101.818
812.38	114.000
812.69	130.556
812.99	163.636
813.29	120.408
813.59	102.381
813.90	118.367
814.20	103.636
814.50	73.846
814.81	104.412
815.11	106.122
815.41	86.885
815.72	178.571
816.02	116.364
816.32	104.762
816.62	117.500
816.93	124.390
817.23	128.571
817.53	118.182
817.84	175.758
818.14	128.261
818.44	102.222
818.74	167.647
819.04	135.000
819.35	137.143
819.65	164.706
819.95	171.429
820.25	205.000
820.56	164.103
820.86	136.364
821.16	151.163
821.46	135.897
821.76	134.000
822.07	148.571
822.37	167.500
822.67	151.515
822.97	107.843
823.27	225.000
823.57	154.054
823.88	155.000
824.18	160.000
824.48	166.667
824.78	228.000
825.08	175.000
825.38	164.865
825.69	156.098
825.99	195.833
826.29	179.310
826.59	150.000
826.89	147.368
827.19	158.824
827.49	187.097
827.79	138.636
828.09	134.091
828.39	129.787
828.70	118.367
829.00	162.963
829.30	167.742
829.60	157.500
829.90	346.667
830.20	171.429
830.50	230.435
830.80	200.000
831.10	203.333
831.40	193.333
831.70	186.957
832.00	192.308
832.30	192.593
832.60	381.250
832.90	213.333
833.20	350.000
833.50	193.548
833.80	206.897
834.10	209.375
834.40	211.538
834.70	288.889
835.00	285.714
835.30	168.571
835.60	330.769
835.90	175.862
836.20	378.571
836.50	168.966
836.80	176.000
837.10	188.889
837.40	247.619
837.70	329.412
838.00	229.630
838.30	285.714
838.60	347.619
838.90	223.077
839.19	240.000
839.49	442.857
839.79	345.000
840.09	280.000
840.39	219.048
840.69	230.435
840.99	211.111
841.29	510.000
841.59	283.333
841.88	312.500
842.18	186.207
842.48	242.857
842.78	190.000
843.08	226.087
843.38	165.625
843.68	833.333
843.97	230.769
844.27	182.759
844.57	276.190
844.87	331.250
845.17	214.815
845.47	1466.667
845.76	544.444
846.06	305.882
846.36	512.500
846.66	371.429
846.96	287.500
847.25	427.273
847.55	400.000
847.85	204.348
848.15	460.000
848.44	300.000
848.74	205.556
849.04	311.765
849.34	520.000
849.63	236.842
849.93	400.000
850.23	940.000
850.53	428.571
850.82	2050.000
851.12	-3800.000
851.42	4800.000
851.71	265.000
852.01	-1166.667
852.31	208.333
852.61	1600.000
852.90	280.952
853.20	236.000
853.50	329.412
853.79	233.333
854.09	225.000
854.39	281.250
854.68	181.081
854.98	183.871
855.28	180.000
855.57	227.586
855.87	203.704
856.17	210.526
856.46	286.667
856.76	270.588
857.05	210.345
857.35	237.500
857.65	346.667
857.94	256.522
858.24	211.538
858.53	320.000
858.83	259.091
859.13	320.000
859.42	0.000
859.72	500.000
860.01	481.818
860.31	259.091
860.60	289.474
860.90	217.391
861.20	533.333
861.49	433.333
861.79	-5200.000
862.08	662.500
862.38	276.190
862.67	323.077
862.97	305.882
863.26	533.333
863.56	288.889
863.85	308.333
864.15	587.500
864.44	413.333
864.74	733.333
865.03	650.000
865.33	289.474
865.62	472.727
865.92	492.308
866.21	383.333
866.51	0.000
866.80	454.545
867.10	1040.000
867.39	453.846
867.69	381.818
867.98	268.421
868.27	509.091
868.57	284.211
868.86	-3500.000
869.16	368.750
869.45	2050.000
869.75	-4500.000
870.04	391.667
870.33	614.286
870.63	975.000
870.92	2300.000
871.22	657.143
871.51	317.647
871.80	200.000
872.10	292.857
>>>>>End Processed Spectral Data<<<<<
