SpectraSuite Data File
++++++++++++++++++++++++++++++++++++
Date: Wed May 13 16:09:26 PDT 2015
User: schluterlab
Dark Spectrum Present: Yes
Reference Spectrum Present: Yes
Number of Sampled Component Spectra: 1
Spectrometers: USB2E3373
Integration Time (usec): 3000 (USB2E3373)
Spectra Averaged: 3 (USB2E3373)
Boxcar Smoothing: 0 (USB2E3373)
Correct for Electrical Dark: No (USB2E3373)
Strobe/Lamp Enabled: No (USB2E3373)
Correct for Detector Non-linearity: No (USB2E3373)
Correct for Stray Light: No (USB2E3373)
Number of Pixels in Processed Spectrum: 2048
>>>>>Begin Processed Spectral Data<<<<<
178.53	0.000
178.91	-1125.000
179.29	-975.000
179.67	-155.556
180.04	-975.000
180.42	1800.000
180.80	780.000
181.18	-700.000
181.56	400.000
181.94	0.000
182.31	-485.714
182.69	1233.333
183.07	-475.000
183.45	-344.444
183.83	400.000
184.20	-260.000
184.58	1150.000
184.96	4200.000
185.34	-700.000
185.72	-362.500
186.09	-1150.000
186.47	1750.000
186.85	2150.000
187.23	3200.000
187.61	-1433.333
187.98	1000.000
188.36	436.364
188.74	372.727
189.12	-780.000
189.49	440.000
189.87	-2700.000
190.25	-750.000
190.63	307.143
191.00	353.846
191.38	683.333
191.76	-625.000
192.14	975.000
192.51	425.000
192.89	833.333
193.27	487.500
193.65	-775.000
194.02	400.000
194.40	480.000
194.78	330.000
195.15	341.667
195.53	520.000
195.91	-1300.000
196.29	268.750
196.66	226.316
197.04	-250.000
197.42	0.000
197.79	480.000
198.17	-3400.000
198.55	442.857
198.92	450.000
199.30	560.000
199.68	0.000
200.05	216.667
200.43	557.143
200.81	3100.000
201.18	1466.667
201.56	-966.667
201.94	433.333
202.31	500.000
202.69	308.333
203.07	440.000
203.44	0.000
203.82	925.000
204.19	485.714
204.57	300.000
204.95	487.500
205.32	866.667
205.70	427.273
206.08	271.429
206.45	2250.000
206.83	250.000
207.20	733.333
207.58	620.000
207.96	261.111
208.33	512.500
208.71	-400.000
209.08	585.714
209.46	455.556
209.84	445.455
210.21	-1000.000
210.59	1100.000
210.96	-250.000
211.34	1350.000
211.71	430.000
212.09	583.333
212.46	0.000
212.84	1600.000
213.22	975.000
213.59	-3400.000
213.97	716.667
214.34	471.429
214.72	427.273
215.09	820.000
215.47	-1450.000
215.84	-1650.000
216.22	1200.000
216.59	271.429
216.97	1050.000
217.34	300.000
217.72	-566.667
218.09	0.000
218.47	-3400.000
218.84	422.222
219.22	457.143
219.59	1133.333
219.97	-400.000
220.34	680.000
220.72	-1066.667
221.09	300.000
221.47	1250.000
221.84	-666.667
222.22	0.000
222.59	1150.000
222.97	-1850.000
223.34	800.000
223.72	284.615
224.09	860.000
224.46	1950.000
224.84	-3600.000
225.21	-580.000
225.59	-3700.000
225.96	410.000
226.34	200.000
226.71	2250.000
227.08	475.000
227.46	460.000
227.83	-675.000
228.21	-1500.000
228.58	522.222
228.95	-1950.000
229.33	-1450.000
229.70	1200.000
230.08	571.429
230.45	-540.000
230.82	325.000
231.20	600.000
231.57	414.286
231.95	358.333
232.32	177.273
232.69	345.455
233.07	571.429
233.44	276.923
233.81	-1000.000
234.19	226.316
234.56	391.667
234.93	308.333
235.31	409.091
235.68	276.923
236.05	257.143
236.43	142.424
236.80	215.789
237.17	4200.000
237.55	214.286
237.92	214.286
238.29	190.476
238.67	141.935
239.04	158.621
239.41	116.667
239.79	106.522
240.16	126.190
240.53	134.091
240.91	121.569
241.28	118.000
241.65	96.000
242.02	86.957
242.40	109.677
242.77	93.333
243.14	76.344
243.51	82.022
243.89	76.471
244.26	71.111
244.63	78.495
245.00	77.660
245.38	74.257
245.75	65.421
246.12	56.881
246.49	74.453
246.87	72.000
247.24	75.385
247.61	65.000
247.98	64.706
248.36	61.486
248.73	61.146
249.10	66.879
249.47	68.927
249.84	60.963
250.22	61.497
250.59	60.355
250.96	60.606
251.33	61.137
251.70	56.931
252.08	55.714
252.45	54.709
252.82	53.478
253.19	52.766
253.56	55.294
253.94	51.452
254.31	57.031
254.68	56.538
255.05	57.934
255.42	54.878
255.79	55.882
256.16	50.542
256.54	47.703
256.91	53.025
257.28	51.799
257.65	46.205
258.02	48.137
258.39	52.997
258.76	50.502
259.14	48.512
259.51	48.632
259.88	48.137
260.25	51.057
260.62	48.555
260.99	50.932
261.36	52.252
261.73	52.436
262.10	47.965
262.47	51.831
262.85	49.025
263.22	45.869
263.59	52.137
263.96	46.703
264.33	49.608
264.70	48.684
265.07	49.105
265.44	48.232
265.81	46.229
266.18	49.749
266.55	46.341
266.92	49.877
267.29	49.537
267.66	41.972
268.03	44.545
268.40	46.495
268.77	46.301
269.14	45.495
269.51	47.856
269.88	47.786
270.25	47.630
270.62	46.292
270.99	47.957
271.36	46.996
271.73	46.262
272.10	48.261
272.47	48.387
272.84	46.320
273.21	45.493
273.58	44.978
273.95	44.654
274.32	43.182
274.69	47.537
275.06	45.669
275.43	46.383
275.80	42.285
276.17	42.770
276.54	44.075
276.91	44.071
277.28	44.922
277.65	43.133
278.02	43.685
278.39	47.461
278.76	43.636
279.13	44.340
279.50	42.831
279.87	42.430
280.23	43.713
280.60	43.907
280.97	43.068
281.34	41.062
281.71	42.545
282.08	45.681
282.45	41.818
282.82	42.451
283.19	40.642
283.56	44.561
283.92	43.824
284.29	43.210
284.66	40.653
285.03	41.591
285.40	40.317
285.77	42.929
286.14	40.933
286.51	44.333
286.87	44.444
287.24	43.160
287.61	40.289
287.98	40.584
288.35	39.461
288.72	38.162
289.08	40.219
289.45	38.550
289.82	40.325
290.19	38.619
290.56	38.744
290.93	38.066
291.29	38.804
291.66	38.791
292.03	38.953
292.40	40.675
292.77	35.207
293.13	37.313
293.50	36.006
293.87	35.259
294.24	34.370
294.60	35.080
294.97	35.610
295.34	36.389
295.71	35.369
296.08	34.615
296.44	34.938
296.81	33.818
297.18	36.450
297.55	31.662
297.91	33.113
298.28	33.199
298.65	35.248
299.02	33.202
299.38	31.474
299.75	30.189
300.12	32.184
300.48	30.375
300.85	32.306
301.22	31.338
301.59	31.439
301.95	33.375
302.32	33.633
302.69	31.183
303.05	32.970
303.42	30.864
303.79	31.597
304.15	29.837
304.52	30.012
304.89	29.617
305.25	29.698
305.62	30.125
305.99	29.634
306.35	29.418
306.72	29.036
307.09	30.855
307.45	30.405
307.82	28.237
308.19	30.464
308.55	31.392
308.92	30.505
309.29	28.617
309.65	29.374
310.02	28.858
310.38	30.108
310.75	30.095
311.12	29.376
311.48	29.781
311.85	30.503
312.22	29.657
312.58	28.794
312.95	30.729
313.31	28.738
313.68	30.146
314.05	29.586
314.41	29.045
314.78	28.600
315.14	29.096
315.51	29.763
315.87	28.515
316.24	28.898
316.61	26.901
316.97	28.180
317.34	27.104
317.70	29.924
318.07	29.066
318.43	28.865
318.80	29.147
319.16	29.284
319.53	27.674
319.89	29.238
320.26	29.600
320.62	28.373
320.99	28.990
321.35	30.606
321.72	28.645
322.08	28.529
322.45	29.154
322.81	28.585
323.18	29.769
323.54	28.757
323.91	28.585
324.27	28.585
324.64	28.518
325.00	27.953
325.37	28.753
325.73	29.533
326.10	28.508
326.46	28.405
326.83	28.991
327.19	28.096
327.56	28.049
327.92	27.822
328.29	28.394
328.65	27.440
329.01	28.159
329.38	28.030
329.74	27.239
330.11	28.464
330.47	28.558
330.84	28.217
331.20	27.231
331.56	26.972
331.93	27.407
332.29	27.329
332.66	27.965
333.02	27.239
333.38	27.281
333.75	27.005
334.11	26.246
334.48	27.862
334.84	27.390
335.20	27.000
335.57	26.383
335.93	26.250
336.29	26.190
336.66	27.412
337.02	28.054
337.38	26.944
337.75	25.579
338.11	26.052
338.47	26.059
338.84	26.673
339.20	26.055
339.56	26.825
339.93	25.818
340.29	25.906
340.65	27.362
341.02	27.312
341.38	26.246
341.74	26.667
342.11	26.550
342.47	26.784
342.83	25.514
343.20	25.541
343.56	26.959
343.92	25.351
344.28	25.935
344.65	26.827
345.01	25.337
345.37	26.158
345.73	26.650
346.10	26.257
346.46	25.593
346.82	24.794
347.19	24.561
347.55	25.862
347.91	24.919
348.27	25.390
348.63	25.585
349.00	25.566
349.36	25.452
349.72	25.100
350.08	25.932
350.45	25.224
350.81	25.345
351.17	25.365
351.53	25.061
351.89	23.102
352.26	25.493
352.62	25.180
352.98	25.689
353.34	24.733
353.70	24.714
354.07	24.919
354.43	25.159
354.79	24.457
355.15	24.980
355.51	25.659
355.87	24.571
356.24	25.896
356.60	23.336
356.96	25.020
357.32	24.121
357.68	24.488
358.04	24.149
358.40	25.337
358.77	24.648
359.13	23.994
359.49	23.922
359.85	22.778
360.21	22.967
360.57	24.202
360.93	24.385
361.29	24.565
361.66	24.071
362.02	24.030
362.38	24.259
362.74	23.437
363.10	23.686
363.46	24.138
363.82	23.961
364.18	23.789
364.54	24.443
364.90	25.212
365.26	24.118
365.62	23.813
365.98	23.156
366.35	22.708
366.71	24.223
367.07	24.181
367.43	24.746
367.79	24.554
368.15	24.713
368.51	22.892
368.87	23.840
369.23	23.921
369.59	25.127
369.95	23.603
370.31	23.718
370.67	24.275
371.03	25.843
371.39	23.761
371.75	24.926
372.11	23.613
372.47	23.900
372.83	24.135
373.19	23.049
373.55	24.021
373.91	25.110
374.27	22.749
374.63	24.364
374.99	24.011
375.35	22.889
375.71	22.961
376.07	23.320
376.42	24.140
376.78	24.453
377.14	23.338
377.50	24.636
377.86	23.870
378.22	23.135
378.58	23.622
378.94	24.136
379.30	23.473
379.66	23.921
380.02	23.833
380.38	23.862
380.74	24.070
381.09	24.144
381.45	24.032
381.81	24.140
382.17	23.822
382.53	23.270
382.89	24.444
383.25	23.390
383.61	23.420
383.97	23.390
384.32	24.205
384.68	23.606
385.04	23.725
385.40	24.087
385.76	24.693
386.12	23.187
386.48	24.040
386.83	24.759
387.19	24.675
387.55	23.995
387.91	24.244
388.27	24.034
388.62	24.647
388.98	24.509
389.34	25.094
389.70	23.728
390.06	24.778
390.42	24.449
390.77	24.237
391.13	24.378
391.49	24.937
391.85	24.507
392.20	22.713
392.56	24.621
392.92	24.779
393.28	23.905
393.64	25.000
393.99	24.924
394.35	24.566
394.71	24.341
395.07	23.925
395.42	24.969
395.78	24.046
396.14	23.774
396.50	26.128
396.85	25.048
397.21	24.168
397.57	24.737
397.92	24.279
398.28	23.823
398.64	24.851
399.00	24.007
399.35	24.478
399.71	23.264
400.07	25.251
400.42	25.031
400.78	25.151
401.14	24.695
401.49	24.836
401.85	23.835
402.21	23.533
402.57	24.553
402.92	24.275
403.28	24.735
403.63	23.391
403.99	23.822
404.35	23.273
404.70	24.640
405.06	24.287
405.42	25.078
405.77	24.057
406.13	24.492
406.49	25.251
406.84	24.276
407.20	24.350
407.55	24.761
407.91	25.133
408.27	23.995
408.62	23.781
408.98	23.958
409.34	24.231
409.69	24.903
410.05	24.040
410.40	24.281
410.76	24.313
411.11	23.462
411.47	24.537
411.83	24.007
412.18	23.933
412.54	23.848
412.89	24.518
413.25	23.790
413.60	23.965
413.96	23.679
414.31	23.451
414.67	24.018
415.03	24.040
415.38	24.034
415.74	23.794
416.09	25.800
416.45	23.963
416.80	24.256
417.16	24.330
417.51	25.017
417.87	23.699
418.22	24.290
418.58	23.499
418.93	24.017
419.29	23.616
419.64	24.181
420.00	24.756
420.35	24.580
420.71	23.790
421.06	23.449
421.42	23.918
421.77	23.823
422.12	23.807
422.48	23.637
422.83	24.287
423.19	22.983
423.54	24.840
423.90	24.000
424.25	24.065
424.61	23.929
424.96	24.023
425.31	23.643
425.67	23.315
426.02	23.771
426.38	23.687
426.73	23.640
427.09	23.587
427.44	23.347
427.79	24.209
428.15	24.464
428.50	23.757
428.85	24.911
429.21	23.965
429.56	24.106
429.92	23.754
430.27	22.790
430.62	23.093
430.98	22.937
431.33	23.299
431.68	23.770
432.04	23.003
432.39	23.587
432.74	24.177
433.10	23.939
433.45	24.548
433.80	23.392
434.16	23.504
434.51	23.737
434.86	23.261
435.22	23.457
435.57	24.134
435.92	23.113
436.28	23.962
436.63	23.675
436.98	23.526
437.34	24.150
437.69	24.154
438.04	24.058
438.39	24.179
438.75	24.346
439.10	22.961
439.45	24.380
439.81	22.840
440.16	23.094
440.51	24.136
440.86	24.435
441.22	23.471
441.57	23.779
441.92	23.490
442.27	24.273
442.63	23.328
442.98	24.451
443.33	24.185
443.68	23.438
444.03	23.572
444.39	23.077
444.74	23.810
445.09	23.720
445.44	24.166
445.79	23.751
446.15	23.928
446.50	23.802
446.85	23.124
447.20	23.406
447.55	22.948
447.91	23.993
448.26	23.984
448.61	24.534
448.96	23.920
449.31	23.903
449.66	24.198
450.02	23.398
450.37	23.696
450.72	24.591
451.07	23.096
451.42	22.614
451.77	24.016
452.12	23.672
452.47	23.881
452.83	23.834
453.18	23.044
453.53	23.686
453.88	23.449
454.23	23.969
454.58	24.470
454.93	24.094
455.28	23.815
455.63	24.211
455.98	24.464
456.34	23.995
456.69	24.358
457.04	24.334
457.39	23.904
457.74	24.144
458.09	23.979
458.44	23.147
458.79	22.831
459.14	24.323
459.49	23.351
459.84	24.100
460.19	23.335
460.54	23.148
460.89	24.520
461.24	24.104
461.59	24.521
461.94	24.106
462.29	23.976
462.64	23.101
462.99	23.617
463.34	23.933
463.69	24.953
464.04	23.942
464.39	24.174
464.74	22.935
465.09	23.341
465.44	23.601
465.79	23.546
466.14	23.591
466.49	23.359
466.84	23.292
467.19	24.140
467.54	24.125
467.89	23.709
468.24	24.375
468.59	24.054
468.94	23.213
469.29	23.201
469.64	24.967
469.99	24.222
470.34	23.844
470.68	24.138
471.03	23.878
471.38	24.739
471.73	23.784
472.08	24.211
472.43	23.367
472.78	24.226
473.13	24.647
473.48	23.783
473.83	23.720
474.17	23.460
474.52	23.945
474.87	23.818
475.22	23.854
475.57	22.891
475.92	23.473
476.27	23.506
476.61	23.552
476.96	23.035
477.31	23.339
477.66	23.578
478.01	23.053
478.36	23.691
478.70	23.001
479.05	23.110
479.40	22.979
479.75	23.284
480.10	23.012
480.45	23.513
480.79	23.125
481.14	23.777
481.49	22.971
481.84	23.868
482.19	23.080
482.53	23.028
482.88	23.174
483.23	23.551
483.58	23.021
483.92	23.758
484.27	22.397
484.62	23.578
484.97	22.625
485.31	23.870
485.66	23.427
486.01	22.937
486.36	21.173
486.70	20.736
487.05	21.110
487.40	21.297
487.75	21.769
488.09	22.111
488.44	22.148
488.79	22.387
489.13	22.383
489.48	22.961
489.83	22.918
490.17	22.929
490.52	22.409
490.87	22.659
491.22	22.647
491.56	21.913
491.91	22.569
492.26	22.049
492.60	22.765
492.95	22.311
493.30	23.178
493.64	22.632
493.99	22.470
494.34	22.803
494.68	23.397
495.03	23.637
495.37	22.476
495.72	22.710
496.07	22.784
496.41	22.212
496.76	22.471
497.11	22.647
497.45	22.403
497.80	23.464
498.14	22.367
498.49	23.024
498.84	22.915
499.18	22.524
499.53	22.792
499.87	23.253
500.22	22.610
500.56	23.398
500.91	22.596
501.26	23.471
501.60	22.924
501.95	22.594
502.29	22.868
502.64	23.510
502.98	22.581
503.33	22.029
503.67	22.552
504.02	22.638
504.36	22.415
504.71	22.960
505.06	22.747
505.40	22.071
505.75	22.517
506.09	22.741
506.44	23.088
506.78	23.186
507.13	23.423
507.47	23.687
507.82	22.999
508.16	22.796
508.51	22.882
508.85	23.039
509.19	23.316
509.54	22.347
509.88	22.823
510.23	22.314
510.57	23.168
510.92	23.252
511.26	23.433
511.61	22.873
511.95	22.443
512.30	22.322
512.64	22.354
512.98	23.526
513.33	22.966
513.67	22.465
514.02	22.078
514.36	23.484
514.70	22.911
515.05	23.201
515.39	23.275
515.74	22.917
516.08	22.862
516.42	23.196
516.77	23.188
517.11	23.418
517.46	23.138
517.80	22.822
518.14	22.119
518.49	23.804
518.83	23.011
519.17	23.441
519.52	22.920
519.86	22.761
520.20	22.717
520.55	23.639
520.89	24.148
521.23	23.945
521.58	23.169
521.92	24.066
522.26	23.063
522.61	23.489
522.95	22.406
523.29	23.007
523.64	23.354
523.98	23.783
524.32	23.221
524.66	24.173
525.01	23.529
525.35	23.234
525.69	22.783
526.04	22.928
526.38	22.941
526.72	23.558
527.06	23.478
527.41	21.968
527.75	23.794
528.09	23.892
528.43	24.028
528.78	22.987
529.12	23.455
529.46	23.331
529.80	22.834
530.15	24.673
530.49	22.400
530.83	24.494
531.17	25.000
531.51	24.449
531.86	24.387
532.20	24.055
532.54	23.382
532.88	22.914
533.22	23.610
533.57	23.642
533.91	23.841
534.25	23.329
534.59	23.246
534.93	22.130
535.27	23.174
535.62	24.176
535.96	23.603
536.30	22.505
536.64	24.018
536.98	23.358
537.32	24.226
537.66	23.533
538.01	23.371
538.35	24.111
538.69	24.250
539.03	23.132
539.37	22.300
539.71	23.007
540.05	23.595
540.39	23.322
540.73	23.027
541.07	24.400
541.42	22.962
541.76	23.161
542.10	23.351
542.44	23.709
542.78	24.111
543.12	23.033
543.46	23.541
543.80	23.487
544.14	23.299
544.48	23.302
544.82	23.284
545.16	24.203
545.50	22.815
545.84	22.984
546.18	23.771
546.52	23.400
546.86	23.505
547.20	23.803
547.54	23.113
547.88	24.107
548.22	23.848
548.56	23.208
548.90	22.023
549.24	22.626
549.58	23.874
549.92	23.352
550.26	23.935
550.60	22.268
550.94	23.099
551.28	22.165
551.62	23.940
551.96	23.930
552.30	24.300
552.64	24.003
552.98	22.847
553.32	23.466
553.66	23.926
554.00	23.816
554.34	23.671
554.68	24.034
555.02	22.779
555.36	23.730
555.69	23.613
556.03	22.678
556.37	23.329
556.71	22.715
557.05	24.230
557.39	23.723
557.73	22.512
558.07	24.656
558.41	23.372
558.75	23.806
559.08	23.415
559.42	23.205
559.76	23.676
560.10	23.126
560.44	22.502
560.78	23.287
561.12	23.021
561.45	25.033
561.79	23.336
562.13	22.871
562.47	23.634
562.81	23.710
563.15	22.676
563.48	22.745
563.82	23.222
564.16	23.414
564.50	22.786
564.84	23.325
565.17	22.973
565.51	23.578
565.85	23.223
566.19	22.855
566.52	22.293
566.86	23.388
567.20	23.408
567.54	22.774
567.88	22.325
568.21	23.757
568.55	22.851
568.89	22.763
569.23	22.504
569.56	22.267
569.90	22.755
570.24	22.461
570.57	22.033
570.91	21.461
571.25	21.464
571.59	22.032
571.92	21.457
572.26	21.433
572.60	21.562
572.93	21.709
573.27	21.887
573.61	21.803
573.95	22.119
574.28	21.307
574.62	21.599
574.96	21.027
575.29	20.829
575.63	21.824
575.97	21.297
576.30	21.721
576.64	21.355
576.98	21.609
577.31	21.488
577.65	21.368
577.98	21.070
578.32	21.326
578.66	21.111
578.99	21.023
579.33	21.157
579.67	20.968
580.00	21.530
580.34	21.405
580.67	21.106
581.01	21.408
581.35	21.559
581.68	21.499
582.02	20.833
582.35	21.121
582.69	21.262
583.02	20.506
583.36	21.098
583.70	21.179
584.03	21.238
584.37	21.634
584.70	21.813
585.04	21.429
585.37	21.295
585.71	21.664
586.04	21.285
586.38	21.578
586.72	21.486
587.05	21.299
587.39	20.976
587.72	21.077
588.06	21.211
588.39	21.838
588.73	21.326
589.06	22.063
589.40	22.155
589.73	22.105
590.07	21.993
590.40	21.008
590.73	21.546
591.07	22.873
591.40	22.227
591.74	22.771
592.07	22.208
592.41	22.943
592.74	21.610
593.08	21.586
593.41	21.607
593.75	20.893
594.08	21.488
594.41	22.163
594.75	21.738
595.08	21.654
595.42	21.821
595.75	21.368
596.09	22.005
596.42	22.161
596.75	22.246
597.09	22.078
597.42	22.091
597.75	21.863
598.09	21.826
598.42	21.607
598.76	22.051
599.09	21.893
599.42	21.507
599.76	21.596
600.09	20.838
600.42	21.329
600.76	20.893
601.09	21.821
601.42	21.766
601.76	21.632
602.09	21.660
602.42	22.134
602.76	22.330
603.09	22.069
603.42	22.452
603.76	21.303
604.09	21.598
604.42	21.484
604.76	21.805
605.09	21.188
605.42	21.975
605.75	22.558
606.09	22.041
606.42	22.109
606.75	21.983
607.09	21.892
607.42	21.823
607.75	21.561
608.08	21.841
608.42	22.143
608.75	22.137
609.08	21.184
609.41	21.704
609.75	21.772
610.08	21.489
610.41	21.927
610.74	21.902
611.07	21.986
611.41	21.933
611.74	22.725
612.07	22.464
612.40	22.298
612.73	21.737
613.07	22.683
613.40	21.854
613.73	22.077
614.06	22.849
614.39	21.657
614.72	22.316
615.06	22.374
615.39	21.231
615.72	21.319
616.05	21.531
616.38	22.513
616.71	22.981
617.05	22.968
617.38	22.008
617.71	22.282
618.04	22.536
618.37	22.295
618.70	22.838
619.03	23.618
619.36	22.539
619.69	22.606
620.03	23.558
620.36	23.195
620.69	23.493
621.02	22.198
621.35	22.944
621.68	22.196
622.01	23.375
622.34	23.298
622.67	22.586
623.00	23.258
623.33	22.588
623.66	23.588
623.99	22.680
624.32	22.468
624.65	22.811
624.99	22.734
625.32	22.013
625.65	22.915
625.98	23.367
626.31	22.862
626.64	23.510
626.97	23.275
627.30	22.693
627.63	22.313
627.96	23.886
628.29	23.272
628.62	23.879
628.95	24.528
629.28	22.810
629.61	23.648
629.94	24.095
630.26	23.642
630.59	22.212
630.92	23.659
631.25	22.211
631.58	23.624
631.91	24.442
632.24	23.101
632.57	22.980
632.90	23.684
633.23	23.714
633.56	23.164
633.89	25.934
634.22	24.972
634.55	26.391
634.88	22.515
635.20	25.329
635.53	23.614
635.86	24.381
636.19	23.529
636.52	23.299
636.85	24.628
637.18	24.078
637.51	25.768
637.83	21.948
638.16	23.913
638.49	26.071
638.82	24.652
639.15	24.250
639.48	22.693
639.81	23.592
640.13	25.260
640.46	23.893
640.79	25.099
641.12	24.622
641.45	23.324
641.77	24.153
642.10	25.877
642.43	23.724
642.76	25.232
643.09	27.607
643.41	24.734
643.74	26.389
644.07	24.390
644.40	28.067
644.73	25.197
645.05	25.832
645.38	24.803
645.71	26.248
646.04	27.243
646.36	27.379
646.69	26.756
647.02	24.830
647.35	25.430
647.67	26.372
648.00	27.480
648.33	25.908
648.66	26.061
648.98	24.438
649.31	26.009
649.64	25.411
649.96	23.547
650.29	25.592
650.62	24.434
650.94	26.904
651.27	28.716
651.60	25.624
651.92	24.760
652.25	24.104
652.58	23.832
652.90	26.698
653.23	24.961
653.56	25.512
653.88	28.843
654.21	25.118
654.54	25.248
654.86	25.857
655.19	23.243
655.52	19.845
655.84	19.845
656.17	25.371
656.49	33.373
656.82	32.660
657.15	24.177
657.47	17.617
657.80	13.530
658.13	13.742
658.45	20.251
658.78	19.855
659.10	20.957
659.43	21.818
659.75	23.493
660.08	24.557
660.41	26.536
660.73	27.319
661.06	26.752
661.38	27.091
661.71	27.500
662.03	28.205
662.36	24.652
662.68	27.309
663.01	28.485
663.33	27.389
663.66	24.790
663.98	28.942
664.31	24.790
664.63	25.101
664.96	23.541
665.28	28.279
665.61	26.316
665.93	24.547
666.26	24.949
666.58	23.849
666.91	30.233
667.23	29.213
667.56	24.622
667.88	26.923
668.21	26.652
668.53	25.813
668.86	24.675
669.18	27.505
669.50	28.913
669.83	30.065
670.15	26.444
670.48	28.976
670.80	26.509
671.13	26.539
671.45	26.596
671.77	30.346
672.10	28.281
672.42	26.325
672.75	25.705
673.07	25.704
673.39	25.136
673.72	25.391
674.04	26.863
674.37	27.379
674.69	23.517
675.01	23.640
675.34	27.926
675.66	29.684
675.98	29.124
676.31	28.571
676.63	28.450
676.95	26.625
677.28	25.000
677.60	24.176
677.92	30.380
678.25	28.953
678.57	27.490
678.89	25.251
679.22	26.523
679.54	25.954
679.86	26.972
680.18	24.687
680.51	26.418
680.83	26.335
681.15	25.660
681.48	27.599
681.80	27.660
682.12	24.521
682.44	24.178
682.77	25.866
683.09	28.755
683.41	31.486
683.73	26.711
684.06	28.512
684.38	23.483
684.70	25.000
685.02	26.642
685.34	26.923
685.67	24.476
685.99	25.086
686.31	25.597
686.63	24.382
686.96	26.429
687.28	24.729
687.60	26.087
687.92	27.422
688.24	25.665
688.56	28.313
688.89	27.178
689.21	30.349
689.53	28.184
689.85	28.603
690.17	27.122
690.49	28.025
690.82	29.206
691.14	25.000
691.46	26.160
691.78	27.711
692.10	28.306
692.42	27.944
692.74	26.141
693.06	27.234
693.39	28.747
693.71	26.419
694.03	26.737
694.35	25.758
694.67	24.943
694.99	27.805
695.31	27.451
695.63	28.708
695.95	30.318
696.27	26.904
696.59	27.979
696.91	29.016
697.23	23.944
697.56	28.358
697.88	25.358
698.20	28.125
698.52	26.237
698.84	27.394
699.16	26.498
699.48	31.354
699.80	29.469
700.12	31.948
700.44	30.239
700.76	26.796
701.08	28.736
701.40	26.816
701.72	30.321
702.04	31.534
702.36	26.629
702.68	31.728
703.00	29.917
703.32	29.255
703.64	27.882
703.96	29.248
704.28	29.070
704.60	28.739
704.91	31.454
705.23	29.326
705.55	35.548
705.87	33.887
706.19	32.155
706.51	28.660
706.83	32.727
707.15	28.571
707.47	27.525
707.79	28.747
708.11	26.712
708.43	29.048
708.74	26.020
709.06	29.091
709.38	27.559
709.70	31.105
710.02	30.267
710.34	31.515
710.66	29.552
710.98	28.693
711.29	28.488
711.61	28.319
711.93	31.410
712.25	34.405
712.57	32.353
712.89	27.682
713.20	32.219
713.52	30.592
713.84	28.165
714.16	31.402
714.48	30.460
714.80	35.258
715.11	29.395
715.43	26.706
715.75	28.406
716.07	30.671
716.39	30.721
716.70	31.894
717.02	32.374
717.34	30.389
717.66	31.716
717.97	35.458
718.29	32.593
718.61	32.847
718.93	36.397
719.24	28.374
719.56	32.203
719.88	31.864
720.20	29.054
720.51	31.707
720.83	33.086
721.15	30.224
721.46	30.142
721.78	30.824
722.10	33.585
722.42	38.722
722.73	32.959
723.05	31.148
723.37	31.579
723.68	34.363
724.00	29.675
724.32	34.274
724.63	29.268
724.95	34.728
725.27	35.223
725.58	33.984
725.90	33.577
726.22	28.302
726.53	32.639
726.85	31.399
727.16	31.673
727.48	28.723
727.80	33.712
728.11	34.420
728.43	33.077
728.74	28.674
729.06	39.781
729.38	34.559
729.69	35.943
730.01	26.962
730.32	30.903
730.64	29.431
730.96	27.063
731.27	33.444
731.59	34.862
731.90	30.321
732.22	28.261
732.53	31.269
732.85	29.167
733.16	29.582
733.48	32.226
733.80	30.519
734.11	34.713
734.43	29.882
734.74	29.429
735.06	28.940
735.37	30.925
735.69	32.484
736.00	31.046
736.32	34.891
736.63	30.671
736.95	28.115
737.26	25.510
737.58	28.710
737.89	30.100
738.21	32.423
738.52	31.786
738.83	32.075
739.15	27.692
739.46	31.752
739.78	32.639
740.09	32.308
740.41	30.323
740.72	26.481
741.04	29.630
741.35	34.583
741.66	36.889
741.98	33.019
742.29	39.713
742.61	40.517
742.92	35.294
743.23	35.043
743.55	33.200
743.86	38.596
744.18	35.398
744.49	37.321
744.80	36.150
745.12	37.727
745.43	37.885
745.74	37.387
746.06	38.073
746.37	39.910
746.68	35.294
747.00	37.037
747.31	32.857
747.62	34.071
747.94	29.956
748.25	33.191
748.56	39.207
748.88	36.139
749.19	39.500
749.50	35.349
749.82	30.488
750.13	33.061
750.44	32.117
750.75	33.333
751.07	34.727
751.38	35.540
751.69	31.047
752.01	37.970
752.32	31.047
752.63	30.496
752.94	31.557
753.26	36.800
753.57	33.740
753.88	35.547
754.19	35.000
754.51	36.806
754.82	29.603
755.13	36.981
755.44	31.955
755.75	27.372
756.07	28.014
756.38	31.387
756.69	35.235
757.00	30.240
757.31	32.047
757.63	30.702
757.94	29.759
758.25	30.637
758.56	29.630
758.87	29.032
759.18	27.879
759.50	30.094
759.81	29.907
760.12	28.438
760.43	33.524
760.74	29.348
761.05	31.921
761.36	29.412
761.67	34.659
761.99	31.677
762.30	31.944
762.61	33.206
762.92	36.719
763.23	36.555
763.54	37.200
763.85	31.250
764.16	33.846
764.47	35.361
764.78	31.802
765.10	28.165
765.41	34.513
765.72	33.832
766.03	28.840
766.34	31.333
766.65	37.447
766.96	34.615
767.27	35.025
767.58	39.062
767.89	38.947
768.20	37.356
768.51	33.503
768.82	36.697
769.13	29.268
769.44	31.984
769.75	29.185
770.06	29.817
770.37	36.652
770.68	36.111
770.99	35.556
771.30	30.328
771.61	37.220
771.92	37.705
772.23	37.815
772.54	37.949
772.85	40.838
773.16	43.085
773.47	44.565
773.78	44.670
774.09	39.881
774.39	42.105
774.70	43.210
775.01	41.304
775.32	52.288
775.63	48.684
775.94	38.849
776.25	51.181
776.56	47.015
776.87	48.361
777.18	52.344
777.48	42.748
777.79	45.455
778.10	45.926
778.41	47.321
778.72	43.066
779.03	39.597
779.34	34.899
779.65	41.216
779.95	36.810
780.26	44.444
780.57	48.276
780.88	50.781
781.19	45.113
781.50	47.973
781.80	47.170
782.11	41.808
782.42	39.241
782.73	42.331
783.04	47.297
783.34	40.845
783.65	50.000
783.96	50.746
784.27	44.755
784.57	38.849
784.88	42.593
785.19	51.587
785.50	51.887
785.81	49.254
786.11	50.000
786.42	53.488
786.73	43.363
787.04	50.000
787.34	50.000
787.65	63.000
787.96	45.946
788.26	50.413
788.57	58.475
788.88	48.760
789.19	54.861
789.49	57.576
789.80	44.275
790.11	60.952
790.41	57.426
790.72	55.422
791.03	47.826
791.33	62.791
791.64	55.670
791.95	59.406
792.25	70.000
792.56	68.831
792.87	89.744
793.17	64.557
793.48	63.218
793.79	56.322
794.09	52.273
794.40	49.580
794.70	47.059
795.01	47.407
795.32	46.763
795.62	47.244
795.93	54.310
796.23	50.442
796.54	56.471
796.85	55.405
797.15	66.197
797.46	50.000
797.76	59.036
798.07	59.494
798.37	55.385
798.68	60.606
798.99	61.972
799.29	62.338
799.60	61.364
799.90	82.192
800.21	61.194
800.51	87.931
800.82	94.737
801.12	78.689
801.43	63.636
801.73	59.459
802.04	69.841
802.34	64.198
802.65	76.563
802.95	88.136
803.26	89.063
803.56	61.429
803.87	80.000
804.17	80.882
804.48	90.741
804.78	82.759
805.09	85.294
805.39	67.308
805.70	78.571
806.00	98.361
806.30	69.697
806.61	73.171
806.91	56.962
807.22	60.526
807.52	53.731
807.83	91.549
808.13	64.063
808.43	80.000
808.74	60.526
809.04	76.812
809.35	82.090
809.65	71.053
809.95	87.097
810.26	74.576
810.56	85.714
810.86	143.182
811.17	130.952
811.47	78.333
811.77	92.593
812.08	96.364
812.38	88.000
812.69	100.000
812.99	118.182
813.29	97.959
813.59	104.762
813.90	114.286
814.20	76.364
814.50	66.154
814.81	76.471
815.11	100.000
815.41	90.164
815.72	116.667
816.02	98.182
816.32	97.619
816.62	80.000
816.93	100.000
817.23	119.048
817.53	93.182
817.84	142.424
818.14	106.522
818.44	97.778
818.74	144.118
819.04	75.000
819.35	105.714
819.65	105.882
819.95	167.857
820.25	125.000
820.56	125.641
820.86	93.182
821.16	102.326
821.46	100.000
821.76	92.000
822.07	134.286
822.37	110.000
822.67	133.333
822.97	76.471
823.27	146.429
823.57	105.405
823.88	142.500
824.18	173.333
824.48	100.000
824.78	156.000
825.08	129.167
825.38	102.703
825.69	107.317
825.99	179.167
826.29	100.000
826.59	128.947
826.89	113.158
827.19	129.412
827.49	135.484
827.79	109.091
828.09	81.818
828.39	97.872
828.70	124.490
829.00	107.407
829.30	129.032
829.60	102.500
829.90	260.000
830.20	153.571
830.50	169.565
830.80	195.652
831.10	146.667
831.40	140.000
831.70	143.478
832.00	192.308
832.30	144.444
832.60	256.250
832.90	156.667
833.20	235.714
833.50	132.258
833.80	175.862
834.10	156.250
834.40	203.846
834.70	227.778
835.00	247.619
835.30	122.857
835.60	284.615
835.90	137.931
836.20	264.286
836.50	137.931
836.80	164.000
837.10	127.778
837.40	219.048
837.70	170.588
838.00	188.889
838.30	166.667
838.60	223.810
838.90	176.923
839.19	205.000
839.49	314.286
839.79	240.000
840.09	210.000
840.39	185.714
840.69	200.000
840.99	200.000
841.29	380.000
841.59	266.667
841.88	212.500
842.18	141.379
842.48	214.286
842.78	133.333
843.08	200.000
843.38	137.500
843.68	600.000
843.97	153.846
844.27	131.034
844.57	228.571
844.87	281.250
845.17	118.519
845.47	933.333
845.76	311.111
846.06	211.765
846.36	350.000
846.66	300.000
846.96	218.750
847.25	263.636
847.55	281.818
847.85	182.609
848.15	370.000
848.44	321.429
848.74	172.222
849.04	241.176
849.34	390.000
849.63	168.421
849.93	245.455
850.23	480.000
850.53	292.857
850.82	1350.000
851.12	-2900.000
851.42	4100.000
851.71	205.000
852.01	-600.000
852.31	183.333
852.61	1200.000
852.90	185.714
853.20	160.000
853.50	217.647
853.79	185.714
854.09	162.500
854.39	300.000
854.68	164.865
854.98	164.516
855.28	110.000
855.57	144.828
855.87	177.778
856.17	157.895
856.46	206.667
856.76	194.118
857.05	182.759
857.35	154.167
857.65	286.667
857.94	165.217
858.24	211.538
858.53	190.000
858.83	181.818
859.13	240.000
859.42	0.000
859.72	422.222
860.01	281.818
860.31	195.455
860.60	200.000
860.90	178.261
861.20	355.556
861.49	333.333
861.79	-3100.000
862.08	512.500
862.38	209.524
862.67	169.231
862.97	252.941
863.26	455.556
863.56	155.556
863.85	341.667
864.15	462.500
864.44	306.667
864.74	500.000
865.03	412.500
865.33	184.211
865.62	381.818
865.92	330.769
866.21	291.667
866.51	0.000
866.80	318.182
867.10	880.000
867.39	323.077
867.69	390.909
867.98	252.632
868.27	300.000
868.57	231.579
868.86	-2300.000
869.16	206.250
869.45	1500.000
869.75	-2500.000
870.04	333.333
870.33	485.714
870.63	775.000
870.92	1600.000
871.22	600.000
871.51	258.824
871.80	138.095
872.10	221.429
>>>>>End Processed Spectral Data<<<<<
