SpectraSuite Data File
++++++++++++++++++++++++++++++++++++
Date: Wed May 13 16:44:30 PDT 2015
User: schluterlab
Dark Spectrum Present: Yes
Reference Spectrum Present: Yes
Number of Sampled Component Spectra: 1
Spectrometers: USB2E3373
Integration Time (usec): 3000 (USB2E3373)
Spectra Averaged: 3 (USB2E3373)
Boxcar Smoothing: 0 (USB2E3373)
Correct for Electrical Dark: No (USB2E3373)
Strobe/Lamp Enabled: No (USB2E3373)
Correct for Detector Non-linearity: No (USB2E3373)
Correct for Stray Light: No (USB2E3373)
Number of Pixels in Processed Spectrum: 2048
>>>>>Begin Processed Spectral Data<<<<<
178.53	0.000
178.91	-1250.000
179.29	-1225.000
179.67	-233.333
180.04	-1075.000
180.42	2500.000
180.80	1240.000
181.18	-1350.000
181.56	700.000
181.94	0.000
182.31	-657.143
182.69	1900.000
183.07	-487.500
183.45	-566.667
183.83	381.818
184.20	-400.000
184.58	2300.000
184.96	5500.000
185.34	-760.000
185.72	-550.000
186.09	-2250.000
186.47	2450.000
186.85	2500.000
187.23	4600.000
187.61	-1633.333
187.98	1450.000
188.36	481.818
188.74	518.182
189.12	-920.000
189.49	520.000
189.87	-4300.000
190.25	-1200.000
190.63	407.143
191.00	423.077
191.38	700.000
191.76	-1150.000
192.14	1275.000
192.51	662.500
192.89	900.000
193.27	562.500
193.65	-925.000
194.02	500.000
194.40	980.000
194.78	500.000
195.15	400.000
195.53	650.000
195.91	-1800.000
196.29	287.500
196.66	310.526
197.04	-380.000
197.42	0.000
197.79	640.000
198.17	-4800.000
198.55	628.571
198.92	725.000
199.30	740.000
199.68	0.000
200.05	355.556
200.43	771.429
200.81	3900.000
201.18	1733.333
201.56	-1600.000
201.94	522.222
202.31	566.667
202.69	408.333
203.07	540.000
203.44	0.000
203.82	1250.000
204.19	814.286
204.57	471.429
204.95	625.000
205.32	1400.000
205.70	609.091
206.08	400.000
206.45	2750.000
206.83	368.750
207.20	950.000
207.58	860.000
207.96	311.111
208.33	687.500
208.71	-916.667
209.08	771.429
209.46	600.000
209.84	536.364
210.21	-1733.333
210.59	1275.000
210.96	-512.500
211.34	2650.000
211.71	520.000
212.09	933.333
212.46	0.000
212.84	1633.333
213.22	1275.000
213.59	-3900.000
213.97	733.333
214.34	771.429
214.72	527.273
215.09	1060.000
215.47	-1900.000
215.84	-2550.000
216.22	1633.333
216.59	442.857
216.97	1325.000
217.34	463.636
217.72	-550.000
218.09	0.000
218.47	-4200.000
218.84	577.778
219.22	728.571
219.59	1533.333
219.97	-642.857
220.34	900.000
220.72	-1933.333
221.09	392.857
221.47	1175.000
221.84	-866.667
222.22	0.000
222.59	1150.000
222.97	-2250.000
223.34	1180.000
223.72	392.308
224.09	860.000
224.46	2000.000
224.84	-5300.000
225.21	-920.000
225.59	-5200.000
225.96	590.000
226.34	250.000
226.71	2450.000
227.08	662.500
227.46	570.000
227.83	-1000.000
228.21	-1600.000
228.58	522.222
228.95	-2550.000
229.33	-1900.000
229.70	1566.667
230.08	814.286
230.45	-720.000
230.82	450.000
231.20	816.667
231.57	671.429
231.95	375.000
232.32	272.727
232.69	445.455
233.07	685.714
233.44	369.231
233.81	-1600.000
234.19	284.211
234.56	458.333
234.93	358.333
235.31	436.364
235.68	361.538
236.05	357.143
236.43	181.818
236.80	242.105
237.17	4900.000
237.55	219.048
237.92	214.286
238.29	266.667
238.67	180.645
239.04	196.552
239.41	161.111
239.79	141.304
240.16	128.571
240.53	118.182
240.91	119.608
241.28	130.000
241.65	108.000
242.02	91.304
242.40	103.226
242.77	111.667
243.14	77.419
243.51	82.022
243.89	81.176
244.26	72.222
244.63	66.667
245.00	55.319
245.38	71.287
245.75	67.290
246.12	64.220
246.49	65.693
246.87	67.200
247.24	53.077
247.61	53.571
247.98	54.248
248.36	45.946
248.73	50.318
249.10	54.140
249.47	50.282
249.84	43.316
250.22	50.802
250.59	44.970
250.96	43.434
251.33	52.133
251.70	45.050
252.08	47.619
252.45	43.498
252.82	43.043
253.19	42.553
253.56	45.490
253.94	42.739
254.31	42.187
254.68	40.000
255.05	42.804
255.42	42.276
255.79	45.221
256.16	38.989
256.54	38.516
256.91	42.349
257.28	34.892
257.65	38.944
258.02	36.025
258.39	34.385
258.76	36.455
259.14	36.905
259.51	34.650
259.88	37.578
260.25	38.973
260.62	34.393
260.99	34.783
261.36	42.643
261.73	36.676
262.10	34.012
262.47	38.873
262.85	33.983
263.22	31.339
263.59	34.188
263.96	35.165
264.33	34.987
264.70	34.474
265.07	34.783
265.44	35.859
265.81	32.847
266.18	32.663
266.55	36.341
266.92	33.170
267.29	34.028
267.66	33.716
268.03	32.727
268.40	32.243
268.77	31.265
269.14	31.982
269.51	32.957
269.88	34.033
270.25	28.668
270.62	33.258
270.99	33.548
271.36	30.687
271.73	32.243
272.10	31.739
272.47	30.753
272.84	31.169
273.21	33.962
273.58	29.476
273.95	29.140
274.32	29.339
274.69	31.906
275.06	27.559
275.43	33.617
275.80	30.060
276.17	29.532
276.54	30.146
276.91	30.830
277.28	30.078
277.65	31.141
278.02	29.814
278.39	31.055
278.76	28.000
279.13	31.321
279.50	29.981
279.87	27.490
280.23	29.940
280.60	26.499
280.97	30.314
281.34	30.088
281.71	28.545
282.08	28.599
282.45	26.364
282.82	30.195
283.19	26.738
283.56	27.018
283.92	28.257
284.29	27.513
284.66	28.312
285.03	29.837
285.40	29.754
285.77	28.956
286.14	27.807
286.51	27.500
286.87	24.615
287.24	27.850
287.61	25.843
287.98	27.760
288.35	25.198
288.72	24.299
289.08	26.291
289.45	25.041
289.82	27.154
290.19	25.275
290.56	26.034
290.93	24.320
291.29	25.920
291.66	24.189
292.03	26.163
292.40	26.285
292.77	22.929
293.13	25.672
293.50	24.490
293.87	23.407
294.24	22.519
294.60	21.980
294.97	22.820
295.34	24.260
295.71	23.864
296.08	23.219
296.44	22.696
296.81	23.514
297.18	23.171
297.55	20.053
297.91	20.053
298.28	21.553
298.65	21.540
299.02	22.134
299.38	20.850
299.75	19.407
300.12	21.456
300.48	20.250
300.85	21.455
301.22	21.274
301.59	19.571
301.95	20.781
302.32	20.539
302.69	20.550
303.05	19.636
303.42	20.988
303.79	19.706
304.15	20.396
304.52	18.888
304.89	19.628
305.25	19.954
305.62	19.819
305.99	20.189
306.35	19.799
306.72	20.067
307.09	18.868
307.45	20.383
307.82	18.192
308.19	19.868
308.55	20.065
308.92	19.656
309.29	17.529
309.65	18.558
310.02	18.288
310.38	18.495
310.75	19.430
311.12	19.550
311.48	18.704
311.85	19.497
312.22	18.626
312.58	19.335
312.95	18.691
313.31	17.573
313.68	20.270
314.05	21.105
314.41	18.894
314.78	19.436
315.14	19.364
315.51	18.744
315.87	19.307
316.24	18.669
316.61	18.324
316.97	18.102
317.34	18.004
317.70	18.164
318.07	19.153
318.43	18.982
318.80	18.463
319.16	18.267
319.53	17.917
319.89	19.048
320.26	20.100
320.62	19.147
320.99	19.394
321.35	19.192
321.72	19.302
322.08	20.731
322.45	20.498
322.81	20.640
323.18	19.653
323.54	19.109
323.91	19.245
324.27	19.312
324.64	19.758
325.00	19.567
325.37	19.472
325.73	19.390
326.10	19.682
326.46	19.624
326.83	19.413
327.19	20.666
327.56	18.641
327.92	19.510
328.29	19.610
328.65	19.982
329.01	20.036
329.38	18.594
329.74	19.391
330.11	19.698
330.47	20.478
330.84	21.415
331.20	19.399
331.56	18.899
331.93	18.796
332.29	18.900
332.66	19.646
333.02	18.556
333.38	20.325
333.75	19.786
334.11	19.484
334.48	18.634
334.84	19.118
335.20	20.364
335.57	18.404
335.93	18.393
336.29	18.590
336.66	18.395
337.02	18.824
337.38	19.352
337.75	18.806
338.11	18.979
338.47	18.416
338.84	20.532
339.20	18.532
339.56	20.164
339.93	18.909
340.29	18.659
340.65	18.271
341.02	18.499
341.38	18.772
341.74	18.421
342.11	19.389
342.47	18.326
342.83	18.493
343.20	19.913
343.56	18.787
343.92	17.632
344.28	18.112
344.65	18.229
345.01	18.350
345.37	18.182
345.73	18.613
346.10	16.709
346.46	17.881
346.82	17.957
347.19	17.711
347.55	18.473
347.91	18.608
348.27	18.981
348.63	17.726
349.00	17.233
349.36	17.323
349.72	18.123
350.08	17.909
350.45	18.552
350.81	16.816
351.17	16.694
351.53	18.673
351.89	16.749
352.26	18.153
352.62	17.562
352.98	17.342
353.34	18.077
353.70	17.021
354.07	17.581
354.43	16.667
354.79	17.377
355.15	16.999
355.51	18.066
355.87	16.571
356.24	18.160
356.60	17.562
356.96	17.780
357.32	17.825
357.68	18.346
358.04	18.211
358.40	17.815
358.77	17.214
359.13	16.101
359.49	17.176
359.85	14.921
360.21	17.225
360.57	17.977
360.93	17.923
361.29	15.873
361.66	16.022
362.02	18.209
362.38	17.262
362.74	16.815
363.10	15.914
363.46	16.654
363.82	16.629
364.18	17.181
364.54	16.865
364.90	17.422
365.26	16.397
365.62	17.312
365.98	16.947
366.35	16.261
366.71	16.920
367.07	17.407
367.43	16.981
367.79	17.559
368.15	17.241
368.51	15.916
368.87	16.916
369.23	15.947
369.59	16.944
369.95	16.691
370.31	16.667
370.67	15.797
371.03	17.154
371.39	16.327
371.75	16.324
372.11	15.932
372.47	16.935
372.83	17.507
373.19	16.835
373.55	16.851
373.91	17.526
374.27	16.426
374.63	15.927
374.99	17.090
375.35	15.980
375.71	16.244
376.07	16.735
376.42	16.231
376.78	16.766
377.14	15.468
377.50	17.682
377.86	15.957
378.22	16.245
378.58	16.416
378.94	15.965
379.30	15.903
379.66	15.546
380.02	15.725
380.38	15.604
380.74	16.687
381.09	16.076
381.45	16.718
381.81	16.462
382.17	16.815
382.53	15.597
382.89	16.543
383.25	16.948
383.61	16.171
383.97	16.698
384.32	15.409
384.68	16.047
385.04	16.964
385.40	16.347
385.76	15.971
386.12	16.775
386.48	16.488
386.83	16.421
387.19	16.512
387.55	16.327
387.91	16.324
388.27	15.941
388.62	15.919
388.98	15.479
389.34	16.583
389.70	17.106
390.06	16.857
390.42	16.148
390.77	16.985
391.13	16.082
391.49	16.561
391.85	15.977
392.20	15.331
392.56	15.783
392.92	16.716
393.28	15.444
393.64	15.647
393.99	16.127
394.35	16.005
394.71	15.747
395.07	16.386
395.42	15.884
395.78	15.967
396.14	16.201
396.50	16.353
396.85	16.338
397.21	16.276
397.57	17.421
397.92	15.986
398.28	15.359
398.64	16.786
399.00	16.004
399.35	14.608
399.71	15.914
400.07	15.671
400.42	16.933
400.78	15.862
401.14	16.646
401.49	16.239
401.85	15.971
402.21	15.449
402.57	15.669
402.92	16.267
403.28	16.115
403.63	16.337
403.99	15.924
404.35	16.061
404.70	16.607
405.06	15.667
405.42	16.469
405.77	15.714
406.13	15.801
406.49	16.795
406.84	16.184
407.20	15.248
407.55	15.763
407.91	16.333
408.27	16.720
408.62	15.894
408.98	16.667
409.34	16.236
409.69	15.677
410.05	15.242
410.40	16.330
410.76	14.755
411.11	15.802
411.47	15.911
411.83	16.616
412.18	15.337
412.54	16.127
412.89	15.904
413.25	15.939
413.60	15.750
413.96	15.604
414.31	15.249
414.67	15.970
415.03	15.695
415.38	16.688
415.74	16.206
416.09	16.199
416.45	15.395
416.80	16.127
417.16	16.488
417.51	16.788
417.87	16.185
418.22	16.215
418.58	16.720
418.93	16.155
419.29	16.741
419.64	16.688
420.00	16.768
420.35	15.768
420.71	17.394
421.06	15.931
421.42	16.199
421.77	16.592
422.12	16.058
422.48	15.380
422.83	15.609
423.19	16.354
423.54	16.251
423.90	16.232
424.25	16.360
424.61	15.357
424.96	15.860
425.31	16.002
425.67	15.787
426.02	16.457
426.38	16.667
426.73	16.091
427.09	16.170
427.44	16.159
427.79	15.986
428.15	16.607
428.50	16.442
428.85	16.746
429.21	15.792
429.56	15.500
429.92	15.601
430.27	15.690
430.62	15.463
430.98	16.035
431.33	15.515
431.68	15.602
432.04	16.454
432.39	15.591
432.74	15.919
433.10	16.129
433.45	16.093
433.80	15.299
434.16	15.598
434.51	15.947
434.86	15.906
435.22	16.509
435.57	16.049
435.92	15.506
436.28	16.192
436.63	16.280
436.98	16.314
437.34	16.577
437.69	16.336
438.04	16.133
438.39	16.478
438.75	16.037
439.10	16.480
439.45	16.116
439.81	16.193
440.16	16.431
440.51	16.872
440.86	16.850
441.22	16.073
441.57	15.287
441.92	16.581
442.27	16.416
442.63	15.324
442.98	17.408
443.33	16.630
443.68	15.798
444.03	16.935
444.39	15.336
444.74	16.721
445.09	16.765
445.44	16.293
445.79	16.131
446.15	16.623
446.50	16.586
446.85	16.547
447.20	15.757
447.55	17.253
447.91	15.609
448.26	16.416
448.61	15.941
448.96	16.777
449.31	16.479
449.66	16.432
450.02	16.156
450.37	16.327
450.72	16.018
451.07	15.722
451.42	15.684
451.77	16.559
452.12	16.570
452.47	15.920
452.83	16.434
453.18	16.626
453.53	17.687
453.88	16.184
454.23	16.258
454.58	17.323
454.93	18.055
455.28	16.521
455.63	16.748
455.98	17.381
456.34	15.892
456.69	16.719
457.04	17.399
457.39	16.540
457.74	16.657
458.09	16.331
458.44	16.534
458.79	15.998
459.14	15.801
459.49	16.637
459.84	16.454
460.19	16.264
460.54	15.799
460.89	15.963
461.24	16.636
461.59	17.838
461.94	16.215
462.29	16.855
462.64	16.592
462.99	16.135
463.34	17.267
463.69	16.073
464.04	16.580
464.39	16.986
464.74	16.756
465.09	16.345
465.44	15.623
465.79	15.996
466.14	15.654
466.49	16.296
466.84	16.287
467.19	17.260
467.54	17.063
467.89	16.627
468.24	16.638
468.59	16.911
468.94	16.494
469.29	17.031
469.64	17.871
469.99	17.456
470.34	17.768
470.68	16.882
471.03	17.415
471.38	17.095
471.73	17.522
472.08	17.632
472.43	16.834
472.78	16.919
473.13	17.202
473.48	17.353
473.83	17.378
474.17	16.864
474.52	17.122
474.87	16.754
475.22	16.715
475.57	16.819
475.92	15.720
476.27	15.953
476.61	16.437
476.96	16.108
477.31	16.954
477.66	16.630
478.01	16.571
478.36	16.341
478.70	15.888
479.05	16.400
479.40	15.046
479.75	16.929
480.10	15.557
480.45	15.802
480.79	16.054
481.14	16.536
481.49	16.279
481.84	15.318
482.19	16.629
482.53	16.193
482.88	16.752
483.23	16.869
483.58	16.151
483.92	16.589
484.27	15.686
484.62	15.302
484.97	15.648
485.31	15.240
485.66	14.823
486.01	13.817
486.36	13.471
486.70	13.415
487.05	13.870
487.40	14.351
487.75	14.376
488.09	14.801
488.44	15.410
488.79	15.407
489.13	16.387
489.48	15.742
489.83	15.969
490.17	16.133
490.52	15.678
490.87	15.920
491.22	15.916
491.56	14.533
491.91	16.519
492.26	15.296
492.60	15.161
492.95	15.856
493.30	16.215
493.64	16.332
493.99	15.645
494.34	15.957
494.68	16.621
495.03	16.400
495.37	16.054
495.72	16.033
496.07	16.520
496.41	15.398
496.76	15.655
497.11	15.669
497.45	16.022
497.80	15.787
498.14	15.507
498.49	16.244
498.84	15.628
499.18	15.476
499.53	15.954
499.87	16.123
500.22	15.827
500.56	16.311
500.91	15.865
501.26	15.742
501.60	16.232
501.95	15.445
502.29	16.542
502.64	15.968
502.98	15.895
503.33	15.905
503.67	15.870
504.02	15.669
504.36	16.144
504.71	16.903
505.06	15.904
505.40	16.480
505.75	16.056
506.09	15.792
506.44	16.132
506.78	16.415
507.13	16.709
507.47	16.414
507.82	16.869
508.16	16.211
508.51	15.779
508.85	16.336
509.19	16.633
509.54	16.684
509.88	16.280
510.23	16.350
510.57	16.821
510.92	16.313
511.26	16.393
511.61	16.857
511.95	16.023
512.30	16.013
512.64	16.389
512.98	17.203
513.33	17.131
513.67	16.435
514.02	15.909
514.36	17.422
514.70	16.657
515.05	17.122
515.39	16.153
515.74	16.723
516.08	16.825
516.42	17.037
516.77	18.172
517.11	16.926
517.46	16.366
517.80	16.783
518.14	17.487
518.49	17.386
518.83	17.386
519.17	17.148
519.52	17.261
519.86	17.570
520.20	17.803
520.55	18.133
520.89	17.457
521.23	18.335
521.58	17.227
521.92	17.942
522.26	17.145
522.61	17.882
522.95	16.697
523.29	16.859
523.64	17.683
523.98	17.129
524.32	17.310
524.66	18.040
525.01	17.034
525.35	17.782
525.69	17.057
526.04	17.632
526.38	17.633
526.72	17.546
527.06	17.765
527.41	15.656
527.75	17.878
528.09	17.598
528.43	18.228
528.78	17.886
529.12	17.455
529.46	17.330
529.80	18.007
530.15	17.882
530.49	17.292
530.83	17.975
531.17	19.517
531.51	18.093
531.86	18.710
532.20	18.318
532.54	17.873
532.88	18.100
533.22	16.864
533.57	18.148
533.91	17.339
534.25	17.072
534.59	17.206
534.93	17.192
535.27	17.502
535.62	18.010
535.96	17.765
536.30	17.419
536.64	17.772
536.98	18.514
537.32	17.972
537.66	17.600
538.01	17.051
538.35	17.582
538.69	18.762
539.03	17.544
539.37	16.997
539.71	17.174
540.05	17.516
540.39	18.472
540.73	17.658
541.07	18.365
541.42	17.808
541.76	18.516
542.10	18.241
542.44	17.682
542.78	18.379
543.12	17.594
543.46	18.098
543.80	18.282
544.14	17.522
544.48	18.476
544.82	16.870
545.16	17.567
545.50	17.095
545.84	18.011
546.18	17.306
546.52	18.238
546.86	18.144
547.20	17.667
547.54	17.969
547.88	18.431
548.22	17.995
548.56	17.421
548.90	16.901
549.24	17.037
549.58	18.076
549.92	17.651
550.26	17.756
550.60	17.220
550.94	17.887
551.28	17.776
551.62	17.398
551.96	16.561
552.30	17.816
552.64	17.918
552.98	18.237
553.32	18.206
553.66	18.678
554.00	17.639
554.34	18.012
554.68	18.813
555.02	18.406
555.36	18.580
555.69	17.862
556.03	17.699
556.37	17.872
556.71	17.667
557.05	18.207
557.39	17.985
557.73	18.137
558.07	18.057
558.41	17.511
558.75	18.663
559.08	17.673
559.42	18.443
559.76	18.603
560.10	18.415
560.44	17.331
560.78	18.430
561.12	17.810
561.45	18.383
561.79	18.194
562.13	17.505
562.47	18.169
562.81	18.410
563.15	17.926
563.48	18.236
563.82	17.808
564.16	18.051
564.50	16.862
564.84	18.015
565.17	17.696
565.51	17.508
565.85	17.766
566.19	16.844
566.52	17.036
566.86	17.058
567.20	17.512
567.54	17.523
567.88	16.513
568.21	16.614
568.55	16.936
568.89	16.537
569.23	16.221
569.56	15.992
569.90	15.434
570.24	15.465
570.57	14.927
570.91	15.029
571.25	15.009
571.59	15.376
571.92	15.380
572.26	15.165
572.60	15.345
572.93	15.232
573.27	15.203
573.61	15.438
573.95	15.194
574.28	14.950
574.62	14.602
574.96	14.504
575.29	14.403
575.63	14.583
575.97	14.736
576.30	15.056
576.64	14.304
576.98	14.560
577.31	14.325
577.65	14.072
577.98	14.154
578.32	14.079
578.66	14.403
578.99	14.517
579.33	14.282
579.67	14.230
580.00	14.673
580.34	14.950
580.67	14.370
581.01	14.729
581.35	14.400
581.68	14.060
582.02	13.906
582.35	13.834
582.69	14.421
583.02	14.124
583.36	14.826
583.70	14.810
584.03	14.890
584.37	15.310
584.70	15.021
585.04	14.922
585.37	15.121
585.71	14.826
586.04	14.545
586.38	14.394
586.72	15.051
587.05	15.023
587.39	14.617
587.72	14.970
588.06	14.434
588.39	15.254
588.73	15.107
589.06	15.799
589.40	15.522
589.73	15.488
590.07	15.872
590.40	15.893
590.73	16.042
591.07	16.077
591.40	16.154
591.74	16.537
592.07	16.361
592.41	15.668
592.74	15.581
593.08	15.556
593.41	15.375
593.75	14.834
594.08	15.387
594.41	15.483
594.75	15.342
595.08	15.354
595.42	15.797
595.75	15.598
596.09	16.035
596.42	16.267
596.75	16.041
597.09	16.494
597.42	15.641
597.75	15.740
598.09	15.696
598.42	15.765
598.76	15.444
599.09	15.279
599.42	14.993
599.76	15.483
600.09	15.046
600.42	15.011
600.76	15.214
601.09	15.446
601.42	16.020
601.76	15.674
602.09	15.692
602.42	15.884
602.76	16.002
603.09	15.854
603.42	16.087
603.76	15.549
604.09	15.355
604.42	15.654
604.76	16.955
605.09	16.077
605.42	16.289
605.75	16.184
606.09	15.779
606.42	15.611
606.75	15.388
607.09	15.990
607.42	15.233
607.75	15.063
608.08	15.936
608.42	16.136
608.75	15.555
609.08	16.420
609.41	16.326
609.75	16.151
610.08	16.305
610.41	16.434
610.74	15.563
611.07	15.909
611.41	15.800
611.74	16.038
612.07	16.925
612.40	16.422
612.73	16.158
613.07	16.918
613.40	16.956
613.73	15.836
614.06	16.774
614.39	16.361
614.72	16.368
615.06	16.124
615.39	16.030
615.72	16.564
616.05	15.524
616.38	16.732
616.71	17.577
617.05	16.961
617.38	17.017
617.71	16.517
618.04	17.909
618.37	16.322
618.70	16.864
619.03	17.895
619.36	17.379
619.69	17.465
620.03	17.720
620.36	17.380
620.69	17.534
621.02	19.027
621.35	17.854
621.68	16.900
622.01	17.647
622.34	17.852
622.67	18.327
623.00	17.828
623.33	17.227
623.66	16.941
623.99	18.041
624.32	18.117
624.65	16.949
624.99	16.360
625.32	16.655
625.65	18.032
625.98	18.217
626.31	18.507
626.64	18.694
626.97	18.786
627.30	18.204
627.63	17.719
627.96	18.419
628.29	18.460
628.62	18.664
628.95	19.906
629.28	18.613
629.61	19.707
629.94	17.905
630.26	19.352
630.59	18.684
630.92	18.774
631.25	17.868
631.58	19.219
631.91	19.270
632.24	18.565
632.57	20.147
632.90	20.504
633.23	19.351
633.56	22.034
633.89	20.045
634.22	19.750
634.55	21.538
634.88	20.120
635.20	20.789
635.53	20.602
635.86	21.782
636.19	18.824
636.52	19.262
636.85	20.160
637.18	19.931
637.51	20.567
637.83	18.619
638.16	20.460
638.49	20.907
638.82	20.860
639.15	20.375
639.48	22.444
639.81	20.643
640.13	20.052
640.46	21.074
640.79	21.268
641.12	19.532
641.45	22.765
641.77	22.533
642.10	21.053
642.43	21.021
642.76	22.755
643.09	22.086
643.41	20.941
643.74	22.994
644.07	22.256
644.40	24.080
644.73	25.354
645.05	23.930
645.38	22.275
645.71	21.256
646.04	22.591
646.36	24.207
646.69	22.408
647.02	22.449
647.35	23.368
647.67	21.239
648.00	24.390
648.33	21.617
648.66	21.970
648.98	22.939
649.31	21.525
649.64	21.674
649.96	20.864
650.29	21.643
650.62	21.197
650.94	23.663
651.27	23.649
651.60	22.629
651.92	23.642
652.25	22.638
652.58	21.807
652.90	23.539
653.23	22.034
653.56	21.890
653.88	24.247
654.21	22.591
654.54	22.442
654.86	22.897
655.19	21.081
655.52	13.748
655.84	11.399
656.17	14.409
656.49	19.601
656.82	20.251
657.15	15.646
657.47	11.770
657.80	9.356
658.13	9.894
658.45	14.780
658.78	15.265
659.10	15.830
659.43	16.848
659.75	17.508
660.08	19.937
660.41	20.298
660.73	22.872
661.06	22.771
661.38	23.636
661.71	26.538
662.03	25.049
662.36	22.266
662.68	24.699
663.01	26.465
663.33	24.204
663.66	27.101
663.98	25.054
664.31	23.950
664.63	24.089
664.96	21.529
665.28	27.459
665.61	23.392
665.93	24.346
666.26	24.949
666.58	23.849
666.91	28.753
667.23	24.944
667.56	23.110
667.88	26.709
668.21	24.733
668.53	24.729
668.86	24.892
669.18	26.226
669.50	24.783
669.83	27.233
670.15	24.222
670.48	25.490
670.80	25.647
671.13	25.265
671.45	23.830
671.77	25.866
672.10	24.030
672.42	22.085
672.75	21.725
673.07	22.535
673.39	21.700
673.72	25.000
674.04	23.922
674.37	25.049
674.69	26.789
675.01	23.640
675.34	27.105
675.66	26.947
675.98	24.644
676.31	23.739
676.63	28.662
676.95	25.577
677.28	23.364
677.60	23.516
677.92	24.473
678.25	24.435
678.57	24.303
678.89	22.846
679.22	22.004
679.54	24.237
679.86	23.670
680.18	23.435
680.51	22.340
680.83	23.132
681.15	23.774
681.48	25.142
681.80	23.211
682.12	21.456
682.44	22.244
682.77	24.236
683.09	26.180
683.41	24.834
683.73	26.490
684.06	26.033
684.38	23.679
684.70	22.093
685.02	24.765
685.34	24.359
685.67	22.378
685.99	21.821
686.31	22.867
686.63	20.495
686.96	21.071
687.28	21.661
687.60	20.290
687.92	24.314
688.24	23.954
688.56	25.301
688.89	24.066
689.21	26.856
689.53	24.843
689.85	28.381
690.17	22.360
690.49	25.265
690.82	25.701
691.14	21.652
691.46	23.840
691.78	22.088
692.10	26.653
692.42	25.349
692.74	24.481
693.06	24.468
693.39	24.435
693.71	24.891
694.03	21.895
694.35	23.160
694.67	24.485
694.99	28.049
695.31	27.206
695.63	26.316
695.95	23.472
696.27	23.604
696.59	30.052
696.91	25.389
697.23	21.127
697.56	24.733
697.88	22.086
698.20	25.000
698.52	27.097
698.84	26.281
699.16	24.194
699.48	24.941
699.80	27.295
700.12	29.610
700.44	24.934
700.76	30.110
701.08	29.885
701.40	25.698
701.72	28.280
702.04	31.534
702.36	25.779
702.68	26.912
703.00	26.870
703.32	27.660
703.64	27.882
703.96	27.577
704.28	29.360
704.60	28.739
704.91	31.157
705.23	30.499
705.55	30.565
705.87	32.226
706.19	30.389
706.51	30.841
706.83	30.000
707.15	29.412
707.47	26.010
707.79	26.781
708.11	26.484
708.43	24.048
708.74	23.214
709.06	26.234
709.38	25.984
709.70	28.198
710.02	28.783
710.34	28.485
710.66	25.373
710.98	28.693
711.29	27.616
711.61	29.204
711.93	24.679
712.25	34.405
712.57	33.088
712.89	31.834
713.20	27.356
713.52	30.263
713.84	31.646
714.16	28.354
714.48	27.299
714.80	32.219
715.11	26.513
715.43	28.487
715.75	25.507
716.07	30.351
716.39	27.900
716.70	34.551
717.02	27.698
717.34	34.982
717.66	32.090
717.97	32.271
718.29	31.481
718.61	28.832
718.93	34.559
719.24	34.602
719.56	28.136
719.88	29.831
720.20	31.081
720.51	29.617
720.83	30.112
721.15	29.851
721.46	31.560
721.78	31.900
722.10	34.340
722.42	32.331
722.73	34.831
723.05	28.279
723.37	37.652
723.68	32.432
724.00	36.179
724.32	36.290
724.63	32.520
724.95	30.126
725.27	34.818
725.58	31.641
725.90	36.496
726.22	32.453
726.53	29.514
726.85	33.788
727.16	29.181
727.48	30.496
727.80	31.439
728.11	35.870
728.43	31.923
728.74	28.674
729.06	33.212
729.38	35.294
729.69	34.875
730.01	27.645
730.32	27.431
730.64	28.763
730.96	26.073
731.27	32.450
731.59	27.523
731.90	30.029
732.22	27.019
732.53	25.697
732.85	27.564
733.16	27.653
733.48	29.568
733.80	29.221
734.11	30.255
734.43	28.107
734.74	29.143
735.06	25.501
735.37	31.503
735.69	26.115
736.00	30.392
736.32	27.414
736.63	30.351
736.95	31.310
737.26	24.830
737.58	25.806
737.89	33.445
738.21	27.645
738.52	32.143
738.83	30.189
739.15	34.231
739.46	32.482
739.78	27.431
740.09	29.846
740.41	27.419
740.72	27.178
741.04	30.741
741.35	28.750
741.66	36.000
741.98	32.547
742.29	45.455
742.61	36.638
742.92	35.747
743.23	34.188
743.55	33.200
743.86	32.895
744.18	37.611
744.49	33.971
744.80	36.150
745.12	40.000
745.43	32.599
745.74	38.288
746.06	36.239
746.37	36.771
746.68	33.937
747.00	41.667
747.31	34.286
747.62	33.628
747.94	30.837
748.25	32.340
748.56	36.123
748.88	36.139
749.19	39.500
749.50	34.884
749.82	32.114
750.13	31.429
750.44	32.117
750.75	31.930
751.07	32.154
751.38	30.314
751.69	33.935
752.01	30.827
752.32	33.213
752.63	32.979
752.94	29.508
753.26	36.000
753.57	29.675
753.88	33.203
754.19	30.357
754.51	35.417
754.82	30.686
755.13	32.453
755.44	32.331
755.75	31.752
756.07	29.433
756.38	28.467
756.69	29.866
757.00	26.048
757.31	28.190
757.63	26.316
757.94	26.005
758.25	27.451
758.56	23.704
758.87	26.075
759.18	30.909
759.50	28.527
759.81	27.726
760.12	24.375
760.43	27.794
760.74	27.446
761.05	28.249
761.36	27.273
761.67	28.977
761.99	29.503
762.30	32.986
762.61	28.244
762.92	35.937
763.23	31.513
763.54	35.600
763.85	32.422
764.16	36.538
764.47	29.658
764.78	25.088
765.10	27.532
765.41	29.204
765.72	29.641
766.03	30.094
766.34	29.000
766.65	35.319
766.96	27.350
767.27	33.503
767.58	40.625
767.89	41.053
768.20	38.506
768.51	34.010
768.82	36.239
769.13	32.520
769.44	29.150
769.75	39.056
770.06	29.358
770.37	41.629
770.68	34.722
770.99	32.444
771.30	30.328
771.61	33.184
771.92	29.918
772.23	36.555
772.54	35.385
772.85	33.508
773.16	38.298
773.47	43.478
773.78	42.132
774.09	40.476
774.39	38.596
774.70	41.975
775.01	48.551
775.32	46.405
775.63	49.342
775.94	44.604
776.25	52.756
776.56	45.522
776.87	52.459
777.18	43.750
777.48	55.725
777.79	46.970
778.10	48.148
778.41	56.250
778.72	48.175
779.03	48.993
779.34	45.638
779.65	35.811
779.95	42.945
780.26	47.712
780.57	50.345
780.88	58.594
781.19	49.624
781.50	48.649
781.80	43.396
782.11	41.808
782.42	42.405
782.73	40.491
783.04	43.243
783.34	48.592
783.65	51.370
783.96	52.239
784.27	44.056
784.57	38.129
784.88	48.148
785.19	57.143
785.50	57.547
785.81	54.478
786.11	49.180
786.42	53.488
786.73	55.752
787.04	59.434
787.34	53.571
787.65	57.000
787.96	56.757
788.26	46.281
788.57	57.627
788.88	57.025
789.19	49.306
789.49	53.788
789.80	52.672
790.11	69.524
790.41	61.386
790.72	59.036
791.03	73.913
791.33	62.791
791.64	68.041
791.95	62.376
792.25	65.556
792.56	72.727
792.87	79.487
793.17	74.684
793.48	88.506
793.79	58.621
794.09	59.091
794.40	47.899
794.70	60.294
795.01	45.185
795.32	53.237
795.62	48.819
795.93	59.483
796.23	58.407
796.54	63.529
796.85	74.324
797.15	100.000
797.46	69.697
797.76	86.747
798.07	75.949
798.37	83.077
798.68	65.152
798.99	56.338
799.29	72.727
799.60	56.818
799.90	73.973
800.21	85.075
800.51	84.483
800.82	105.263
801.12	96.721
801.43	83.333
801.73	60.811
802.04	95.238
802.34	81.481
802.65	92.188
802.95	113.559
803.26	107.813
803.56	77.143
803.87	83.077
804.17	101.471
804.48	101.852
804.78	89.655
805.09	98.529
805.39	78.846
805.70	89.286
806.00	98.361
806.30	84.848
806.61	79.268
806.91	69.620
807.22	90.789
807.52	76.119
807.83	94.366
808.13	92.188
808.43	83.333
808.74	64.474
809.04	78.261
809.35	86.567
809.65	78.947
809.95	106.452
810.26	71.186
810.56	80.952
810.86	138.636
811.17	147.619
811.47	111.667
811.77	112.963
812.08	112.727
812.38	120.000
812.69	150.000
812.99	138.636
813.29	118.367
813.59	92.857
813.90	140.816
814.20	94.545
814.50	95.385
814.81	91.176
815.11	122.449
815.41	96.721
815.72	133.333
816.02	107.273
816.32	138.095
816.62	122.500
816.93	126.829
817.23	130.952
817.53	100.000
817.84	181.818
818.14	110.870
818.44	117.778
818.74	170.588
819.04	137.500
819.35	157.143
819.65	170.588
819.95	157.143
820.25	210.000
820.56	153.846
820.86	138.636
821.16	116.279
821.46	153.846
821.76	140.000
822.07	140.000
822.37	135.000
822.67	136.364
822.97	117.647
823.27	200.000
823.57	145.946
823.88	137.500
824.18	196.667
824.48	147.619
824.78	240.000
825.08	212.500
825.38	154.054
825.69	131.707
825.99	225.000
826.29	148.276
826.59	171.053
826.89	123.684
827.19	147.059
827.49	174.194
827.79	145.455
828.09	154.545
828.39	123.404
828.70	130.612
829.00	174.074
829.30	138.710
829.60	130.000
829.90	273.333
830.20	182.143
830.50	191.304
830.80	243.478
831.10	183.333
831.40	153.333
831.70	200.000
832.00	250.000
832.30	177.778
832.60	243.750
832.90	170.000
833.20	328.571
833.50	183.871
833.80	186.207
834.10	228.125
834.40	176.923
834.70	261.111
835.00	290.476
835.30	154.286
835.60	330.769
835.90	200.000
836.20	292.857
836.50	186.207
836.80	160.000
837.10	183.333
837.40	247.619
837.70	341.176
838.00	225.926
838.30	247.619
838.60	219.048
838.90	219.231
839.19	240.000
839.49	342.857
839.79	325.000
840.09	260.000
840.39	214.286
840.69	273.913
840.99	283.333
841.29	440.000
841.59	350.000
841.88	356.250
842.18	186.207
842.48	257.143
842.78	166.667
843.08	221.739
843.38	193.750
843.68	733.333
843.97	192.308
844.27	155.172
844.57	295.238
844.87	356.250
845.17	196.296
845.47	1900.000
845.76	477.778
846.06	317.647
846.36	537.500
846.66	350.000
846.96	268.750
847.25	372.727
847.55	381.818
847.85	230.435
848.15	540.000
848.44	400.000
848.74	277.778
849.04	347.059
849.34	460.000
849.63	215.789
849.93	418.182
850.23	800.000
850.53	357.143
850.82	2200.000
851.12	-4000.000
851.42	4400.000
851.71	225.000
852.01	-1100.000
852.31	250.000
852.61	1800.000
852.90	276.190
853.20	236.000
853.50	305.882
853.79	271.429
854.09	254.167
854.39	306.250
854.68	148.649
854.98	177.419
855.28	153.333
855.57	196.552
855.87	192.593
856.17	268.421
856.46	200.000
856.76	258.824
857.05	231.034
857.35	200.000
857.65	340.000
857.94	226.087
858.24	215.385
858.53	280.000
858.83	245.455
859.13	373.333
859.42	0.000
859.72	566.667
860.01	472.727
860.31	236.364
860.60	284.211
860.90	243.478
861.20	477.778
861.49	516.667
861.79	-4200.000
862.08	600.000
862.38	280.952
862.67	307.692
862.97	294.118
863.26	533.333
863.56	294.444
863.85	350.000
864.15	550.000
864.44	433.333
864.74	783.333
865.03	700.000
865.33	289.474
865.62	445.455
865.92	469.231
866.21	333.333
866.51	0.000
866.80	445.455
867.10	1020.000
867.39	353.846
867.69	427.273
867.98	242.105
868.27	481.818
868.57	273.684
868.86	-4100.000
869.16	268.750
869.45	1750.000
869.75	-3700.000
870.04	458.333
870.33	600.000
870.63	975.000
870.92	2400.000
871.22	671.429
871.51	300.000
871.80	247.619
872.10	364.286
>>>>>End Processed Spectral Data<<<<<
