SpectraSuite Data File
++++++++++++++++++++++++++++++++++++
Date: Wed May 13 16:53:28 PDT 2015
User: schluterlab
Dark Spectrum Present: Yes
Reference Spectrum Present: Yes
Number of Sampled Component Spectra: 1
Spectrometers: USB2E3373
Integration Time (usec): 3000 (USB2E3373)
Spectra Averaged: 3 (USB2E3373)
Boxcar Smoothing: 0 (USB2E3373)
Correct for Electrical Dark: No (USB2E3373)
Strobe/Lamp Enabled: No (USB2E3373)
Correct for Detector Non-linearity: No (USB2E3373)
Correct for Stray Light: No (USB2E3373)
Number of Pixels in Processed Spectrum: 2048
>>>>>Begin Processed Spectral Data<<<<<
178.53	0.000
178.91	-1400.000
179.29	-1450.000
179.67	-238.889
180.04	-1400.000
180.42	2600.000
180.80	920.000
181.18	-950.000
181.56	814.286
181.94	0.000
182.31	-585.714
182.69	1700.000
183.07	-537.500
183.45	-500.000
183.83	527.273
184.20	-410.000
184.58	2500.000
184.96	4700.000
185.34	-940.000
185.72	-562.500
186.09	-2500.000
186.47	2600.000
186.85	2700.000
187.23	5300.000
187.61	-1733.333
187.98	1250.000
188.36	590.909
188.74	490.909
189.12	-840.000
189.49	650.000
189.87	-4800.000
190.25	-1400.000
190.63	421.429
191.00	461.538
191.38	616.667
191.76	-1175.000
192.14	1325.000
192.51	687.500
192.89	983.333
193.27	587.500
193.65	-1125.000
194.02	610.000
194.40	1020.000
194.78	550.000
195.15	491.667
195.53	550.000
195.91	-2400.000
196.29	350.000
196.66	278.947
197.04	-240.000
197.42	0.000
197.79	610.000
198.17	-4300.000
198.55	757.143
198.92	737.500
199.30	780.000
199.68	0.000
200.05	377.778
200.43	642.857
200.81	4500.000
201.18	1533.333
201.56	-1433.333
201.94	600.000
202.31	544.444
202.69	391.667
203.07	440.000
203.44	0.000
203.82	1450.000
204.19	814.286
204.57	478.571
204.95	737.500
205.32	1433.333
205.70	554.545
206.08	442.857
206.45	2550.000
206.83	375.000
207.20	966.667
207.58	880.000
207.96	338.889
208.33	737.500
208.71	-850.000
209.08	800.000
209.46	644.444
209.84	445.455
210.21	-1533.333
210.59	1250.000
210.96	-587.500
211.34	2650.000
211.71	620.000
212.09	733.333
212.46	0.000
212.84	1533.333
213.22	1275.000
213.59	-4400.000
213.97	833.333
214.34	685.714
214.72	527.273
215.09	1000.000
215.47	-2500.000
215.84	-2350.000
216.22	1700.000
216.59	428.571
216.97	1575.000
217.34	509.091
217.72	-750.000
218.09	0.000
218.47	-4700.000
218.84	622.222
219.22	685.714
219.59	1700.000
219.97	-700.000
220.34	820.000
220.72	-1600.000
221.09	392.857
221.47	1650.000
221.84	-866.667
222.22	0.000
222.59	1475.000
222.97	-2550.000
223.34	1100.000
223.72	384.615
224.09	1040.000
224.46	2300.000
224.84	-4200.000
225.21	-1100.000
225.59	-4600.000
225.96	670.000
226.34	295.000
226.71	2950.000
227.08	675.000
227.46	550.000
227.83	-1275.000
228.21	-2500.000
228.58	477.778
228.95	-2550.000
229.33	-2100.000
229.70	2100.000
230.08	700.000
230.45	-1000.000
230.82	416.667
231.20	933.333
231.57	600.000
231.95	500.000
232.32	213.636
232.69	427.273
233.07	757.143
233.44	369.231
233.81	-1466.667
234.19	321.053
234.56	408.333
234.93	358.333
235.31	418.182
235.68	361.538
236.05	300.000
236.43	157.576
236.80	300.000
237.17	4600.000
237.55	214.286
237.92	189.286
238.29	247.619
238.67	167.742
239.04	162.069
239.41	136.111
239.79	104.348
240.16	116.667
240.53	100.000
240.91	96.078
241.28	88.000
241.65	86.000
242.02	82.609
242.40	85.484
242.77	73.333
243.14	64.516
243.51	55.056
243.89	48.235
244.26	43.333
244.63	44.086
245.00	45.745
245.38	42.574
245.75	32.710
246.12	41.284
246.49	47.445
246.87	52.800
247.24	44.615
247.61	31.429
247.98	37.255
248.36	27.703
248.73	31.847
249.10	34.395
249.47	27.119
249.84	39.572
250.22	31.016
250.59	31.361
250.96	27.778
251.33	30.332
251.70	29.703
252.08	24.762
252.45	23.318
252.82	22.174
253.19	21.702
253.56	22.353
253.94	24.066
254.31	17.187
254.68	21.923
255.05	21.033
255.42	17.886
255.79	19.853
256.16	21.661
256.54	21.201
256.91	22.064
257.28	14.388
257.65	15.512
258.02	17.702
258.39	16.088
258.76	18.729
259.14	17.262
259.51	14.894
259.88	15.528
260.25	16.012
260.62	14.451
260.99	14.596
261.36	17.718
261.73	14.900
262.10	11.337
262.47	16.338
262.85	13.092
263.22	11.396
263.59	16.809
263.96	11.538
264.33	14.883
264.70	13.947
265.07	11.509
265.44	14.141
265.81	13.382
266.18	15.075
266.55	12.439
266.92	14.251
267.29	12.963
267.66	13.303
268.03	12.273
268.40	12.150
268.77	10.979
269.14	14.189
269.51	13.318
269.88	11.422
270.25	13.318
270.62	10.112
270.99	15.484
271.36	14.807
271.73	8.879
272.10	11.522
272.47	13.978
272.84	10.606
273.21	13.627
273.58	9.825
273.95	10.901
274.32	11.364
274.69	11.991
275.06	11.024
275.43	13.191
275.80	10.621
276.17	10.591
276.54	10.395
276.91	9.091
277.28	10.352
277.65	12.573
278.02	9.731
278.39	9.570
278.76	9.818
279.13	9.623
279.50	12.291
279.87	10.956
280.23	10.379
280.60	9.091
280.97	8.688
281.34	11.504
281.71	12.000
282.08	10.365
282.45	7.818
282.82	9.947
283.19	8.200
283.56	10.351
283.92	9.475
284.29	10.053
284.66	8.530
285.03	8.861
285.40	10.739
285.77	9.259
286.14	8.636
286.51	9.167
286.87	9.060
287.24	9.772
287.61	9.149
287.98	12.013
288.35	8.241
288.72	9.813
289.08	7.981
289.45	8.237
289.82	8.780
290.19	7.378
290.56	8.423
290.93	7.704
291.29	7.669
291.66	6.637
292.03	10.320
292.40	9.838
292.77	7.249
293.13	8.060
293.50	9.329
293.87	7.704
294.24	7.556
294.60	7.860
294.97	8.576
295.34	8.463
295.71	7.812
296.08	8.262
296.44	9.078
296.81	8.058
297.18	8.537
297.55	6.332
297.91	6.464
298.28	7.363
298.65	9.008
299.02	7.642
299.38	7.703
299.75	6.065
300.12	5.875
300.48	7.250
300.85	7.398
301.22	6.752
301.59	6.187
301.95	7.557
302.32	7.060
302.69	7.766
303.05	6.182
303.42	5.802
303.79	7.022
304.15	6.294
304.52	5.794
304.89	6.039
305.25	6.729
305.62	7.022
305.99	7.202
306.35	7.159
306.72	7.175
307.09	7.547
307.45	7.545
307.82	6.138
308.19	7.064
308.55	7.012
308.92	6.874
309.29	6.547
309.65	6.151
310.02	7.188
310.38	6.989
310.75	6.758
311.12	7.267
311.48	7.941
311.85	7.757
312.22	8.221
312.58	7.173
312.95	8.131
313.31	7.379
313.68	7.796
314.05	9.270
314.41	7.739
314.78	7.351
315.14	7.845
315.51	7.621
315.87	7.921
316.24	8.739
316.61	7.797
316.97	8.121
317.34	7.339
317.70	8.795
318.07	9.336
318.43	8.904
318.80	9.091
319.16	9.322
319.53	8.630
319.89	11.048
320.26	9.600
320.62	10.119
320.99	8.788
321.35	9.596
321.72	10.267
322.08	11.747
322.45	11.144
322.81	11.143
323.18	11.850
323.54	12.152
323.91	11.509
324.27	10.612
324.64	11.650
325.00	11.542
325.37	12.557
325.73	12.478
326.10	12.621
326.46	12.455
326.83	13.201
327.19	12.639
327.56	13.066
327.92	14.698
328.29	14.641
328.65	13.720
329.01	13.267
329.38	14.061
329.74	13.943
330.11	15.363
330.47	14.601
330.84	15.809
331.20	14.390
331.56	13.761
331.93	15.741
332.29	15.173
332.66	16.018
333.02	15.539
333.38	15.718
333.75	16.221
334.11	15.747
334.48	15.617
334.84	14.982
335.20	16.545
335.57	15.594
335.93	15.089
336.29	15.110
336.66	15.239
337.02	16.561
337.38	16.574
337.75	15.954
338.11	14.951
338.47	15.378
338.84	15.857
339.20	15.963
339.56	17.062
339.93	15.455
340.29	15.761
340.65	16.043
341.02	16.405
341.38	16.548
341.74	15.263
342.11	16.419
342.47	16.211
342.83	16.438
343.20	16.537
343.56	16.007
343.92	15.263
344.28	16.667
344.65	16.681
345.01	17.003
345.37	16.038
345.73	16.836
346.10	16.454
346.46	16.610
346.82	16.969
347.19	16.291
347.55	16.092
347.91	15.210
348.27	16.927
348.63	16.973
349.00	17.314
349.36	15.846
349.72	16.520
350.08	16.288
350.45	18.145
350.81	17.059
351.17	16.856
351.53	16.216
351.89	15.924
352.26	17.285
352.62	17.001
352.98	17.423
353.34	17.338
353.70	16.939
354.07	17.339
354.43	17.143
354.79	16.734
355.15	16.840
355.51	17.346
355.87	16.571
356.24	18.241
356.60	16.840
356.96	17.940
357.32	17.825
357.68	17.244
358.04	18.211
358.40	18.211
358.77	17.449
359.13	18.706
359.49	17.412
359.85	17.619
360.21	17.783
360.57	18.288
360.93	19.231
361.29	17.989
361.66	17.337
362.02	19.776
362.38	17.795
362.74	18.006
363.10	17.543
363.46	18.048
363.82	18.141
364.18	19.530
364.54	18.425
364.90	18.059
365.26	18.088
365.62	18.627
365.98	17.604
366.35	17.765
366.71	19.089
367.07	18.135
367.43	19.376
367.79	19.201
368.15	18.750
368.51	19.549
368.87	19.415
369.23	19.386
369.59	19.479
369.95	19.485
370.31	19.444
370.67	19.130
371.03	20.599
371.39	19.242
371.75	19.118
372.11	18.279
372.47	19.868
372.83	20.389
373.19	19.292
373.55	20.103
373.91	21.060
374.27	18.557
374.63	20.291
374.99	20.410
375.35	19.819
375.71	20.219
376.07	20.576
376.42	20.151
376.78	20.808
377.14	20.014
377.50	21.060
377.86	20.745
378.22	20.670
378.58	19.173
378.94	20.427
379.30	20.229
379.66	20.685
380.02	21.560
380.38	21.311
380.74	21.128
381.09	22.188
381.45	21.573
381.81	22.359
382.17	22.293
382.53	22.201
382.89	21.975
383.25	21.701
383.61	22.986
383.97	22.514
384.32	23.206
384.68	20.818
385.04	21.819
385.40	21.672
385.76	23.219
386.12	22.604
386.48	22.970
386.83	22.322
387.19	22.387
387.55	23.006
387.91	22.551
388.27	22.563
388.62	23.356
388.98	22.850
389.34	23.967
389.70	22.379
390.06	23.511
390.42	23.606
390.77	24.300
391.13	23.165
391.49	23.604
391.85	23.043
392.20	22.587
392.56	23.422
392.92	22.955
393.28	22.840
393.64	23.261
393.99	23.458
394.35	22.705
394.71	23.588
395.07	24.486
395.42	23.795
395.78	24.427
396.14	24.829
396.50	24.311
396.85	23.586
397.21	23.551
397.57	23.497
397.92	23.978
398.28	22.926
398.64	24.373
399.00	23.559
399.35	22.786
399.71	24.074
400.07	23.359
400.42	23.374
400.78	24.487
401.14	24.634
401.49	24.179
401.85	23.412
402.21	23.892
402.57	23.381
402.92	24.275
403.28	24.422
403.63	24.010
403.99	23.885
404.35	24.121
404.70	23.681
405.06	23.471
405.42	23.082
405.77	22.914
406.13	23.758
406.49	23.655
406.84	23.745
407.20	22.459
407.55	24.059
407.91	24.200
408.27	24.505
408.62	24.022
408.98	23.836
409.34	24.047
409.69	24.710
410.05	23.730
410.40	24.893
410.76	23.297
411.11	24.125
411.47	23.195
411.83	24.068
412.18	23.438
412.54	23.163
412.89	23.795
413.25	24.085
413.60	24.521
413.96	23.072
414.31	23.512
414.67	23.764
415.03	24.040
415.38	24.742
415.74	23.537
416.09	24.951
416.45	24.029
416.80	23.860
417.16	24.531
417.51	23.756
417.87	24.406
418.22	24.353
418.58	23.886
418.93	24.017
419.29	23.679
419.64	24.118
420.00	23.720
420.35	23.536
420.71	24.088
421.06	23.568
421.42	23.392
421.77	23.430
422.12	23.919
422.48	22.828
422.83	23.995
423.19	23.646
423.54	23.215
423.90	24.232
424.25	23.841
424.61	23.393
424.96	23.673
425.31	23.090
425.67	23.146
426.02	23.143
426.38	23.321
426.73	23.874
427.09	23.343
427.44	23.519
427.79	23.232
428.15	24.226
428.50	22.879
428.85	23.242
429.21	22.474
429.56	24.158
429.92	23.754
430.27	22.393
430.62	21.915
430.98	22.989
431.33	22.577
431.68	22.461
432.04	23.056
432.39	23.415
432.74	24.237
433.10	23.260
433.45	23.265
433.80	22.672
434.16	22.703
434.51	22.526
434.86	23.090
435.22	22.457
435.57	23.283
435.92	22.469
436.28	23.488
436.63	22.792
436.98	23.068
437.34	24.091
437.69	22.870
438.04	22.709
438.39	22.985
438.75	23.068
439.10	22.793
439.45	23.200
439.81	21.692
440.16	22.134
440.51	24.312
440.86	23.509
441.22	22.803
441.57	23.248
441.92	22.671
442.27	22.766
442.63	22.380
442.98	23.211
443.33	22.391
443.68	22.406
444.03	22.548
444.39	22.152
444.74	23.052
445.09	22.857
445.44	22.471
445.79	23.008
446.15	23.504
446.50	22.402
446.85	22.251
447.20	22.794
447.55	22.948
447.91	22.118
448.26	22.649
448.61	23.177
448.96	22.979
449.31	23.735
449.66	22.791
450.02	22.451
450.37	22.279
450.72	21.940
451.07	22.303
451.42	22.310
451.77	23.488
452.12	22.460
452.47	22.512
452.83	22.261
453.18	22.249
453.53	23.253
453.88	22.741
454.23	22.355
454.58	22.895
454.93	23.840
455.28	22.319
455.63	22.694
455.98	23.690
456.34	23.681
456.69	23.043
457.04	22.724
457.39	23.027
457.74	23.215
458.09	22.714
458.44	23.204
458.79	21.855
459.14	22.630
459.49	23.001
459.84	22.493
460.19	22.392
460.54	21.644
460.89	22.436
461.24	22.587
461.59	22.487
461.94	22.072
462.29	22.433
462.64	21.634
462.99	22.316
463.34	23.000
463.69	22.514
464.04	21.913
464.39	22.145
464.74	21.628
465.09	22.195
465.44	21.440
465.79	21.197
466.14	22.003
466.49	21.190
466.84	22.884
467.19	22.873
467.54	22.875
467.89	22.089
468.24	21.291
468.59	22.039
468.94	21.869
469.29	22.751
469.64	23.025
469.99	23.004
470.34	21.334
470.68	22.126
471.03	22.313
471.38	22.794
471.73	22.785
472.08	22.237
472.43	21.482
472.78	22.383
473.13	22.786
473.48	21.723
473.83	21.829
474.17	21.717
474.52	21.960
474.87	22.358
475.22	21.300
475.57	20.795
475.92	21.774
476.27	21.702
476.61	21.346
476.96	21.385
477.31	20.827
477.66	21.663
478.01	21.328
478.36	21.417
478.70	20.924
479.05	21.672
479.40	21.648
479.75	20.844
480.10	19.831
480.45	20.609
480.79	20.831
481.14	20.744
481.49	20.883
481.84	20.393
482.19	21.036
482.53	20.826
482.88	21.126
483.23	21.262
483.58	21.110
483.92	20.853
484.27	19.564
484.62	20.345
484.97	20.260
485.31	20.582
485.66	19.174
486.01	18.312
486.36	17.048
486.70	17.020
487.05	17.659
487.40	18.233
487.75	18.346
488.09	18.835
488.44	19.079
488.79	19.892
489.13	19.939
489.48	19.535
489.83	20.328
490.17	20.079
490.52	19.885
490.87	20.579
491.22	20.418
491.56	20.228
491.91	20.987
492.26	20.395
492.60	20.276
492.95	19.832
493.30	20.514
493.64	20.392
493.99	19.591
494.34	20.768
494.68	20.696
495.03	20.254
495.37	19.637
495.72	19.786
496.07	20.418
496.41	19.690
496.76	19.789
497.11	19.946
497.45	19.795
497.80	20.106
498.14	20.242
498.49	20.390
498.84	20.566
499.18	20.048
499.53	20.275
499.87	19.571
500.22	20.396
500.56	20.631
500.91	20.673
501.26	19.630
501.60	20.551
501.95	20.027
502.29	20.900
502.64	19.972
502.98	19.682
503.33	19.881
503.67	20.464
504.02	20.253
504.36	19.841
504.71	20.029
505.06	21.108
505.40	20.272
505.75	19.865
506.09	20.311
506.44	20.523
506.78	20.312
507.13	21.100
507.47	20.455
507.82	20.770
508.16	20.263
508.51	21.055
508.85	19.811
509.19	20.561
509.54	20.612
509.88	20.093
510.23	20.463
510.57	21.156
510.92	20.922
511.26	20.349
511.61	20.591
511.95	19.833
512.30	20.042
512.64	20.097
512.98	20.793
513.33	21.520
513.67	20.171
514.02	20.346
514.36	20.754
514.70	20.753
515.05	20.524
515.39	20.920
515.74	20.721
516.08	20.906
516.42	20.644
516.77	21.126
517.11	20.699
517.46	21.670
517.80	20.383
518.14	20.151
518.49	21.470
518.83	20.852
519.17	21.420
519.52	21.109
519.86	21.278
520.20	20.983
520.55	21.724
520.89	21.229
521.23	21.230
521.58	21.609
521.92	21.372
522.26	20.012
522.61	21.807
522.95	21.363
523.29	21.181
523.64	21.829
523.98	21.319
524.32	20.326
524.66	22.189
525.01	21.201
525.35	21.066
525.69	21.121
526.04	21.994
526.38	20.805
526.72	21.104
527.06	21.469
527.41	20.359
527.75	22.251
528.09	21.195
528.43	21.415
528.78	21.328
529.12	20.606
529.46	21.433
529.80	21.163
530.15	21.246
530.49	20.800
530.83	21.962
531.17	22.193
531.51	22.179
531.86	20.903
532.20	22.751
532.54	22.614
532.88	22.208
533.22	21.611
533.57	20.802
533.91	20.409
534.25	20.170
534.59	21.110
534.93	20.583
535.27	21.062
535.62	21.795
535.96	21.406
536.30	20.470
536.64	22.215
536.98	21.500
537.32	20.935
537.66	21.867
538.01	20.869
538.35	21.784
538.69	21.442
539.03	20.663
539.37	21.278
539.71	19.831
540.05	21.176
540.39	20.864
540.73	20.893
541.07	21.480
541.42	21.396
541.76	20.903
542.10	21.669
542.44	21.589
542.78	21.278
543.12	19.706
543.46	21.639
543.80	20.755
544.14	19.833
544.48	21.714
544.82	21.488
545.16	21.405
545.50	19.666
545.84	20.094
546.18	21.347
546.52	22.023
546.86	20.550
547.20	22.252
547.54	21.242
547.88	22.449
548.22	19.988
548.56	20.503
548.90	20.359
549.24	21.414
549.58	21.214
549.92	21.360
550.26	21.591
550.60	20.816
550.94	20.845
551.28	20.410
551.62	22.358
551.96	21.404
552.30	22.048
552.64	20.825
552.98	20.949
553.32	21.982
553.66	22.086
554.00	21.482
554.34	20.428
554.68	21.316
555.02	20.592
555.36	20.807
555.69	20.974
556.03	21.198
556.37	21.419
556.71	21.419
557.05	20.938
557.39	20.994
557.73	21.383
558.07	21.610
558.41	21.635
558.75	21.528
559.08	21.029
559.42	21.240
559.76	21.765
560.10	20.128
560.44	21.663
560.78	20.359
561.12	21.108
561.45	21.252
561.79	20.040
562.13	20.255
562.47	21.995
562.81	20.851
563.15	19.866
563.48	20.557
563.82	20.352
564.16	20.667
564.50	19.531
564.84	20.860
565.17	19.562
565.51	19.808
565.85	20.685
566.19	20.100
566.52	20.583
566.86	19.289
567.20	19.752
567.54	19.578
567.88	19.446
568.21	19.577
568.55	19.110
568.89	19.018
569.23	18.316
569.56	18.462
569.90	18.075
570.24	17.725
570.57	17.341
570.91	17.001
571.25	16.615
571.59	17.084
571.92	16.763
572.26	16.407
572.60	16.907
572.93	16.942
573.27	17.243
573.61	16.555
573.95	16.641
574.28	16.382
574.62	15.986
574.96	15.866
575.29	16.052
575.63	16.108
575.97	16.064
576.30	16.463
576.64	15.972
576.98	15.848
577.31	16.289
577.65	16.395
577.98	15.802
578.32	15.647
578.66	15.891
578.99	16.115
579.33	15.807
579.67	15.982
580.00	15.800
580.34	16.255
580.67	15.930
581.01	15.786
581.35	16.138
581.68	15.808
582.02	15.113
582.35	15.479
582.69	15.255
583.02	15.756
583.36	15.794
583.70	16.034
584.03	16.275
584.37	16.812
584.70	16.275
585.04	15.974
585.37	16.146
585.71	16.165
586.04	16.018
586.38	15.987
586.72	16.515
587.05	15.892
587.39	16.121
587.72	16.619
588.06	16.142
588.39	16.598
588.73	16.603
589.06	17.108
589.40	16.599
589.73	16.649
590.07	16.940
590.40	17.026
590.73	17.213
591.07	17.705
591.40	17.419
591.74	17.879
592.07	17.321
592.41	17.859
592.74	16.742
593.08	16.889
593.41	16.767
593.75	16.365
594.08	16.795
594.41	16.861
594.75	17.301
595.08	17.466
595.42	16.602
595.75	16.952
596.09	17.537
596.42	17.760
596.75	18.067
597.09	18.528
597.42	17.116
597.75	16.904
598.09	17.826
598.42	17.612
598.76	17.349
599.09	17.104
599.42	16.521
599.76	17.094
600.09	16.539
600.42	16.728
600.76	16.464
601.09	16.466
601.42	17.275
601.76	17.192
602.09	17.194
602.42	17.357
602.76	17.211
603.09	16.798
603.42	17.298
603.76	17.188
604.09	16.789
604.42	17.448
604.76	18.009
605.09	17.999
605.42	17.315
605.75	17.632
606.09	17.324
606.42	17.532
606.75	17.503
607.09	17.832
607.42	17.415
607.75	16.920
608.08	17.195
608.42	17.884
608.75	17.583
609.08	17.946
609.41	17.658
609.75	17.818
610.08	18.567
610.41	18.110
610.74	17.313
611.07	18.775
611.41	18.057
611.74	18.301
612.07	19.099
612.40	18.311
612.73	18.000
613.07	18.481
613.40	19.063
613.73	18.144
614.06	18.011
614.39	18.930
614.72	18.421
615.06	18.855
615.39	18.100
615.72	17.434
616.05	17.491
616.38	18.899
616.71	19.359
617.05	19.847
617.38	18.160
617.71	18.859
618.04	19.591
618.37	19.219
618.70	19.602
619.03	20.132
619.36	20.027
619.69	19.930
620.03	20.055
620.36	19.719
620.69	20.753
621.02	19.617
621.35	20.282
621.68	20.093
622.01	21.440
622.34	20.726
622.67	20.608
623.00	19.883
623.33	19.657
623.66	20.586
623.99	21.429
624.32	20.685
624.65	19.703
624.99	19.334
625.32	20.058
625.65	20.210
625.98	21.214
626.31	21.229
626.64	21.633
626.97	21.446
627.30	20.865
627.63	21.903
627.96	20.606
628.29	22.310
628.62	22.964
628.95	23.302
629.28	21.898
629.61	22.456
629.94	23.143
630.26	21.926
630.59	21.926
630.92	22.893
631.25	21.125
631.58	23.123
631.91	23.225
632.24	21.835
632.57	23.610
632.90	24.452
633.23	22.260
633.56	24.972
633.89	24.122
634.22	23.610
634.55	24.970
634.88	24.072
635.20	25.209
635.53	25.663
635.86	23.144
636.19	24.824
636.52	24.798
636.85	23.024
637.18	23.963
637.51	26.123
637.83	23.551
638.16	24.041
638.49	26.448
638.82	24.399
639.15	24.625
639.48	24.314
639.81	24.799
640.13	26.042
640.46	26.846
640.79	27.609
641.12	24.484
641.45	25.000
641.77	27.246
642.10	26.608
642.43	25.375
642.76	26.471
643.09	25.153
643.41	25.948
643.74	26.080
644.07	27.896
644.40	26.840
644.73	27.087
645.05	27.575
645.38	26.540
645.71	28.341
646.04	27.243
646.36	28.881
646.69	27.258
647.02	26.871
647.35	28.351
647.67	27.611
648.00	29.593
648.33	26.733
648.66	24.697
648.98	28.336
649.31	23.916
649.64	27.205
649.96	26.379
650.29	27.488
650.62	27.346
650.94	27.066
651.27	29.730
651.60	26.290
651.92	26.997
652.25	26.221
652.58	26.168
652.90	27.172
653.23	24.499
653.56	25.512
653.88	26.783
654.21	27.804
654.54	27.063
654.86	25.078
655.19	24.054
655.52	15.481
655.84	12.637
656.17	15.709
656.49	21.629
656.82	21.524
657.15	16.325
657.47	12.195
657.80	9.483
658.13	10.024
658.45	14.647
658.78	15.265
659.10	15.936
659.43	16.950
659.75	18.267
660.08	19.747
660.41	23.464
660.73	25.413
661.06	28.185
661.38	29.636
661.71	29.808
662.03	29.389
662.36	28.032
662.68	30.522
663.01	30.707
663.33	30.573
663.66	28.992
663.98	28.942
664.31	28.151
664.63	28.138
664.96	29.980
665.28	29.508
665.61	29.240
665.93	28.571
666.26	27.383
666.58	30.544
666.91	30.444
667.23	33.483
667.56	28.078
667.88	30.769
668.21	31.130
668.53	29.935
668.86	30.303
669.18	31.343
669.50	31.522
669.83	32.462
670.15	33.111
670.48	28.540
670.80	28.879
671.13	29.936
671.45	28.085
671.77	26.680
672.10	27.172
672.42	26.325
672.75	26.202
673.07	25.880
673.39	26.040
673.72	24.805
674.04	29.412
674.37	27.573
674.69	30.061
675.01	26.987
675.34	31.828
675.66	31.789
675.98	29.939
676.31	28.992
676.63	30.998
676.95	28.721
677.28	29.907
677.60	30.330
677.92	31.435
678.25	29.363
678.57	30.876
678.89	27.255
679.22	28.094
679.54	28.626
679.86	29.174
680.18	26.834
680.51	26.950
680.83	26.690
681.15	28.302
681.48	33.081
681.80	26.886
682.12	25.670
682.44	28.046
682.77	27.495
683.09	32.833
683.41	29.712
683.73	31.567
684.06	30.372
684.38	26.419
684.70	28.682
685.02	26.454
685.34	21.795
685.67	25.874
685.99	23.711
686.31	23.208
686.63	24.735
686.96	25.714
687.28	25.090
687.60	25.362
687.92	27.239
688.24	26.046
688.56	29.920
688.89	29.668
689.21	28.603
689.53	26.722
689.85	30.155
690.17	28.986
690.49	26.752
690.82	27.103
691.14	26.786
691.46	25.105
691.78	28.112
692.10	29.339
692.42	26.747
692.74	24.066
693.06	30.426
693.39	29.158
693.71	29.039
694.03	28.632
694.35	30.303
694.67	27.231
694.99	29.756
695.31	31.373
695.63	28.469
695.95	30.073
696.27	30.711
696.59	30.570
696.91	27.979
697.23	30.282
697.56	25.586
697.88	23.108
698.20	29.583
698.52	28.172
698.84	27.394
699.16	27.419
699.48	29.691
699.80	29.710
700.12	34.026
700.44	28.647
700.76	29.558
701.08	30.460
701.40	32.961
701.72	37.901
702.04	36.080
702.36	32.011
702.68	31.728
703.00	31.579
703.32	29.787
703.64	31.099
703.96	33.426
704.28	31.977
704.60	34.897
704.91	35.905
705.23	30.792
705.55	39.867
705.87	37.874
706.19	37.456
706.51	35.826
706.83	35.152
707.15	31.653
707.47	28.535
707.79	28.256
708.11	29.224
708.43	28.333
708.74	28.316
709.06	33.247
709.38	32.808
709.70	34.884
710.02	29.674
710.34	34.545
710.66	35.522
710.98	30.966
711.29	33.140
711.61	33.628
711.93	29.487
712.25	36.977
712.57	35.662
712.89	35.640
713.20	33.739
713.52	34.868
713.84	33.228
714.16	33.232
714.48	31.609
714.80	34.954
715.11	30.259
715.43	28.487
715.75	31.884
716.07	37.380
716.39	32.915
716.70	34.551
717.02	36.691
717.34	34.276
717.66	37.313
717.97	41.833
718.29	31.481
718.61	33.942
718.93	36.765
719.24	36.678
719.56	37.288
719.88	33.898
720.20	34.797
720.51	33.449
720.83	38.290
721.15	33.582
721.46	32.979
721.78	36.559
722.10	35.849
722.42	34.586
722.73	36.704
723.05	39.754
723.37	36.437
723.68	37.066
724.00	33.740
724.32	37.097
724.63	34.146
724.95	37.238
725.27	41.296
725.58	38.672
725.90	37.226
726.22	38.491
726.53	35.417
726.85	33.788
727.16	32.028
727.48	35.106
727.80	34.848
728.11	32.971
728.43	35.385
728.74	32.975
729.06	33.212
729.38	38.235
729.69	34.164
730.01	33.106
730.32	31.597
730.64	34.448
730.96	29.043
731.27	34.437
731.59	33.333
731.90	33.819
732.22	32.609
732.53	31.889
732.85	33.333
733.16	32.154
733.48	33.555
733.80	28.571
734.11	33.758
734.43	31.065
734.74	31.714
735.06	26.648
735.37	32.370
735.69	29.299
736.00	33.660
736.32	32.087
736.63	32.268
736.95	30.032
737.26	25.850
737.58	31.613
737.89	34.783
738.21	32.423
738.52	34.643
738.83	33.585
739.15	33.846
739.46	35.036
739.78	33.333
740.09	29.846
740.41	35.484
740.72	31.010
741.04	35.926
741.35	35.417
741.66	40.889
741.98	35.377
742.29	43.541
742.61	37.069
742.92	39.819
743.23	39.744
743.55	39.600
743.86	42.105
744.18	42.035
744.49	35.885
744.80	44.601
745.12	45.000
745.43	39.648
745.74	43.243
746.06	38.532
746.37	42.152
746.68	39.367
747.00	44.907
747.31	36.190
747.62	36.283
747.94	40.088
748.25	36.596
748.56	37.004
748.88	36.634
749.19	46.000
749.50	40.000
749.82	34.959
750.13	33.469
750.44	35.401
750.75	32.982
751.07	34.727
751.38	33.101
751.69	32.852
752.01	30.827
752.32	31.769
752.63	32.624
752.94	33.197
753.26	30.000
753.57	30.894
753.88	36.719
754.19	33.929
754.51	35.417
754.82	29.964
755.13	32.075
755.44	31.955
755.75	31.387
756.07	29.433
756.38	32.117
756.69	32.215
757.00	29.940
757.31	28.783
757.63	28.070
757.94	27.078
758.25	26.961
758.56	25.185
758.87	26.882
759.18	28.182
759.50	26.646
759.81	27.414
760.12	29.375
760.43	29.226
760.74	28.261
761.05	26.554
761.36	26.203
761.67	31.818
761.99	30.435
762.30	31.944
762.61	32.443
762.92	32.813
763.23	36.975
763.54	35.200
763.85	33.203
764.16	36.923
764.47	33.460
764.78	30.389
765.10	26.266
765.41	28.909
765.72	29.641
766.03	30.721
766.34	28.000
766.65	36.596
766.96	32.906
767.27	42.132
767.58	40.625
767.89	47.368
768.20	43.678
768.51	34.518
768.82	38.532
769.13	35.772
769.44	38.462
769.75	33.476
770.06	31.193
770.37	37.104
770.68	34.722
770.99	32.889
771.30	30.738
771.61	39.013
771.92	33.197
772.23	41.597
772.54	40.513
772.85	41.885
773.16	43.085
773.47	46.739
773.78	46.193
774.09	44.643
774.39	42.105
774.70	43.210
775.01	45.652
775.32	47.712
775.63	50.658
775.94	45.324
776.25	59.843
776.56	52.239
776.87	53.279
777.18	49.219
777.48	61.832
777.79	51.515
778.10	50.370
778.41	63.393
778.72	47.445
779.03	45.638
779.34	48.322
779.65	43.919
779.95	45.399
780.26	52.941
780.57	55.862
780.88	57.031
781.19	55.639
781.50	48.649
781.80	47.799
782.11	40.113
782.42	48.734
782.73	43.558
783.04	52.027
783.34	57.042
783.65	54.795
783.96	50.000
784.27	55.245
784.57	51.799
784.88	53.704
785.19	55.556
785.50	63.208
785.81	52.985
786.11	63.115
786.42	55.039
786.73	57.522
787.04	62.264
787.34	47.321
787.65	55.000
787.96	56.757
788.26	58.678
788.57	63.559
788.88	49.587
789.19	51.389
789.49	59.848
789.80	45.038
790.11	58.095
790.41	60.396
790.72	65.060
791.03	72.826
791.33	73.256
791.64	65.979
791.95	66.337
792.25	65.556
792.56	68.831
792.87	79.487
793.17	91.139
793.48	74.713
793.79	62.069
794.09	81.818
794.40	57.143
794.70	56.618
795.01	46.667
795.32	48.201
795.62	56.693
795.93	59.483
796.23	58.407
796.54	65.882
796.85	74.324
797.15	97.183
797.46	78.788
797.76	81.928
798.07	74.684
798.37	87.692
798.68	78.788
798.99	76.056
799.29	71.429
799.60	70.455
799.90	83.562
800.21	74.627
800.51	84.483
800.82	98.246
801.12	86.885
801.43	78.788
801.73	68.919
802.04	103.175
802.34	87.654
802.65	85.938
802.95	108.475
803.26	96.875
803.56	87.143
803.87	84.615
804.17	94.118
804.48	98.148
804.78	103.448
805.09	88.235
805.39	101.923
805.70	108.929
806.00	104.918
806.30	78.788
806.61	71.951
806.91	64.557
807.22	71.053
807.52	71.642
807.83	77.465
808.13	76.563
808.43	85.000
808.74	72.368
809.04	88.406
809.35	92.537
809.65	85.526
809.95	106.452
810.26	101.695
810.56	92.063
810.86	118.182
811.17	154.762
811.47	113.333
811.77	100.000
812.08	105.455
812.38	120.000
812.69	166.667
812.99	129.545
813.29	134.694
813.59	100.000
813.90	124.490
814.20	98.182
814.50	90.769
814.81	97.059
815.11	110.204
815.41	95.082
815.72	142.857
816.02	110.909
816.32	140.476
816.62	132.500
816.93	121.951
817.23	133.333
817.53	113.636
817.84	163.636
818.14	136.957
818.44	120.000
818.74	170.588
819.04	145.000
819.35	162.857
819.65	167.647
819.95	142.857
820.25	250.000
820.56	156.410
820.86	129.545
821.16	167.442
821.46	123.077
821.76	132.000
822.07	157.143
822.37	127.500
822.67	157.576
822.97	129.412
823.27	214.286
823.57	154.054
823.88	150.000
824.18	200.000
824.48	138.095
824.78	164.000
825.08	179.167
825.38	159.459
825.69	129.268
825.99	216.667
826.29	172.414
826.59	163.158
826.89	150.000
827.19	185.294
827.49	177.419
827.79	143.182
828.09	140.909
828.39	121.277
828.70	153.061
829.00	188.889
829.30	158.065
829.60	142.500
829.90	320.000
830.20	185.714
830.50	195.652
830.80	217.391
831.10	186.667
831.40	186.667
831.70	173.913
832.00	219.231
832.30	166.667
832.60	325.000
832.90	200.000
833.20	364.286
833.50	158.065
833.80	179.310
834.10	196.875
834.40	203.846
834.70	288.889
835.00	300.000
835.30	168.571
835.60	361.538
835.90	224.138
836.20	378.571
836.50	210.345
836.80	192.000
837.10	163.889
837.40	285.714
837.70	276.471
838.00	218.519
838.30	242.857
838.60	304.762
838.90	230.769
839.19	285.000
839.49	421.429
839.79	315.000
840.09	270.000
840.39	233.333
840.69	295.652
840.99	305.556
841.29	490.000
841.59	375.000
841.88	318.750
842.18	155.172
842.48	238.095
842.78	220.000
843.08	230.435
843.38	184.375
843.68	750.000
843.97	250.000
844.27	189.655
844.57	276.190
844.87	375.000
845.17	229.630
845.47	1233.333
845.76	488.889
846.06	323.529
846.36	450.000
846.66	371.429
846.96	281.250
847.25	436.364
847.55	436.364
847.85	260.870
848.15	540.000
848.44	321.429
848.74	277.778
849.04	317.647
849.34	500.000
849.63	273.684
849.93	472.727
850.23	980.000
850.53	400.000
850.82	1900.000
851.12	-4700.000
851.42	5000.000
851.71	270.000
852.01	-1366.667
852.31	258.333
852.61	1800.000
852.90	285.714
853.20	204.000
853.50	300.000
853.79	257.143
854.09	208.333
854.39	343.750
854.68	181.081
854.98	180.645
855.28	143.333
855.57	200.000
855.87	237.037
856.17	210.526
856.46	273.333
856.76	282.353
857.05	213.793
857.35	225.000
857.65	346.667
857.94	269.565
858.24	230.769
858.53	285.000
858.83	231.818
859.13	346.667
859.42	0.000
859.72	522.222
860.01	445.455
860.31	204.545
860.60	278.947
860.90	247.826
861.20	577.778
861.49	433.333
861.79	-4900.000
862.08	700.000
862.38	252.381
862.67	384.615
862.97	323.529
863.26	533.333
863.56	283.333
863.85	350.000
864.15	687.500
864.44	400.000
864.74	866.667
865.03	700.000
865.33	300.000
865.62	500.000
865.92	469.231
866.21	383.333
866.51	0.000
866.80	481.818
867.10	1000.000
867.39	430.769
867.69	518.182
867.98	257.895
868.27	427.273
868.57	289.474
868.86	-5200.000
869.16	325.000
869.45	2500.000
869.75	-3700.000
870.04	416.667
870.33	671.429
870.63	1050.000
870.92	2450.000
871.22	700.000
871.51	352.941
871.80	228.571
872.10	428.571
>>>>>End Processed Spectral Data<<<<<
