SpectraSuite Data File
++++++++++++++++++++++++++++++++++++
Date: Wed May 13 16:06:20 PDT 2015
User: schluterlab
Dark Spectrum Present: Yes
Reference Spectrum Present: Yes
Number of Sampled Component Spectra: 1
Spectrometers: USB2E3373
Integration Time (usec): 3000 (USB2E3373)
Spectra Averaged: 3 (USB2E3373)
Boxcar Smoothing: 0 (USB2E3373)
Correct for Electrical Dark: No (USB2E3373)
Strobe/Lamp Enabled: No (USB2E3373)
Correct for Detector Non-linearity: No (USB2E3373)
Correct for Stray Light: No (USB2E3373)
Number of Pixels in Processed Spectrum: 2048
>>>>>Begin Processed Spectral Data<<<<<
178.53	0.000
178.91	-975.000
179.29	-850.000
179.67	-94.444
180.04	-750.000
180.42	1750.000
180.80	780.000
181.18	-600.000
181.56	328.571
181.94	0.000
182.31	-442.857
182.69	1000.000
183.07	-325.000
183.45	-322.222
183.83	345.455
184.20	-270.000
184.58	1550.000
184.96	3400.000
185.34	-340.000
185.72	-300.000
186.09	-850.000
186.47	1850.000
186.85	1450.000
187.23	3500.000
187.61	-1200.000
187.98	850.000
188.36	445.455
188.74	336.364
189.12	-500.000
189.49	440.000
189.87	-2900.000
190.25	-775.000
190.63	235.714
191.00	223.077
191.38	616.667
191.76	-600.000
192.14	650.000
192.51	362.500
192.89	650.000
193.27	312.500
193.65	-575.000
194.02	350.000
194.40	620.000
194.78	400.000
195.15	266.667
195.53	350.000
195.91	-1000.000
196.29	237.500
196.66	184.211
197.04	-110.000
197.42	0.000
197.79	500.000
198.17	-3400.000
198.55	500.000
198.92	462.500
199.30	640.000
199.68	0.000
200.05	233.333
200.43	500.000
200.81	2100.000
201.18	1133.333
201.56	-1000.000
201.94	311.111
202.31	477.778
202.69	258.333
203.07	360.000
203.44	0.000
203.82	750.000
204.19	414.286
204.57	250.000
204.95	425.000
205.32	633.333
205.70	281.818
206.08	242.857
206.45	1650.000
206.83	193.750
207.20	500.000
207.58	340.000
207.96	211.111
208.33	412.500
208.71	-483.333
209.08	614.286
209.46	355.556
209.84	245.455
210.21	-900.000
210.59	700.000
210.96	-275.000
211.34	1150.000
211.71	500.000
212.09	483.333
212.46	0.000
212.84	933.333
213.22	850.000
213.59	-2700.000
213.97	516.667
214.34	571.429
214.72	436.364
215.09	680.000
215.47	-1450.000
215.84	-1350.000
216.22	1266.667
216.59	300.000
216.97	900.000
217.34	227.273
217.72	-433.333
218.09	0.000
218.47	-2500.000
218.84	344.444
219.22	528.571
219.59	1066.667
219.97	-457.143
220.34	560.000
220.72	-1133.333
221.09	228.571
221.47	900.000
221.84	-516.667
222.22	0.000
222.59	775.000
222.97	-1550.000
223.34	680.000
223.72	323.077
224.09	780.000
224.46	1150.000
224.84	-3700.000
225.21	-600.000
225.59	-3000.000
225.96	380.000
226.34	205.000
226.71	1700.000
227.08	387.500
227.46	290.000
227.83	-550.000
228.21	-800.000
228.58	244.444
228.95	-1800.000
229.33	-1350.000
229.70	1233.333
230.08	528.571
230.45	-520.000
230.82	316.667
231.20	566.667
231.57	528.571
231.95	266.667
232.32	150.000
232.69	190.909
233.07	428.571
233.44	307.692
233.81	-1100.000
234.19	173.684
234.56	358.333
234.93	250.000
235.31	290.909
235.68	246.154
236.05	171.429
236.43	133.333
236.80	168.421
237.17	2300.000
237.55	147.619
237.92	121.429
238.29	161.905
238.67	148.387
239.04	124.138
239.41	94.444
239.79	76.087
240.16	100.000
240.53	102.273
240.91	84.314
241.28	78.000
241.65	76.000
242.02	95.652
242.40	82.258
242.77	73.333
243.14	60.215
243.51	70.787
243.89	58.824
244.26	52.222
244.63	53.763
245.00	56.383
245.38	58.416
245.75	52.336
246.12	59.633
246.49	57.664
246.87	60.800
247.24	53.846
247.61	48.571
247.98	48.366
248.36	38.514
248.73	49.682
249.10	44.586
249.47	35.593
249.84	43.316
250.22	40.642
250.59	45.562
250.96	47.475
251.33	47.867
251.70	41.089
252.08	41.429
252.45	37.220
252.82	40.435
253.19	40.000
253.56	40.000
253.94	40.249
254.31	35.937
254.68	39.231
255.05	38.745
255.42	39.024
255.79	37.868
256.16	40.433
256.54	36.042
256.91	37.011
257.28	32.374
257.65	38.614
258.02	34.472
258.39	35.016
258.76	37.458
259.14	38.988
259.51	30.699
259.88	33.851
260.25	36.858
260.62	32.659
260.99	35.404
261.36	33.634
261.73	34.384
262.10	35.756
262.47	34.366
262.85	35.655
263.22	31.909
263.59	35.897
263.96	34.890
264.33	33.681
264.70	34.474
265.07	35.806
265.44	36.364
265.81	35.036
266.18	33.166
266.55	33.171
266.92	33.415
267.29	35.648
267.66	33.945
268.03	33.182
268.40	31.075
268.77	34.129
269.14	32.883
269.51	32.957
269.88	33.800
270.25	33.409
270.62	31.011
270.99	31.398
271.36	32.189
271.73	32.944
272.10	33.696
272.47	35.484
272.84	30.736
273.21	32.914
273.58	28.821
273.95	28.931
274.32	30.372
274.69	33.405
275.06	30.709
275.43	31.064
275.80	30.261
276.17	33.401
276.54	32.225
276.91	33.004
277.28	30.664
277.65	32.302
278.02	31.470
278.39	33.008
278.76	30.182
279.13	30.566
279.50	30.726
279.87	32.669
280.23	31.737
280.60	30.561
280.97	30.684
281.34	32.035
281.71	30.000
282.08	32.054
282.45	31.091
282.82	30.373
283.19	28.520
283.56	29.123
283.92	30.288
284.29	29.982
284.66	29.764
285.03	29.656
285.40	30.458
285.77	29.798
286.14	29.361
286.51	30.667
286.87	29.573
287.24	30.619
287.61	27.929
287.98	28.734
288.35	30.111
288.72	28.349
289.08	28.169
289.45	29.489
289.82	27.805
290.19	27.786
290.56	26.187
290.93	25.680
291.29	27.607
291.66	26.549
292.03	30.378
292.40	27.166
292.77	25.148
293.13	25.224
293.50	26.239
293.87	27.556
294.24	25.037
294.60	24.163
294.97	26.890
295.34	28.491
295.71	26.705
296.08	25.783
296.44	25.447
296.81	24.967
297.18	26.287
297.55	23.087
297.91	25.066
298.28	24.900
298.65	24.282
299.02	24.769
299.38	24.170
299.75	21.563
300.12	23.244
300.48	25.375
300.85	25.031
301.22	24.331
301.59	23.359
301.95	24.433
302.32	24.005
302.69	23.895
303.05	24.242
303.42	24.691
303.79	23.216
304.15	23.310
304.52	24.797
304.89	22.067
305.25	23.898
305.62	24.009
305.99	24.085
306.35	23.602
306.72	23.767
307.09	24.639
307.45	25.000
307.82	23.326
308.19	23.951
308.55	24.919
308.92	24.919
309.29	23.020
309.65	23.966
310.02	23.467
310.38	25.161
310.75	25.132
311.12	24.872
311.48	25.078
311.85	26.101
312.22	25.286
312.58	25.260
312.95	27.138
313.31	24.563
313.68	27.755
314.05	27.120
314.41	26.734
314.78	27.291
315.14	27.607
315.51	27.291
315.87	28.416
316.24	27.905
316.61	27.973
316.97	27.299
317.34	28.376
317.70	28.967
318.07	29.163
318.43	29.452
318.80	30.272
319.16	29.661
319.53	30.206
319.89	29.429
320.26	30.200
320.62	31.250
320.99	31.010
321.35	30.909
321.72	32.341
322.08	32.083
322.45	32.935
322.81	33.333
323.18	34.875
323.54	32.746
323.91	34.057
324.27	34.608
324.64	33.924
325.00	33.273
325.37	35.942
325.73	35.099
326.10	34.951
326.46	35.484
326.83	35.720
327.19	36.294
327.56	37.108
327.92	36.133
328.29	38.243
328.65	38.582
329.01	37.906
329.38	39.223
329.74	37.858
330.11	38.737
330.47	39.394
330.84	40.441
331.20	37.978
331.56	38.165
331.93	38.148
332.29	39.042
332.66	38.850
333.02	38.300
333.38	39.024
333.75	39.305
334.11	40.214
334.48	38.154
334.84	39.522
335.20	40.545
335.57	38.531
335.93	37.857
336.29	39.194
336.66	39.315
337.02	37.466
337.38	38.889
337.75	38.146
338.11	38.675
338.47	40.055
338.84	39.413
339.20	40.734
339.56	41.697
339.93	39.000
340.29	38.406
340.65	39.037
341.02	39.354
341.38	40.302
341.74	38.333
342.11	39.651
342.47	38.767
342.83	39.897
343.20	38.701
343.56	38.416
343.92	38.421
344.28	39.201
344.65	39.381
345.01	38.300
345.37	38.851
345.73	40.186
346.10	39.812
346.46	37.542
346.82	38.386
347.19	38.931
347.55	39.245
347.91	39.239
348.27	38.866
348.63	39.130
349.00	38.997
349.36	39.163
349.72	39.615
350.08	38.493
350.45	39.626
350.81	40.130
351.17	38.898
351.53	39.230
351.89	39.439
352.26	39.463
352.62	38.492
352.98	38.331
353.34	38.866
353.70	39.116
354.07	39.355
354.43	37.698
354.79	38.455
355.15	38.148
355.51	39.808
355.87	40.490
356.24	39.984
356.60	39.455
356.96	40.869
357.32	38.675
357.68	39.606
358.04	39.509
358.40	39.351
358.77	39.202
359.13	38.200
359.49	39.059
359.85	38.968
360.21	40.510
360.57	40.700
360.93	40.000
361.29	39.456
361.66	39.938
362.02	39.851
362.38	40.608
362.74	40.402
363.10	38.268
363.46	39.325
363.82	40.060
364.18	38.693
364.54	40.639
364.90	40.439
365.26	40.368
365.62	40.614
365.98	40.687
366.35	39.470
366.71	40.564
367.07	40.350
367.43	41.001
367.79	41.042
368.15	42.313
368.51	40.189
368.87	42.184
369.23	41.405
369.59	41.709
369.95	40.074
370.31	41.097
370.67	39.710
371.03	42.547
371.39	41.764
371.75	41.324
372.11	42.176
372.47	41.862
372.83	43.444
373.19	41.474
373.55	42.646
373.91	43.152
374.27	41.237
374.63	41.236
374.99	42.232
375.35	42.010
375.71	42.289
376.07	42.730
376.42	42.572
376.78	43.141
377.14	42.266
377.50	43.510
377.86	42.819
378.22	42.794
378.58	41.855
378.94	42.929
379.30	43.130
379.66	42.449
380.02	43.796
380.38	43.169
380.74	44.118
381.09	44.254
381.45	44.130
381.81	44.165
382.17	44.650
382.53	44.277
382.89	44.938
383.25	44.715
383.61	45.911
383.97	45.466
384.32	43.606
384.68	44.734
385.04	44.130
385.40	43.839
385.76	45.762
386.12	45.337
386.48	45.689
386.83	46.568
387.19	46.259
387.55	46.135
387.91	45.405
388.27	45.126
388.62	45.790
388.98	45.577
389.34	46.746
389.70	45.494
390.06	46.071
390.42	46.368
390.77	44.593
391.13	47.671
391.49	46.256
391.85	46.340
392.20	46.309
392.56	46.149
392.92	46.675
393.28	45.266
393.64	47.302
393.99	45.999
394.35	46.712
394.71	46.612
395.07	45.109
395.42	46.477
395.78	46.501
396.14	45.686
396.50	47.744
396.85	47.743
397.21	45.623
397.57	45.939
397.92	46.274
398.28	45.460
398.64	45.102
399.00	46.726
399.35	45.178
399.71	45.891
400.07	44.589
400.42	46.074
400.78	45.235
401.14	45.427
401.49	45.791
401.85	44.828
402.21	46.407
402.57	45.096
402.92	45.460
403.28	46.096
403.63	46.287
403.99	46.306
404.35	44.303
404.70	45.084
405.06	44.496
405.42	45.415
405.77	45.257
406.13	43.454
406.49	46.363
406.84	44.595
407.20	44.149
407.55	44.863
407.91	46.200
408.27	45.246
408.62	45.154
408.98	45.221
409.34	44.096
409.69	44.968
410.05	44.857
410.40	44.954
410.76	44.385
411.11	44.934
411.47	43.387
411.83	44.411
412.18	44.712
412.54	44.707
412.89	43.012
413.25	44.687
413.60	44.842
413.96	43.655
414.31	43.803
414.67	43.726
415.03	45.099
415.38	43.879
415.74	45.016
416.09	43.697
416.45	43.842
416.80	44.349
417.16	45.040
417.51	45.123
417.87	43.288
418.22	44.606
418.58	44.932
418.93	45.025
419.29	43.666
419.64	44.270
420.00	44.329
420.35	43.536
420.71	45.129
421.06	43.556
421.42	44.912
421.77	44.731
422.12	43.796
422.48	43.929
422.83	45.428
423.19	43.702
423.54	44.109
423.90	44.406
424.25	44.165
424.61	44.821
424.96	44.548
425.31	43.798
425.67	44.045
426.02	44.571
426.38	45.055
426.73	44.412
427.09	45.106
427.44	44.738
427.79	44.681
428.15	45.833
428.50	44.002
428.85	44.696
429.21	43.898
429.56	44.997
429.92	44.439
430.27	45.333
430.62	43.932
430.98	44.421
431.33	43.711
431.68	45.131
432.04	43.930
432.39	45.974
432.74	45.422
433.10	45.161
433.45	45.364
433.80	45.455
434.16	44.444
434.51	44.316
434.86	45.268
435.22	45.525
435.57	44.620
435.92	44.295
436.28	45.730
436.63	44.978
436.98	45.392
437.34	46.392
437.69	46.266
438.04	46.037
438.39	44.716
438.75	46.136
439.10	45.642
439.45	45.336
439.81	46.163
440.16	45.737
440.51	44.991
440.86	45.049
441.22	45.495
441.57	45.223
441.92	46.315
442.27	46.663
442.63	44.918
442.98	46.085
443.33	45.652
443.68	45.483
444.03	45.046
444.39	44.791
444.74	45.887
445.09	45.499
445.44	45.216
445.79	44.928
446.15	44.415
446.50	45.450
446.85	45.529
447.20	45.487
447.55	45.338
447.91	45.229
448.26	45.687
448.61	46.015
448.96	45.293
449.31	45.782
449.66	44.795
450.02	44.680
450.37	45.408
450.72	45.178
451.07	44.912
451.42	44.863
451.77	46.271
452.12	44.746
452.47	45.398
452.83	45.862
453.18	44.988
453.53	45.949
453.88	45.363
454.23	45.607
454.58	44.882
454.93	46.217
455.28	44.514
455.63	45.510
455.98	45.714
456.34	45.666
456.69	45.147
457.04	45.759
457.39	44.126
457.74	45.096
458.09	45.716
458.44	45.667
458.79	45.174
459.14	45.034
459.49	45.242
459.84	44.820
460.19	45.138
460.54	44.039
460.89	45.804
461.24	46.023
461.59	45.090
461.94	46.054
462.29	45.223
462.64	43.714
462.99	44.893
463.34	45.333
463.69	45.403
464.04	43.594
464.39	45.275
464.74	44.682
465.09	43.305
465.44	44.044
465.79	43.345
466.14	43.897
466.49	43.771
466.84	43.724
467.19	44.599
467.54	44.812
467.89	43.457
468.24	44.037
468.59	43.223
468.94	43.005
469.29	44.473
469.64	45.716
469.99	45.332
470.34	43.923
470.68	44.325
471.03	44.966
471.38	45.031
471.73	44.370
472.08	44.934
472.43	43.028
472.78	43.713
473.13	44.544
473.48	44.257
473.83	44.573
474.17	43.062
474.52	43.797
474.87	43.024
475.22	43.239
475.57	42.397
475.92	43.601
476.27	43.067
476.61	43.298
476.96	43.815
477.31	43.014
477.66	44.530
478.01	42.133
478.36	43.258
478.70	42.679
479.05	43.930
479.40	42.119
479.75	42.755
480.10	41.849
480.45	42.123
480.79	42.857
481.14	42.710
481.49	42.905
481.84	42.798
482.19	43.162
482.53	41.835
482.88	41.973
483.23	43.131
483.58	43.130
483.92	42.971
484.27	41.656
484.62	42.112
484.97	41.663
485.31	43.253
485.66	42.650
486.01	40.567
486.36	39.816
486.70	39.239
487.05	39.378
487.40	41.113
487.75	41.840
488.09	42.008
488.44	42.061
488.79	42.495
489.13	43.277
489.48	42.414
489.83	42.253
490.17	42.262
490.52	41.231
490.87	42.741
491.22	41.519
491.56	41.276
491.91	41.694
492.26	40.744
492.60	41.613
492.95	41.487
493.30	41.589
493.64	41.437
493.99	41.551
494.34	40.981
494.68	40.980
495.03	41.447
495.37	40.670
495.72	42.398
496.07	41.624
496.41	40.841
496.76	41.337
497.11	41.378
497.45	41.407
497.80	41.651
498.14	40.531
498.49	41.268
498.84	40.460
499.18	40.905
499.53	41.168
499.87	41.146
500.22	40.179
500.56	40.874
500.91	41.394
501.26	40.066
501.60	41.338
501.95	40.101
502.29	41.143
502.64	42.132
502.98	40.299
503.33	39.899
503.67	40.696
504.02	40.271
504.36	40.618
504.71	40.694
505.06	40.675
505.40	39.718
505.75	39.971
506.09	40.185
506.44	40.997
506.78	40.234
507.13	41.393
507.47	41.212
507.82	40.578
508.16	40.628
508.51	41.755
508.85	40.367
509.19	40.612
509.54	41.173
509.88	40.392
510.23	39.743
510.57	42.673
510.92	41.015
511.26	40.134
511.61	40.975
511.95	40.188
512.30	39.926
512.64	39.441
512.98	40.354
513.33	40.471
513.67	39.061
514.02	40.206
514.36	40.415
514.70	41.118
515.05	40.045
515.39	40.101
515.74	40.034
516.08	40.805
516.42	40.344
516.77	40.747
517.11	40.011
517.46	40.350
517.80	40.883
518.14	39.548
518.49	41.482
518.83	40.909
519.17	40.185
519.52	39.842
519.86	39.989
520.20	41.387
520.55	40.515
520.89	40.511
521.23	39.807
521.58	40.156
521.92	40.355
522.26	38.316
522.61	40.935
522.95	40.945
523.29	40.049
523.64	41.037
523.98	41.035
524.32	38.601
524.66	40.589
525.01	40.012
525.35	39.467
525.69	40.394
526.04	40.187
526.38	39.292
526.72	40.123
527.06	39.548
527.41	38.119
527.75	40.579
528.09	40.462
528.43	39.069
528.78	39.766
529.12	39.636
529.46	39.253
529.80	39.728
530.15	39.688
530.49	37.969
530.83	38.544
531.17	40.535
531.51	40.597
531.86	39.290
532.20	39.961
532.54	39.718
532.88	39.409
533.22	38.726
533.57	39.321
533.91	38.049
534.25	38.943
534.59	40.268
534.93	38.311
535.27	38.805
535.62	38.645
535.96	40.050
536.30	39.288
536.64	38.699
536.98	39.681
537.32	38.446
537.66	39.267
538.01	39.434
538.35	38.979
538.69	39.247
539.03	38.207
539.37	38.594
539.71	37.913
540.05	38.758
540.39	38.804
540.73	37.710
541.07	39.260
541.42	38.421
541.76	38.516
542.10	39.004
542.44	38.146
542.78	39.526
543.12	36.852
543.46	38.295
543.80	38.191
544.14	38.318
544.48	38.476
544.82	38.679
545.16	38.842
545.50	36.632
545.84	37.903
546.18	38.451
546.52	38.197
546.86	38.488
547.20	38.031
547.54	38.277
547.88	38.520
548.22	38.045
548.56	37.925
548.90	37.260
549.24	36.970
549.58	37.176
549.92	37.775
550.26	38.565
550.60	36.722
550.94	38.662
551.28	35.772
551.62	39.468
551.96	37.754
552.30	37.816
552.64	37.728
552.98	37.831
553.32	36.750
553.66	38.582
554.00	38.023
554.34	37.060
554.68	38.841
555.02	37.518
555.36	37.996
555.69	37.551
556.03	37.550
556.37	37.449
556.71	36.562
557.05	36.765
557.39	36.949
557.73	37.685
558.07	37.854
558.41	36.903
558.75	36.958
559.08	37.360
559.42	37.566
559.76	38.309
560.10	36.474
560.44	38.085
560.78	36.327
561.12	36.807
561.45	36.767
561.79	36.256
562.13	36.284
562.47	37.705
562.81	37.727
563.15	36.187
563.48	38.196
563.82	37.573
564.16	37.214
564.50	35.872
564.84	36.662
565.17	36.680
565.51	36.805
565.85	37.310
566.19	35.942
566.52	36.035
566.86	35.021
567.20	38.090
567.54	36.815
567.88	35.578
568.21	36.085
568.55	35.895
568.89	36.138
569.23	35.205
569.56	35.668
569.90	35.019
570.24	35.127
570.57	34.852
570.91	34.034
571.25	34.775
571.59	33.962
571.92	34.159
572.26	34.200
572.60	34.955
572.93	34.153
573.27	34.309
573.61	34.701
573.95	34.393
574.28	33.920
574.62	34.111
574.96	33.405
575.29	33.802
575.63	33.918
575.97	33.533
576.30	34.387
576.64	34.243
576.98	34.200
577.31	34.219
577.65	33.941
577.98	33.414
578.32	33.002
578.66	33.857
578.99	32.892
579.33	33.817
579.67	33.228
580.00	33.829
580.34	33.697
580.67	34.011
581.01	34.270
581.35	34.261
581.68	33.755
582.02	33.479
582.35	33.472
582.69	33.447
583.02	33.333
583.36	34.033
583.70	34.191
584.03	34.169
584.37	34.572
584.70	35.136
585.04	33.317
585.37	33.737
585.71	34.046
586.04	33.317
586.38	33.934
586.72	34.300
587.05	33.686
587.39	33.562
587.72	33.754
588.06	33.511
588.39	33.635
588.73	34.204
589.06	34.123
589.40	34.714
589.73	34.600
590.07	34.342
590.40	34.308
590.73	34.114
591.07	35.979
591.40	34.880
591.74	34.545
592.07	35.122
592.41	35.014
592.74	33.933
593.08	33.478
593.41	33.344
593.75	32.948
594.08	32.451
594.41	33.510
594.75	34.307
595.08	34.037
595.42	34.501
595.75	34.402
596.09	34.698
596.42	34.617
596.75	34.951
597.09	34.199
597.42	33.390
597.75	34.196
598.09	34.739
598.42	33.720
598.76	34.049
599.09	33.713
599.42	33.552
599.76	33.712
600.09	33.661
600.42	33.419
600.76	33.250
601.09	33.515
601.42	33.257
601.76	34.156
602.09	33.281
602.42	34.275
602.76	33.736
603.09	34.068
603.42	33.737
603.76	32.965
604.09	33.734
604.42	33.102
604.76	34.838
605.09	34.120
605.42	33.476
605.75	33.733
606.09	33.632
606.42	33.919
606.75	33.596
607.09	33.319
607.42	33.975
607.75	33.165
608.08	32.566
608.42	32.945
608.75	33.454
609.08	32.932
609.41	33.508
609.75	33.540
610.08	34.260
610.41	33.101
610.74	33.302
611.07	34.190
611.41	32.728
611.74	33.484
612.07	34.679
612.40	34.260
612.73	33.579
613.07	34.267
613.40	34.439
613.73	32.722
614.06	33.656
614.39	32.617
614.72	32.842
615.06	34.716
615.39	32.803
615.72	33.078
616.05	33.014
616.38	33.741
616.71	34.857
617.05	33.981
617.38	32.652
617.71	33.874
618.04	33.714
618.37	33.235
618.70	33.914
619.03	34.342
619.36	34.352
619.69	33.944
620.03	34.341
620.36	34.693
620.69	35.479
621.02	35.029
621.35	33.594
621.68	33.645
622.01	34.443
622.34	34.418
622.67	34.829
623.00	33.969
623.33	33.881
623.66	34.525
623.99	33.947
624.32	33.452
624.65	34.181
624.99	32.578
625.32	33.382
625.65	35.312
625.98	34.512
626.31	34.603
626.64	35.673
626.97	34.663
627.30	34.746
627.63	35.357
627.96	35.156
628.29	34.996
628.62	34.675
628.95	35.377
629.28	34.945
629.61	36.480
629.94	35.429
630.26	34.414
630.59	35.272
630.92	33.525
631.25	34.650
631.58	35.135
631.91	33.976
632.24	35.232
632.57	34.732
632.90	33.662
633.23	34.676
633.56	35.593
633.89	35.787
634.22	35.755
634.55	37.633
634.88	35.689
635.20	34.767
635.53	37.831
635.86	34.406
636.19	34.824
636.52	35.294
636.85	33.677
637.18	34.562
637.51	36.525
637.83	34.279
638.16	35.678
638.49	34.761
638.82	36.283
639.15	36.000
639.48	35.162
639.81	36.863
640.13	35.026
640.46	36.376
640.79	34.742
641.12	35.626
641.45	34.078
641.77	35.788
642.10	35.673
642.43	33.634
642.76	34.520
643.09	36.043
643.41	35.660
643.74	35.957
644.07	35.976
644.40	36.656
644.73	36.063
645.05	36.926
645.38	36.177
645.71	36.393
646.04	33.721
646.36	38.230
646.69	35.953
647.02	34.524
647.35	35.911
647.67	36.814
648.00	35.935
648.33	37.624
648.66	32.576
648.98	36.432
649.31	34.978
649.64	36.622
649.96	34.426
650.29	36.809
650.62	34.142
650.94	34.198
651.27	36.149
651.60	37.105
651.92	35.942
652.25	34.528
652.58	34.268
652.90	36.019
653.23	33.128
653.56	33.543
653.88	35.816
654.21	35.545
654.54	36.139
654.86	35.358
655.19	34.459
655.52	27.794
655.84	26.718
656.17	34.015
656.49	45.855
656.82	47.089
657.15	35.948
657.47	26.621
657.80	21.054
658.13	22.106
658.45	32.922
658.78	34.109
659.10	34.567
659.43	36.419
659.75	37.383
660.08	39.051
660.41	41.061
660.73	40.407
661.06	39.013
661.38	40.545
661.71	38.077
662.03	39.645
662.36	34.394
662.68	34.538
663.01	35.960
663.33	37.367
663.66	35.294
663.98	37.365
664.31	34.244
664.63	36.235
664.96	34.004
665.28	36.270
665.61	35.283
665.93	34.809
666.26	35.700
666.58	38.075
666.91	37.209
667.23	37.978
667.56	35.421
667.88	36.966
668.21	36.034
668.53	35.358
668.86	35.498
669.18	37.527
669.50	33.913
669.83	39.869
670.15	36.222
670.48	34.641
670.80	34.483
671.13	39.066
671.45	35.532
671.77	38.493
672.10	35.490
672.42	33.392
672.75	33.997
673.07	37.148
673.39	35.805
673.72	34.180
674.04	33.725
674.37	36.893
674.69	33.538
675.01	34.937
675.34	37.988
675.66	38.737
675.98	35.234
676.31	36.134
676.63	34.607
676.95	36.688
677.28	39.720
677.60	37.363
677.92	39.241
678.25	37.166
678.57	37.052
678.89	37.275
679.22	34.971
679.54	35.687
679.86	35.229
680.18	35.063
680.51	34.397
680.83	34.875
681.15	35.094
681.48	36.862
681.80	34.623
682.12	33.716
682.44	34.816
682.77	33.605
683.09	40.773
683.41	36.142
683.73	34.658
684.06	36.364
684.38	35.616
684.70	34.884
685.02	35.647
685.34	35.531
685.67	33.042
685.99	32.990
686.31	35.836
686.63	36.042
686.96	34.643
687.28	34.838
687.60	32.971
687.92	33.455
688.24	37.452
688.56	37.149
688.89	37.759
689.21	36.681
689.53	35.073
689.85	36.807
690.17	33.954
690.49	36.518
690.82	37.150
691.14	34.821
691.46	37.131
691.78	35.341
692.10	35.537
692.42	35.329
692.74	32.780
693.06	34.255
693.39	36.345
693.71	33.188
694.03	36.421
694.35	37.662
694.67	35.240
694.99	39.512
695.31	33.088
695.63	35.407
695.95	36.919
696.27	32.741
696.59	35.233
696.91	37.565
697.23	31.690
697.56	33.262
697.88	33.742
698.20	33.958
698.52	34.194
698.84	34.744
699.16	35.714
699.48	35.629
699.80	34.541
700.12	40.779
700.44	35.544
700.76	37.293
701.08	37.069
701.40	38.547
701.72	36.152
702.04	36.648
702.36	31.445
702.68	38.244
703.00	39.058
703.32	36.170
703.64	38.070
703.96	35.655
704.28	37.500
704.60	36.657
704.91	40.356
705.23	37.537
705.55	39.535
705.87	41.860
706.19	35.689
706.51	38.629
706.83	36.970
707.15	36.975
707.47	33.586
707.79	34.889
708.11	36.301
708.43	35.000
708.74	32.398
709.06	34.286
709.38	36.220
709.70	41.279
710.02	38.576
710.34	34.242
710.66	38.507
710.98	39.205
711.29	37.209
711.61	37.463
711.93	35.256
712.25	43.408
712.57	37.868
712.89	37.716
713.20	35.258
713.52	35.855
713.84	30.696
714.16	33.537
714.48	38.218
714.80	40.122
715.11	37.752
715.43	36.499
715.75	38.841
716.07	38.658
716.39	33.856
716.70	35.216
717.02	37.050
717.34	34.629
717.66	38.806
717.97	41.833
718.29	36.296
718.61	36.131
718.93	40.074
719.24	38.754
719.56	32.203
719.88	37.627
720.20	37.162
720.51	36.934
720.83	39.405
721.15	36.567
721.46	34.752
721.78	37.634
722.10	41.509
722.42	43.985
722.73	37.453
723.05	36.885
723.37	36.842
723.68	38.224
724.00	40.650
724.32	39.516
724.63	38.211
724.95	38.494
725.27	42.105
725.58	42.188
725.90	38.321
726.22	41.132
726.53	39.236
726.85	36.860
727.16	36.655
727.48	39.007
727.80	35.606
728.11	39.855
728.43	32.692
728.74	37.276
729.06	42.336
729.38	40.441
729.69	38.434
730.01	36.860
730.32	35.764
730.64	39.130
730.96	34.323
731.27	36.093
731.59	39.755
731.90	37.318
732.22	36.025
732.53	34.675
732.85	40.385
733.16	34.727
733.48	36.213
733.80	42.208
734.11	36.306
734.43	33.432
734.74	35.429
735.06	34.097
735.37	37.861
735.69	32.803
736.00	34.641
736.32	37.072
736.63	32.588
736.95	34.185
737.26	31.973
737.58	37.419
737.89	40.134
738.21	34.130
738.52	35.714
738.83	39.623
739.15	38.846
739.46	37.226
739.78	35.069
740.09	36.923
740.41	35.806
740.72	32.753
741.04	37.778
741.35	41.250
741.66	40.889
741.98	38.208
742.29	38.756
742.61	40.086
742.92	40.271
743.23	40.171
743.55	39.200
743.86	38.158
744.18	40.265
744.49	41.148
744.80	40.376
745.12	37.727
745.43	34.802
745.74	42.793
746.06	38.532
746.37	42.152
746.68	37.557
747.00	39.352
747.31	42.857
747.62	39.823
747.94	32.599
748.25	38.723
748.56	41.410
748.88	37.129
749.19	42.500
749.50	40.000
749.82	36.585
750.13	34.286
750.44	37.591
750.75	36.491
751.07	38.907
751.38	39.024
751.69	40.433
752.01	39.850
752.32	33.935
752.63	35.816
752.94	38.525
753.26	43.600
753.57	39.024
753.88	39.453
754.19	32.857
754.51	44.097
754.82	37.184
755.13	39.623
755.44	37.218
755.75	33.577
756.07	36.525
756.38	35.401
756.69	34.564
757.00	33.234
757.31	34.718
757.63	30.702
757.94	33.244
758.25	34.559
758.56	34.074
758.87	34.946
759.18	37.273
759.50	32.602
759.81	36.449
760.12	30.625
760.43	35.817
760.74	33.152
761.05	38.983
761.36	34.492
761.67	35.795
761.99	35.714
762.30	40.972
762.61	37.786
762.92	39.844
763.23	41.597
763.54	39.200
763.85	37.109
764.16	40.000
764.47	42.205
764.78	35.689
765.10	32.595
765.41	34.218
765.72	34.431
766.03	35.737
766.34	33.000
766.65	38.723
766.96	42.308
767.27	42.640
767.58	41.667
767.89	38.947
768.20	45.977
768.51	43.147
768.82	41.743
769.13	36.992
769.44	38.057
769.75	38.627
770.06	32.110
770.37	38.462
770.68	36.574
770.99	42.667
771.30	31.967
771.61	43.946
771.92	42.623
772.23	43.277
772.54	47.692
772.85	40.314
773.16	45.213
773.47	40.217
773.78	43.655
774.09	37.500
774.39	45.029
774.70	41.975
775.01	44.928
775.32	47.059
775.63	48.684
775.94	46.043
776.25	53.543
776.56	46.269
776.87	47.541
777.18	44.531
777.48	55.725
777.79	45.455
778.10	49.630
778.41	47.321
778.72	35.766
779.03	46.980
779.34	46.980
779.65	42.568
779.95	42.945
780.26	47.712
780.57	46.897
780.88	57.813
781.19	39.098
781.50	56.757
781.80	42.138
782.11	41.808
782.42	41.139
782.73	42.945
783.04	48.649
783.34	51.408
783.65	55.479
783.96	58.209
784.27	41.958
784.57	34.532
784.88	46.296
785.19	55.556
785.50	56.604
785.81	52.985
786.11	49.180
786.42	51.163
786.73	44.248
787.04	50.000
787.34	61.607
787.65	56.000
787.96	52.252
788.26	51.240
788.57	45.763
788.88	54.545
789.19	50.694
789.49	52.273
789.80	50.382
790.11	62.857
790.41	63.366
790.72	54.217
791.03	60.870
791.33	61.628
791.64	59.794
791.95	59.406
792.25	51.111
792.56	54.545
792.87	60.256
793.17	81.013
793.48	64.368
793.79	56.322
794.09	57.955
794.40	43.697
794.70	50.735
795.01	39.259
795.32	40.288
795.62	47.244
795.93	56.897
796.23	59.292
796.54	54.118
796.85	56.757
797.15	74.648
797.46	46.970
797.76	63.855
798.07	64.557
798.37	66.154
798.68	65.152
798.99	50.704
799.29	53.247
799.60	61.364
799.90	83.562
800.21	47.761
800.51	56.897
800.82	84.211
801.12	85.246
801.43	69.697
801.73	64.865
802.04	79.365
802.34	70.370
802.65	78.125
802.95	93.220
803.26	78.125
803.56	64.286
803.87	66.154
804.17	61.765
804.48	94.444
804.78	67.241
805.09	70.588
805.39	71.154
805.70	76.786
806.00	83.607
806.30	62.121
806.61	69.512
806.91	55.696
807.22	53.947
807.52	59.701
807.83	71.831
808.13	87.500
808.43	70.000
808.74	59.211
809.04	78.261
809.35	73.134
809.65	69.737
809.95	75.806
810.26	81.356
810.56	77.778
810.86	100.000
811.17	95.238
811.47	83.333
811.77	87.037
812.08	92.727
812.38	82.000
812.69	86.111
812.99	120.455
813.29	83.673
813.59	45.238
813.90	112.245
814.20	72.727
814.50	55.385
814.81	91.176
815.11	77.551
815.41	72.131
815.72	83.333
816.02	81.818
816.32	92.857
816.62	92.500
816.93	87.805
817.23	107.143
817.53	84.091
817.84	103.030
818.14	80.435
818.44	91.111
818.74	94.118
819.04	95.000
819.35	94.286
819.65	111.765
819.95	110.714
820.25	95.000
820.56	94.872
820.86	86.364
821.16	116.279
821.46	92.308
821.76	92.000
822.07	108.571
822.37	122.500
822.67	93.939
822.97	86.275
823.27	157.143
823.57	89.189
823.88	112.500
824.18	143.333
824.48	107.143
824.78	168.000
825.08	125.000
825.38	118.919
825.69	90.244
825.99	162.500
826.29	120.690
826.59	110.526
826.89	100.000
827.19	100.000
827.49	154.839
827.79	122.727
828.09	88.636
828.39	93.617
828.70	97.959
829.00	96.296
829.30	106.452
829.60	100.000
829.90	240.000
830.20	107.143
830.50	126.087
830.80	156.522
831.10	133.333
831.40	153.333
831.70	130.435
832.00	188.462
832.30	155.556
832.60	193.750
832.90	150.000
833.20	242.857
833.50	125.806
833.80	96.552
834.10	159.375
834.40	119.231
834.70	200.000
835.00	195.238
835.30	100.000
835.60	169.231
835.90	134.483
836.20	207.143
836.50	110.345
836.80	152.000
837.10	119.444
837.40	195.238
837.70	200.000
838.00	148.148
838.30	128.571
838.60	223.810
838.90	150.000
839.19	175.000
839.49	207.143
839.79	230.000
840.09	180.000
840.39	209.524
840.69	152.174
840.99	172.222
841.29	270.000
841.59	166.667
841.88	218.750
842.18	103.448
842.48	119.048
842.78	123.333
843.08	156.522
843.38	118.750
843.68	566.667
843.97	130.769
844.27	144.828
844.57	200.000
844.87	206.250
845.17	140.741
845.47	600.000
845.76	277.778
846.06	182.353
846.36	300.000
846.66	221.429
846.96	175.000
847.25	172.727
847.55	190.909
847.85	186.957
848.15	260.000
848.44	242.857
848.74	177.778
849.04	188.235
849.34	400.000
849.63	168.421
849.93	290.909
850.23	520.000
850.53	278.571
850.82	1250.000
851.12	-2800.000
851.42	2200.000
851.71	150.000
852.01	-366.667
852.31	141.667
852.61	1066.667
852.90	200.000
853.20	152.000
853.50	170.588
853.79	180.952
854.09	170.833
854.39	281.250
854.68	118.919
854.98	93.548
855.28	126.667
855.57	141.379
855.87	170.370
856.17	105.263
856.46	133.333
856.76	176.471
857.05	131.034
857.35	141.667
857.65	200.000
857.94	191.304
858.24	153.846
858.53	180.000
858.83	181.818
859.13	240.000
859.42	0.000
859.72	366.667
860.01	281.818
860.31	159.091
860.60	157.895
860.90	143.478
861.20	400.000
861.49	416.667
861.79	-3000.000
862.08	375.000
862.38	204.762
862.67	215.385
862.97	235.294
863.26	366.667
863.56	233.333
863.85	291.667
864.15	312.500
864.44	253.333
864.74	666.667
865.03	500.000
865.33	173.684
865.62	272.727
865.92	307.692
866.21	233.333
866.51	0.000
866.80	181.818
867.10	600.000
867.39	361.538
867.69	281.818
867.98	131.579
868.27	209.091
868.57	226.316
868.86	-2700.000
869.16	212.500
869.45	1100.000
869.75	-2500.000
870.04	275.000
870.33	428.571
870.63	650.000
870.92	1250.000
871.22	457.143
871.51	235.294
871.80	152.381
872.10	214.286
>>>>>End Processed Spectral Data<<<<<
