SpectraSuite Data File
++++++++++++++++++++++++++++++++++++
Date: Wed May 13 16:53:30 PDT 2015
User: schluterlab
Dark Spectrum Present: Yes
Reference Spectrum Present: Yes
Number of Sampled Component Spectra: 1
Spectrometers: USB2E3373
Integration Time (usec): 3000 (USB2E3373)
Spectra Averaged: 3 (USB2E3373)
Boxcar Smoothing: 0 (USB2E3373)
Correct for Electrical Dark: No (USB2E3373)
Strobe/Lamp Enabled: No (USB2E3373)
Correct for Detector Non-linearity: No (USB2E3373)
Correct for Stray Light: No (USB2E3373)
Number of Pixels in Processed Spectrum: 2048
>>>>>Begin Processed Spectral Data<<<<<
178.53	0.000
178.91	-1375.000
179.29	-850.000
179.67	-255.556
180.04	-1350.000
180.42	2100.000
180.80	1120.000
181.18	-1025.000
181.56	714.286
181.94	0.000
182.31	-885.714
182.69	1633.333
183.07	-525.000
183.45	-511.111
183.83	590.909
184.20	-430.000
184.58	2200.000
184.96	5000.000
185.34	-760.000
185.72	-637.500
186.09	-2650.000
186.47	2450.000
186.85	2300.000
187.23	4700.000
187.61	-1433.333
187.98	1275.000
188.36	572.727
188.74	463.636
189.12	-960.000
189.49	510.000
189.87	-4800.000
190.25	-1275.000
190.63	435.714
191.00	415.385
191.38	1000.000
191.76	-1350.000
192.14	1175.000
192.51	525.000
192.89	850.000
193.27	450.000
193.65	-1425.000
194.02	580.000
194.40	960.000
194.78	570.000
195.15	533.333
195.53	650.000
195.91	-2500.000
196.29	381.250
196.66	284.211
197.04	-330.000
197.42	0.000
197.79	750.000
198.17	-5800.000
198.55	700.000
198.92	675.000
199.30	920.000
199.68	0.000
200.05	322.222
200.43	828.571
200.81	4000.000
201.18	1566.667
201.56	-1766.667
201.94	522.222
202.31	533.333
202.69	425.000
203.07	570.000
203.44	0.000
203.82	1275.000
204.19	857.143
204.57	364.286
204.95	662.500
205.32	1200.000
205.70	445.455
206.08	442.857
206.45	2850.000
206.83	362.500
207.20	833.333
207.58	860.000
207.96	350.000
208.33	837.500
208.71	-716.667
209.08	757.143
209.46	588.889
209.84	481.818
210.21	-1366.667
210.59	1475.000
210.96	-462.500
211.34	2150.000
211.71	630.000
212.09	750.000
212.46	0.000
212.84	1600.000
213.22	1175.000
213.59	-5200.000
213.97	883.333
214.34	742.857
214.72	654.545
215.09	960.000
215.47	-2400.000
215.84	-2450.000
216.22	1366.667
216.59	428.571
216.97	1300.000
217.34	500.000
217.72	-716.667
218.09	0.000
218.47	-5200.000
218.84	633.333
219.22	500.000
219.59	1833.333
219.97	-585.714
220.34	1140.000
220.72	-1666.667
221.09	392.857
221.47	1350.000
221.84	-983.333
222.22	0.000
222.59	1350.000
222.97	-2600.000
223.34	1100.000
223.72	384.615
224.09	1100.000
224.46	2600.000
224.84	-4500.000
225.21	-1080.000
225.59	-4000.000
225.96	660.000
226.34	300.000
226.71	2900.000
227.08	687.500
227.46	480.000
227.83	-1400.000
228.21	-2450.000
228.58	655.556
228.95	-2550.000
229.33	-2350.000
229.70	1533.333
230.08	785.714
230.45	-720.000
230.82	416.667
231.20	816.667
231.57	714.286
231.95	425.000
232.32	277.273
232.69	418.182
233.07	600.000
233.44	392.308
233.81	-1466.667
234.19	284.211
234.56	391.667
234.93	458.333
235.31	454.545
235.68	353.846
236.05	264.286
236.43	151.515
236.80	263.158
237.17	4100.000
237.55	219.048
237.92	178.571
238.29	233.333
238.67	141.935
239.04	172.414
239.41	100.000
239.79	108.696
240.16	126.190
240.53	113.636
240.91	100.000
241.28	92.000
241.65	94.000
242.02	75.362
242.40	67.742
242.77	81.667
243.14	60.215
243.51	73.034
243.89	58.824
244.26	50.000
244.63	44.086
245.00	48.936
245.38	48.515
245.75	38.318
246.12	53.211
246.49	42.336
246.87	52.800
247.24	45.385
247.61	34.286
247.98	33.987
248.36	26.351
248.73	33.121
249.10	26.115
249.47	27.119
249.84	26.738
250.22	30.481
250.59	23.077
250.96	26.768
251.33	29.858
251.70	27.723
252.08	21.429
252.45	22.422
252.82	23.043
253.19	25.106
253.56	18.824
253.94	25.726
254.31	17.578
254.68	23.077
255.05	21.033
255.42	19.106
255.79	19.485
256.16	20.578
256.54	16.961
256.91	20.996
257.28	16.187
257.65	15.512
258.02	15.839
258.39	16.088
258.76	15.385
259.14	16.667
259.51	14.894
259.88	13.354
260.25	15.408
260.62	15.607
260.99	14.907
261.36	14.715
261.73	14.613
262.10	15.116
262.47	14.930
262.85	10.864
263.22	11.681
263.59	15.100
263.96	13.187
264.33	16.710
264.70	12.368
265.07	15.090
265.44	13.636
265.81	13.139
266.18	12.563
266.55	13.415
266.92	11.794
267.29	14.352
267.66	12.385
268.03	13.864
268.40	14.953
268.77	9.547
269.14	11.036
269.51	13.544
269.88	11.655
270.25	11.061
270.62	14.382
270.99	15.484
271.36	11.373
271.73	11.215
272.10	12.609
272.47	12.473
272.84	10.173
273.21	13.627
273.58	8.952
273.95	8.805
274.32	12.603
274.69	11.991
275.06	10.236
275.43	14.681
275.80	11.423
276.17	9.776
276.54	8.940
276.91	9.486
277.28	11.133
277.65	12.186
278.02	7.867
278.39	13.281
278.76	10.182
279.13	11.132
279.50	10.428
279.87	12.550
280.23	7.784
280.60	7.157
280.97	9.242
281.34	8.673
281.71	10.000
282.08	11.900
282.45	9.273
282.82	9.591
283.19	8.378
283.56	9.474
283.92	9.475
284.29	7.937
284.66	8.711
285.03	10.488
285.40	9.507
285.77	8.418
286.14	8.463
286.51	11.500
286.87	10.427
287.24	9.446
287.61	9.952
287.98	7.955
288.35	8.558
288.72	9.502
289.08	9.703
289.45	8.567
289.82	9.593
290.19	10.518
290.56	8.423
290.93	5.891
291.29	6.595
291.66	8.260
292.03	10.320
292.40	9.104
292.77	7.988
293.13	8.657
293.50	8.455
293.87	8.889
294.24	8.296
294.60	6.405
294.97	8.721
295.34	9.168
295.71	6.960
296.08	7.835
296.44	7.703
296.81	7.133
297.18	8.130
297.55	6.332
297.91	5.937
298.28	8.434
298.65	9.269
299.02	7.642
299.38	6.375
299.75	4.852
300.12	6.130
300.48	7.625
300.85	7.028
301.22	7.261
301.59	6.439
301.95	8.060
302.32	7.574
302.69	7.288
303.05	6.545
303.42	6.790
303.79	8.154
304.15	5.711
304.52	5.562
304.89	5.343
305.25	6.381
305.62	7.928
305.99	7.320
306.35	6.600
306.72	6.726
307.09	6.659
307.45	7.432
307.82	6.250
308.19	5.519
308.55	7.120
308.92	6.767
309.29	5.702
309.65	6.045
310.02	7.400
310.38	7.097
310.75	6.547
311.12	7.062
311.48	6.792
311.85	7.862
312.22	5.515
312.58	6.133
312.95	8.131
313.31	6.602
313.68	6.757
314.05	8.974
314.41	7.236
314.78	7.553
315.14	6.356
315.51	8.136
315.87	8.317
316.24	6.852
316.61	7.895
316.97	7.926
317.34	6.654
317.70	8.509
318.07	9.047
318.43	9.002
318.80	7.591
319.16	8.004
319.53	7.974
319.89	8.571
320.26	9.800
320.62	9.821
320.99	10.101
321.35	8.586
321.72	10.575
322.08	9.970
322.45	10.945
322.81	10.853
323.18	10.308
323.54	9.462
323.91	11.981
324.27	10.803
324.64	10.065
325.00	10.730
325.37	11.010
325.73	12.388
326.10	11.386
326.46	12.007
326.83	12.770
327.19	12.980
327.56	13.328
327.92	12.511
328.29	14.108
328.65	14.641
329.01	13.448
329.38	14.061
329.74	14.035
330.11	14.138
330.47	16.070
330.84	15.257
331.20	14.663
331.56	16.055
331.93	15.463
332.29	15.617
332.66	16.106
333.02	15.996
333.38	17.164
333.75	17.469
334.11	16.904
334.48	16.238
334.84	17.647
335.20	17.364
335.57	17.135
335.93	16.518
336.29	16.575
336.66	16.682
337.02	15.747
337.38	18.056
337.75	17.201
338.11	17.816
338.47	17.403
338.84	18.057
339.20	17.798
339.56	18.157
339.93	16.909
340.29	17.572
340.65	17.558
341.02	18.237
341.38	18.594
341.74	17.456
342.11	19.214
342.47	18.590
342.83	18.065
343.20	18.442
343.56	18.029
343.92	17.982
344.28	18.537
344.65	19.347
345.01	18.182
345.37	18.010
345.73	18.866
346.10	18.585
346.46	19.237
346.82	19.522
347.19	19.215
347.55	19.294
347.91	19.903
348.27	19.638
348.63	21.070
349.00	19.579
349.36	19.130
349.72	18.444
350.08	19.368
350.45	18.959
350.81	18.928
351.17	19.044
351.53	19.247
351.89	20.380
352.26	20.994
352.62	19.487
352.98	20.178
353.34	21.200
353.70	20.295
354.07	20.000
354.43	20.556
354.79	19.791
355.15	20.032
355.51	20.384
355.87	21.388
356.24	20.521
356.60	19.567
356.96	21.239
357.32	20.605
357.68	21.260
358.04	20.823
358.40	21.536
358.77	21.518
359.13	21.389
359.49	20.863
359.85	19.762
360.21	21.053
360.57	21.089
360.93	21.000
361.29	21.315
361.66	20.201
362.02	21.194
362.38	21.369
362.74	22.247
363.10	20.873
363.46	21.203
363.82	21.315
364.18	21.880
364.54	22.660
364.90	23.088
365.26	21.250
365.62	22.717
365.98	21.256
366.35	22.135
366.71	21.620
367.07	23.015
367.43	22.787
367.79	23.697
368.15	24.066
368.51	22.311
368.87	22.484
369.23	22.458
369.59	23.534
369.95	22.868
370.31	23.291
370.67	21.812
371.03	24.345
371.39	23.251
371.75	23.162
372.11	22.760
372.47	24.340
372.83	23.487
373.19	23.338
373.55	23.799
373.91	25.184
374.27	23.986
374.63	23.709
374.99	24.647
375.35	24.913
375.71	25.360
376.07	25.446
376.42	24.072
376.78	25.911
377.14	24.763
377.50	25.232
377.86	24.269
378.22	25.095
378.58	24.436
378.94	25.016
379.30	24.109
379.66	25.698
380.02	25.246
380.38	25.015
380.74	25.450
381.09	25.550
381.45	26.429
381.81	26.351
382.17	27.643
382.53	26.164
382.89	26.852
383.25	26.204
383.61	26.332
383.97	26.016
384.32	27.261
384.68	26.952
385.04	27.167
385.40	26.749
385.76	27.764
386.12	27.332
386.48	27.439
386.83	28.223
387.19	28.386
387.55	28.881
387.91	27.993
388.27	27.345
388.62	28.027
388.98	26.413
389.34	28.285
389.70	28.265
390.06	29.024
390.42	28.080
390.77	28.562
391.13	28.909
391.49	27.919
391.85	28.835
392.20	27.697
392.56	28.283
392.92	28.487
393.28	27.101
393.64	28.058
393.99	28.283
394.35	28.288
394.71	28.858
395.07	27.850
395.42	29.543
395.78	28.372
396.14	28.616
396.50	29.511
396.85	29.307
397.21	28.668
397.57	29.014
397.92	28.726
398.28	28.363
398.64	29.032
399.00	28.204
399.35	27.524
399.71	28.646
400.07	28.859
400.42	28.896
400.78	28.287
401.14	28.537
401.49	28.299
401.85	29.341
402.21	28.862
402.57	29.673
402.92	29.382
403.28	29.232
403.63	28.651
403.99	28.981
404.35	28.909
404.70	28.957
405.06	27.897
405.42	28.571
405.77	28.400
406.13	28.612
406.49	27.972
406.84	27.466
407.20	27.955
407.55	27.696
407.91	29.667
408.27	28.973
408.62	28.236
408.98	28.248
409.34	28.290
409.69	28.839
410.05	28.934
410.40	28.379
410.76	27.838
411.11	28.106
411.47	28.115
411.83	27.978
412.18	27.458
412.54	29.016
412.89	28.735
413.25	27.745
413.60	28.536
413.96	27.140
414.31	27.521
414.67	28.200
415.03	29.007
415.38	29.188
415.74	29.582
416.09	29.001
416.45	28.246
416.80	29.346
417.16	28.820
417.51	29.396
417.87	28.581
418.22	27.886
418.58	29.374
418.93	28.686
419.29	29.026
419.64	28.778
420.00	28.598
420.35	28.580
420.71	28.691
421.06	28.162
421.42	28.713
421.77	28.980
422.12	27.625
422.48	27.253
422.83	28.305
423.19	28.232
423.54	29.077
423.90	28.580
424.25	28.141
424.61	27.917
424.96	28.630
425.31	28.239
425.67	27.472
426.02	28.457
426.38	28.388
426.73	28.204
427.09	29.058
427.44	28.235
427.79	28.637
428.15	28.690
428.50	29.140
428.85	29.619
429.21	27.885
429.56	28.305
429.92	28.586
430.27	27.656
430.62	27.803
430.98	27.867
431.33	27.784
431.68	27.958
432.04	26.837
432.39	28.612
432.74	28.247
433.10	28.806
433.45	28.921
433.80	28.381
434.16	28.526
434.51	28.158
434.86	27.993
435.22	28.627
435.57	28.875
435.92	28.204
436.28	28.470
436.63	28.918
436.98	28.678
437.34	28.682
437.69	28.355
438.04	28.443
438.39	28.716
438.75	29.285
439.10	28.883
439.45	29.044
439.81	29.970
440.16	28.402
440.51	28.705
440.86	28.489
441.22	28.087
441.57	28.291
441.92	28.250
442.27	29.171
442.63	27.593
442.98	29.408
443.33	28.207
443.68	28.085
444.03	28.160
444.39	27.556
444.74	29.221
445.09	28.679
445.44	27.447
445.79	28.006
446.15	27.845
446.50	27.571
446.85	28.109
447.20	28.251
447.55	28.643
447.91	28.020
448.26	28.715
448.61	28.265
448.96	28.461
449.31	28.965
449.66	27.968
450.02	27.632
450.37	27.268
450.72	27.355
451.07	28.580
451.42	26.869
451.77	28.362
452.12	27.598
452.47	28.856
452.83	27.914
453.18	27.995
453.53	27.953
453.88	27.407
454.23	29.109
454.58	28.468
454.93	29.243
455.28	27.431
455.63	27.913
455.98	30.179
456.34	28.706
456.69	28.428
457.04	29.164
457.39	27.878
457.74	27.742
458.09	28.177
458.44	27.708
458.79	26.790
459.14	27.935
459.49	28.371
459.84	26.981
460.19	27.283
460.54	27.199
460.89	28.086
461.24	28.658
461.59	28.472
461.94	27.559
462.29	29.080
462.64	28.015
462.99	27.586
463.34	28.600
463.69	28.330
464.04	27.942
464.39	27.072
464.74	27.748
465.09	26.417
465.44	27.701
465.79	26.957
466.14	26.437
466.49	27.475
466.84	27.320
467.19	27.158
467.54	27.688
467.89	27.371
468.24	27.749
468.59	28.327
468.94	27.245
469.29	28.406
469.64	27.845
469.99	29.026
470.34	27.147
470.68	28.017
471.03	28.435
471.38	27.936
471.73	28.115
472.08	28.158
472.43	27.450
472.78	27.518
473.13	27.856
473.48	27.715
473.83	26.829
474.17	27.194
474.52	26.675
474.87	28.196
475.22	27.684
475.57	27.082
475.92	26.022
476.27	26.945
476.61	26.751
476.96	26.278
477.31	26.897
477.66	26.094
478.01	26.346
478.36	27.710
478.70	26.584
479.05	26.464
479.40	26.612
479.75	26.741
480.10	25.895
480.45	26.273
480.79	25.944
481.14	26.272
481.49	26.626
481.84	25.789
482.19	25.761
482.53	25.734
482.88	26.245
483.23	26.028
483.58	26.069
483.92	26.195
484.27	25.403
484.62	25.474
484.97	25.739
485.31	25.959
485.66	24.853
486.01	23.489
486.36	22.752
486.70	21.742
487.05	23.049
487.40	23.902
487.75	23.768
488.09	24.598
488.44	24.483
488.79	25.823
489.13	25.248
489.48	25.530
489.83	25.593
490.17	25.340
490.52	25.864
490.87	25.961
491.22	26.012
491.56	25.285
491.91	25.966
492.26	25.723
492.60	25.069
492.95	25.538
493.30	25.701
493.64	25.292
493.99	24.791
494.34	26.087
494.68	25.687
495.03	25.658
495.37	25.314
495.72	25.390
496.07	25.800
496.41	24.912
496.76	25.901
497.11	26.069
497.45	25.245
497.80	25.816
498.14	25.894
498.49	25.415
498.84	25.216
499.18	25.333
499.53	24.976
499.87	25.536
500.22	25.954
500.56	25.437
500.91	24.327
501.26	25.842
501.60	26.768
501.95	24.565
502.29	25.961
502.64	25.372
502.98	25.760
503.33	25.503
503.67	25.290
504.02	25.631
504.36	25.456
504.71	26.038
505.06	24.530
505.40	25.182
505.75	25.121
506.09	25.899
506.44	25.012
506.78	25.037
507.13	25.341
507.47	26.212
507.82	25.735
508.16	26.039
508.51	26.129
508.85	26.068
509.19	25.510
509.54	25.663
509.88	25.193
510.23	25.398
510.57	25.697
510.92	25.945
511.26	25.385
511.61	25.571
511.95	25.365
512.30	24.973
512.64	24.342
512.98	25.080
513.33	26.285
513.67	25.614
514.02	25.541
514.36	26.434
514.70	25.733
515.05	26.325
515.39	26.640
515.74	25.225
516.08	25.992
516.42	25.527
516.77	26.421
517.11	25.527
517.46	26.411
517.80	26.132
518.14	25.999
518.49	26.604
518.83	25.455
519.17	26.328
519.52	25.806
519.86	26.868
520.20	26.532
520.55	26.332
520.89	26.095
521.23	26.960
521.58	26.531
521.92	26.271
522.26	26.174
522.61	25.732
522.95	26.765
523.29	25.928
523.64	26.707
523.98	27.418
524.32	26.176
524.66	26.578
525.01	26.164
525.35	26.022
525.69	26.108
526.04	26.044
526.38	25.808
526.72	26.687
527.06	26.365
527.41	25.309
527.75	26.752
528.09	26.590
528.43	27.533
528.78	27.904
529.12	25.818
529.46	27.250
529.80	26.733
530.15	26.791
530.49	25.600
530.83	26.646
531.17	27.611
531.51	27.562
531.86	26.903
532.20	27.249
532.54	26.329
532.88	26.765
533.22	26.171
533.57	26.852
533.91	26.309
534.25	26.731
534.59	27.151
534.93	26.056
535.27	25.890
535.62	26.984
535.96	26.868
536.30	26.065
536.64	26.465
536.98	26.808
537.32	26.662
537.66	25.600
538.01	26.926
538.35	27.214
538.69	26.356
539.03	25.991
539.37	26.326
539.71	25.211
540.05	25.752
540.39	25.847
540.73	25.162
541.07	26.411
541.42	27.202
541.76	27.419
542.10	26.779
542.44	26.225
542.78	27.470
543.12	25.656
543.46	26.492
543.80	25.764
544.14	25.802
544.48	26.476
544.82	27.389
545.16	26.285
545.50	25.900
545.84	26.411
546.18	27.340
546.52	26.841
546.86	26.942
547.20	25.354
547.54	26.854
547.88	27.423
548.22	26.650
548.56	25.912
548.90	24.584
549.24	25.253
549.58	27.626
549.92	25.962
550.26	27.273
550.60	27.593
550.94	27.465
551.28	25.750
551.62	26.671
551.96	26.526
552.30	27.372
552.64	26.504
552.98	27.254
553.32	26.231
553.66	26.858
554.00	27.179
554.34	26.363
554.68	26.753
555.02	25.952
555.36	26.722
555.69	26.184
556.03	28.062
556.37	26.262
556.71	25.716
557.05	26.471
557.39	27.992
557.73	27.241
558.07	26.033
558.41	26.194
558.75	26.378
559.08	26.771
559.42	27.513
559.76	27.353
560.10	26.267
560.44	26.066
560.78	25.416
561.12	26.385
561.45	27.184
561.79	26.368
562.13	25.889
562.47	27.117
562.81	26.569
563.15	26.288
563.48	27.255
563.82	26.614
564.16	25.834
564.50	25.846
564.84	26.359
565.17	26.898
565.51	27.284
565.85	25.317
566.19	25.611
566.52	25.332
566.86	25.859
567.20	26.238
567.54	26.256
567.88	24.172
568.21	25.344
568.55	25.278
568.89	24.222
569.23	24.376
569.56	23.482
569.90	23.849
570.24	23.430
570.57	22.305
570.91	22.107
571.25	22.236
571.59	22.386
571.92	22.350
572.26	22.299
572.60	22.703
572.93	22.369
573.27	23.307
573.61	23.311
573.95	22.584
574.28	22.362
574.62	22.133
574.96	21.410
575.29	21.605
575.63	21.850
575.97	21.453
576.30	22.119
576.64	22.163
576.98	21.658
577.31	21.927
577.65	21.672
577.98	21.834
578.32	21.168
578.66	21.300
578.99	21.525
579.33	22.077
579.67	21.698
580.00	22.201
580.34	21.595
580.67	21.697
581.01	22.487
581.35	21.272
581.68	21.685
582.02	21.077
582.35	21.374
582.69	21.414
583.02	21.615
583.36	21.559
583.70	22.053
584.03	22.597
584.37	22.846
584.70	22.283
585.04	21.649
585.37	22.251
585.71	22.368
586.04	22.228
586.38	22.518
586.72	22.867
587.05	22.657
587.39	22.137
587.72	22.365
588.06	22.359
588.39	22.442
588.73	22.001
589.06	23.746
589.40	23.603
589.73	23.618
590.07	23.203
590.40	23.164
590.73	23.536
591.07	24.461
591.40	23.998
591.74	25.108
592.07	23.909
592.41	24.018
592.74	23.109
593.08	23.151
593.41	22.936
593.75	22.548
594.08	22.595
594.41	23.330
594.75	23.142
595.08	23.014
595.42	23.783
595.75	23.291
596.09	23.545
596.42	23.065
596.75	24.230
597.09	24.329
597.42	23.314
597.75	23.976
598.09	24.087
598.42	24.184
598.76	23.713
599.09	23.451
599.42	22.780
599.76	23.060
600.09	22.805
600.42	22.936
600.76	23.393
601.09	23.060
601.42	23.592
601.76	23.416
602.09	23.043
602.42	23.567
602.76	24.627
603.09	24.036
603.42	23.936
603.76	23.514
604.09	23.963
604.42	24.664
604.76	24.842
605.09	23.678
605.42	23.001
605.75	24.048
606.09	23.343
606.42	24.234
606.75	23.725
607.09	24.027
607.42	23.235
607.75	23.502
608.08	23.274
608.42	24.697
608.75	23.580
609.08	24.283
609.41	24.369
609.75	24.869
610.08	24.034
610.41	24.348
610.74	24.267
611.07	24.407
611.41	24.043
611.74	24.233
612.07	25.052
612.40	25.184
612.73	24.368
613.07	25.539
613.40	26.540
613.73	24.069
614.06	24.462
614.39	24.751
614.72	24.895
615.06	25.000
615.39	24.947
615.72	24.796
616.05	24.880
616.38	25.570
616.71	25.831
617.05	25.677
617.38	25.075
617.71	26.607
618.04	26.683
618.37	24.897
618.70	27.505
619.03	27.632
619.36	27.291
619.69	27.042
620.03	27.747
620.36	26.939
620.69	26.096
621.02	26.475
621.35	27.095
621.68	26.869
622.01	26.858
622.34	27.912
622.67	27.376
623.00	26.339
623.33	26.019
623.66	27.019
623.99	27.099
624.32	25.606
624.65	26.554
624.99	26.062
625.32	26.068
625.65	27.122
625.98	27.440
626.31	27.527
626.64	27.347
626.97	27.515
627.30	28.512
627.63	29.696
627.96	29.016
628.29	27.997
628.62	29.277
628.95	30.755
629.28	30.383
629.61	29.606
629.94	29.143
630.26	29.171
630.59	27.741
630.92	28.544
631.25	28.727
631.58	30.330
631.91	28.600
632.24	30.380
632.57	30.115
632.90	29.934
633.23	30.984
633.56	30.960
633.89	30.804
634.22	30.647
634.55	31.006
634.88	30.060
635.20	32.855
635.53	32.289
635.86	31.683
636.19	30.588
636.52	31.257
636.85	31.042
637.18	29.839
637.51	31.678
637.83	29.963
638.16	30.946
638.49	31.486
638.82	32.364
639.15	31.250
639.48	32.045
639.81	32.842
640.13	32.161
640.46	31.544
640.79	30.383
641.12	30.812
641.45	33.939
641.77	32.990
642.10	32.456
642.43	32.583
642.76	31.269
643.09	34.816
643.41	33.232
643.74	33.951
644.07	32.774
644.40	34.663
644.73	33.701
645.05	35.024
645.38	33.333
645.71	32.850
646.04	35.548
646.36	36.728
646.69	35.117
647.02	34.694
647.35	34.708
647.67	35.929
648.00	33.984
648.33	32.673
648.66	33.182
648.98	33.883
649.31	32.436
649.64	34.529
649.96	32.787
650.29	33.175
650.62	31.553
650.94	34.036
651.27	32.601
651.60	34.276
651.92	33.706
652.25	32.085
652.58	32.866
652.90	34.755
653.23	33.744
653.56	31.339
653.88	33.439
654.21	33.965
654.54	33.828
654.86	34.112
655.19	30.541
655.52	21.100
655.84	18.530
656.17	24.234
656.49	31.888
656.82	32.193
657.15	24.449
657.47	18.058
657.80	13.903
658.13	14.594
658.45	22.055
658.78	22.864
659.10	23.547
659.43	26.140
659.75	27.512
660.08	29.430
660.41	32.961
660.73	34.562
661.06	33.758
661.38	36.000
661.71	37.692
662.03	36.292
662.36	34.791
662.68	36.747
663.01	36.162
663.33	37.367
663.66	35.084
663.98	37.797
664.31	36.345
664.63	35.628
664.96	35.010
665.28	38.525
665.61	34.308
665.93	37.022
666.26	35.497
666.58	37.448
666.91	37.632
667.23	38.427
667.56	34.557
667.88	37.607
668.21	35.394
668.53	37.310
668.86	37.662
669.18	38.380
669.50	38.478
669.83	37.473
670.15	39.556
670.48	37.473
670.80	35.345
671.13	38.217
671.45	34.043
671.77	37.271
672.10	33.272
672.42	35.336
672.75	32.836
673.07	32.570
673.39	32.369
673.72	32.422
674.04	35.882
674.37	33.398
674.69	34.151
675.01	34.100
675.34	35.113
675.66	35.158
675.98	37.067
676.31	36.345
676.63	33.333
676.95	37.945
677.28	37.850
677.60	38.681
677.92	36.709
678.25	35.934
678.57	36.454
678.89	34.269
679.22	34.971
679.54	34.733
679.86	35.229
680.18	32.021
680.51	32.092
680.83	33.630
681.15	35.094
681.48	35.917
681.80	34.816
682.12	34.483
682.44	32.882
682.77	35.845
683.09	39.700
683.41	35.698
683.73	36.865
684.06	36.983
684.38	33.072
684.70	36.628
685.02	33.771
685.34	31.319
685.67	31.818
685.99	32.131
686.31	31.911
686.63	30.035
686.96	33.036
687.28	32.671
687.60	33.514
687.92	33.455
688.24	32.510
688.56	32.731
688.89	36.100
689.21	37.555
689.53	35.699
689.85	37.472
690.17	31.884
690.49	36.306
690.82	33.411
691.14	31.920
691.46	32.911
691.78	33.735
692.10	35.124
692.42	34.731
692.74	36.722
693.06	34.681
693.39	35.524
693.71	34.716
694.03	36.421
694.35	34.848
694.67	34.096
694.99	35.610
695.31	36.029
695.63	35.646
695.95	38.875
696.27	36.802
696.59	37.565
696.91	35.492
697.23	33.333
697.56	36.247
697.88	31.493
698.20	33.333
698.52	33.763
698.84	35.412
699.16	35.023
699.48	33.967
699.80	36.232
700.12	40.000
700.44	37.666
700.76	37.569
701.08	41.379
701.40	37.151
701.72	39.650
702.04	43.182
702.36	34.278
702.68	39.377
703.00	38.227
703.32	37.234
703.64	36.729
703.96	37.604
704.28	38.663
704.60	41.056
704.91	41.246
705.23	38.123
705.55	42.857
705.87	45.847
706.19	40.636
706.51	40.810
706.83	42.424
707.15	36.695
707.47	33.081
707.79	35.872
708.11	36.530
708.43	34.762
708.74	33.929
709.06	37.662
709.38	37.008
709.70	42.442
710.02	39.169
710.34	34.242
710.66	40.000
710.98	41.193
711.29	38.953
711.61	40.708
711.93	37.500
712.25	45.016
712.57	44.118
712.89	41.176
713.20	40.729
713.52	41.776
713.84	39.557
714.16	33.841
714.48	37.356
714.80	44.073
715.11	37.464
715.43	35.608
715.75	37.971
716.07	39.297
716.39	37.618
716.70	40.532
717.02	43.165
717.34	39.223
717.66	43.284
717.97	47.809
718.29	42.222
718.61	41.241
718.93	40.809
719.24	40.830
719.56	37.627
719.88	36.949
720.20	46.959
720.51	41.463
720.83	43.494
721.15	38.806
721.46	37.943
721.78	42.652
722.10	44.151
722.42	40.226
722.73	43.071
723.05	40.574
723.37	44.939
723.68	45.946
724.00	41.463
724.32	41.532
724.63	41.870
724.95	43.096
725.27	44.130
725.58	42.969
725.90	43.066
726.22	42.264
726.53	39.583
726.85	42.321
727.16	40.214
727.48	38.652
727.80	42.045
728.11	37.681
728.43	40.385
728.74	40.860
729.06	48.905
729.38	41.176
729.69	41.993
730.01	35.495
730.32	41.319
730.64	34.448
730.96	41.254
731.27	38.411
731.59	40.979
731.90	33.819
732.22	39.752
732.53	35.913
732.85	39.744
733.16	32.797
733.48	39.203
733.80	39.286
734.11	37.580
734.43	35.207
734.74	32.857
735.06	34.097
735.37	37.861
735.69	34.713
736.00	37.908
736.32	38.629
736.63	36.741
736.95	38.019
737.26	32.653
737.58	33.548
737.89	37.793
738.21	43.686
738.52	36.786
738.83	35.472
739.15	39.615
739.46	44.891
739.78	38.194
740.09	39.692
740.41	38.387
740.72	32.753
741.04	41.111
741.35	42.083
741.66	48.444
741.98	44.340
742.29	45.933
742.61	49.569
742.92	42.534
743.23	43.162
743.55	43.200
743.86	43.421
744.18	42.478
744.49	48.804
744.80	48.826
745.12	46.364
745.43	44.934
745.74	50.000
746.06	44.495
746.37	45.740
746.68	43.439
747.00	48.611
747.31	48.095
747.62	44.690
747.94	42.731
748.25	44.255
748.56	49.780
748.88	42.574
749.19	54.000
749.50	45.581
749.82	38.618
750.13	39.592
750.44	40.511
750.75	41.404
751.07	38.907
751.38	40.767
751.69	40.433
752.01	37.218
752.32	39.711
752.63	38.652
752.94	37.705
753.26	44.800
753.57	39.024
753.88	41.016
754.19	38.571
754.51	43.056
754.82	36.101
755.13	42.642
755.44	40.226
755.75	39.051
756.07	35.816
756.38	37.591
756.69	37.584
757.00	30.539
757.31	35.608
757.63	35.965
757.94	33.244
758.25	31.863
758.56	30.370
758.87	34.677
759.18	39.394
759.50	34.796
759.81	32.087
760.12	32.812
760.43	36.103
760.74	32.065
761.05	35.593
761.36	32.888
761.67	36.364
761.99	34.472
762.30	38.889
762.61	37.786
762.92	43.750
763.23	37.815
763.54	40.800
763.85	36.719
764.16	42.692
764.47	42.966
764.78	34.982
765.10	31.962
765.41	38.348
765.72	36.228
766.03	33.542
766.34	38.333
766.65	45.106
766.96	43.590
767.27	48.223
767.58	46.354
767.89	48.947
768.20	49.425
768.51	46.193
768.82	42.661
769.13	36.992
769.44	41.296
769.75	41.202
770.06	38.073
770.37	47.511
770.68	43.981
770.99	44.444
771.30	37.295
771.61	43.946
771.92	42.213
772.23	42.857
772.54	46.667
772.85	52.356
773.16	49.468
773.47	38.043
773.78	50.254
774.09	48.810
774.39	53.216
774.70	53.704
775.01	52.174
775.32	62.092
775.63	55.263
775.94	51.799
776.25	59.843
776.56	57.463
776.87	71.311
777.18	59.375
777.48	61.832
777.79	60.606
778.10	51.852
778.41	63.393
778.72	53.285
779.03	46.309
779.34	57.047
779.65	52.703
779.95	48.466
780.26	52.288
780.57	53.793
780.88	67.188
781.19	58.647
781.50	50.676
781.80	48.428
782.11	49.153
782.42	46.835
782.73	52.761
783.04	53.378
783.34	58.451
783.65	54.110
783.96	59.701
784.27	58.741
784.57	46.043
784.88	57.407
785.19	69.841
785.50	67.925
785.81	61.940
786.11	61.475
786.42	60.465
786.73	67.257
787.04	63.208
787.34	60.714
787.65	63.000
787.96	65.766
788.26	53.719
788.57	67.797
788.88	68.595
789.19	59.722
789.49	71.212
789.80	54.962
790.11	64.762
790.41	70.297
790.72	57.831
791.03	75.000
791.33	77.907
791.64	63.918
791.95	74.257
792.25	82.222
792.56	81.818
792.87	85.897
793.17	91.139
793.48	77.011
793.79	67.816
794.09	73.864
794.40	61.345
794.70	62.500
795.01	58.519
795.32	48.201
795.62	53.543
795.93	65.517
796.23	63.717
796.54	82.353
796.85	85.135
797.15	90.141
797.46	101.515
797.76	83.133
798.07	81.013
798.37	90.769
798.68	89.394
798.99	77.465
799.29	80.519
799.60	72.727
799.90	104.110
800.21	91.045
800.51	93.103
800.82	94.737
801.12	95.082
801.43	110.606
801.73	79.730
802.04	101.587
802.34	97.531
802.65	95.312
802.95	106.780
803.26	104.688
803.56	87.143
803.87	96.923
804.17	88.235
804.48	114.815
804.78	110.345
805.09	89.706
805.39	119.231
805.70	107.143
806.00	103.279
806.30	83.333
806.61	89.024
806.91	83.544
807.22	80.263
807.52	79.104
807.83	92.958
808.13	98.437
808.43	105.000
808.74	72.368
809.04	88.406
809.35	94.030
809.65	92.105
809.95	120.968
810.26	93.220
810.56	107.937
810.86	97.727
811.17	147.619
811.47	120.000
811.77	111.111
812.08	116.364
812.38	122.000
812.69	163.889
812.99	147.727
813.29	110.204
813.59	128.571
813.90	124.490
814.20	94.545
814.50	112.308
814.81	119.118
815.11	116.327
815.41	104.918
815.72	157.143
816.02	132.727
816.32	150.000
816.62	140.000
816.93	104.878
817.23	152.381
817.53	125.000
817.84	184.848
818.14	134.783
818.44	120.000
818.74	176.471
819.04	152.500
819.35	154.286
819.65	194.118
819.95	196.429
820.25	220.000
820.56	161.538
820.86	134.091
821.16	127.907
821.46	133.333
821.76	136.000
822.07	162.857
822.37	135.000
822.67	193.939
822.97	111.765
823.27	239.286
823.57	164.865
823.88	182.500
824.18	203.333
824.48	126.190
824.78	216.000
825.08	245.833
825.38	137.838
825.69	139.024
825.99	212.500
826.29	158.621
826.59	173.684
826.89	152.632
827.19	147.059
827.49	180.645
827.79	134.091
828.09	145.455
828.39	125.532
828.70	157.143
829.00	129.630
829.30	158.065
829.60	162.500
829.90	333.333
830.20	196.429
830.50	200.000
830.80	226.087
831.10	196.667
831.40	183.333
831.70	195.652
832.00	242.308
832.30	177.778
832.60	306.250
832.90	210.000
833.20	485.714
833.50	183.871
833.80	224.138
834.10	203.125
834.40	211.538
834.70	288.889
835.00	342.857
835.30	165.714
835.60	376.923
835.90	237.931
836.20	378.571
836.50	189.655
836.80	200.000
837.10	169.444
837.40	242.857
837.70	352.941
838.00	214.815
838.30	261.905
838.60	300.000
838.90	230.769
839.19	260.000
839.49	442.857
839.79	355.000
840.09	230.000
840.39	276.190
840.69	243.478
840.99	266.667
841.29	500.000
841.59	366.667
841.88	343.750
842.18	155.172
842.48	266.667
842.78	216.667
843.08	243.478
843.38	178.125
843.68	900.000
843.97	242.308
844.27	206.897
844.57	314.286
844.87	356.250
845.17	218.519
845.47	1766.667
845.76	388.889
846.06	294.118
846.36	412.500
846.66	350.000
846.96	312.500
847.25	445.455
847.55	454.545
847.85	243.478
848.15	560.000
848.44	378.571
848.74	227.778
849.04	264.706
849.34	560.000
849.63	236.842
849.93	427.273
850.23	1060.000
850.53	457.143
850.82	2650.000
851.12	-4600.000
851.42	4400.000
851.71	285.000
852.01	-1266.667
852.31	275.000
852.61	1933.333
852.90	280.952
853.20	228.000
853.50	347.059
853.79	261.905
854.09	220.833
854.39	356.250
854.68	183.784
854.98	196.774
855.28	190.000
855.57	234.483
855.87	222.222
856.17	247.368
856.46	226.667
856.76	323.529
857.05	179.310
857.35	195.833
857.65	320.000
857.94	226.087
858.24	226.923
858.53	265.000
858.83	295.455
859.13	406.667
859.42	0.000
859.72	555.556
860.01	463.636
860.31	209.091
860.60	278.947
860.90	230.435
861.20	588.889
861.49	525.000
861.79	-4200.000
862.08	662.500
862.38	233.333
862.67	284.615
862.97	358.824
863.26	477.778
863.56	288.889
863.85	441.667
864.15	587.500
864.44	440.000
864.74	816.667
865.03	687.500
865.33	289.474
865.62	354.545
865.92	500.000
866.21	400.000
866.51	0.000
866.80	472.727
867.10	1220.000
867.39	376.923
867.69	427.273
867.98	247.368
868.27	463.636
868.57	305.263
868.86	-4600.000
869.16	362.500
869.45	2000.000
869.75	-4300.000
870.04	433.333
870.33	814.286
870.63	925.000
870.92	2400.000
871.22	714.286
871.51	347.059
871.80	247.619
872.10	407.143
>>>>>End Processed Spectral Data<<<<<
