SpectraSuite Data File
++++++++++++++++++++++++++++++++++++
Date: Wed May 13 16:21:55 PDT 2015
User: schluterlab
Dark Spectrum Present: Yes
Reference Spectrum Present: Yes
Number of Sampled Component Spectra: 1
Spectrometers: USB2E3373
Integration Time (usec): 3000 (USB2E3373)
Spectra Averaged: 3 (USB2E3373)
Boxcar Smoothing: 0 (USB2E3373)
Correct for Electrical Dark: No (USB2E3373)
Strobe/Lamp Enabled: No (USB2E3373)
Correct for Detector Non-linearity: No (USB2E3373)
Correct for Stray Light: No (USB2E3373)
Number of Pixels in Processed Spectrum: 2048
>>>>>Begin Processed Spectral Data<<<<<
178.53	0.000
178.91	-1300.000
179.29	-1025.000
179.67	-183.333
180.04	-1025.000
180.42	2450.000
180.80	1080.000
181.18	-875.000
181.56	600.000
181.94	0.000
182.31	-642.857
182.69	1433.333
183.07	-487.500
183.45	-477.778
183.83	536.364
184.20	-350.000
184.58	2150.000
184.96	5300.000
185.34	-820.000
185.72	-425.000
186.09	-2200.000
186.47	2450.000
186.85	2300.000
187.23	4100.000
187.61	-1366.667
187.98	1175.000
188.36	518.182
188.74	400.000
189.12	-780.000
189.49	630.000
189.87	-5200.000
190.25	-1200.000
190.63	357.143
191.00	369.231
191.38	583.333
191.76	-1075.000
192.14	1475.000
192.51	687.500
192.89	1000.000
193.27	687.500
193.65	-1075.000
194.02	550.000
194.40	980.000
194.78	410.000
195.15	458.333
195.53	650.000
195.91	-2400.000
196.29	312.500
196.66	310.526
197.04	-360.000
197.42	0.000
197.79	570.000
198.17	-4400.000
198.55	600.000
198.92	775.000
199.30	900.000
199.68	0.000
200.05	305.556
200.43	742.857
200.81	4000.000
201.18	1666.667
201.56	-1466.667
201.94	544.444
202.31	544.444
202.69	408.333
203.07	520.000
203.44	0.000
203.82	1175.000
204.19	742.857
204.57	371.429
204.95	662.500
205.32	1433.333
205.70	436.364
206.08	321.429
206.45	2800.000
206.83	387.500
207.20	883.333
207.58	720.000
207.96	327.778
208.33	612.500
208.71	-750.000
209.08	771.429
209.46	377.778
209.84	454.545
210.21	-1466.667
210.59	1275.000
210.96	-400.000
211.34	2450.000
211.71	600.000
212.09	733.333
212.46	0.000
212.84	1866.667
213.22	1075.000
213.59	-4400.000
213.97	766.667
214.34	828.571
214.72	490.909
215.09	940.000
215.47	-2300.000
215.84	-2400.000
216.22	1733.333
216.59	400.000
216.97	1175.000
217.34	336.364
217.72	-800.000
218.09	0.000
218.47	-4400.000
218.84	555.556
219.22	657.143
219.59	1466.667
219.97	-442.857
220.34	980.000
220.72	-1533.333
221.09	385.714
221.47	1275.000
221.84	-1033.333
222.22	0.000
222.59	1100.000
222.97	-2300.000
223.34	1020.000
223.72	415.385
224.09	860.000
224.46	1650.000
224.84	-4700.000
225.21	-920.000
225.59	-5200.000
225.96	630.000
226.34	310.000
226.71	2450.000
227.08	625.000
227.46	560.000
227.83	-1075.000
228.21	-2300.000
228.58	566.667
228.95	-2000.000
229.33	-2200.000
229.70	1833.333
230.08	714.286
230.45	-780.000
230.82	516.667
231.20	650.000
231.57	657.143
231.95	441.667
232.32	231.818
232.69	409.091
233.07	685.714
233.44	353.846
233.81	-1466.667
234.19	284.211
234.56	491.667
234.93	408.333
235.31	500.000
235.68	407.692
236.05	364.286
236.43	200.000
236.80	305.263
237.17	5600.000
237.55	266.667
237.92	239.286
238.29	247.619
238.67	216.129
239.04	210.345
239.41	202.778
239.79	152.174
240.16	180.952
240.53	177.273
240.91	135.294
241.28	174.000
241.65	142.000
242.02	133.333
242.40	130.645
242.77	146.667
243.14	116.129
243.51	126.966
243.89	115.294
244.26	104.444
244.63	109.677
245.00	108.511
245.38	110.891
245.75	100.000
246.12	93.578
246.49	102.920
246.87	98.400
247.24	93.077
247.61	96.429
247.98	93.464
248.36	87.838
248.73	85.987
249.10	98.726
249.47	82.486
249.84	79.144
250.22	82.888
250.59	81.657
250.96	78.283
251.33	76.777
251.70	80.198
252.08	80.476
252.45	77.130
252.82	78.261
253.19	74.468
253.56	78.824
253.94	78.008
254.31	72.266
254.68	76.923
255.05	74.539
255.42	77.642
255.79	75.735
256.16	75.090
256.54	72.438
256.91	74.733
257.28	66.906
257.65	69.637
258.02	70.497
258.39	64.669
258.76	72.910
259.14	67.857
259.51	66.565
259.88	65.217
260.25	72.810
260.62	65.029
260.99	70.186
261.36	72.372
261.73	69.914
262.10	68.023
262.47	65.634
262.85	65.181
263.22	66.952
263.59	67.236
263.96	64.286
264.33	65.274
264.70	64.737
265.07	63.683
265.44	64.646
265.81	64.720
266.18	64.070
266.55	64.878
266.92	70.270
267.29	64.120
267.66	64.450
268.03	65.227
268.40	61.449
268.77	62.053
269.14	62.838
269.51	62.754
269.88	66.434
270.25	63.431
270.62	64.045
270.99	64.516
271.36	62.446
271.73	65.888
272.10	62.174
272.47	67.097
272.84	64.069
273.21	59.119
273.58	62.227
273.95	60.587
274.32	58.471
274.69	61.670
275.06	60.039
275.43	64.681
275.80	62.725
276.17	61.507
276.54	62.370
276.91	63.043
277.28	55.664
277.65	60.348
278.02	65.424
278.39	59.570
278.76	58.909
279.13	60.943
279.50	59.032
279.87	59.363
280.23	60.479
280.60	60.348
280.97	59.519
281.34	57.345
281.71	60.545
282.08	62.764
282.45	59.273
282.82	59.503
283.19	59.002
283.56	58.947
283.92	59.560
284.29	58.377
284.66	59.347
285.03	58.951
285.40	58.979
285.77	56.902
286.14	57.858
286.51	58.833
286.87	59.145
287.24	58.469
287.61	56.501
287.98	56.006
288.35	56.260
288.72	54.206
289.08	54.930
289.45	54.695
289.82	57.561
290.19	52.590
290.56	54.058
290.93	53.172
291.29	54.294
291.66	52.950
292.03	54.506
292.40	52.423
292.77	52.367
293.13	52.388
293.50	52.624
293.87	54.667
294.24	51.407
294.60	52.838
294.97	51.308
295.34	53.032
295.71	51.136
296.08	51.140
296.44	50.069
296.81	49.141
297.18	52.439
297.55	48.549
297.91	49.736
298.28	53.280
298.65	48.695
299.02	52.833
299.38	51.262
299.75	48.518
300.12	50.447
300.48	50.125
300.85	49.322
301.22	50.955
301.59	48.106
301.95	49.748
302.32	51.476
302.69	50.538
303.05	50.182
303.42	49.506
303.79	48.698
304.15	48.951
304.52	49.363
304.89	49.361
305.25	49.652
305.62	49.830
305.99	50.885
306.35	50.000
306.72	52.018
307.09	51.609
307.45	52.252
307.82	49.107
308.19	51.104
308.55	51.456
308.92	49.731
309.29	48.891
309.65	51.432
310.02	52.008
310.38	52.043
310.75	53.537
311.12	52.405
311.48	53.292
311.85	54.088
312.22	54.214
312.58	53.430
312.95	54.699
313.31	51.262
313.68	54.678
314.05	55.325
314.41	54.573
314.78	55.186
315.14	56.902
315.51	55.098
315.87	56.733
316.24	56.802
316.61	57.115
316.97	58.121
317.34	57.926
317.70	59.178
318.07	59.288
318.43	60.176
318.80	60.075
319.16	60.640
319.53	60.788
319.89	63.619
320.26	64.700
320.62	63.591
320.99	64.242
321.35	65.758
321.72	66.735
322.08	67.423
322.45	68.955
322.81	68.217
323.18	72.543
323.54	69.944
323.91	72.170
324.27	72.753
324.64	76.794
325.00	76.105
325.37	79.345
325.73	79.623
326.10	81.024
326.46	81.989
326.83	83.261
327.19	84.714
327.56	86.498
327.92	86.614
328.29	87.578
328.65	90.147
329.01	88.628
329.38	92.507
329.74	90.397
330.11	92.083
330.47	92.837
330.84	93.566
331.20	92.441
331.56	93.119
331.93	95.370
332.29	93.079
332.66	94.602
333.02	95.978
333.38	96.387
333.75	95.187
334.11	96.085
334.48	96.806
334.84	97.059
335.20	96.273
335.57	96.555
335.93	95.446
336.29	97.070
336.66	97.295
337.02	96.652
337.38	97.593
337.75	96.346
338.11	97.225
338.47	99.540
338.84	97.984
339.20	97.339
339.56	99.179
339.93	99.000
340.29	98.460
340.65	98.217
341.02	97.295
341.38	100.534
341.74	97.281
342.11	97.904
342.47	99.559
342.83	99.229
343.20	99.913
343.56	96.462
343.92	99.474
344.28	98.724
344.65	100.000
345.01	97.222
345.37	98.113
345.73	99.831
346.10	98.210
346.46	99.576
346.82	97.611
347.19	97.661
347.55	96.634
347.91	98.706
348.27	98.767
348.63	97.659
349.00	97.087
349.36	100.657
349.72	97.514
350.08	96.110
350.45	99.186
350.81	99.269
351.17	99.109
351.53	97.952
351.89	96.865
352.26	97.316
352.62	98.316
352.98	98.622
353.34	98.603
353.70	97.709
354.07	98.790
354.43	96.190
354.79	97.747
355.15	97.127
355.51	99.520
355.87	100.327
356.24	99.349
356.60	97.434
356.96	100.563
357.32	101.063
357.68	100.945
358.04	97.229
358.40	99.762
358.77	97.574
359.13	99.132
359.49	97.804
359.85	99.206
360.21	101.356
360.57	98.911
360.93	99.923
361.29	99.395
361.66	99.149
362.02	97.463
362.38	99.848
362.74	99.256
363.10	98.594
363.46	96.845
363.82	99.017
364.18	98.678
364.54	99.331
364.90	97.380
365.26	101.176
365.62	99.562
365.98	99.123
366.35	97.994
366.71	99.783
367.07	100.000
367.43	101.379
367.79	99.714
368.15	98.635
368.51	97.820
368.87	101.071
369.23	99.927
369.59	100.941
369.95	99.853
370.31	99.359
370.67	98.406
371.03	102.247
371.39	102.041
371.75	99.191
372.11	97.937
372.47	102.273
372.83	104.251
373.19	99.277
373.55	101.478
373.91	103.093
374.27	96.907
374.63	100.364
374.99	101.695
375.35	101.047
375.71	100.754
376.07	99.520
376.42	100.550
376.78	99.867
377.14	101.289
377.50	100.993
377.86	99.934
378.22	102.149
378.58	100.439
378.94	100.629
379.30	101.845
379.66	102.411
380.02	100.799
380.38	100.182
380.74	101.200
381.09	100.367
381.45	101.537
381.81	101.229
382.17	101.592
382.53	99.937
382.89	102.222
383.25	102.376
383.61	102.354
383.97	100.813
384.32	99.688
384.68	101.735
385.04	99.631
385.40	98.266
385.76	99.631
386.12	102.073
386.48	101.573
386.83	103.464
387.19	102.659
387.55	100.989
387.91	102.297
388.27	99.816
388.62	102.090
388.98	100.491
389.34	98.686
389.70	98.958
390.06	101.394
390.42	100.649
390.77	99.682
391.13	104.020
391.49	102.221
391.85	100.255
392.20	102.082
392.56	98.801
392.92	102.413
393.28	99.882
393.64	101.079
393.99	98.656
394.35	101.861
394.71	99.247
395.07	98.629
395.42	102.163
395.78	99.618
396.14	99.690
396.50	101.880
396.85	101.653
397.21	99.445
397.57	100.620
397.92	100.541
398.28	99.888
398.64	98.686
399.00	100.000
399.35	98.082
399.71	99.306
400.07	98.876
400.42	101.227
400.78	99.638
401.14	99.695
401.49	100.955
401.85	99.879
402.21	96.886
402.57	99.445
402.92	100.820
403.28	100.375
403.63	100.557
403.99	100.446
404.35	97.273
404.70	100.300
405.06	99.942
405.42	99.563
405.77	97.829
406.13	97.799
406.49	99.527
406.84	97.283
407.20	97.045
407.55	98.532
407.91	99.600
408.27	99.489
408.62	97.291
408.98	98.958
409.34	99.262
409.69	98.065
410.05	97.212
410.40	98.226
410.76	98.268
411.11	96.321
411.47	96.550
411.83	97.984
412.18	96.722
412.54	98.257
412.89	97.289
413.25	96.635
413.60	98.950
413.96	95.203
414.31	95.930
414.67	96.831
415.03	98.212
415.38	95.103
415.74	95.563
416.09	97.387
416.45	97.256
416.80	96.563
417.16	96.582
417.51	97.014
417.87	96.211
418.22	98.360
418.58	97.030
418.93	96.560
419.29	95.035
419.64	96.725
420.00	94.817
420.35	94.957
420.71	97.011
421.06	95.585
421.42	96.140
421.77	96.805
422.12	95.284
422.48	94.603
422.83	96.156
423.19	94.420
423.54	95.821
423.90	94.899
424.25	94.417
424.61	96.964
424.96	96.618
425.31	94.241
425.67	94.213
426.02	95.086
426.38	96.581
426.73	96.314
427.09	95.258
427.44	94.652
427.79	95.112
428.15	93.333
428.50	94.968
428.85	94.815
429.21	94.754
429.56	95.542
429.92	95.521
430.27	95.184
430.62	92.985
430.98	93.980
431.33	93.247
431.68	93.403
432.04	91.587
432.39	94.689
432.74	95.990
433.10	95.303
433.45	95.335
433.80	95.233
434.16	94.338
434.51	92.158
434.86	94.128
435.22	95.386
435.57	95.015
435.92	93.681
436.28	95.492
436.63	92.605
436.98	94.562
437.34	94.037
437.69	94.457
438.04	94.098
438.39	93.433
438.75	93.318
439.10	93.855
439.45	93.920
439.81	94.018
440.16	92.321
440.51	92.677
440.86	93.862
441.22	93.326
441.57	93.259
441.92	93.552
442.27	91.927
442.63	92.417
442.98	93.972
443.33	92.935
443.68	91.791
444.03	92.435
444.39	92.843
444.74	94.318
445.09	92.884
445.44	90.705
445.79	91.341
446.15	90.630
446.50	91.546
446.85	91.624
447.20	92.045
447.55	94.361
447.91	91.395
448.26	92.376
448.61	92.538
448.96	92.193
449.31	92.688
449.66	91.109
450.02	90.808
450.37	91.043
450.72	93.006
451.07	91.164
451.42	89.179
451.77	90.311
452.12	90.935
452.47	91.542
452.83	93.590
453.18	89.976
453.53	94.001
453.88	91.140
454.23	91.452
454.58	90.915
454.93	93.261
455.28	90.212
455.63	91.566
455.98	91.488
456.34	90.641
456.69	92.736
457.04	92.817
457.39	91.525
457.74	90.888
458.09	89.534
458.44	90.935
458.79	88.341
459.14	89.955
459.49	90.076
459.84	91.191
460.19	89.216
460.54	86.863
460.89	89.797
461.24	91.743
461.59	90.413
461.94	88.594
462.29	89.377
462.64	88.322
462.99	87.964
463.34	89.200
463.69	89.243
464.04	88.928
464.39	88.464
464.74	89.602
465.09	87.515
465.44	87.424
465.79	88.814
466.14	85.714
466.49	87.097
466.84	87.157
467.19	86.663
467.54	87.750
467.89	88.115
468.24	87.842
468.59	88.278
468.94	86.744
469.29	87.725
469.64	88.019
469.99	89.039
470.34	87.781
470.68	90.086
471.03	87.823
471.38	89.437
471.73	87.009
472.08	89.211
472.43	88.003
472.78	87.689
473.13	87.163
473.48	87.890
473.83	89.329
474.17	87.057
474.52	86.600
474.87	86.865
475.22	87.174
475.57	85.438
475.92	85.608
476.27	85.344
476.61	87.534
476.96	85.542
477.31	85.819
477.66	87.144
478.01	84.631
478.36	86.568
478.70	84.372
479.05	87.061
479.40	86.285
479.75	86.223
480.10	85.139
480.45	84.484
480.79	84.902
481.14	83.757
481.49	84.101
481.84	85.094
482.19	85.461
482.53	84.358
482.88	84.039
483.23	85.187
483.58	84.531
483.92	85.286
484.27	81.786
484.62	83.621
484.97	83.366
485.31	86.199
485.66	85.423
486.01	81.927
486.36	77.425
486.70	75.348
487.05	77.109
487.40	78.652
487.75	79.984
488.09	80.528
488.44	80.921
488.79	82.604
489.13	82.124
489.48	81.444
489.83	81.571
490.17	82.508
490.52	82.241
490.87	82.090
491.22	80.309
491.56	82.278
491.91	82.922
492.26	82.177
492.60	80.461
492.95	81.291
493.30	81.869
493.64	83.714
493.99	80.919
494.34	80.666
494.68	81.685
495.03	82.049
495.37	79.991
495.72	81.140
496.07	80.789
496.41	79.558
496.76	79.947
497.11	79.784
497.45	80.484
497.80	81.238
498.14	80.966
498.49	82.439
498.84	81.352
499.18	79.810
499.53	80.912
499.87	80.522
500.22	78.427
500.56	81.214
500.91	80.913
501.26	80.797
501.60	81.158
501.95	79.881
502.29	80.225
502.64	80.773
502.98	78.822
503.33	78.062
503.67	78.005
504.02	79.373
504.36	78.521
504.71	79.384
505.06	79.325
505.40	79.339
505.75	78.544
506.09	79.349
506.44	79.329
506.78	77.302
507.13	79.152
507.47	78.232
507.82	80.041
508.16	79.534
508.51	79.554
508.85	78.004
509.19	79.337
509.54	78.418
509.88	78.310
510.23	79.332
510.57	79.567
510.92	78.664
511.26	76.773
511.61	77.541
511.95	78.653
512.30	77.837
512.64	78.882
512.98	78.564
513.33	79.069
513.67	77.001
514.02	77.976
514.36	77.171
514.70	78.805
515.05	78.249
515.39	78.744
515.74	77.928
516.08	76.970
516.42	77.580
516.77	77.926
517.11	76.471
517.46	77.709
517.80	78.049
518.14	77.417
518.49	77.071
518.83	75.568
519.17	78.637
519.52	77.136
519.86	77.296
520.20	78.382
520.55	79.234
520.89	78.163
521.23	77.986
521.58	77.911
521.92	78.812
522.26	75.961
522.61	78.816
522.95	76.243
523.29	77.480
523.64	76.402
523.98	77.449
524.32	76.900
524.66	75.947
525.01	77.083
525.35	76.642
525.69	74.815
526.04	75.888
526.38	74.680
526.72	74.663
527.06	78.531
527.41	75.124
527.75	76.977
528.09	77.842
528.43	77.629
528.78	76.030
529.12	74.545
529.46	75.505
529.80	77.104
530.15	75.701
530.49	74.462
530.83	75.570
531.17	77.872
531.51	76.394
531.86	75.419
532.20	74.837
532.54	76.553
532.88	74.904
533.22	74.641
533.57	74.012
533.91	72.607
534.25	73.390
534.59	73.520
534.93	72.159
535.27	74.593
535.62	72.833
535.96	74.011
536.30	73.490
536.64	74.437
536.98	73.855
537.32	74.194
537.66	74.200
538.01	73.864
538.35	73.626
538.69	73.197
539.03	72.515
539.37	72.204
539.71	71.873
540.05	73.333
540.39	73.555
540.73	72.251
541.07	73.459
541.42	72.994
541.76	72.387
542.10	72.380
542.44	72.517
542.78	73.781
543.12	70.186
543.46	72.525
543.80	73.390
544.14	71.117
544.48	72.000
544.82	71.713
545.16	70.852
545.50	71.594
545.84	72.513
546.18	72.997
546.52	72.608
546.86	71.753
547.20	72.960
547.54	71.209
547.88	71.939
548.22	70.050
548.56	70.566
548.90	70.166
549.24	70.572
549.58	70.805
549.92	71.429
550.26	73.722
550.60	69.986
550.94	72.676
551.28	71.617
551.62	71.316
551.96	70.246
552.30	70.034
552.64	69.912
552.98	70.644
553.32	68.173
553.66	70.279
554.00	71.036
554.34	70.117
554.68	72.103
555.02	70.733
555.36	70.633
555.69	69.283
556.03	69.515
556.37	70.668
556.71	69.850
557.05	69.328
557.39	68.859
557.73	69.513
558.07	72.806
558.41	69.826
558.75	70.757
559.08	71.961
559.42	70.068
559.76	69.926
560.10	68.879
560.44	68.973
560.78	68.929
561.12	68.536
561.45	68.970
561.79	67.370
562.13	67.069
562.47	69.399
562.81	69.526
563.15	68.495
563.48	66.313
563.82	69.015
564.16	66.906
564.50	67.513
564.84	67.067
565.17	68.919
565.51	68.435
565.85	67.513
566.19	66.312
566.52	67.764
566.86	66.124
567.20	66.156
567.54	69.521
567.88	66.431
568.21	67.037
568.55	65.319
568.89	67.218
569.23	63.681
569.56	65.182
569.90	63.321
570.24	63.366
570.57	62.734
570.91	61.862
571.25	61.519
571.59	61.973
571.92	61.895
572.26	62.045
572.60	61.922
572.93	60.930
573.27	61.934
573.61	61.921
573.95	61.809
574.28	60.653
574.62	61.273
574.96	60.669
575.29	60.112
575.63	60.467
575.97	60.531
576.30	60.967
576.64	61.385
576.98	60.039
577.31	61.021
577.65	60.282
577.98	59.972
578.32	59.392
578.66	59.518
578.99	59.370
579.33	60.228
579.67	59.426
580.00	59.914
580.34	60.726
580.67	60.057
581.01	60.175
581.35	59.828
581.68	60.275
582.02	59.052
582.35	58.951
582.69	59.049
583.02	58.339
583.36	59.465
583.70	59.590
584.03	59.352
584.37	59.868
584.70	60.815
585.04	59.271
585.37	59.646
585.71	59.375
586.04	58.613
586.38	59.613
586.72	59.845
587.05	59.440
587.39	58.311
587.72	59.366
588.06	58.805
588.39	59.232
588.73	59.724
589.06	59.863
589.40	59.394
589.73	59.838
590.07	59.502
590.40	59.518
590.73	60.109
591.07	60.602
591.40	60.439
591.74	61.082
592.07	60.253
592.41	60.356
592.74	59.738
593.08	59.394
593.41	59.601
593.75	57.589
594.08	58.331
594.41	59.314
594.75	60.222
595.08	59.091
595.42	59.965
595.75	58.903
596.09	59.594
596.42	59.411
596.75	59.392
597.09	59.784
597.42	58.263
597.75	59.508
598.09	59.391
598.42	59.149
598.76	58.979
599.09	58.761
599.42	57.496
599.76	58.163
600.09	57.195
600.42	57.743
600.76	57.179
601.09	57.377
601.42	57.839
601.76	57.989
602.09	58.142
602.42	57.564
602.76	58.686
603.09	58.222
603.42	59.078
603.76	58.384
604.09	58.162
604.42	59.478
604.76	58.541
605.09	58.366
605.42	57.845
605.75	57.740
606.09	58.357
606.42	59.052
606.75	57.487
607.09	56.676
607.42	58.494
607.75	56.624
608.08	57.273
608.42	58.673
608.75	56.763
609.08	56.938
609.41	57.211
609.75	56.789
610.08	57.917
610.41	58.240
610.74	57.947
611.07	58.498
611.41	57.507
611.74	58.874
612.07	58.126
612.40	58.342
612.73	58.474
613.07	59.429
613.40	58.820
613.73	57.420
614.06	58.495
614.39	56.476
614.72	56.158
615.06	58.351
615.39	57.856
615.72	56.544
616.05	56.619
616.38	58.199
616.71	59.264
617.05	58.127
617.38	58.870
617.71	57.958
618.04	59.796
618.37	57.303
618.70	57.996
619.03	58.355
619.36	59.267
619.69	58.521
620.03	58.448
620.36	59.626
620.69	59.658
621.02	59.145
621.35	58.105
621.68	58.956
622.01	59.985
622.34	59.304
622.67	59.924
623.00	59.061
623.33	58.899
623.66	58.613
623.99	59.794
624.32	58.559
624.65	58.121
624.99	57.578
625.32	58.074
625.65	59.354
625.98	59.339
626.31	58.787
626.64	59.510
626.97	59.767
627.30	59.268
627.63	58.491
627.96	59.125
628.29	60.542
628.62	59.012
628.95	60.943
629.28	60.493
629.61	59.395
629.94	60.952
630.26	60.724
630.59	60.057
630.92	58.716
631.25	58.440
631.58	59.660
631.91	59.838
632.24	59.599
632.57	60.336
632.90	59.539
633.23	59.955
633.56	60.113
633.89	60.362
634.22	61.521
634.55	61.538
634.88	61.198
635.20	61.171
635.53	61.084
635.86	62.871
636.19	60.941
636.52	59.746
636.85	60.596
637.18	59.793
637.51	61.584
637.83	58.816
638.16	64.194
638.49	60.705
638.82	60.936
639.15	62.375
639.48	60.224
639.81	62.198
640.13	61.719
640.46	60.403
640.79	61.295
641.12	61.486
641.45	62.291
641.77	61.856
642.10	62.281
642.43	61.111
642.76	63.932
643.09	63.957
643.41	61.002
643.74	63.272
644.07	61.738
644.40	62.270
644.73	63.150
645.05	63.074
645.38	60.506
645.71	61.514
646.04	64.120
646.36	64.441
646.69	62.207
647.02	63.776
647.35	63.230
647.67	62.124
648.00	60.488
648.33	62.541
648.66	58.636
648.98	61.919
649.31	59.193
649.64	61.584
649.96	60.209
650.29	62.243
650.62	60.841
650.94	62.885
651.27	63.851
651.60	62.230
651.92	60.064
652.25	62.215
652.58	59.034
652.90	63.191
653.23	57.473
653.56	57.795
653.88	62.282
654.21	62.559
654.54	62.046
654.86	59.346
655.19	56.757
655.52	45.906
655.84	44.513
656.17	57.256
656.49	76.419
656.82	76.396
657.15	57.556
657.47	42.346
657.80	32.937
658.13	34.135
658.45	51.026
658.78	50.582
659.10	51.823
659.43	53.438
659.75	56.186
660.08	59.684
660.41	63.780
660.73	65.565
661.06	63.694
661.38	64.000
661.71	64.231
662.03	60.355
662.36	59.642
662.68	63.052
663.01	61.010
663.33	63.694
663.66	62.395
663.98	63.283
664.31	61.975
664.63	60.324
664.96	57.545
665.28	64.139
665.61	59.649
665.93	61.167
666.26	61.460
666.58	62.343
666.91	62.368
667.23	65.393
667.56	60.043
667.88	59.402
668.21	62.260
668.53	61.605
668.86	60.390
669.18	62.900
669.50	59.565
669.83	63.834
670.15	64.667
670.48	62.092
670.80	61.853
671.13	61.571
671.45	60.638
671.77	59.267
672.10	58.965
672.42	58.657
672.75	55.721
673.07	57.042
673.39	56.962
673.72	59.180
674.04	60.784
674.37	58.641
674.69	60.532
675.01	60.460
675.34	60.575
675.66	62.316
675.98	59.674
676.31	59.244
676.63	62.420
676.95	58.071
677.28	63.785
677.60	59.560
677.92	62.447
678.25	58.316
678.57	61.952
678.89	58.317
679.22	55.796
679.54	57.634
679.86	55.046
680.18	58.855
680.51	56.915
680.83	56.406
681.15	58.113
681.48	59.168
681.80	58.414
682.12	59.387
682.44	56.093
682.77	61.100
683.09	58.798
683.41	61.641
683.73	60.265
684.06	58.264
684.38	57.730
684.70	58.140
685.02	56.660
685.34	56.593
685.67	55.245
685.99	57.732
686.31	55.290
686.63	53.710
686.96	53.393
687.28	52.708
687.60	55.435
687.92	58.318
688.24	57.605
688.56	58.032
688.89	59.544
689.21	61.354
689.53	58.038
689.85	61.197
690.17	56.108
690.49	58.386
690.82	60.280
691.14	60.045
691.46	56.751
691.78	58.032
692.10	59.917
692.42	55.489
692.74	54.564
693.06	59.574
693.39	57.290
693.71	57.860
694.03	56.421
694.35	57.792
694.67	57.666
694.99	60.000
695.31	57.843
695.63	61.483
695.95	59.658
696.27	58.629
696.59	58.290
696.91	58.549
697.23	54.695
697.56	56.503
697.88	51.329
698.20	53.542
698.52	58.710
698.84	59.465
699.16	56.682
699.48	58.670
699.80	57.729
700.12	62.857
700.44	63.395
700.76	61.050
701.08	60.920
701.40	63.966
701.72	60.933
702.04	66.761
702.36	56.374
702.68	58.924
703.00	59.557
703.32	59.043
703.64	57.373
703.96	61.003
704.28	59.593
704.60	63.636
704.91	60.831
705.23	60.997
705.55	65.781
705.87	64.784
706.19	62.898
706.51	57.632
706.83	63.939
707.15	58.263
707.47	56.061
707.79	57.985
708.11	52.740
708.43	58.571
708.74	58.673
709.06	58.961
709.38	60.105
709.70	61.337
710.02	63.501
710.34	55.758
710.66	61.791
710.98	60.511
711.29	57.849
711.61	60.767
711.93	58.974
712.25	63.666
712.57	67.647
712.89	66.090
713.20	61.094
713.52	63.487
713.84	59.494
714.16	62.195
714.48	59.195
714.80	63.526
715.11	61.095
715.43	59.347
715.75	56.522
716.07	61.022
716.39	62.382
716.70	61.130
717.02	61.151
717.34	59.364
717.66	63.806
717.97	66.135
718.29	63.333
718.61	64.234
718.93	60.662
719.24	65.398
719.56	62.034
719.88	61.017
720.20	61.824
720.51	64.111
720.83	63.941
721.15	57.090
721.46	57.092
721.78	66.667
722.10	59.623
722.42	63.158
722.73	60.300
723.05	67.623
723.37	67.611
723.68	60.618
724.00	64.634
724.32	58.871
724.63	62.602
724.95	64.017
725.27	61.538
725.58	65.234
725.90	66.058
726.22	67.547
726.53	56.944
726.85	56.997
727.16	62.278
727.48	60.638
727.80	58.712
728.11	59.783
728.43	60.769
728.74	61.290
729.06	62.044
729.38	60.294
729.69	60.854
730.01	59.044
730.32	58.681
730.64	60.535
730.96	57.426
731.27	59.272
731.59	56.575
731.90	58.601
732.22	62.733
732.53	55.728
732.85	57.051
733.16	53.055
733.48	59.136
733.80	57.792
734.11	60.828
734.43	57.101
734.74	55.429
735.06	53.295
735.37	56.647
735.69	57.962
736.00	58.497
736.32	52.025
736.63	58.466
736.95	58.786
737.26	56.122
737.58	58.065
737.89	60.870
738.21	57.679
738.52	58.571
738.83	56.604
739.15	56.923
739.46	60.949
739.78	58.333
740.09	54.462
740.41	58.065
740.72	54.704
741.04	59.630
741.35	62.917
741.66	63.556
741.98	62.736
742.29	64.115
742.61	64.655
742.92	61.086
743.23	63.675
743.55	63.600
743.86	63.596
744.18	63.717
744.49	69.378
744.80	67.136
745.12	68.182
745.43	59.471
745.74	65.315
746.06	69.266
746.37	61.883
746.68	65.611
747.00	72.222
747.31	66.667
747.62	62.389
747.94	62.555
748.25	62.128
748.56	62.115
748.88	65.347
749.19	67.000
749.50	64.651
749.82	61.789
750.13	57.143
750.44	59.489
750.75	59.649
751.07	62.058
751.38	60.627
751.69	62.455
752.01	58.271
752.32	59.206
752.63	60.993
752.94	65.574
753.26	65.600
753.57	58.130
753.88	58.203
754.19	57.143
754.51	58.333
754.82	58.123
755.13	59.245
755.44	56.015
755.75	59.489
756.07	54.255
756.38	58.759
756.69	54.698
757.00	53.593
757.31	51.335
757.63	53.801
757.94	52.547
758.25	50.245
758.56	53.086
758.87	51.613
759.18	52.727
759.50	51.097
759.81	53.271
760.12	54.375
760.43	56.160
760.74	52.989
761.05	54.520
761.36	55.348
761.67	55.114
761.99	52.795
762.30	54.167
762.61	59.542
762.92	56.641
763.23	58.824
763.54	64.800
763.85	55.469
764.16	60.385
764.47	57.034
764.78	53.357
765.10	51.266
765.41	54.277
765.72	56.287
766.03	54.859
766.34	53.000
766.65	65.532
766.96	65.385
767.27	74.112
767.58	65.104
767.89	65.789
768.20	68.966
768.51	63.959
768.82	60.550
769.13	56.911
769.44	60.729
769.75	57.940
770.06	59.633
770.37	58.824
770.68	62.963
770.99	58.222
771.30	54.508
771.61	65.919
771.92	63.525
772.23	59.664
772.54	59.487
772.85	68.586
773.16	62.234
773.47	65.217
773.78	69.036
774.09	69.048
774.39	65.497
774.70	65.432
775.01	73.913
775.32	70.588
775.63	73.684
775.94	70.504
776.25	83.465
776.56	79.104
776.87	77.049
777.18	78.125
777.48	71.756
777.79	87.121
778.10	66.667
778.41	84.821
778.72	67.883
779.03	69.128
779.34	75.168
779.65	72.297
779.95	69.325
780.26	68.627
780.57	75.862
780.88	80.469
781.19	73.684
781.50	72.297
781.80	72.327
782.11	63.842
782.42	65.823
782.73	65.031
783.04	74.324
783.34	69.718
783.65	78.767
783.96	81.343
784.27	69.930
784.57	74.101
784.88	79.630
785.19	78.571
785.50	79.245
785.81	79.104
786.11	81.148
786.42	75.194
786.73	77.876
787.04	80.189
787.34	77.679
787.65	90.000
787.96	72.973
788.26	68.595
788.57	88.983
788.88	83.471
789.19	66.667
789.49	78.788
789.80	80.916
790.11	100.000
790.41	94.059
790.72	85.542
791.03	96.739
791.33	96.512
791.64	87.629
791.95	80.198
792.25	96.667
792.56	106.494
792.87	108.974
793.17	98.734
793.48	94.253
793.79	100.000
794.09	88.636
794.40	71.429
794.70	72.794
795.01	73.333
795.32	78.417
795.62	69.291
795.93	78.448
796.23	74.336
796.54	89.412
796.85	102.703
797.15	109.859
797.46	103.030
797.76	98.795
798.07	98.734
798.37	109.231
798.68	100.000
798.99	94.366
799.29	83.117
799.60	98.864
799.90	104.110
800.21	111.940
800.51	112.069
800.82	128.070
801.12	108.197
801.43	110.606
801.73	83.784
802.04	123.810
802.34	88.889
802.65	118.750
802.95	120.339
803.26	117.188
803.56	82.857
803.87	96.923
804.17	101.471
804.48	129.630
804.78	113.793
805.09	119.118
805.39	101.923
805.70	117.857
806.00	118.033
806.30	100.000
806.61	102.439
806.91	83.544
807.22	97.368
807.52	79.104
807.83	88.732
808.13	106.250
808.43	120.000
808.74	97.368
809.04	107.246
809.35	104.478
809.65	98.684
809.95	130.645
810.26	111.864
810.56	109.524
810.86	143.182
811.17	152.381
811.47	108.333
811.77	133.333
812.08	132.727
812.38	110.000
812.69	166.667
812.99	154.545
813.29	134.694
813.59	104.762
813.90	153.061
814.20	114.545
814.50	96.923
814.81	120.588
815.11	116.327
815.41	104.918
815.72	147.619
816.02	116.364
816.32	111.905
816.62	140.000
816.93	168.293
817.23	166.667
817.53	131.818
817.84	184.848
818.14	128.261
818.44	131.111
818.74	208.824
819.04	127.500
819.35	162.857
819.65	188.235
819.95	182.143
820.25	235.000
820.56	169.231
820.86	152.273
821.16	151.163
821.46	143.590
821.76	142.000
822.07	182.857
822.37	162.500
822.67	193.939
822.97	145.098
823.27	217.857
823.57	162.162
823.88	195.000
824.18	223.333
824.48	166.667
824.78	264.000
825.08	208.333
825.38	175.676
825.69	141.463
825.99	229.167
826.29	172.414
826.59	157.895
826.89	150.000
827.19	161.765
827.49	209.677
827.79	145.455
828.09	138.636
828.39	110.638
828.70	120.408
829.00	166.667
829.30	170.968
829.60	137.500
829.90	340.000
830.20	200.000
830.50	178.261
830.80	252.174
831.10	190.000
831.40	210.000
831.70	191.304
832.00	184.615
832.30	218.519
832.60	275.000
832.90	193.333
833.20	385.714
833.50	187.097
833.80	193.103
834.10	187.500
834.40	230.769
834.70	266.667
835.00	300.000
835.30	162.857
835.60	376.923
835.90	196.552
836.20	335.714
836.50	241.379
836.80	172.000
837.10	188.889
837.40	271.429
837.70	305.882
838.00	211.111
838.30	219.048
838.60	266.667
838.90	200.000
839.19	280.000
839.49	392.857
839.79	325.000
840.09	270.000
840.39	252.381
840.69	243.478
840.99	311.111
841.29	520.000
841.59	425.000
841.88	350.000
842.18	189.655
842.48	242.857
842.78	196.667
843.08	213.043
843.38	150.000
843.68	716.667
843.97	211.538
844.27	231.034
844.57	285.714
844.87	293.750
845.17	181.481
845.47	1533.333
845.76	400.000
846.06	270.588
846.36	500.000
846.66	357.143
846.96	287.500
847.25	400.000
847.55	400.000
847.85	239.130
848.15	460.000
848.44	400.000
848.74	266.667
849.04	317.647
849.34	500.000
849.63	221.053
849.93	418.182
850.23	1020.000
850.53	364.286
850.82	1850.000
851.12	-4800.000
851.42	4400.000
851.71	260.000
852.01	-900.000
852.31	195.833
852.61	1766.667
852.90	280.952
853.20	208.000
853.50	300.000
853.79	257.143
854.09	250.000
854.39	306.250
854.68	191.892
854.98	177.419
855.28	193.333
855.57	210.345
855.87	244.444
856.17	257.895
856.46	233.333
856.76	341.176
857.05	203.448
857.35	191.667
857.65	313.333
857.94	256.522
858.24	203.846
858.53	270.000
858.83	240.909
859.13	373.333
859.42	0.000
859.72	522.222
860.01	390.909
860.31	259.091
860.60	273.684
860.90	173.913
861.20	544.444
861.49	475.000
861.79	-3200.000
862.08	612.500
862.38	266.667
862.67	315.385
862.97	341.176
863.26	622.222
863.56	272.222
863.85	333.333
864.15	587.500
864.44	333.333
864.74	850.000
865.03	562.500
865.33	305.263
865.62	381.818
865.92	376.923
866.21	300.000
866.51	0.000
866.80	427.273
867.10	1100.000
867.39	430.769
867.69	518.182
867.98	263.158
868.27	463.636
868.57	331.579
868.86	-4000.000
869.16	312.500
869.45	1900.000
869.75	-4100.000
870.04	425.000
870.33	657.143
870.63	950.000
870.92	2600.000
871.22	728.571
871.51	323.529
871.80	242.857
872.10	357.143
>>>>>End Processed Spectral Data<<<<<
