SpectraSuite Data File
++++++++++++++++++++++++++++++++++++
Date: Wed May 13 16:20:13 PDT 2015
User: schluterlab
Dark Spectrum Present: Yes
Reference Spectrum Present: Yes
Number of Sampled Component Spectra: 1
Spectrometers: USB2E3373
Integration Time (usec): 3000 (USB2E3373)
Spectra Averaged: 3 (USB2E3373)
Boxcar Smoothing: 0 (USB2E3373)
Correct for Electrical Dark: No (USB2E3373)
Strobe/Lamp Enabled: No (USB2E3373)
Correct for Detector Non-linearity: No (USB2E3373)
Correct for Stray Light: No (USB2E3373)
Number of Pixels in Processed Spectrum: 2048
>>>>>Begin Processed Spectral Data<<<<<
178.53	0.000
178.91	-900.000
179.29	-1050.000
179.67	-211.111
180.04	-1225.000
180.42	1700.000
180.80	1160.000
181.18	-900.000
181.56	571.429
181.94	0.000
182.31	-642.857
182.69	1500.000
183.07	-487.500
183.45	-533.333
183.83	445.455
184.20	-370.000
184.58	2150.000
184.96	5000.000
185.34	-880.000
185.72	-587.500
186.09	-2150.000
186.47	2600.000
186.85	1800.000
187.23	5000.000
187.61	-1500.000
187.98	1025.000
188.36	536.364
188.74	409.091
189.12	-780.000
189.49	520.000
189.87	-4100.000
190.25	-1075.000
190.63	328.571
191.00	384.615
191.38	733.333
191.76	-1250.000
192.14	1175.000
192.51	487.500
192.89	900.000
193.27	425.000
193.65	-1150.000
194.02	420.000
194.40	840.000
194.78	470.000
195.15	408.333
195.53	590.000
195.91	-1900.000
196.29	287.500
196.66	284.211
197.04	-290.000
197.42	0.000
197.79	510.000
198.17	-4000.000
198.55	457.143
198.92	587.500
199.30	720.000
199.68	0.000
200.05	316.667
200.43	600.000
200.81	4300.000
201.18	1366.667
201.56	-1266.667
201.94	422.222
202.31	544.444
202.69	366.667
203.07	440.000
203.44	0.000
203.82	950.000
204.19	771.429
204.57	407.143
204.95	537.500
205.32	1400.000
205.70	445.455
206.08	385.714
206.45	3000.000
206.83	268.750
207.20	816.667
207.58	680.000
207.96	272.222
208.33	575.000
208.71	-966.667
209.08	671.429
209.46	455.556
209.84	381.818
210.21	-1000.000
210.59	1100.000
210.96	-362.500
211.34	2350.000
211.71	570.000
212.09	866.667
212.46	0.000
212.84	1466.667
213.22	1250.000
213.59	-3500.000
213.97	866.667
214.34	500.000
214.72	554.545
215.09	980.000
215.47	-2200.000
215.84	-2800.000
216.22	1133.333
216.59	378.571
216.97	1275.000
217.34	527.273
217.72	-483.333
218.09	0.000
218.47	-4700.000
218.84	522.222
219.22	728.571
219.59	1700.000
219.97	-585.714
220.34	1040.000
220.72	-1633.333
221.09	357.143
221.47	1200.000
221.84	-850.000
222.22	0.000
222.59	1050.000
222.97	-2450.000
223.34	1040.000
223.72	330.769
224.09	1000.000
224.46	1750.000
224.84	-3700.000
225.21	-840.000
225.59	-3000.000
225.96	450.000
226.34	285.000
226.71	1900.000
227.08	587.500
227.46	410.000
227.83	-875.000
228.21	-1600.000
228.58	588.889
228.95	-1950.000
229.33	-1800.000
229.70	1433.333
230.08	628.571
230.45	-640.000
230.82	333.333
231.20	583.333
231.57	514.286
231.95	375.000
232.32	181.818
232.69	336.364
233.07	657.143
233.44	253.846
233.81	-1466.667
234.19	284.211
234.56	375.000
234.93	325.000
235.31	336.364
235.68	253.846
236.05	292.857
236.43	136.364
236.80	194.737
237.17	2200.000
237.55	195.238
237.92	142.857
238.29	209.524
238.67	135.484
239.04	186.207
239.41	125.000
239.79	80.435
240.16	119.048
240.53	93.182
240.91	74.510
241.28	74.000
241.65	62.000
242.02	88.406
242.40	69.355
242.77	63.333
243.14	55.914
243.51	56.180
243.89	42.353
244.26	45.556
244.63	48.387
245.00	38.298
245.38	34.653
245.75	35.514
246.12	34.862
246.49	42.336
246.87	43.200
247.24	36.154
247.61	35.714
247.98	36.601
248.36	22.297
248.73	26.752
249.10	28.662
249.47	29.944
249.84	29.947
250.22	25.134
250.59	22.485
250.96	28.283
251.33	23.697
251.70	25.248
252.08	18.095
252.45	19.731
252.82	23.043
253.19	25.957
253.56	21.569
253.94	24.066
254.31	20.313
254.68	22.692
255.05	19.188
255.42	15.041
255.79	18.382
256.16	18.412
256.54	16.608
256.91	19.573
257.28	11.871
257.65	16.502
258.02	17.391
258.39	15.457
258.76	14.047
259.14	14.881
259.51	14.590
259.88	11.801
260.25	16.616
260.62	14.162
260.99	14.286
261.36	17.417
261.73	12.034
262.10	13.081
262.47	14.930
262.85	14.485
263.22	12.536
263.59	15.954
263.96	12.363
264.33	14.099
264.70	12.368
265.07	16.624
265.44	14.141
265.81	11.679
266.18	12.563
266.55	10.244
266.92	12.039
267.29	15.741
267.66	13.761
268.03	11.591
268.40	11.449
268.77	8.115
269.14	10.360
269.51	13.544
269.88	11.655
270.25	10.609
270.62	12.360
270.99	12.903
271.36	12.446
271.73	11.449
272.10	11.522
272.47	12.258
272.84	10.606
273.21	11.321
273.58	9.389
273.95	10.901
274.32	10.331
274.69	12.206
275.06	9.843
275.43	12.340
275.80	9.820
276.17	10.591
276.54	12.058
276.91	11.660
277.28	7.813
277.65	11.412
278.02	9.110
278.39	12.891
278.76	11.091
279.13	11.132
279.50	10.801
279.87	7.769
280.23	11.976
280.60	9.478
280.97	6.839
281.34	9.027
281.71	9.636
282.08	9.789
282.45	7.273
282.82	9.947
283.19	7.308
283.56	7.719
283.92	8.968
284.29	8.289
284.66	7.441
285.03	7.595
285.40	8.627
285.77	8.754
286.14	7.427
286.51	9.667
286.87	9.231
287.24	11.075
287.61	9.149
287.98	8.604
288.35	8.241
288.72	7.165
289.08	8.607
289.45	8.402
289.82	8.455
290.19	7.221
290.56	9.035
290.93	6.495
291.29	7.975
291.66	8.997
292.03	10.029
292.40	9.104
292.77	7.101
293.13	10.597
293.50	6.997
293.87	8.889
294.24	8.444
294.60	8.006
294.97	7.267
295.34	9.873
295.71	8.523
296.08	7.407
296.44	7.703
296.81	7.266
297.18	8.401
297.55	5.673
297.91	6.069
298.28	8.701
298.65	8.486
299.02	7.773
299.38	6.242
299.75	5.526
300.12	5.875
300.48	6.500
300.85	7.152
301.22	7.771
301.59	7.197
301.95	6.549
302.32	7.831
302.69	7.407
303.05	7.273
303.42	8.519
303.79	7.248
304.15	6.643
304.52	6.605
304.89	7.782
305.25	7.657
305.62	7.701
305.99	8.028
306.35	7.942
306.72	8.632
307.09	8.879
307.45	9.009
307.82	6.027
308.19	8.720
308.55	8.306
308.92	7.626
309.29	6.230
309.65	6.787
310.02	9.408
310.38	8.602
310.75	8.448
311.12	8.802
311.48	8.986
311.85	9.539
312.22	6.972
312.58	7.900
312.95	7.814
313.31	8.641
313.68	9.459
314.05	10.256
314.41	8.744
314.78	9.265
315.14	9.434
315.51	9.372
315.87	10.396
316.24	10.030
316.61	9.454
316.97	9.198
317.34	9.100
317.70	10.038
318.07	10.202
318.43	10.665
318.80	10.684
319.16	10.640
319.53	10.319
319.89	10.857
320.26	12.000
320.62	12.103
320.99	11.313
321.35	11.717
321.72	11.499
322.08	11.352
322.45	12.338
322.81	11.531
323.18	12.139
323.54	12.616
323.91	12.925
324.27	12.811
324.64	12.675
325.00	12.624
325.37	13.922
325.73	14.004
326.10	12.886
326.46	12.634
326.83	13.978
327.19	13.151
327.56	13.502
327.92	13.911
328.29	14.641
328.65	14.457
329.01	13.899
329.38	14.616
329.74	13.573
330.11	14.232
330.47	14.417
330.84	16.268
331.20	13.570
331.56	14.771
331.93	14.444
332.29	15.794
332.66	15.664
333.02	14.717
333.38	15.899
333.75	15.508
334.11	16.014
334.48	15.173
334.84	15.625
335.20	15.364
335.57	13.871
335.93	14.375
336.29	15.476
336.66	15.329
337.02	15.113
337.38	15.463
337.75	14.706
338.11	15.577
338.47	15.193
338.84	15.399
339.20	13.945
339.56	15.602
339.93	14.727
340.29	15.217
340.65	15.954
341.02	16.230
341.38	15.658
341.74	15.351
342.11	16.594
342.47	15.419
342.83	15.497
343.20	15.844
343.56	15.417
343.92	15.877
344.28	16.327
344.65	15.649
345.01	14.646
345.37	14.237
345.73	14.636
346.10	14.834
346.46	15.169
346.82	15.239
347.19	15.288
347.55	15.353
347.91	15.615
348.27	16.927
348.63	14.799
349.00	15.939
349.36	15.599
349.72	14.755
350.08	15.559
350.45	16.111
350.81	15.922
351.17	16.126
351.53	15.479
351.89	15.017
352.26	15.864
352.62	16.359
352.98	16.207
353.34	15.366
353.70	14.730
354.07	15.806
354.43	16.587
354.79	15.688
355.15	15.323
355.51	17.026
355.87	15.265
356.24	16.775
356.60	14.916
356.96	16.010
357.32	14.718
357.68	16.457
358.04	16.310
358.40	16.152
358.77	16.980
359.13	16.022
359.49	15.216
359.85	16.032
360.21	16.188
360.57	17.121
360.93	16.769
361.29	15.873
361.66	15.015
362.02	16.791
362.38	16.046
362.74	16.146
363.10	16.358
363.46	16.067
363.82	16.402
364.18	16.300
364.54	17.013
364.90	17.564
365.26	15.515
365.62	17.896
365.98	16.143
366.35	15.903
366.71	18.004
367.07	16.460
367.43	16.691
367.79	17.987
368.15	17.385
368.51	15.988
368.87	16.774
369.23	16.825
369.59	18.320
369.95	16.985
370.31	17.023
370.67	17.101
371.03	18.427
371.39	18.149
371.75	17.279
372.11	17.639
372.47	18.475
372.83	18.300
373.19	16.474
373.55	18.108
373.91	17.820
374.27	17.045
374.63	17.673
374.99	18.220
375.35	17.167
375.71	18.163
376.07	18.587
376.42	18.157
376.78	19.085
377.14	17.436
377.50	18.874
377.86	17.819
378.22	18.774
378.58	17.419
378.94	17.662
379.30	18.830
379.66	18.211
380.02	18.980
380.38	18.944
380.74	19.868
381.09	20.110
381.45	19.361
381.81	19.410
382.17	19.490
382.53	19.371
382.89	19.691
383.25	19.074
383.61	19.950
383.97	19.762
384.32	20.274
384.68	19.517
385.04	19.299
385.40	19.567
385.76	20.086
386.12	20.078
386.48	20.516
386.83	21.167
387.19	21.831
387.55	20.717
387.91	19.952
388.27	20.478
388.62	21.143
388.98	20.147
389.34	21.026
389.70	21.398
390.06	21.800
390.42	20.363
390.77	21.120
391.13	21.889
391.49	22.462
391.85	21.133
392.20	20.820
392.56	21.212
392.92	21.778
393.28	20.355
393.64	21.103
393.99	21.442
394.35	21.154
394.71	21.142
395.07	20.685
395.42	21.075
395.78	21.501
396.14	21.353
396.50	22.494
396.85	21.233
397.21	21.825
397.57	20.955
397.92	21.935
398.28	20.908
398.64	21.685
399.00	21.544
399.35	21.715
399.71	20.833
400.07	21.467
400.42	21.534
400.78	21.894
401.14	21.220
401.49	22.149
401.85	21.537
402.21	20.958
402.57	21.036
402.92	20.681
403.28	21.674
403.63	20.916
403.99	21.274
404.35	21.333
404.70	20.983
405.06	21.025
405.42	20.898
405.77	21.086
406.13	20.880
406.49	21.348
406.84	21.323
407.20	20.449
407.55	20.676
407.91	20.200
408.27	20.421
408.62	20.650
408.98	21.446
409.34	21.218
409.69	20.968
410.05	20.880
410.40	20.306
410.76	20.789
411.11	20.145
411.47	19.681
411.83	21.014
412.18	20.841
412.54	21.171
412.89	20.181
413.25	20.484
413.60	20.383
413.96	19.976
414.31	20.170
414.67	20.532
415.03	21.060
415.38	21.649
415.74	20.193
416.09	20.575
416.45	20.616
416.80	20.753
417.16	20.107
417.51	21.035
417.87	19.332
418.22	20.315
418.58	20.852
418.93	20.455
419.29	20.433
419.64	21.222
420.00	21.098
420.35	21.101
420.71	20.263
421.06	19.809
421.42	20.000
421.77	20.628
422.12	19.315
422.48	18.726
422.83	19.860
423.19	19.282
423.54	19.965
423.90	20.058
424.25	20.045
424.61	20.060
424.96	20.000
425.31	19.435
425.67	19.382
426.02	20.114
426.38	20.208
426.73	19.485
427.09	19.392
427.44	18.574
427.79	18.919
428.15	19.643
428.50	19.602
428.85	19.487
429.21	19.547
429.56	19.077
429.92	18.671
430.27	18.570
430.62	18.843
430.98	19.253
431.33	18.711
431.68	18.534
432.04	18.797
432.39	18.447
432.74	18.372
433.10	19.411
433.45	18.834
433.80	18.681
434.16	19.444
434.51	18.737
434.86	19.213
435.22	20.011
435.57	18.723
435.92	17.730
436.28	19.217
436.63	19.150
436.98	17.916
437.34	19.022
437.69	19.428
438.04	18.999
438.39	18.806
438.75	19.059
439.10	18.547
439.45	19.540
439.81	18.671
440.16	18.634
440.51	18.688
440.86	18.471
441.22	18.354
441.57	18.790
441.92	18.014
442.27	19.053
442.63	18.378
442.98	18.986
443.33	17.989
443.68	17.914
444.03	18.009
444.39	17.624
444.74	17.370
445.09	17.520
445.44	18.043
445.79	17.912
446.15	18.581
446.50	18.255
446.85	17.986
447.20	18.511
447.55	18.314
447.91	17.926
448.26	18.364
448.61	17.807
448.96	17.774
449.31	17.885
449.66	18.571
450.02	17.493
450.37	17.007
450.72	17.033
451.07	17.428
451.42	17.994
451.77	19.260
452.12	17.783
452.47	18.470
452.83	17.890
453.18	18.337
453.53	18.182
453.88	17.188
454.23	17.812
454.58	18.171
454.93	18.690
455.28	17.269
455.63	17.961
455.98	18.452
456.34	17.337
456.69	17.282
457.04	17.957
457.39	17.650
457.74	17.411
458.09	17.999
458.44	17.845
458.79	16.974
459.14	17.381
459.49	17.280
459.84	16.731
460.19	17.030
460.54	16.898
460.89	17.334
461.24	17.365
461.59	17.838
461.94	17.941
462.29	17.329
462.64	16.720
462.99	16.916
463.34	18.333
463.69	17.011
464.04	16.812
464.39	17.275
464.74	17.112
465.09	17.189
465.44	16.620
465.79	16.611
466.14	17.077
466.49	16.630
466.84	16.112
467.19	16.476
467.54	17.000
467.89	16.627
468.24	16.928
468.59	16.728
468.94	16.371
469.29	16.003
469.64	17.403
469.99	17.321
470.34	16.116
470.68	16.164
471.03	16.463
471.38	17.304
471.73	16.456
472.08	16.776
472.43	16.834
472.78	16.458
473.13	16.881
473.48	16.230
473.83	16.524
474.17	15.806
474.52	16.501
474.87	15.879
475.22	16.077
475.57	14.992
475.92	16.198
476.27	15.502
476.61	16.106
476.96	15.668
477.31	15.646
477.66	16.575
478.01	15.003
478.36	15.494
478.70	15.109
479.05	15.122
479.40	15.558
479.75	15.099
480.10	15.358
480.45	14.993
480.79	14.859
481.14	15.264
481.49	14.950
481.84	14.586
482.19	14.857
482.53	14.817
482.88	14.798
483.23	14.766
483.58	15.378
483.92	14.433
484.27	14.074
484.62	14.526
484.97	14.308
485.31	15.034
485.66	14.036
486.01	13.836
486.36	12.762
486.70	12.610
487.05	13.171
487.40	13.509
487.75	13.636
488.09	13.285
488.44	13.276
488.79	13.779
489.13	14.095
489.48	13.662
489.83	13.552
490.17	14.073
490.52	14.570
490.87	14.202
491.22	13.370
491.56	13.166
491.91	13.913
492.26	13.551
492.60	13.917
492.95	13.424
493.30	14.159
493.64	13.672
493.99	13.370
494.34	13.784
494.68	14.332
495.03	13.863
495.37	13.495
495.72	13.402
496.07	14.339
496.41	13.097
496.76	13.764
497.11	13.507
497.45	13.694
497.80	13.724
498.14	13.092
498.49	13.366
498.84	13.423
499.18	13.000
499.53	13.248
499.87	13.420
500.22	13.472
500.56	13.447
500.91	12.740
501.26	13.608
501.60	14.381
501.95	12.970
502.29	13.824
502.64	13.547
502.98	12.903
503.33	13.848
503.67	13.225
504.02	12.629
504.36	13.524
504.71	13.337
505.06	13.735
505.40	12.688
505.75	12.584
506.09	12.828
506.44	13.419
506.78	13.785
507.13	13.024
507.47	13.889
507.82	12.766
508.16	13.273
508.51	13.394
508.85	13.009
509.19	12.908
509.54	12.755
509.88	13.035
510.23	13.111
510.57	13.519
510.92	12.895
511.26	12.847
511.61	13.589
511.95	12.683
512.30	12.884
512.64	13.111
512.98	13.290
513.33	13.116
513.67	12.647
514.02	13.366
514.36	13.872
514.70	12.839
515.05	12.828
515.39	12.731
515.74	13.345
516.08	13.192
516.42	13.263
516.77	13.935
517.11	13.041
517.46	13.149
517.80	12.311
518.14	13.260
518.49	13.244
518.83	13.295
519.17	13.048
519.52	12.847
519.86	12.949
520.20	13.815
520.55	12.807
520.89	13.139
521.23	12.545
521.58	12.545
521.92	13.472
522.26	12.020
522.61	12.960
522.95	12.769
523.29	12.355
523.64	12.927
523.98	13.001
524.32	12.726
524.66	13.049
525.01	13.113
525.35	12.515
525.69	12.254
526.04	12.773
526.38	12.996
526.72	12.945
527.06	12.869
527.41	11.386
527.75	12.926
528.09	13.038
528.43	13.193
528.78	13.092
529.12	12.121
529.46	12.982
529.80	12.933
530.15	12.274
530.49	12.738
530.83	12.595
531.17	13.185
531.51	13.035
531.86	12.387
532.20	13.885
532.54	13.645
532.88	12.644
533.22	12.367
533.57	12.593
533.91	11.800
534.25	12.454
534.59	12.752
534.93	12.314
535.27	12.432
535.62	13.065
535.96	12.116
536.30	12.015
536.64	12.234
536.98	12.276
537.32	12.245
537.66	11.933
538.01	11.916
538.35	12.282
538.69	13.019
539.03	11.761
539.37	11.246
539.71	11.212
540.05	13.072
540.39	12.292
540.73	12.225
541.07	12.589
541.42	12.524
541.76	13.226
542.10	12.419
542.44	11.987
542.78	12.780
543.12	10.877
543.46	12.197
543.80	12.362
544.14	11.553
544.48	11.429
544.82	11.802
545.16	12.101
545.50	12.404
545.84	11.626
546.18	11.515
546.52	11.975
546.86	11.821
547.20	12.407
547.54	11.490
547.88	12.372
548.22	11.644
548.56	12.327
548.90	11.268
549.24	12.054
549.58	11.801
549.92	12.363
550.26	12.216
550.60	11.618
550.94	11.479
551.28	11.631
551.62	12.006
551.96	12.211
552.30	12.628
552.64	12.441
552.98	12.610
553.32	11.666
553.66	12.202
554.00	12.011
554.34	11.939
554.68	12.518
555.02	12.200
555.36	11.482
555.69	11.367
556.03	11.777
556.37	12.210
556.71	11.323
557.05	11.415
557.39	12.106
557.73	11.433
558.07	12.183
558.41	11.360
558.75	12.858
559.08	11.484
559.42	11.565
559.76	12.059
560.10	12.491
560.44	11.670
560.78	11.377
561.12	11.741
561.45	11.604
561.79	11.536
562.13	11.402
562.47	11.407
562.81	11.855
563.15	11.639
563.48	12.135
563.82	11.742
564.16	11.249
564.50	11.003
564.84	10.746
565.17	11.197
565.51	11.310
565.85	11.231
566.19	11.209
566.52	11.146
566.86	10.368
567.20	11.085
567.54	10.731
567.88	10.429
568.21	11.005
568.55	10.566
568.89	10.457
569.23	10.383
569.56	9.798
569.90	9.698
570.24	9.831
570.57	9.895
570.91	9.373
571.25	9.636
571.59	9.426
571.92	9.332
572.26	9.445
572.60	9.459
572.93	9.565
573.27	9.879
573.61	9.408
573.95	9.535
574.28	8.844
574.62	9.208
574.96	8.961
575.29	9.093
575.63	9.045
575.97	9.268
576.30	9.108
576.64	9.502
576.98	8.580
577.31	8.641
577.65	9.142
577.98	8.926
578.32	8.697
578.66	9.119
578.99	8.742
579.33	8.811
579.67	8.830
580.00	9.015
580.34	8.828
580.67	8.721
581.01	9.265
581.35	8.734
581.68	8.871
582.02	8.641
582.35	8.553
582.69	8.793
583.02	8.307
583.36	8.762
583.70	9.166
584.03	9.274
584.37	9.486
584.70	8.882
585.04	9.320
585.37	8.947
585.71	9.234
586.04	9.108
586.38	8.908
586.72	9.362
587.05	8.856
587.39	8.522
587.72	8.915
588.06	8.671
588.39	9.026
588.73	9.094
589.06	9.224
589.40	8.822
589.73	9.433
590.07	9.431
590.40	8.696
590.73	9.133
591.07	9.687
591.40	9.785
591.74	10.000
592.07	9.599
592.41	9.756
592.74	9.738
593.08	9.161
593.41	8.890
593.75	9.213
594.08	9.051
594.41	9.615
594.75	9.501
595.08	9.198
595.42	9.422
595.75	9.615
596.09	9.087
596.42	9.862
596.75	9.455
597.09	9.351
597.42	8.895
597.75	9.746
598.09	9.696
598.42	9.235
598.76	8.918
599.09	8.856
599.42	8.806
599.76	9.078
600.09	9.071
600.42	8.400
600.76	8.750
601.09	9.180
601.42	9.094
601.76	9.146
602.09	8.854
602.42	9.713
602.76	9.432
603.09	9.087
603.42	9.059
603.76	9.261
604.09	9.073
604.42	9.009
604.76	9.405
605.09	9.699
605.42	8.722
605.75	9.396
606.09	9.272
606.42	8.827
606.75	9.042
607.09	8.874
607.42	9.200
607.75	8.523
608.08	8.467
608.42	9.771
608.75	8.792
609.08	9.482
609.41	9.281
609.75	10.005
610.08	9.237
610.41	8.892
610.74	8.467
611.07	10.030
611.41	9.912
611.74	9.703
612.07	10.041
612.40	10.178
612.73	9.316
613.07	9.860
613.40	10.058
613.73	9.491
614.06	9.462
614.39	9.544
614.72	10.211
615.06	9.716
615.39	9.926
615.72	8.436
616.05	9.304
616.38	9.561
616.71	9.561
617.05	9.953
617.38	9.080
617.71	9.550
618.04	9.075
618.37	9.698
618.70	10.143
619.03	10.526
619.36	9.572
619.69	10.282
620.03	10.440
620.36	10.227
620.69	10.479
621.02	9.587
621.35	9.710
621.68	10.592
622.01	10.836
622.34	10.287
622.67	11.255
623.00	9.758
623.33	9.864
623.66	10.722
623.99	10.162
624.32	9.772
624.65	9.534
624.99	9.773
625.32	9.703
625.65	10.518
625.98	10.915
626.31	10.109
626.64	10.531
626.97	11.471
627.30	9.726
627.63	11.075
627.96	11.354
628.29	10.324
628.62	12.168
628.95	12.075
629.28	11.040
629.61	11.274
629.94	10.762
630.26	9.724
630.59	10.677
630.92	11.111
631.25	10.859
631.58	12.312
631.91	10.649
632.24	10.759
632.57	12.172
632.90	12.061
633.23	11.521
633.56	12.881
633.89	11.099
634.22	13.507
634.55	13.136
634.88	12.814
635.20	11.350
635.53	13.012
635.86	11.634
636.19	11.412
636.52	11.534
636.85	12.486
637.18	11.060
637.51	13.475
637.83	10.727
638.16	12.276
638.49	12.091
638.82	13.148
639.15	14.125
639.48	13.591
639.81	12.332
640.13	14.063
640.46	13.154
640.79	10.700
641.12	12.105
641.45	12.011
641.77	11.635
642.10	12.719
642.43	13.514
642.76	11.610
643.09	12.270
643.41	13.505
643.74	14.043
644.07	12.500
644.40	15.951
644.73	15.433
645.05	14.105
645.38	12.954
645.71	15.298
646.04	13.123
646.36	15.025
646.69	14.716
647.02	14.116
647.35	13.230
647.67	14.867
648.00	13.821
648.33	13.531
648.66	11.818
648.98	14.393
649.31	12.108
649.64	12.257
649.96	12.817
650.29	12.164
650.62	13.430
650.94	14.425
651.27	13.682
651.60	13.644
651.92	14.377
652.25	13.355
652.58	14.174
652.90	13.428
653.23	12.481
653.56	13.386
653.88	13.788
654.21	14.218
654.54	11.056
654.86	13.240
655.19	11.622
655.52	7.591
655.84	6.280
656.17	7.863
656.49	10.369
656.82	10.389
657.15	7.793
657.47	5.796
657.80	4.733
658.13	4.753
658.45	7.333
658.78	7.490
659.10	8.007
659.43	8.645
659.75	8.933
660.08	9.494
660.41	11.453
660.73	13.342
661.06	12.261
661.38	14.727
661.71	14.038
662.03	14.793
662.36	11.928
662.68	13.655
663.01	13.333
663.33	14.013
663.66	14.496
663.98	14.687
664.31	13.235
664.63	13.158
664.96	14.688
665.28	15.164
665.61	15.205
665.93	11.670
666.26	13.387
666.58	14.435
666.91	17.548
667.23	17.079
667.56	14.687
667.88	17.308
668.21	19.616
668.53	14.534
668.86	17.965
669.18	16.205
669.50	16.522
669.83	16.122
670.15	15.556
670.48	15.251
670.80	15.086
671.13	15.924
671.45	14.894
671.77	15.071
672.10	14.787
672.42	13.781
672.75	13.267
673.07	12.500
673.39	12.477
673.72	13.086
674.04	13.333
674.37	13.010
674.69	15.542
675.01	12.762
675.34	16.222
675.66	14.947
675.98	13.849
676.31	15.336
676.63	16.348
676.95	15.514
677.28	12.617
677.60	13.626
677.92	15.190
678.25	15.195
678.57	14.741
678.89	13.427
679.22	13.752
679.54	12.786
679.86	13.578
680.18	14.490
680.51	15.071
680.83	13.167
681.15	13.396
681.48	14.556
681.80	16.441
682.12	15.134
682.44	11.605
682.77	15.886
683.09	16.309
683.41	17.295
683.73	14.790
684.06	16.322
684.38	15.460
684.70	14.922
685.02	14.822
685.34	13.553
685.67	13.986
685.99	12.543
686.31	14.334
686.63	11.661
686.96	13.571
687.28	15.523
687.60	13.587
687.92	15.722
688.24	14.829
688.56	15.261
688.89	17.220
689.21	18.559
689.53	14.823
689.85	16.630
690.17	15.321
690.49	18.047
690.82	16.121
691.14	14.286
691.46	13.924
691.78	14.859
692.10	14.669
692.42	16.567
692.74	15.145
693.06	12.766
693.39	18.275
693.71	15.721
694.03	15.368
694.35	14.502
694.67	13.959
694.99	13.659
695.31	16.912
695.63	17.943
695.95	15.648
696.27	13.706
696.59	16.321
696.91	15.803
697.23	13.850
697.56	16.418
697.88	13.906
698.20	14.583
698.52	15.699
698.84	16.481
699.16	11.290
699.48	14.964
699.80	17.391
700.12	20.519
700.44	20.424
700.76	19.061
701.08	17.529
701.40	18.156
701.72	19.825
702.04	22.443
702.36	16.714
702.68	15.864
703.00	17.729
703.32	16.755
703.64	18.767
703.96	16.992
704.28	17.733
704.60	16.716
704.91	17.507
705.23	17.889
705.55	18.937
705.87	20.930
706.19	18.728
706.51	22.741
706.83	20.303
707.15	23.529
707.47	17.172
707.79	14.988
708.11	18.493
708.43	16.667
708.74	14.286
709.06	18.182
709.38	19.423
709.70	18.605
710.02	20.178
710.34	16.667
710.66	18.209
710.98	21.591
711.29	18.314
711.61	20.059
711.93	17.308
712.25	22.186
712.57	14.706
712.89	17.301
713.20	20.365
713.52	19.079
713.84	15.506
714.16	18.902
714.48	18.103
714.80	23.404
715.11	19.308
715.43	16.320
715.75	16.522
716.07	17.891
716.39	20.690
716.70	21.595
717.02	17.626
717.34	22.615
717.66	25.746
717.97	22.311
718.29	23.333
718.61	17.153
718.93	23.529
719.24	18.685
719.56	18.983
719.88	21.356
720.20	22.635
720.51	23.345
720.83	21.561
721.15	18.657
721.46	21.631
721.78	23.297
722.10	20.755
722.42	25.564
722.73	19.850
723.05	22.951
723.37	20.243
723.68	22.394
724.00	27.236
724.32	20.968
724.63	18.699
724.95	23.013
725.27	21.053
725.58	26.953
725.90	24.453
726.22	22.642
726.53	17.708
726.85	23.891
727.16	18.505
727.48	21.277
727.80	21.591
728.11	22.464
728.43	21.154
728.74	21.864
729.06	24.453
729.38	23.529
729.69	22.064
730.01	22.184
730.32	21.181
730.64	21.739
730.96	17.492
731.27	22.848
731.59	18.960
731.90	20.408
732.22	15.528
732.53	19.195
732.85	17.628
733.16	20.900
733.48	16.279
733.80	17.857
734.11	20.064
734.43	18.935
734.74	18.000
735.06	15.759
735.37	18.497
735.69	17.197
736.00	21.895
736.32	20.561
736.63	18.530
736.95	22.045
737.26	13.265
737.58	18.065
737.89	19.732
738.21	22.184
738.52	22.500
738.83	19.245
739.15	21.538
739.46	24.088
739.78	20.833
740.09	20.000
740.41	20.968
740.72	19.861
741.04	20.370
741.35	25.833
741.66	26.667
741.98	19.340
742.29	23.445
742.61	29.310
742.92	18.552
743.23	27.350
743.55	25.600
743.86	21.491
744.18	26.106
744.49	27.273
744.80	27.700
745.12	30.909
745.43	26.432
745.74	28.829
746.06	28.899
746.37	25.561
746.68	24.887
747.00	24.074
747.31	25.714
747.62	21.681
747.94	21.586
748.25	21.277
748.56	29.075
748.88	24.752
749.19	29.000
749.50	24.186
749.82	24.390
750.13	17.551
750.44	18.978
750.75	21.404
751.07	22.830
751.38	25.436
751.69	27.798
752.01	21.805
752.32	17.329
752.63	19.858
752.94	20.902
753.26	25.200
753.57	20.325
753.88	23.828
754.19	20.714
754.51	22.917
754.82	17.329
755.13	23.396
755.44	24.436
755.75	18.978
756.07	19.504
756.38	25.182
756.69	19.128
757.00	20.359
757.31	16.320
757.63	17.544
757.94	17.426
758.25	17.647
758.56	14.321
758.87	19.086
759.18	20.606
759.50	19.122
759.81	16.511
760.12	17.188
760.43	18.911
760.74	17.663
761.05	16.949
761.36	17.647
761.67	19.602
761.99	18.944
762.30	19.792
762.61	20.992
762.92	23.047
763.23	25.630
763.54	24.800
763.85	21.484
764.16	24.615
764.47	17.871
764.78	18.375
765.10	16.456
765.41	20.944
765.72	20.958
766.03	19.122
766.34	17.000
766.65	16.596
766.96	27.350
767.27	26.396
767.58	25.521
767.89	34.737
768.20	34.483
768.51	25.888
768.82	26.606
769.13	21.951
769.44	18.219
769.75	23.176
770.06	22.018
770.37	23.077
770.68	25.926
770.99	24.000
771.30	21.311
771.61	25.112
771.92	22.131
772.23	26.471
772.54	29.231
772.85	28.796
773.16	24.468
773.47	29.348
773.78	34.518
774.09	29.167
774.39	32.749
774.70	29.630
775.01	34.783
775.32	37.908
775.63	40.132
775.94	28.777
776.25	45.669
776.56	36.567
776.87	36.885
777.18	35.938
777.48	45.038
777.79	36.364
778.10	38.519
778.41	39.286
778.72	29.927
779.03	34.228
779.34	34.228
779.65	30.405
779.95	35.583
780.26	36.601
780.57	31.724
780.88	39.063
781.19	36.842
781.50	25.676
781.80	36.478
782.11	25.424
782.42	30.380
782.73	35.583
783.04	36.486
783.34	35.211
783.65	46.575
783.96	44.030
784.27	32.168
784.57	31.655
784.88	25.000
785.19	46.825
785.50	40.566
785.81	44.030
786.11	45.902
786.42	44.186
786.73	37.168
787.04	54.717
787.34	52.679
787.65	51.000
787.96	36.937
788.26	45.455
788.57	41.525
788.88	48.760
789.19	34.028
789.49	41.667
789.80	39.695
790.11	47.619
790.41	52.475
790.72	60.241
791.03	55.435
791.33	58.140
791.64	42.268
791.95	56.436
792.25	50.000
792.56	62.338
792.87	73.077
793.17	60.759
793.48	66.667
793.79	56.322
794.09	62.500
794.40	42.017
794.70	50.735
795.01	34.815
795.32	33.813
795.62	37.008
795.93	52.586
796.23	44.248
796.54	50.588
796.85	51.351
797.15	69.014
797.46	60.606
797.76	60.241
798.07	58.228
798.37	58.462
798.68	66.667
798.99	49.296
799.29	54.545
799.60	51.136
799.90	73.973
800.21	83.582
800.51	67.241
800.82	68.421
801.12	81.967
801.43	68.182
801.73	59.459
802.04	69.841
802.34	69.136
802.65	75.000
802.95	91.525
803.26	92.188
803.56	50.000
803.87	64.615
804.17	66.176
804.48	98.148
804.78	63.793
805.09	75.000
805.39	75.000
805.70	75.000
806.00	81.967
806.30	66.667
806.61	74.390
806.91	65.823
807.22	71.053
807.52	62.687
807.83	73.239
808.13	68.750
808.43	65.000
808.74	55.263
809.04	82.609
809.35	82.090
809.65	68.421
809.95	96.774
810.26	86.441
810.56	79.365
810.86	115.909
811.17	104.762
811.47	90.000
811.77	85.185
812.08	83.636
812.38	92.000
812.69	138.889
812.99	113.636
813.29	102.041
813.59	80.952
813.90	95.918
814.20	69.091
814.50	75.385
814.81	77.941
815.11	83.673
815.41	80.328
815.72	147.619
816.02	81.818
816.32	109.524
816.62	82.500
816.93	80.488
817.23	126.190
817.53	104.545
817.84	127.273
818.14	121.739
818.44	73.333
818.74	126.471
819.04	95.000
819.35	122.857
819.65	150.000
819.95	153.571
820.25	135.000
820.56	133.333
820.86	102.273
821.16	109.302
821.46	128.205
821.76	110.000
822.07	145.714
822.37	135.000
822.67	121.212
822.97	88.235
823.27	125.000
823.57	135.135
823.88	142.500
824.18	150.000
824.48	102.381
824.78	152.000
825.08	170.833
825.38	135.135
825.69	131.707
825.99	204.167
826.29	134.483
826.59	142.105
826.89	128.947
827.19	123.529
827.49	141.935
827.79	129.545
828.09	109.091
828.39	127.660
828.70	100.000
829.00	133.333
829.30	116.129
829.60	105.000
829.90	260.000
830.20	160.714
830.50	139.130
830.80	156.522
831.10	176.667
831.40	166.667
831.70	195.652
832.00	153.846
832.30	166.667
832.60	250.000
832.90	190.000
833.20	314.286
833.50	180.645
833.80	148.276
834.10	184.375
834.40	200.000
834.70	216.667
835.00	271.429
835.30	117.143
835.60	246.154
835.90	179.310
836.20	350.000
836.50	155.172
836.80	152.000
837.10	138.889
837.40	219.048
837.70	229.412
838.00	155.556
838.30	190.476
838.60	228.571
838.90	161.538
839.19	190.000
839.49	385.714
839.79	215.000
840.09	200.000
840.39	252.381
840.69	182.609
840.99	227.778
841.29	400.000
841.59	350.000
841.88	256.250
842.18	155.172
842.48	223.810
842.78	176.667
843.08	221.739
843.38	165.625
843.68	766.667
843.97	200.000
844.27	148.276
844.57	223.810
844.87	275.000
845.17	211.111
845.47	1700.000
845.76	377.778
846.06	276.471
846.36	425.000
846.66	371.429
846.96	200.000
847.25	336.364
847.55	345.455
847.85	226.087
848.15	450.000
848.44	307.143
848.74	183.333
849.04	200.000
849.34	500.000
849.63	210.526
849.93	318.182
850.23	760.000
850.53	335.714
850.82	1700.000
851.12	-3700.000
851.42	2600.000
851.71	230.000
852.01	-1133.333
852.31	233.333
852.61	1333.333
852.90	223.810
853.20	204.000
853.50	294.118
853.79	204.762
854.09	170.833
854.39	243.750
854.68	143.243
854.98	177.419
855.28	133.333
855.57	182.759
855.87	162.963
856.17	189.474
856.46	133.333
856.76	270.588
857.05	179.310
857.35	200.000
857.65	313.333
857.94	200.000
858.24	192.308
858.53	210.000
858.83	222.727
859.13	333.333
859.42	0.000
859.72	533.333
860.01	427.273
860.31	213.636
860.60	236.842
860.90	208.696
861.20	500.000
861.49	441.667
861.79	-3700.000
862.08	587.500
862.38	271.429
862.67	292.308
862.97	329.412
863.26	311.111
863.56	233.333
863.85	333.333
864.15	575.000
864.44	286.667
864.74	700.000
865.03	612.500
865.33	257.895
865.62	381.818
865.92	376.923
866.21	383.333
866.51	0.000
866.80	427.273
867.10	1140.000
867.39	361.538
867.69	336.364
867.98	184.211
868.27	363.636
868.57	252.632
868.86	-3100.000
869.16	331.250
869.45	1750.000
869.75	-3900.000
870.04	383.333
870.33	514.286
870.63	825.000
870.92	2050.000
871.22	685.714
871.51	347.059
871.80	200.000
872.10	278.571
>>>>>End Processed Spectral Data<<<<<
