SpectraSuite Data File
++++++++++++++++++++++++++++++++++++
Date: Wed May 13 16:17:04 PDT 2015
User: schluterlab
Dark Spectrum Present: Yes
Reference Spectrum Present: Yes
Number of Sampled Component Spectra: 1
Spectrometers: USB2E3373
Integration Time (usec): 3000 (USB2E3373)
Spectra Averaged: 3 (USB2E3373)
Boxcar Smoothing: 0 (USB2E3373)
Correct for Electrical Dark: No (USB2E3373)
Strobe/Lamp Enabled: No (USB2E3373)
Correct for Detector Non-linearity: No (USB2E3373)
Correct for Stray Light: No (USB2E3373)
Number of Pixels in Processed Spectrum: 2048
>>>>>Begin Processed Spectral Data<<<<<
178.53	0.000
178.91	-1050.000
179.29	-975.000
179.67	-161.111
180.04	-1300.000
180.42	2250.000
180.80	740.000
181.18	-1025.000
181.56	542.857
181.94	0.000
182.31	-471.429
182.69	1233.333
183.07	-387.500
183.45	-466.667
183.83	454.545
184.20	-310.000
184.58	2000.000
184.96	4200.000
185.34	-740.000
185.72	-475.000
186.09	-1800.000
186.47	2250.000
186.85	1800.000
187.23	3700.000
187.61	-1266.667
187.98	1150.000
188.36	354.545
188.74	363.636
189.12	-720.000
189.49	500.000
189.87	-3700.000
190.25	-1000.000
190.63	257.143
191.00	353.846
191.38	666.667
191.76	-950.000
192.14	1200.000
192.51	475.000
192.89	716.667
193.27	450.000
193.65	-925.000
194.02	440.000
194.40	800.000
194.78	430.000
195.15	400.000
195.53	470.000
195.91	-1400.000
196.29	256.250
196.66	200.000
197.04	-320.000
197.42	0.000
197.79	460.000
198.17	-2800.000
198.55	442.857
198.92	525.000
199.30	820.000
199.68	0.000
200.05	283.333
200.43	428.571
200.81	2700.000
201.18	1066.667
201.56	-1266.667
201.94	400.000
202.31	311.111
202.69	283.333
203.07	470.000
203.44	0.000
203.82	850.000
204.19	700.000
204.57	335.714
204.95	600.000
205.32	1033.333
205.70	409.091
206.08	285.714
206.45	1950.000
206.83	300.000
207.20	766.667
207.58	480.000
207.96	272.222
208.33	537.500
208.71	-683.333
209.08	757.143
209.46	522.222
209.84	354.545
210.21	-1100.000
210.59	1225.000
210.96	-300.000
211.34	2050.000
211.71	570.000
212.09	550.000
212.46	0.000
212.84	1233.333
213.22	1000.000
213.59	-3500.000
213.97	633.333
214.34	557.143
214.72	445.455
215.09	820.000
215.47	-1600.000
215.84	-1950.000
216.22	1200.000
216.59	392.857
216.97	975.000
217.34	281.818
217.72	-483.333
218.09	0.000
218.47	-3300.000
218.84	577.778
219.22	600.000
219.59	1100.000
219.97	-485.714
220.34	920.000
220.72	-1233.333
221.09	342.857
221.47	1150.000
221.84	-766.667
222.22	0.000
222.59	1125.000
222.97	-2300.000
223.34	740.000
223.72	330.769
224.09	920.000
224.46	1750.000
224.84	-3400.000
225.21	-720.000
225.59	-3300.000
225.96	490.000
226.34	250.000
226.71	1600.000
227.08	437.500
227.46	400.000
227.83	-900.000
228.21	-1300.000
228.58	566.667
228.95	-1500.000
229.33	-1950.000
229.70	1433.333
230.08	600.000
230.45	-800.000
230.82	383.333
231.20	683.333
231.57	542.857
231.95	341.667
232.32	177.273
232.69	290.909
233.07	557.143
233.44	253.846
233.81	-1166.667
234.19	210.526
234.56	325.000
234.93	383.333
235.31	381.818
235.68	200.000
236.05	271.429
236.43	151.515
236.80	205.263
237.17	3200.000
237.55	157.143
237.92	160.714
238.29	138.095
238.67	93.548
239.04	117.241
239.41	119.444
239.79	93.478
240.16	85.714
240.53	86.364
240.91	70.588
241.28	56.000
241.65	76.000
242.02	65.217
242.40	56.452
242.77	28.333
243.14	52.688
243.51	66.292
243.89	41.176
244.26	38.889
244.63	36.559
245.00	38.298
245.38	30.693
245.75	33.645
246.12	24.771
246.49	31.387
246.87	35.200
247.24	32.308
247.61	27.857
247.98	30.065
248.36	20.946
248.73	25.478
249.10	22.930
249.47	19.774
249.84	23.529
250.22	17.647
250.59	18.935
250.96	23.232
251.33	22.275
251.70	22.277
252.08	14.762
252.45	17.040
252.82	19.565
253.19	15.745
253.56	17.647
253.94	20.747
254.31	18.750
254.68	17.692
255.05	17.712
255.42	12.602
255.79	16.544
256.16	18.773
256.54	14.134
256.91	17.082
257.28	9.353
257.65	13.201
258.02	15.839
258.39	10.095
258.76	8.696
259.14	13.988
259.51	11.550
259.88	9.006
260.25	12.085
260.62	12.139
260.99	10.559
261.36	12.012
261.73	11.175
262.10	10.756
262.47	10.986
262.85	9.192
263.22	9.117
263.59	13.675
263.96	11.264
264.33	11.227
264.70	10.526
265.07	10.742
265.44	10.101
265.81	12.895
266.18	10.050
266.55	8.780
266.92	11.057
267.29	7.639
267.66	9.633
268.03	9.773
268.40	10.514
268.77	8.353
269.14	9.234
269.51	13.770
269.88	7.925
270.25	8.352
270.62	8.764
270.99	12.903
271.36	11.373
271.73	5.841
272.10	8.043
272.47	8.387
272.84	11.688
273.21	11.321
273.58	9.607
273.95	7.338
274.32	7.851
274.69	8.565
275.06	6.299
275.43	7.660
275.80	9.820
276.17	9.165
276.54	8.732
276.91	8.696
277.28	7.227
277.65	8.704
278.02	7.867
278.39	7.617
278.76	8.000
279.13	7.547
279.50	8.566
279.87	8.167
280.23	5.589
280.60	5.416
280.97	7.579
281.34	10.088
281.71	9.273
282.08	8.253
282.45	5.818
282.82	6.750
283.19	5.882
283.56	8.596
283.92	9.137
284.29	7.760
284.66	5.808
285.03	4.340
285.40	5.458
285.77	7.407
286.14	6.908
286.51	8.000
286.87	8.718
287.24	7.655
287.61	5.457
287.98	7.630
288.35	7.290
288.72	8.567
289.08	7.668
289.45	6.096
289.82	7.154
290.19	5.965
290.56	7.198
290.93	6.949
291.29	6.135
291.66	8.112
292.03	7.267
292.40	7.342
292.77	4.290
293.13	7.164
293.50	6.268
293.87	5.481
294.24	6.370
294.60	4.221
294.97	5.814
295.34	8.181
295.71	6.818
296.08	6.553
296.44	5.777
296.81	5.152
297.18	8.401
297.55	3.694
297.91	5.277
298.28	5.489
298.65	5.352
299.02	6.983
299.38	5.976
299.75	4.582
300.12	6.897
300.48	4.750
300.85	5.055
301.22	4.204
301.59	4.545
301.95	5.793
302.32	4.108
302.69	5.137
303.05	4.727
303.42	4.444
303.79	4.643
304.15	4.196
304.52	4.635
304.89	4.878
305.25	4.640
305.62	4.643
305.99	6.966
306.35	5.369
306.72	5.830
307.09	5.438
307.45	6.194
307.82	3.571
308.19	5.188
308.55	6.041
308.92	5.371
309.29	4.013
309.65	3.712
310.02	5.285
310.38	5.914
310.75	4.857
311.12	5.527
311.48	6.061
311.85	5.241
312.22	5.203
312.58	5.094
312.95	5.597
313.31	4.757
313.68	5.198
314.05	7.396
314.41	5.528
314.78	5.438
315.14	5.660
315.51	5.664
315.87	5.545
316.24	5.660
316.61	4.776
316.97	4.403
317.34	4.697
317.70	5.258
318.07	5.294
318.43	5.382
318.80	6.467
319.16	5.273
319.53	5.441
319.89	5.619
320.26	6.800
320.62	5.556
320.99	6.667
321.35	6.364
321.72	5.647
322.08	5.528
322.45	7.264
322.81	6.105
323.18	7.322
323.54	6.679
323.91	7.075
324.27	5.736
324.64	5.965
325.00	5.320
325.37	5.551
325.73	6.104
326.10	6.620
326.46	5.197
326.83	6.471
327.19	5.722
327.56	5.575
327.92	4.987
328.29	6.389
328.65	6.538
329.01	6.859
329.38	5.550
329.74	5.910
330.11	6.880
330.47	6.887
330.84	7.169
331.20	5.920
331.56	6.514
331.93	6.481
332.29	6.477
332.66	6.549
333.02	5.941
333.38	6.233
333.75	7.398
334.11	6.406
334.48	5.679
334.84	5.331
335.20	6.182
335.57	5.440
335.93	5.268
336.29	5.037
336.66	6.132
337.02	4.977
337.38	6.944
337.75	6.150
338.11	6.177
338.47	6.538
338.84	5.225
339.20	5.138
339.56	6.934
339.93	4.818
340.29	5.435
340.65	5.704
341.02	6.632
341.38	6.050
341.74	5.439
342.11	6.463
342.47	5.463
342.83	5.651
343.20	6.147
343.56	5.729
343.92	6.404
344.28	5.612
344.65	5.761
345.01	6.313
345.37	4.631
345.73	6.007
346.10	5.200
346.46	5.593
346.82	6.178
347.19	4.595
347.55	5.665
347.91	6.392
348.27	5.998
348.63	5.268
349.00	4.773
349.36	5.255
349.72	5.694
350.08	5.429
350.45	6.509
350.81	5.443
351.17	5.673
351.53	4.996
351.89	4.373
352.26	6.077
352.62	5.453
352.98	4.538
353.34	5.916
353.70	5.155
354.07	5.081
354.43	5.000
354.79	5.149
355.15	5.587
355.51	5.915
355.87	4.571
356.24	5.619
356.60	5.213
356.96	4.907
357.32	5.315
357.68	5.512
358.04	5.622
358.40	5.780
358.77	5.477
359.13	4.578
359.49	5.804
359.85	2.698
360.21	4.625
360.57	5.914
360.93	5.077
361.29	6.047
361.66	4.334
362.02	5.522
362.38	5.095
362.74	5.208
363.10	4.663
363.46	4.255
363.82	5.140
364.18	4.993
364.54	5.498
364.90	5.807
365.26	5.294
365.62	4.456
365.98	4.967
366.35	4.513
366.71	4.917
367.07	4.880
367.43	5.007
367.79	5.710
368.15	6.034
368.51	4.506
368.87	4.782
369.23	5.340
369.59	5.503
369.95	4.853
370.31	5.627
370.67	5.217
371.03	5.318
371.39	4.519
371.75	5.147
372.11	5.050
372.47	6.158
372.83	5.259
373.19	5.130
373.55	4.582
373.91	6.112
374.27	5.086
374.63	3.927
374.99	6.215
375.35	4.536
375.71	5.552
376.07	5.556
376.42	5.708
376.78	5.434
377.14	5.292
377.50	5.629
377.86	4.521
378.22	4.614
378.58	4.699
378.94	4.840
379.30	5.280
379.66	5.393
380.02	5.221
380.38	4.432
380.74	5.582
381.09	5.440
381.45	5.839
381.81	5.958
382.17	5.096
382.53	5.031
382.89	5.988
383.25	4.878
383.61	6.134
383.97	6.379
384.32	4.991
384.68	5.700
385.04	5.532
385.40	5.573
385.76	5.528
386.12	5.570
386.48	6.167
386.83	6.222
387.19	6.926
387.55	6.741
387.91	5.683
388.27	4.905
388.62	6.454
388.98	5.528
389.34	6.446
389.70	6.131
390.06	6.717
390.42	5.512
390.77	6.679
391.13	5.807
391.49	6.662
391.85	5.729
392.20	5.237
392.56	5.871
392.92	5.650
393.28	5.030
393.64	5.755
393.99	6.292
394.35	5.707
394.71	5.395
395.07	5.919
395.42	5.995
395.78	6.616
396.14	6.269
396.50	6.391
396.85	6.294
397.21	5.302
397.57	6.510
397.92	6.370
398.28	5.998
398.64	5.854
399.00	5.764
399.35	5.020
399.71	5.208
400.07	6.268
400.42	5.399
400.78	6.695
401.14	5.976
401.49	6.269
401.85	5.263
402.21	5.389
402.57	5.367
402.92	5.990
403.28	6.121
403.63	5.693
403.99	5.223
404.35	6.303
404.70	5.516
405.06	6.174
405.42	6.301
405.77	5.771
406.13	5.813
406.49	5.677
406.84	6.084
407.20	5.319
407.55	5.233
407.91	5.333
408.27	4.850
408.62	5.659
408.98	5.760
409.34	5.289
409.69	5.161
410.05	5.824
410.40	5.443
410.76	5.257
411.11	6.393
411.47	5.815
411.83	6.353
412.18	5.318
412.54	5.729
412.89	5.723
413.25	5.195
413.60	6.053
413.96	5.768
414.31	5.954
414.67	5.957
415.03	4.702
415.38	6.186
415.74	5.016
416.09	5.683
416.45	5.020
416.80	6.081
417.16	5.563
417.51	6.038
417.87	5.138
418.22	5.552
418.58	5.617
418.93	6.081
419.29	5.856
419.64	5.290
420.00	5.122
420.35	5.275
420.71	5.678
421.06	5.370
421.42	5.497
421.77	5.661
422.12	5.334
422.48	4.641
422.83	4.834
423.19	5.470
423.54	5.107
423.90	5.681
424.25	5.639
424.61	5.476
424.96	5.714
425.31	5.426
425.67	5.112
426.02	5.371
426.38	5.495
426.73	4.681
427.09	5.532
427.44	5.290
427.79	5.118
428.15	5.595
428.50	5.091
428.85	6.138
429.21	4.859
429.56	5.391
429.92	5.284
430.27	5.214
430.62	4.659
430.98	5.708
431.33	5.773
431.68	5.393
432.04	5.644
432.39	5.825
432.74	6.044
433.10	5.659
433.45	5.831
433.80	5.266
434.16	5.075
434.51	5.368
434.86	5.758
435.22	5.281
435.57	5.836
435.92	5.266
436.28	5.457
436.63	6.071
436.98	4.865
437.34	5.784
437.69	5.251
438.04	5.396
438.39	5.433
438.75	5.694
439.10	5.084
439.45	5.608
439.81	5.136
440.16	4.969
440.51	5.448
440.86	5.211
441.22	5.339
441.57	5.467
441.92	4.964
442.27	5.544
442.63	5.161
442.98	6.141
443.33	4.946
443.68	5.937
444.03	5.222
444.39	4.771
444.74	5.195
445.09	5.606
445.44	5.796
445.79	5.690
446.15	5.558
446.50	4.954
446.85	4.933
447.20	5.303
447.55	5.137
447.91	5.130
448.26	5.287
448.61	5.201
448.96	5.592
449.31	5.624
449.66	5.740
450.02	5.070
450.37	5.045
450.72	5.189
451.07	5.667
451.42	4.924
451.77	6.459
452.12	5.485
452.47	5.908
452.83	5.245
453.18	6.418
453.53	6.432
453.88	4.962
454.23	5.380
454.58	5.996
454.93	6.421
455.28	5.112
455.63	6.129
455.98	5.952
456.34	5.779
456.69	5.573
457.04	6.006
457.39	5.377
457.74	6.094
458.09	5.808
458.44	5.473
458.79	4.935
459.14	5.926
459.49	4.962
459.84	5.208
460.19	5.009
460.54	5.324
460.89	5.485
461.24	5.647
461.59	6.275
461.94	5.610
462.29	5.994
462.64	6.254
462.99	5.205
463.34	6.400
463.69	5.629
464.04	6.203
464.39	6.319
464.74	5.704
465.09	5.368
465.44	4.931
465.79	4.866
466.14	6.130
466.49	5.506
466.84	6.013
467.19	5.371
467.54	6.375
467.89	5.522
468.24	5.992
468.59	6.838
468.94	5.987
469.29	5.527
469.64	6.158
469.99	5.548
470.34	5.086
470.68	5.172
471.03	5.510
471.38	5.420
471.73	6.262
472.08	5.132
472.43	6.658
472.78	5.332
473.13	6.354
473.48	6.180
473.83	5.976
474.17	5.040
474.52	5.025
474.87	6.071
475.22	6.268
475.57	5.965
475.92	5.045
476.27	4.791
476.61	4.964
476.96	5.003
477.31	5.285
477.66	5.853
478.01	4.966
478.36	5.870
478.70	5.348
479.05	5.165
479.40	5.271
479.75	5.541
480.10	4.871
480.45	5.140
480.79	4.634
481.14	4.843
481.49	5.031
481.84	5.213
482.19	5.407
482.53	5.367
482.88	5.631
483.23	5.467
483.58	5.551
483.92	5.201
484.27	4.662
484.62	5.086
484.97	4.691
485.31	4.452
485.66	4.130
486.01	3.721
486.36	3.658
486.70	3.532
487.05	3.857
487.40	4.367
487.75	3.861
488.09	4.671
488.44	4.403
488.79	4.810
489.13	4.889
489.48	4.690
489.83	4.316
490.17	4.822
490.52	5.004
490.87	5.111
491.22	4.957
491.56	3.964
491.91	4.933
492.26	4.548
492.60	5.023
492.95	4.630
493.30	4.860
493.64	4.853
493.99	5.060
494.34	5.412
494.68	5.311
495.03	5.263
495.37	5.026
495.72	4.483
496.07	5.244
496.41	4.956
496.76	4.969
497.11	4.818
497.45	4.937
497.80	5.374
498.14	4.686
498.49	5.171
498.84	5.225
499.18	4.857
499.53	4.653
499.87	5.452
500.22	5.040
500.56	5.388
500.91	5.192
501.26	5.263
501.60	4.983
501.95	5.362
502.29	5.670
502.64	5.028
502.98	5.236
503.33	5.210
503.67	4.919
504.02	5.005
504.36	5.288
504.71	4.836
505.06	5.398
505.40	5.202
505.75	5.207
506.09	5.248
506.44	5.229
506.78	5.163
507.13	4.846
507.47	5.859
507.82	5.623
508.16	5.471
508.51	5.378
508.85	5.214
509.19	5.102
509.54	5.612
509.88	4.688
510.23	4.884
510.57	6.089
510.92	5.075
511.26	5.242
511.61	5.861
511.95	5.063
512.30	5.408
512.64	4.997
512.98	5.841
513.33	5.996
513.67	5.069
514.02	5.195
514.36	5.407
514.70	5.866
515.05	5.131
515.39	5.328
515.74	5.124
516.08	6.484
516.42	6.437
516.77	5.797
517.11	5.383
517.46	6.095
517.80	5.865
518.14	5.269
518.49	5.834
518.83	5.795
519.17	5.254
519.52	5.659
519.86	5.476
520.20	6.358
520.55	6.104
520.89	5.657
521.23	6.393
521.58	5.522
521.92	6.307
522.26	5.979
522.61	5.670
522.95	6.077
523.29	5.539
523.64	6.159
523.98	5.853
524.32	6.152
524.66	6.013
525.01	5.760
525.35	6.010
525.69	5.419
526.04	5.545
526.38	5.857
526.72	6.012
527.06	5.838
527.41	5.074
527.75	5.852
528.09	5.780
528.43	6.119
528.78	5.409
529.12	5.515
529.46	6.614
529.80	6.126
530.15	6.044
530.49	5.600
530.83	5.823
531.17	6.397
531.51	6.420
531.86	6.323
532.20	6.649
532.54	6.534
532.88	6.354
533.22	5.247
533.57	6.111
533.91	5.900
534.25	5.468
534.59	6.284
534.93	5.830
535.27	5.914
535.62	5.800
535.96	5.901
536.30	5.404
536.64	5.988
536.98	5.972
537.32	5.530
537.66	5.733
538.01	5.991
538.35	6.593
538.69	6.063
539.03	4.873
539.37	4.856
539.71	4.925
540.05	5.621
540.39	5.781
540.73	6.016
541.07	6.100
541.42	5.936
541.76	6.194
542.10	6.016
542.44	6.225
542.78	5.665
543.12	5.118
543.46	6.623
543.80	6.506
544.14	5.905
544.48	6.540
544.82	5.837
545.16	5.986
545.50	5.463
545.84	6.048
546.18	6.128
546.52	6.194
546.86	5.773
547.20	6.541
547.54	6.747
547.88	6.952
548.22	5.106
548.56	5.912
548.90	5.442
549.24	5.455
549.58	6.548
549.92	6.250
550.26	6.321
550.60	6.570
550.94	6.197
551.28	5.706
551.62	6.039
551.96	6.456
552.30	6.621
552.64	6.356
552.98	6.847
553.32	6.001
553.66	6.339
554.00	6.177
554.34	6.004
554.68	6.724
555.02	5.007
555.36	6.472
555.69	5.480
556.03	5.855
556.37	5.866
556.71	6.071
557.05	5.462
557.39	6.298
557.73	6.916
558.07	6.164
558.41	6.006
558.75	6.319
559.08	6.189
559.42	5.971
559.76	5.588
560.10	6.353
560.44	5.660
560.78	5.522
561.12	5.409
561.45	6.975
561.79	5.735
562.13	6.237
562.47	6.216
562.81	5.718
563.15	5.886
563.48	5.305
563.82	6.262
564.16	6.344
564.50	5.794
564.84	6.131
565.17	5.019
565.51	5.304
565.85	5.584
566.19	5.698
566.52	5.573
566.86	4.943
567.20	6.132
567.54	5.023
567.88	4.508
568.21	5.714
568.55	4.853
568.89	5.058
569.23	4.991
569.56	4.777
569.90	4.906
570.24	4.736
570.57	4.658
570.91	4.363
571.25	4.509
571.59	4.183
571.92	4.032
572.26	4.102
572.60	4.444
572.93	4.408
573.27	4.466
573.61	4.271
573.95	4.134
574.28	3.869
574.62	3.887
574.96	4.253
575.29	3.904
575.63	4.167
575.97	4.166
576.30	4.381
576.64	4.170
576.98	3.670
577.31	3.697
577.65	4.061
577.98	3.599
578.32	3.574
578.66	3.857
578.99	3.858
579.33	3.970
579.67	3.576
580.00	3.884
580.34	3.892
580.67	3.923
581.01	4.160
581.35	4.009
581.68	3.757
582.02	3.726
582.35	3.580
582.69	3.828
583.02	3.955
583.36	4.104
583.70	3.871
584.03	3.971
584.37	3.979
584.70	3.971
585.04	4.110
585.37	4.031
585.71	4.441
586.04	4.276
586.38	4.206
586.72	4.419
587.05	4.482
587.39	3.879
587.72	4.277
588.06	3.762
588.39	4.335
588.73	4.341
589.06	4.238
589.40	4.141
589.73	4.224
590.07	4.626
590.40	4.238
590.73	4.489
591.07	5.210
591.40	5.061
591.74	5.152
592.07	5.017
592.41	4.713
592.74	4.906
593.08	4.630
593.41	4.429
593.75	4.310
594.08	4.358
594.41	4.348
594.75	4.621
595.08	4.581
595.42	4.729
595.75	4.630
596.09	4.919
596.42	4.951
596.75	4.812
597.09	5.801
597.42	4.848
597.75	4.743
598.09	5.087
598.42	4.854
598.76	4.418
599.09	4.447
599.42	4.549
599.76	4.575
600.09	4.444
600.42	4.492
600.76	4.714
601.09	4.663
601.42	4.680
601.76	4.744
602.09	4.704
602.42	4.857
602.76	5.079
603.09	4.485
603.42	4.842
603.76	4.497
604.09	4.692
604.42	4.362
604.76	5.483
605.09	5.111
605.42	4.703
605.75	4.884
606.09	4.555
606.42	4.250
606.75	5.060
607.09	5.190
607.42	4.878
607.75	4.346
608.08	4.299
608.42	5.513
608.75	4.869
609.08	5.134
609.41	5.093
609.75	5.336
610.08	4.807
610.41	4.702
610.74	4.730
611.07	5.237
611.41	5.447
611.74	5.732
612.07	5.124
612.40	5.404
612.73	4.684
613.07	5.496
613.40	6.003
613.73	5.034
614.06	5.323
614.39	5.244
614.72	5.474
615.06	5.252
615.39	4.830
615.72	5.573
616.05	5.263
616.38	5.392
616.71	5.701
617.05	5.948
617.38	4.871
617.71	5.285
618.04	5.589
618.37	5.381
618.70	5.414
619.03	6.447
619.36	5.703
619.69	6.479
620.03	6.387
620.36	6.551
620.69	6.781
621.02	5.900
621.35	5.403
621.68	6.386
622.01	5.341
622.34	6.430
622.67	6.160
623.00	5.282
623.33	5.790
623.66	6.076
623.99	5.596
624.32	6.491
624.65	5.791
624.99	5.382
625.32	5.576
625.65	6.461
625.98	5.995
626.31	6.687
626.64	6.531
626.97	6.983
627.30	5.736
627.63	7.711
627.96	6.476
628.29	6.037
628.62	5.947
628.95	7.642
629.28	7.026
629.61	7.149
629.94	6.667
630.26	6.959
630.59	7.340
630.92	6.130
631.25	6.417
631.58	6.106
631.91	5.882
632.24	6.646
632.57	8.080
632.90	6.250
633.23	6.040
633.56	8.362
633.89	7.701
634.22	7.037
634.55	8.994
634.88	6.707
635.20	7.646
635.53	8.434
635.86	8.168
636.19	7.882
636.52	6.574
636.85	8.362
637.18	6.912
637.51	9.574
637.83	6.658
638.16	7.801
638.49	8.564
638.82	9.735
639.15	8.000
639.48	9.227
639.81	7.507
640.13	7.422
640.46	9.396
640.79	9.379
641.12	8.116
641.45	7.123
641.77	8.100
642.10	9.211
642.43	8.108
642.76	6.656
643.09	9.356
643.41	8.498
643.74	9.259
644.07	6.860
644.40	10.429
644.73	9.764
645.05	10.143
645.38	9.479
645.71	9.501
646.04	9.302
646.36	9.349
646.69	10.368
647.02	9.354
647.35	9.794
647.67	8.319
648.00	12.683
648.33	9.076
648.66	8.333
648.98	10.495
649.31	8.371
649.64	8.670
649.96	9.836
650.29	8.373
650.62	8.091
650.94	10.535
651.27	10.642
651.60	8.486
651.92	8.466
652.25	8.632
652.58	9.034
652.90	9.005
653.23	8.475
653.56	6.614
653.88	9.984
654.21	10.111
654.54	8.746
654.86	9.502
655.19	7.973
655.52	4.304
655.84	3.172
656.17	3.549
656.49	4.930
656.82	4.982
657.15	3.918
657.47	2.868
657.80	2.265
658.13	2.436
658.45	3.628
658.78	3.888
659.10	4.202
659.43	4.323
659.75	4.779
660.08	5.253
660.41	7.542
660.73	8.895
661.06	7.643
661.38	10.909
661.71	12.115
662.03	12.229
662.36	8.350
662.68	9.438
663.01	11.515
663.33	11.890
663.66	9.454
663.98	10.151
664.31	10.714
664.63	8.704
664.96	8.652
665.28	12.910
665.61	10.136
665.93	10.463
666.26	10.142
666.58	8.577
666.91	11.205
667.23	13.258
667.56	11.015
667.88	11.752
668.21	12.580
668.53	12.798
668.86	11.255
669.18	12.580
669.50	11.087
669.83	12.854
670.15	10.222
670.48	10.022
670.80	10.129
671.13	13.588
671.45	11.915
671.77	13.646
672.10	10.536
672.42	10.601
672.75	7.960
673.07	10.035
673.39	8.318
673.72	8.008
674.04	11.373
674.37	8.932
674.69	9.816
675.01	9.623
675.34	13.142
675.66	13.684
675.98	12.627
676.31	12.815
676.63	11.890
676.95	11.740
677.28	7.477
677.60	11.429
677.92	13.502
678.25	10.883
678.57	9.761
678.89	12.024
679.22	10.609
679.54	10.305
679.86	10.642
680.18	8.766
680.51	9.220
680.83	10.142
681.15	10.189
681.48	10.208
681.80	10.638
682.12	8.429
682.44	8.124
682.77	9.980
683.09	12.661
683.41	11.086
683.73	11.479
684.06	12.190
684.38	9.002
684.70	10.078
685.02	10.694
685.34	10.806
685.67	7.517
685.99	7.560
686.31	9.044
686.63	8.657
686.96	9.107
687.28	10.650
687.60	8.877
687.92	11.152
688.24	9.506
688.56	12.651
688.89	13.071
689.21	11.572
689.53	10.647
689.85	10.643
690.17	9.731
690.49	13.163
690.82	12.383
691.14	9.152
691.46	8.228
691.78	9.438
692.10	11.157
692.42	12.974
692.74	8.299
693.06	10.213
693.39	12.320
693.71	8.734
694.03	12.211
694.35	11.905
694.67	11.670
694.99	12.927
695.31	11.029
695.63	11.005
695.95	11.736
696.27	9.645
696.59	11.917
696.91	12.694
697.23	10.563
697.56	13.433
697.88	10.225
698.20	10.833
698.52	11.828
698.84	11.804
699.16	9.677
699.48	12.352
699.80	11.594
700.12	17.143
700.44	13.528
700.76	13.260
701.08	9.483
701.40	12.291
701.72	14.869
702.04	16.761
702.36	10.198
702.68	15.297
703.00	11.080
703.32	10.904
703.64	12.064
703.96	11.421
704.28	13.953
704.60	14.956
704.91	14.243
705.23	13.783
705.55	15.947
705.87	17.608
706.19	13.781
706.51	16.511
706.83	14.242
707.15	14.566
707.47	12.626
707.79	10.565
708.11	13.927
708.43	13.095
708.74	13.010
709.06	15.584
709.38	12.336
709.70	11.628
710.02	15.134
710.34	14.242
710.66	15.224
710.98	13.920
711.29	13.372
711.61	17.699
711.93	12.821
712.25	18.650
712.57	8.824
712.89	17.647
713.20	13.678
713.52	16.118
713.84	12.342
714.16	11.585
714.48	13.506
714.80	16.413
715.11	13.256
715.43	16.024
715.75	13.043
716.07	13.419
716.39	17.241
716.70	16.611
717.02	16.906
717.34	16.961
717.66	17.910
717.97	18.725
718.29	19.259
718.61	17.153
718.93	19.485
719.24	13.149
719.56	16.949
719.88	16.949
720.20	20.608
720.51	22.300
720.83	14.498
721.15	12.313
721.46	17.730
721.78	17.204
722.10	13.585
722.42	19.173
722.73	19.476
723.05	15.164
723.37	20.648
723.68	18.147
724.00	15.041
724.32	23.387
724.63	19.106
724.95	14.226
725.27	19.433
725.58	20.312
725.90	21.168
726.22	14.717
726.53	15.278
726.85	18.089
727.16	17.794
727.48	14.184
727.80	17.045
728.11	17.391
728.43	16.538
728.74	16.846
729.06	16.788
729.38	20.221
729.69	17.082
730.01	15.017
730.32	15.625
730.64	17.726
730.96	9.901
731.27	13.907
731.59	14.679
731.90	15.452
732.22	13.665
732.53	15.170
732.85	14.103
733.16	14.469
733.48	14.618
733.80	17.857
734.11	14.968
734.43	15.976
734.74	13.143
735.06	10.602
735.37	16.185
735.69	17.516
736.00	16.013
736.32	16.511
736.63	15.655
736.95	13.738
737.26	10.884
737.58	13.871
737.89	14.047
738.21	16.724
738.52	15.714
738.83	17.358
739.15	12.692
739.46	14.964
739.78	13.889
740.09	15.077
740.41	15.806
740.72	11.498
741.04	16.667
741.35	15.833
741.66	20.444
741.98	11.321
742.29	20.096
742.61	21.552
742.92	16.290
743.23	20.513
743.55	22.000
743.86	17.544
744.18	26.549
744.49	19.139
744.80	19.249
745.12	25.909
745.43	22.026
745.74	18.919
746.06	17.890
746.37	17.937
746.68	17.647
747.00	26.389
747.31	20.000
747.62	18.584
747.94	14.097
748.25	19.574
748.56	25.551
748.88	23.267
749.19	21.500
749.50	21.395
749.82	15.041
750.13	15.510
750.44	16.058
750.75	15.789
751.07	19.936
751.38	16.725
751.69	17.329
752.01	15.414
752.32	19.495
752.63	15.248
752.94	18.443
753.26	22.400
753.57	14.634
753.88	20.703
754.19	13.929
754.51	19.792
754.82	13.357
755.13	16.604
755.44	17.293
755.75	16.788
756.07	14.894
756.38	10.219
756.69	16.443
757.00	14.371
757.31	15.430
757.63	13.743
757.94	14.745
758.25	12.010
758.56	11.358
758.87	9.409
759.18	17.576
759.50	13.166
759.81	14.330
760.12	14.375
760.43	14.900
760.74	13.043
761.05	14.689
761.36	13.904
761.67	15.341
761.99	13.665
762.30	13.542
762.61	20.229
762.92	20.703
763.23	16.387
763.54	21.600
763.85	13.672
764.16	19.231
764.47	17.871
764.78	13.428
765.10	12.975
765.41	15.929
765.72	13.174
766.03	16.301
766.34	13.000
766.65	20.851
766.96	16.239
767.27	22.843
767.58	22.396
767.89	23.684
768.20	32.184
768.51	20.812
768.82	18.807
769.13	15.041
769.44	17.004
769.75	20.172
770.06	12.385
770.37	23.077
770.68	22.222
770.99	19.111
771.30	16.803
771.61	16.592
771.92	18.033
772.23	24.370
772.54	20.000
772.85	26.702
773.16	20.745
773.47	22.826
773.78	27.411
774.09	20.833
774.39	21.053
774.70	25.926
775.01	31.159
775.32	29.412
775.63	28.947
775.94	23.022
776.25	33.858
776.56	33.582
776.87	31.148
777.18	36.719
777.48	35.115
777.79	31.061
778.10	37.778
778.41	33.929
778.72	28.467
779.03	34.899
779.34	28.859
779.65	20.946
779.95	26.380
780.26	30.065
780.57	28.966
780.88	39.844
781.19	36.842
781.50	32.432
781.80	27.673
782.11	25.989
782.42	27.215
782.73	22.086
783.04	30.405
783.34	31.690
783.65	39.726
783.96	37.313
784.27	29.371
784.57	28.777
784.88	19.444
785.19	41.270
785.50	38.679
785.81	38.060
786.11	45.082
786.42	36.434
786.73	40.708
787.04	37.736
787.34	35.714
787.65	39.000
787.96	38.739
788.26	28.926
788.57	38.136
788.88	39.669
789.19	31.250
789.49	46.970
789.80	32.061
790.11	45.714
790.41	41.584
790.72	46.988
791.03	41.304
791.33	44.186
791.64	47.423
791.95	51.485
792.25	50.000
792.56	41.558
792.87	61.538
793.17	46.835
793.48	52.874
793.79	54.023
794.09	47.727
794.40	31.933
794.70	34.559
795.01	30.370
795.32	28.058
795.62	37.008
795.93	40.517
796.23	34.513
796.54	43.529
796.85	33.784
797.15	64.789
797.46	53.030
797.76	54.217
798.07	46.835
798.37	35.385
798.68	60.606
798.99	40.845
799.29	62.338
799.60	51.136
799.90	68.493
800.21	59.701
800.51	67.241
800.82	70.175
801.12	65.574
801.43	63.636
801.73	43.243
802.04	63.492
802.34	59.259
802.65	53.125
802.95	67.797
803.26	73.438
803.56	58.571
803.87	61.538
804.17	52.941
804.48	70.370
804.78	65.517
805.09	64.706
805.39	80.769
805.70	58.929
806.00	75.410
806.30	43.939
806.61	63.415
806.91	35.443
807.22	46.053
807.52	47.761
807.83	54.930
808.13	67.188
808.43	68.333
808.74	51.316
809.04	60.870
809.35	76.119
809.65	59.211
809.95	85.484
810.26	47.458
810.56	74.603
810.86	93.182
811.17	95.238
811.47	83.333
811.77	62.963
812.08	72.727
812.38	88.000
812.69	97.222
812.99	86.364
813.29	73.469
813.59	61.905
813.90	87.755
814.20	67.273
814.50	58.462
814.81	72.059
815.11	79.592
815.41	77.049
815.72	104.762
816.02	78.182
816.32	88.095
816.62	82.500
816.93	97.561
817.23	102.381
817.53	104.545
817.84	121.212
818.14	80.435
818.44	93.333
818.74	102.941
819.04	97.500
819.35	94.286
819.65	155.882
819.95	146.429
820.25	125.000
820.56	105.128
820.86	95.455
821.16	90.698
821.46	84.615
821.76	114.000
822.07	117.143
822.37	130.000
822.67	115.152
822.97	76.471
823.27	164.286
823.57	86.486
823.88	110.000
824.18	126.667
824.48	111.905
824.78	152.000
825.08	141.667
825.38	124.324
825.69	92.683
825.99	150.000
826.29	86.207
826.59	118.421
826.89	105.263
827.19	117.647
827.49	125.806
827.79	100.000
828.09	102.273
828.39	82.979
828.70	114.286
829.00	107.407
829.30	100.000
829.60	110.000
829.90	200.000
830.20	153.571
830.50	104.348
830.80	165.217
831.10	166.667
831.40	130.000
831.70	152.174
832.00	173.077
832.30	118.519
832.60	212.500
832.90	170.000
833.20	278.571
833.50	116.129
833.80	131.034
834.10	143.750
834.40	157.692
834.70	166.667
835.00	195.238
835.30	105.714
835.60	215.385
835.90	137.931
836.20	207.143
836.50	134.483
836.80	128.000
837.10	122.222
837.40	142.857
837.70	229.412
838.00	162.963
838.30	176.190
838.60	238.095
838.90	223.077
839.19	180.000
839.49	307.143
839.79	255.000
840.09	230.000
840.39	190.476
840.69	173.913
840.99	155.556
841.29	260.000
841.59	175.000
841.88	268.750
842.18	158.621
842.48	219.048
842.78	133.333
843.08	178.261
843.38	115.625
843.68	716.667
843.97	161.538
844.27	134.483
844.57	200.000
844.87	275.000
845.17	162.963
845.47	800.000
845.76	288.889
846.06	217.647
846.36	437.500
846.66	235.714
846.96	175.000
847.25	363.636
847.55	281.818
847.85	213.043
848.15	380.000
848.44	257.143
848.74	211.111
849.04	188.235
849.34	390.000
849.63	152.632
849.93	300.000
850.23	620.000
850.53	328.571
850.82	1950.000
851.12	-3600.000
851.42	3300.000
851.71	255.000
852.01	-1100.000
852.31	175.000
852.61	1000.000
852.90	185.714
853.20	200.000
853.50	205.882
853.79	200.000
854.09	141.667
854.39	250.000
854.68	145.946
854.98	154.839
855.28	136.667
855.57	203.448
855.87	148.148
856.17	163.158
856.46	120.000
856.76	200.000
857.05	148.276
857.35	170.833
857.65	240.000
857.94	160.870
858.24	173.077
858.53	230.000
858.83	177.273
859.13	286.667
859.42	0.000
859.72	400.000
860.01	372.727
860.31	218.182
860.60	168.421
860.90	182.609
861.20	466.667
861.49	316.667
861.79	-2600.000
862.08	450.000
862.38	204.762
862.67	323.077
862.97	252.941
863.26	366.667
863.56	227.778
863.85	325.000
864.15	550.000
864.44	293.333
864.74	700.000
865.03	550.000
865.33	194.737
865.62	281.818
865.92	330.769
866.21	241.667
866.51	0.000
866.80	336.364
867.10	920.000
867.39	376.923
867.69	309.091
867.98	247.368
868.27	463.636
868.57	257.895
868.86	-3100.000
869.16	206.250
869.45	1250.000
869.75	-3000.000
870.04	275.000
870.33	585.714
870.63	750.000
870.92	1900.000
871.22	557.143
871.51	264.706
871.80	195.238
872.10	300.000
>>>>>End Processed Spectral Data<<<<<
