SpectraSuite Data File
++++++++++++++++++++++++++++++++++++
Date: Wed May 13 15:58:20 PDT 2015
User: schluterlab
Dark Spectrum Present: Yes
Reference Spectrum Present: Yes
Number of Sampled Component Spectra: 1
Spectrometers: USB2E3373
Integration Time (usec): 3000 (USB2E3373)
Spectra Averaged: 3 (USB2E3373)
Boxcar Smoothing: 0 (USB2E3373)
Correct for Electrical Dark: No (USB2E3373)
Strobe/Lamp Enabled: No (USB2E3373)
Correct for Detector Non-linearity: No (USB2E3373)
Correct for Stray Light: No (USB2E3373)
Number of Pixels in Processed Spectrum: 2048
>>>>>Begin Processed Spectral Data<<<<<
178.53	0.000
178.91	-275.000
179.29	-125.000
179.67	38.889
180.04	-200.000
180.42	700.000
180.80	200.000
181.18	-50.000
181.56	100.000
181.94	0.000
182.31	-42.857
182.69	266.667
183.07	-75.000
183.45	-133.333
183.83	109.091
184.20	100.000
184.58	300.000
184.96	700.000
185.34	40.000
185.72	-212.500
186.09	-300.000
186.47	850.000
186.85	850.000
187.23	1200.000
187.61	-366.667
187.98	400.000
188.36	127.273
188.74	209.091
189.12	-20.000
189.49	190.000
189.87	-500.000
190.25	-250.000
190.63	157.143
191.00	138.462
191.38	183.333
191.76	-125.000
192.14	275.000
192.51	112.500
192.89	216.667
193.27	37.500
193.65	-150.000
194.02	60.000
194.40	320.000
194.78	80.000
195.15	125.000
195.53	170.000
195.91	150.000
196.29	100.000
196.66	84.211
197.04	50.000
197.42	0.000
197.79	230.000
198.17	-1000.000
198.55	142.857
198.92	200.000
199.30	20.000
199.68	0.000
200.05	100.000
200.43	342.857
200.81	1400.000
201.18	500.000
201.56	-500.000
201.94	111.111
202.31	177.778
202.69	41.667
203.07	60.000
203.44	0.000
203.82	125.000
204.19	171.429
204.57	128.571
204.95	50.000
205.32	300.000
205.70	136.364
206.08	64.286
206.45	750.000
206.83	131.250
207.20	300.000
207.58	60.000
207.96	150.000
208.33	187.500
208.71	-50.000
209.08	328.571
209.46	155.556
209.84	27.273
210.21	33.333
210.59	150.000
210.96	112.500
211.34	450.000
211.71	200.000
212.09	83.333
212.46	0.000
212.84	166.667
213.22	450.000
213.59	-500.000
213.97	216.667
214.34	271.429
214.72	163.636
215.09	240.000
215.47	-400.000
215.84	-300.000
216.22	500.000
216.59	114.286
216.97	375.000
217.34	100.000
217.72	-200.000
218.09	0.000
218.47	-1600.000
218.84	55.556
219.22	157.143
219.59	166.667
219.97	28.571
220.34	240.000
220.72	-266.667
221.09	142.857
221.47	575.000
221.84	-283.333
222.22	0.000
222.59	300.000
222.97	-250.000
223.34	420.000
223.72	115.385
224.09	120.000
224.46	450.000
224.84	-900.000
225.21	-40.000
225.59	-100.000
225.96	210.000
226.34	40.000
226.71	900.000
227.08	0.000
227.46	140.000
227.83	-150.000
228.21	50.000
228.58	155.556
228.95	-500.000
229.33	-100.000
229.70	0.000
230.08	157.143
230.45	140.000
230.82	75.000
231.20	50.000
231.57	-114.286
231.95	100.000
232.32	22.727
232.69	0.000
233.07	57.143
233.44	38.462
233.81	-566.667
234.19	84.211
234.56	108.333
234.93	16.667
235.31	-27.273
235.68	61.538
236.05	35.714
236.43	42.424
236.80	36.842
237.17	400.000
237.55	42.857
237.92	71.429
238.29	66.667
238.67	48.387
239.04	58.621
239.41	25.000
239.79	-4.348
240.16	19.048
240.53	31.818
240.91	0.000
241.28	26.000
241.65	-6.000
242.02	27.536
242.40	12.903
242.77	16.667
243.14	12.903
243.51	19.101
243.89	8.235
244.26	3.333
244.63	9.677
245.00	6.383
245.38	10.891
245.75	6.542
246.12	5.505
246.49	20.438
246.87	19.200
247.24	17.692
247.61	15.714
247.98	11.765
248.36	6.081
248.73	5.096
249.10	11.465
249.47	8.475
249.84	12.299
250.22	2.139
250.59	4.734
250.96	14.646
251.33	11.374
251.70	9.901
252.08	8.095
252.45	6.278
252.82	6.087
253.19	12.766
253.56	9.412
253.94	9.959
254.31	8.984
254.68	11.538
255.05	10.332
255.42	4.065
255.79	5.147
256.16	11.191
256.54	6.714
256.91	3.559
257.28	1.439
257.65	5.281
258.02	10.248
258.39	5.994
258.76	3.679
259.14	3.571
259.51	7.599
259.88	2.795
260.25	3.927
260.62	5.780
260.99	5.901
261.36	9.309
261.73	4.298
262.10	6.105
262.47	8.169
262.85	8.357
263.22	1.140
263.59	6.553
263.96	4.121
264.33	9.138
264.70	6.053
265.07	9.974
265.44	7.071
265.81	4.866
266.18	7.286
266.55	7.317
266.92	4.177
267.29	5.093
267.66	5.046
268.03	5.682
268.40	6.776
268.77	3.819
269.14	3.604
269.51	7.675
269.88	3.030
270.25	4.966
270.62	4.944
270.99	6.022
271.36	5.794
271.73	4.439
272.10	4.348
272.47	5.591
272.84	4.978
273.21	8.595
273.58	3.712
273.95	4.612
274.32	3.719
274.69	3.854
275.06	3.740
275.43	6.596
275.80	4.409
276.17	6.314
276.54	4.158
276.91	3.557
277.28	3.516
277.65	8.317
278.02	4.348
278.39	4.297
278.76	6.545
279.13	5.849
279.50	7.449
279.87	6.175
280.23	4.790
280.60	5.029
280.97	4.806
281.34	6.018
281.71	7.273
282.08	4.798
282.45	5.636
282.82	5.506
283.19	4.456
283.56	5.965
283.92	6.091
284.29	4.762
284.66	6.352
285.03	4.521
285.40	4.049
285.77	4.209
286.14	4.491
286.51	6.333
286.87	4.786
287.24	6.840
287.61	5.618
287.98	5.519
288.35	5.230
288.72	6.075
289.08	7.825
289.45	5.437
289.82	4.715
290.19	4.239
290.56	3.675
290.93	5.740
291.29	4.755
291.66	6.932
292.03	7.994
292.40	7.342
292.77	5.769
293.13	6.119
293.50	6.122
293.87	5.185
294.24	4.593
294.60	4.658
294.97	5.523
295.34	6.347
295.71	5.824
296.08	7.123
296.44	6.878
296.81	6.209
297.18	7.317
297.55	5.013
297.91	6.992
298.28	7.229
298.65	8.094
299.02	7.246
299.38	5.843
299.75	4.852
300.12	6.897
300.48	7.625
300.85	7.891
301.22	6.624
301.59	6.187
301.95	7.935
302.32	7.574
302.69	6.571
303.05	7.030
303.42	8.025
303.79	8.494
304.15	5.711
304.52	7.184
304.89	8.014
305.25	7.425
305.62	7.475
305.99	8.973
306.35	7.942
306.72	7.511
307.09	8.768
307.45	9.797
307.82	6.808
308.19	8.278
308.55	9.924
308.92	9.882
309.29	8.870
309.65	8.802
310.02	9.197
310.38	9.247
310.75	9.081
311.12	10.031
311.48	9.300
311.85	10.901
312.22	10.406
312.58	9.667
312.95	10.243
313.31	10.388
313.68	11.435
314.05	13.116
314.41	13.266
314.78	11.380
315.14	12.115
315.51	11.329
315.87	12.574
316.24	11.917
316.61	13.353
316.97	13.112
317.34	11.840
317.70	13.480
318.07	12.801
318.43	13.796
318.80	15.089
319.16	14.407
319.53	12.758
319.89	14.476
320.26	15.000
320.62	14.881
320.99	15.051
321.35	15.253
321.72	15.811
322.08	16.683
322.45	18.109
322.81	17.345
323.18	17.341
323.54	17.718
323.91	18.208
324.27	18.642
324.64	18.080
325.00	19.928
325.37	20.382
325.73	21.544
326.10	21.889
326.46	21.595
326.83	23.037
327.19	22.374
327.56	21.429
327.92	23.797
328.29	24.224
328.65	24.033
329.01	24.458
329.38	23.867
329.74	24.931
330.11	26.202
330.47	26.171
330.84	26.654
331.20	25.683
331.56	25.872
331.93	26.667
332.29	24.667
332.66	26.195
333.02	25.777
333.38	26.107
333.75	27.897
334.11	26.957
334.48	25.909
334.84	27.390
335.20	27.909
335.57	26.383
335.93	25.982
336.29	27.564
336.66	27.412
337.02	27.149
337.38	27.130
337.75	26.025
338.11	26.321
338.47	27.440
338.84	27.681
339.20	25.780
339.56	28.741
339.93	27.818
340.29	26.812
340.65	27.540
341.02	28.010
341.38	27.224
341.74	26.228
342.11	26.376
342.47	28.194
342.83	27.740
343.20	28.225
343.56	28.307
343.92	27.719
344.28	26.871
344.65	27.429
345.01	26.852
345.37	26.930
345.73	28.088
346.10	28.048
346.46	28.898
346.82	28.254
347.19	26.149
347.55	27.997
347.91	28.074
348.27	28.595
348.63	28.177
349.00	27.589
349.36	27.833
349.72	27.827
350.08	26.823
350.45	27.990
350.81	28.026
351.17	28.039
351.53	26.863
351.89	28.135
352.26	29.124
352.62	29.751
352.98	26.904
353.34	28.431
353.70	27.578
354.07	28.065
354.43	27.222
354.79	27.031
355.15	27.135
355.51	29.736
355.87	29.143
356.24	28.583
356.60	26.704
356.96	28.479
357.32	28.782
357.68	28.898
358.04	28.108
358.40	29.295
358.77	29.343
359.13	27.545
359.49	28.157
359.85	27.937
360.21	28.309
360.57	29.339
360.93	29.615
361.29	28.496
361.66	27.477
362.02	29.328
362.38	28.669
362.74	29.092
363.10	28.349
363.46	28.907
363.82	30.083
364.18	29.442
364.54	31.278
364.90	29.603
365.26	30.147
365.62	30.387
365.98	29.218
366.35	30.158
366.71	29.790
367.07	29.497
367.43	29.536
367.79	30.764
368.15	31.681
368.51	30.451
368.87	30.978
369.23	31.090
369.59	31.716
369.95	30.515
370.31	30.912
370.67	30.725
371.03	31.386
371.39	31.851
371.75	31.103
372.11	31.081
372.47	31.378
372.83	32.493
373.19	31.069
373.55	32.594
373.91	32.842
374.27	31.821
374.63	31.491
374.99	32.768
375.35	31.263
375.71	32.625
376.07	33.265
376.42	33.012
376.78	32.538
377.14	33.039
377.50	33.775
377.86	32.779
378.22	32.680
378.58	32.707
378.94	33.124
379.30	33.842
379.66	34.772
380.02	33.907
380.38	33.576
380.74	34.934
381.09	33.985
381.45	35.034
381.81	35.074
382.17	34.713
382.53	34.591
382.89	36.235
383.25	34.459
383.61	35.750
383.97	35.022
384.32	35.059
384.68	35.502
385.04	35.157
385.40	35.170
385.76	35.258
386.12	35.946
386.48	36.438
386.83	36.818
387.19	37.786
387.55	36.673
387.91	36.638
388.27	35.561
388.62	37.124
388.98	35.995
389.34	37.046
389.70	36.481
390.06	37.072
390.42	36.770
390.77	36.323
391.13	37.013
391.49	35.787
391.85	36.155
392.20	36.593
392.56	36.048
392.92	37.434
393.28	36.923
393.64	37.170
393.99	36.408
394.35	37.097
394.71	37.453
395.07	35.826
395.42	36.897
395.78	36.196
396.14	36.313
396.50	37.218
396.85	37.317
397.21	36.806
397.57	36.950
397.92	36.238
398.28	35.762
398.64	36.440
399.00	36.430
399.35	36.548
399.71	36.806
400.07	36.132
400.42	37.178
400.78	37.153
401.14	36.951
401.49	37.433
401.85	36.540
402.21	36.287
402.57	37.508
402.92	35.813
403.28	36.852
403.63	36.386
403.99	36.115
404.35	36.545
404.70	36.990
405.06	35.644
405.42	36.182
405.77	35.429
406.13	36.682
406.49	36.251
406.84	36.503
407.20	36.229
407.55	37.077
407.91	36.533
408.27	35.865
408.62	36.063
408.98	35.417
409.34	35.670
409.69	35.935
410.05	35.874
410.40	35.963
410.76	36.440
411.11	35.766
411.47	35.974
411.83	34.881
412.18	35.807
412.54	36.488
412.89	35.301
413.25	35.419
413.60	36.628
413.96	33.880
414.31	36.027
414.67	36.122
415.03	35.497
415.38	35.631
415.74	36.206
416.09	35.728
416.45	35.944
416.80	35.294
417.16	36.863
417.51	35.501
417.87	35.389
418.22	36.025
418.58	36.475
418.93	35.872
419.29	36.028
419.64	37.028
420.00	35.793
420.35	35.942
420.71	36.641
421.06	37.351
421.42	35.848
421.77	36.883
422.12	35.991
422.48	36.697
422.83	37.333
423.19	36.519
423.54	37.377
423.90	35.826
424.25	36.460
424.61	35.595
424.96	36.385
425.31	36.434
425.67	35.449
426.02	36.229
426.38	37.973
426.73	35.927
427.09	36.717
427.44	36.918
427.79	36.975
428.15	36.964
428.50	36.044
428.85	36.472
429.21	36.334
429.56	37.584
429.92	37.645
430.27	37.438
430.62	36.764
430.98	37.260
431.33	37.268
431.68	37.696
432.04	37.327
432.39	37.065
432.74	37.223
433.10	37.465
433.45	37.085
433.80	37.472
434.16	37.821
434.51	37.737
434.86	37.742
435.22	38.355
435.57	37.021
435.92	36.454
436.28	38.731
436.63	38.079
436.98	36.920
437.34	38.700
437.69	38.215
438.04	37.043
438.39	38.090
438.75	38.059
439.10	38.324
439.45	38.430
439.81	37.341
440.16	38.058
440.51	37.258
440.86	38.217
441.22	37.820
441.57	38.429
441.92	38.383
442.27	37.675
442.63	38.599
442.98	38.085
443.33	37.826
443.68	38.255
444.03	38.360
444.39	38.608
444.74	39.069
445.09	37.520
445.44	37.452
445.79	37.655
446.15	37.745
446.50	38.126
446.85	38.541
447.20	37.838
447.55	38.749
447.91	37.672
448.26	38.564
448.61	38.044
448.96	38.040
449.31	38.076
449.66	36.522
450.02	37.604
450.37	37.472
450.72	38.127
451.07	37.782
451.42	36.292
451.77	39.284
452.12	37.644
452.47	38.557
452.83	38.228
453.18	37.714
453.53	38.095
453.88	37.626
454.23	38.195
454.58	39.067
454.93	39.606
455.28	39.401
455.63	37.925
455.98	38.452
456.34	39.008
456.69	38.635
457.04	37.833
457.39	37.814
457.74	37.783
458.09	37.033
458.44	38.883
458.79	36.063
459.14	37.641
459.49	38.062
459.84	38.116
460.19	37.419
460.54	36.516
460.89	37.740
461.24	37.887
461.59	38.873
461.94	37.176
462.29	37.507
462.64	37.652
462.99	36.239
463.34	37.467
463.69	38.524
464.04	37.333
464.39	37.681
464.74	37.314
465.09	36.188
465.44	37.507
465.79	36.801
466.14	37.274
466.49	36.596
466.84	37.245
467.19	37.055
467.54	37.875
467.89	36.375
468.24	37.173
468.59	36.813
468.94	36.408
469.29	36.375
469.64	37.751
469.99	37.415
470.34	36.724
470.68	35.920
471.03	36.190
471.38	37.457
471.73	35.976
472.08	37.434
472.43	37.123
472.78	36.340
473.13	35.944
473.48	36.517
473.83	36.463
474.17	36.963
474.52	37.469
474.87	36.427
475.22	37.203
475.57	36.217
475.92	36.059
476.27	36.471
476.61	36.790
476.96	36.119
477.31	36.054
477.66	35.832
478.01	36.069
478.36	36.594
478.70	35.774
479.05	36.422
479.40	35.824
479.75	36.502
480.10	36.382
480.45	36.078
480.79	35.595
481.14	36.106
481.49	36.592
481.84	35.848
482.19	36.211
482.53	36.514
482.88	35.691
483.23	34.860
483.58	35.851
483.92	35.661
484.27	34.728
484.62	35.948
484.97	34.411
485.31	35.548
485.66	36.185
486.01	36.533
486.36	35.578
486.70	34.572
487.05	34.619
487.40	34.883
487.75	34.529
488.09	34.183
488.44	33.356
488.79	35.190
489.13	34.148
489.48	34.054
489.83	34.441
490.17	35.642
490.52	34.455
490.87	35.097
491.22	35.107
491.56	35.171
491.91	34.853
492.26	35.324
492.60	33.594
492.95	34.238
493.30	34.720
493.64	34.811
493.99	34.030
494.34	33.904
494.68	34.524
495.03	34.352
495.37	33.737
495.72	34.162
496.07	35.267
496.41	33.673
496.76	34.609
497.11	34.084
497.45	34.141
497.80	34.309
498.14	33.043
498.49	34.585
498.84	34.036
499.18	33.571
499.53	34.093
499.87	34.390
500.22	34.338
500.56	34.515
500.91	33.413
501.26	34.045
501.60	35.026
501.95	33.501
502.29	33.693
502.64	33.101
502.98	33.193
503.33	34.049
503.67	34.014
504.02	32.928
504.36	33.692
504.71	33.952
505.06	33.205
505.40	33.058
505.75	32.208
506.09	32.896
506.44	34.040
506.78	32.976
507.13	34.175
507.47	33.182
507.82	33.688
508.16	32.827
508.51	34.551
508.85	33.069
509.19	33.878
509.54	33.010
509.88	32.973
510.23	33.059
510.57	33.953
510.92	33.972
511.26	33.248
511.61	32.676
511.95	32.098
512.30	32.291
512.64	32.402
512.98	32.851
513.33	32.869
513.67	32.497
514.02	31.926
514.36	33.424
514.70	33.038
515.05	33.296
515.39	32.922
515.74	32.038
516.08	32.868
516.42	32.630
516.77	32.720
517.11	32.186
517.46	33.126
517.80	32.811
518.14	31.963
518.49	32.147
518.83	31.875
519.17	32.910
519.52	31.805
519.86	32.744
520.20	32.832
520.55	32.615
520.89	33.212
521.23	33.052
521.58	32.173
521.92	32.517
522.26	31.666
522.61	32.523
522.95	31.246
523.29	31.893
523.64	32.988
523.98	32.717
524.32	30.820
524.66	31.990
525.01	32.904
525.35	31.289
525.69	30.911
526.04	31.589
526.38	32.154
526.72	31.656
527.06	32.329
527.41	30.198
527.75	31.897
528.09	31.728
528.43	32.314
528.78	32.514
529.12	31.515
529.46	31.537
529.80	32.735
530.15	31.277
530.49	31.508
530.83	32.405
531.17	31.658
531.51	32.815
531.86	32.129
532.20	32.855
532.54	32.223
532.88	31.579
533.22	30.044
533.57	31.358
533.91	31.848
534.25	30.984
534.59	31.361
534.93	30.815
535.27	31.382
535.62	30.647
535.96	30.195
536.30	30.261
536.64	31.101
536.98	30.922
537.32	30.151
537.66	30.333
538.01	31.007
538.35	30.123
538.69	31.525
539.03	30.474
539.37	30.863
539.71	29.747
540.05	30.196
540.39	30.565
540.73	30.660
541.07	30.629
541.42	30.985
541.76	31.355
542.10	31.177
542.44	30.993
542.78	31.686
543.12	30.902
543.46	31.082
543.80	30.254
544.14	30.231
544.48	31.365
544.82	29.699
545.16	30.904
545.50	30.077
545.84	29.772
546.18	30.438
546.52	30.764
546.86	30.378
547.20	30.614
547.54	29.927
547.88	30.804
548.22	30.199
548.56	30.755
548.90	29.321
549.24	29.562
549.58	29.536
549.92	29.052
550.26	30.114
550.60	29.806
550.94	29.225
551.28	28.237
551.62	30.122
551.96	28.702
552.30	29.283
552.64	30.494
552.98	29.898
553.32	30.007
553.66	29.857
554.00	29.925
554.34	28.986
554.68	28.898
555.02	30.465
555.36	29.367
555.69	29.702
556.03	27.927
556.37	29.536
556.71	28.445
557.05	28.291
557.39	28.901
557.73	29.287
558.07	29.659
558.41	28.654
558.75	29.317
559.08	29.828
559.42	28.269
559.76	29.338
560.10	28.337
560.44	29.350
560.78	27.678
561.12	29.024
561.45	28.357
561.79	27.818
562.13	28.169
562.47	28.620
562.81	29.358
563.15	28.696
563.48	28.581
563.82	29.680
564.16	28.188
564.50	28.776
564.84	27.813
565.17	28.185
565.51	28.371
565.85	28.426
566.19	27.552
566.52	28.499
566.86	27.125
567.20	28.479
567.54	28.767
567.88	27.485
568.21	28.519
568.55	27.958
568.89	27.772
569.23	27.941
569.56	27.773
569.90	27.698
570.24	27.700
570.57	27.202
570.91	27.052
571.25	27.486
571.59	27.747
571.92	27.563
572.26	27.383
572.60	26.637
572.93	26.717
573.27	27.566
573.61	26.773
573.95	27.519
574.28	27.060
574.62	27.259
574.96	26.858
575.29	27.110
575.63	27.033
575.97	26.660
576.30	26.421
576.64	26.788
576.98	26.665
577.31	26.848
577.65	27.036
577.98	26.860
578.32	26.450
578.66	27.023
578.99	26.706
579.33	26.652
579.67	26.028
580.00	26.181
580.34	26.839
580.67	26.708
581.01	26.175
581.35	26.897
581.68	26.855
582.02	27.112
582.35	26.474
582.69	26.682
583.02	26.700
583.36	26.147
583.70	26.499
584.03	25.914
584.37	26.245
584.70	26.332
585.04	26.125
585.37	26.235
585.71	26.762
586.04	26.649
586.38	26.907
586.72	26.236
587.05	25.863
587.39	25.673
587.72	26.333
588.06	25.827
588.39	26.063
588.73	26.459
589.06	26.301
589.40	25.993
589.73	26.470
590.07	26.157
590.40	25.539
590.73	25.566
591.07	26.496
591.40	26.360
591.74	25.801
592.07	26.265
592.41	26.581
592.74	26.255
593.08	25.849
593.41	26.732
593.75	25.609
594.08	25.846
594.41	26.016
594.75	25.841
595.08	25.555
595.42	26.410
595.75	25.570
596.09	25.723
596.42	25.815
596.75	26.593
597.09	26.623
597.42	25.211
597.75	25.830
598.09	25.043
598.42	25.730
598.76	25.375
599.09	25.504
599.42	25.728
599.76	25.622
600.09	24.991
600.42	25.639
600.76	25.286
601.09	25.355
601.42	25.114
601.76	26.110
602.09	25.534
602.42	25.518
602.76	25.595
603.09	24.941
603.42	25.771
603.76	25.305
604.09	25.436
604.42	25.683
604.76	25.643
605.09	25.120
605.42	25.053
605.75	24.627
606.09	24.522
606.42	25.664
606.75	25.218
607.09	24.822
607.42	24.519
607.75	24.684
608.08	24.533
608.42	25.280
608.75	24.527
609.08	24.514
609.41	24.655
609.75	24.631
610.08	25.448
610.41	24.814
610.74	25.639
611.07	25.692
611.41	24.828
611.74	25.339
612.07	25.983
612.40	25.918
612.73	25.316
613.07	25.431
613.40	25.803
613.73	25.118
614.06	24.355
614.39	24.174
614.72	25.105
615.06	24.790
615.39	24.841
615.72	24.131
616.05	24.349
616.38	24.736
616.71	24.941
617.05	24.971
617.38	24.053
617.71	24.745
618.04	23.798
618.37	24.778
618.70	24.082
619.03	25.329
619.36	24.508
619.69	25.211
620.03	24.863
620.36	25.334
620.69	26.233
621.02	25.147
621.35	23.414
621.68	23.754
622.01	23.607
622.34	26.097
622.67	24.487
623.00	23.698
623.33	24.303
623.66	23.445
623.99	24.080
624.32	24.394
624.65	23.305
624.99	24.292
625.32	24.330
625.65	24.042
625.98	25.211
626.31	24.184
626.64	24.898
626.97	23.275
627.30	24.190
627.63	25.185
627.96	23.886
628.29	25.372
628.62	24.611
628.95	25.189
629.28	24.453
629.61	24.931
629.94	25.619
630.26	24.690
630.59	22.879
630.92	23.563
631.25	23.198
631.58	23.223
631.91	23.732
632.24	22.996
632.57	24.554
632.90	23.575
633.23	23.490
633.56	24.068
633.89	23.103
634.22	24.518
634.55	25.444
634.88	24.072
635.20	24.492
635.53	24.699
635.86	24.629
636.19	24.588
636.52	24.452
636.85	25.200
637.18	22.350
637.51	23.404
637.83	22.811
638.16	22.379
638.49	23.300
638.82	25.032
639.15	23.000
639.48	23.940
639.81	25.067
640.13	23.828
640.46	24.027
640.79	25.363
641.12	21.596
641.45	23.883
641.77	24.300
642.10	24.415
642.43	24.174
642.76	23.839
643.09	24.540
643.41	23.065
643.74	25.926
644.07	24.695
644.40	24.540
644.73	26.299
645.05	26.149
645.38	24.645
645.71	22.544
646.04	25.083
646.36	25.543
646.69	25.251
647.02	21.429
647.35	24.570
647.67	23.540
648.00	23.415
648.33	24.752
648.66	23.485
648.98	25.187
649.31	21.824
649.64	22.123
649.96	23.249
650.29	22.907
650.62	23.301
650.94	23.663
651.27	24.324
651.60	25.291
651.92	23.962
652.25	23.290
652.58	23.364
652.90	23.855
653.23	22.034
653.56	22.992
653.88	23.772
654.21	22.907
654.54	23.267
654.86	23.209
655.19	21.081
655.52	22.355
655.84	22.192
656.17	27.970
656.49	36.691
656.82	35.826
657.15	26.179
657.47	19.068
657.80	14.649
658.13	14.604
658.45	21.239
658.78	20.865
659.10	20.825
659.43	20.558
659.75	20.902
660.08	20.949
660.41	22.067
660.73	21.728
661.06	21.656
661.38	22.364
661.71	24.615
662.03	24.852
662.36	19.483
662.68	23.695
663.01	23.434
663.33	22.293
663.66	23.109
663.98	22.678
664.31	21.008
664.63	20.850
664.96	20.121
665.28	24.385
665.61	23.002
665.93	22.736
666.26	26.166
666.58	22.176
666.91	24.736
667.23	23.146
667.56	20.302
667.88	23.718
668.21	22.601
668.53	22.777
668.86	24.459
669.18	24.307
669.50	23.043
669.83	25.054
670.15	24.222
670.48	22.440
670.80	20.690
671.13	22.293
671.45	24.894
671.77	26.680
672.10	21.811
672.42	22.792
672.75	23.051
673.07	21.655
673.39	21.519
673.72	21.289
674.04	23.137
674.37	20.971
674.69	21.063
675.01	20.921
675.34	22.382
675.66	22.526
675.98	22.200
676.31	25.000
676.63	24.416
676.95	21.384
677.28	22.897
677.60	21.978
677.92	24.895
678.25	21.971
678.57	22.311
678.89	24.649
679.22	21.611
679.54	21.756
679.86	21.651
680.18	23.614
680.51	21.809
680.83	21.530
681.15	21.887
681.48	22.873
681.80	20.890
682.12	24.138
682.44	20.890
682.77	22.200
683.09	23.820
683.41	21.064
683.73	25.166
684.06	24.380
684.38	22.309
684.70	20.543
685.02	23.452
685.34	21.612
685.67	21.503
685.99	20.103
686.31	20.478
686.63	17.845
686.96	20.536
687.28	20.758
687.60	19.928
687.92	21.755
688.24	22.814
688.56	21.486
688.89	21.784
689.21	20.742
689.53	18.789
689.85	22.616
690.17	20.497
690.49	22.930
690.82	21.729
691.14	20.089
691.46	19.198
691.78	20.884
692.10	20.661
692.42	21.557
692.74	22.199
693.06	19.149
693.39	25.257
693.71	18.777
694.03	24.842
694.35	20.996
694.67	20.366
694.99	26.098
695.31	23.529
695.63	21.531
695.95	20.782
696.27	20.558
696.59	22.539
696.91	24.611
697.23	19.249
697.56	23.667
697.88	19.632
698.20	22.083
698.52	21.075
698.84	22.272
699.16	19.816
699.48	24.941
699.80	21.256
700.12	26.234
700.44	22.812
700.76	27.348
701.08	24.425
701.40	20.391
701.72	22.157
702.04	26.136
702.36	19.830
702.68	21.246
703.00	23.546
703.32	18.883
703.64	18.767
703.96	25.627
704.28	23.547
704.60	21.701
704.91	21.958
705.23	22.581
705.55	22.259
705.87	27.575
706.19	19.435
706.51	20.872
706.83	23.939
707.15	22.689
707.47	20.202
707.79	22.850
708.11	22.831
708.43	22.619
708.74	18.112
709.06	25.195
709.38	20.472
709.70	20.930
710.02	21.068
710.34	20.303
710.66	23.284
710.98	23.295
711.29	21.221
711.61	24.484
711.93	23.077
712.25	25.080
712.57	22.426
712.89	20.069
713.20	20.973
713.52	23.026
713.84	21.835
714.16	21.037
714.48	20.690
714.80	25.836
715.11	20.461
715.43	21.958
715.75	22.029
716.07	20.128
716.39	17.241
716.70	24.917
717.02	20.863
717.34	17.668
717.66	23.507
717.97	27.490
718.29	21.852
718.61	19.343
718.93	22.059
719.24	17.647
719.56	18.983
719.88	18.644
720.20	24.662
720.51	23.345
720.83	19.703
721.15	19.030
721.46	23.404
721.78	26.165
722.10	22.264
722.42	25.564
722.73	27.341
723.05	19.672
723.37	22.672
723.68	21.236
724.00	25.610
724.32	23.387
724.63	18.699
724.95	17.573
725.27	18.219
725.58	21.484
725.90	21.533
726.22	26.038
726.53	21.528
726.85	22.526
727.16	19.217
727.48	20.922
727.80	22.348
728.11	18.116
728.43	18.077
728.74	24.014
729.06	21.898
729.38	27.206
729.69	22.064
730.01	20.137
730.32	18.750
730.64	18.729
730.96	17.162
731.27	23.510
731.59	20.489
731.90	20.700
732.22	17.702
732.53	17.647
732.85	18.910
733.16	18.328
733.48	21.262
733.80	23.052
734.11	21.019
734.43	21.598
734.74	20.857
735.06	16.619
735.37	18.497
735.69	19.427
736.00	21.242
736.32	18.380
736.63	22.045
736.95	19.808
737.26	12.585
737.58	16.129
737.89	21.405
738.21	19.795
738.52	18.571
738.83	19.245
739.15	18.462
739.46	22.628
739.78	18.403
740.09	18.769
740.41	21.613
740.72	18.467
741.04	18.519
741.35	19.167
741.66	23.111
741.98	19.811
742.29	21.053
742.61	26.293
742.92	16.742
743.23	20.085
743.55	22.400
743.86	21.930
744.18	23.009
744.49	24.402
744.80	23.474
745.12	24.545
745.43	22.026
745.74	21.171
746.06	21.560
746.37	21.973
746.68	21.719
747.00	21.296
747.31	24.286
747.62	19.469
747.94	17.181
748.25	18.298
748.56	21.145
748.88	18.812
749.19	24.500
749.50	21.395
749.82	23.171
750.13	18.367
750.44	21.533
750.75	20.000
751.07	24.116
751.38	22.300
751.69	23.466
752.01	19.549
752.32	13.718
752.63	25.177
752.94	17.623
753.26	24.000
753.57	17.886
753.88	22.656
754.19	20.357
754.51	23.611
754.82	18.773
755.13	21.509
755.44	22.932
755.75	21.533
756.07	18.794
756.38	19.343
756.69	21.477
757.00	17.365
757.31	23.145
757.63	23.099
757.94	19.303
758.25	22.304
758.56	20.988
758.87	20.430
759.18	23.030
759.50	16.928
759.81	18.692
760.12	18.125
760.43	22.063
760.74	21.467
761.05	18.644
761.36	16.845
761.67	19.034
761.99	18.323
762.30	21.875
762.61	16.412
762.92	21.875
763.23	17.647
763.54	19.200
763.85	16.797
764.16	23.846
764.47	23.954
764.78	17.668
765.10	16.456
765.41	21.239
765.72	19.760
766.03	20.690
766.34	16.667
766.65	19.149
766.96	15.812
767.27	19.797
767.58	17.188
767.89	24.737
768.20	24.138
768.51	19.797
768.82	17.890
769.13	17.073
769.44	20.243
769.75	21.459
770.06	15.138
770.37	23.077
770.68	25.463
770.99	18.667
771.30	17.623
771.61	22.422
771.92	19.672
772.23	23.109
772.54	18.462
772.85	20.419
773.16	22.340
773.47	22.283
773.78	20.305
774.09	14.881
774.39	23.392
774.70	20.370
775.01	22.464
775.32	28.758
775.63	21.053
775.94	20.863
776.25	20.472
776.56	19.403
776.87	19.672
777.18	22.656
777.48	23.664
777.79	24.242
778.10	26.667
778.41	15.179
778.72	13.139
779.03	20.805
779.34	22.819
779.65	17.568
779.95	17.791
780.26	24.837
780.57	21.379
780.88	26.563
781.19	20.301
781.50	20.946
781.80	22.013
782.11	24.859
782.42	22.785
782.73	19.632
783.04	31.081
783.34	17.606
783.65	26.712
783.96	21.642
784.27	18.182
784.57	21.583
784.88	0.000
785.19	26.190
785.50	13.208
785.81	26.119
786.11	36.066
786.42	28.682
786.73	23.894
787.04	21.698
787.34	20.536
787.65	25.000
787.96	25.225
788.26	24.793
788.57	27.119
788.88	28.926
789.19	31.250
789.49	29.545
789.80	22.137
790.11	29.524
790.41	32.673
790.72	26.506
791.03	27.174
791.33	25.581
791.64	17.526
791.95	22.772
792.25	18.889
792.56	23.377
792.87	39.744
793.17	41.772
793.48	33.333
793.79	25.287
794.09	23.864
794.40	26.050
794.70	20.588
795.01	17.778
795.32	17.986
795.62	18.898
795.93	21.552
796.23	15.929
796.54	14.118
796.85	21.622
797.15	30.986
797.46	19.697
797.76	34.940
798.07	21.519
798.37	18.462
798.68	27.273
798.99	21.127
799.29	23.377
799.60	34.091
799.90	20.548
800.21	31.343
800.51	18.966
800.82	26.316
801.12	36.066
801.43	34.848
801.73	18.919
802.04	31.746
802.34	34.568
802.65	28.125
802.95	32.203
803.26	39.062
803.56	21.429
803.87	30.769
804.17	22.059
804.48	50.000
804.78	13.793
805.09	30.882
805.39	17.308
805.70	28.571
806.00	24.590
806.30	12.121
806.61	37.805
806.91	25.316
807.22	10.526
807.52	14.925
807.83	33.803
808.13	40.625
808.43	28.333
808.74	18.421
809.04	26.087
809.35	41.791
809.65	22.368
809.95	30.645
810.26	23.729
810.56	28.571
810.86	47.727
811.17	52.381
811.47	38.333
811.77	37.037
812.08	45.455
812.38	34.000
812.69	25.000
812.99	45.455
813.29	36.735
813.59	21.429
813.90	51.020
814.20	25.455
814.50	13.846
814.81	35.294
815.11	20.408
815.41	16.393
815.72	42.857
816.02	30.909
816.32	21.429
816.62	12.500
816.93	12.195
817.23	40.476
817.53	38.636
817.84	51.515
818.14	34.783
818.44	33.333
818.74	64.706
819.04	37.500
819.35	31.429
819.65	50.000
819.95	32.143
820.25	25.000
820.56	38.462
820.86	50.000
821.16	41.860
821.46	23.077
821.76	38.000
822.07	51.429
822.37	45.000
822.67	27.273
822.97	41.176
823.27	57.143
823.57	40.541
823.88	47.500
824.18	70.000
824.48	61.905
824.78	36.000
825.08	29.167
825.38	51.351
825.69	26.829
825.99	33.333
826.29	24.138
826.59	50.000
826.89	36.842
827.19	38.235
827.49	38.710
827.79	36.364
828.09	38.636
828.39	31.915
828.70	22.449
829.00	37.037
829.30	41.935
829.60	27.500
829.90	53.333
830.20	53.571
830.50	17.391
830.80	13.043
831.10	36.667
831.40	30.000
831.70	17.391
832.00	53.846
832.30	70.370
832.60	31.250
832.90	56.667
833.20	64.286
833.50	51.613
833.80	58.621
834.10	62.500
834.40	61.538
834.70	16.667
835.00	109.524
835.30	51.429
835.60	7.692
835.90	55.172
836.20	50.000
836.50	62.069
836.80	48.000
837.10	55.556
837.40	66.667
837.70	52.941
838.00	66.667
838.30	76.190
838.60	80.952
838.90	76.923
839.19	85.000
839.49	92.857
839.79	110.000
840.09	35.000
840.39	33.333
840.69	69.565
840.99	77.778
841.29	-30.000
841.59	-58.333
841.88	50.000
842.18	-10.345
842.48	76.190
842.78	56.667
843.08	8.696
843.38	56.250
843.68	183.333
843.97	73.077
844.27	31.034
844.57	47.619
844.87	68.750
845.17	59.259
845.47	-166.667
845.76	44.444
846.06	52.941
846.36	-50.000
846.66	7.143
846.96	56.250
847.25	18.182
847.55	18.182
847.85	65.217
848.15	140.000
848.44	42.857
848.74	33.333
849.04	123.529
849.34	110.000
849.63	36.842
849.93	27.273
850.23	160.000
850.53	85.714
850.82	600.000
851.12	-500.000
851.42	900.000
851.71	45.000
852.01	100.000
852.31	75.000
852.61	266.667
852.90	61.905
853.20	56.000
853.50	88.235
853.79	57.143
854.09	4.167
854.39	118.750
854.68	64.865
854.98	22.581
855.28	56.667
855.57	41.379
855.87	74.074
856.17	10.526
856.46	-46.667
856.76	64.706
857.05	62.069
857.35	16.667
857.65	40.000
857.94	26.087
858.24	69.231
858.53	105.000
858.83	18.182
859.13	46.667
859.42	0.000
859.72	177.778
860.01	90.909
860.31	40.909
860.60	68.421
860.90	34.783
861.20	88.889
861.49	125.000
861.79	-400.000
862.08	150.000
862.38	80.952
862.67	-38.462
862.97	58.824
863.26	133.333
863.56	-38.889
863.85	58.333
864.15	62.500
864.44	93.333
864.74	66.667
865.03	137.500
865.33	52.632
865.62	9.091
865.92	115.385
866.21	58.333
866.51	0.000
866.80	145.455
867.10	280.000
867.39	123.077
867.69	18.182
867.98	57.895
868.27	9.091
868.57	121.053
868.86	-200.000
869.16	75.000
869.45	-50.000
869.75	-400.000
870.04	41.667
870.33	171.429
870.63	0.000
870.92	400.000
871.22	71.429
871.51	105.882
871.80	19.048
872.10	92.857
>>>>>End Processed Spectral Data<<<<<
