SpectraSuite Data File
++++++++++++++++++++++++++++++++++++
Date: Wed May 13 15:58:09 PDT 2015
User: schluterlab
Dark Spectrum Present: Yes
Reference Spectrum Present: Yes
Number of Sampled Component Spectra: 1
Spectrometers: USB2E3373
Integration Time (usec): 3000 (USB2E3373)
Spectra Averaged: 3 (USB2E3373)
Boxcar Smoothing: 0 (USB2E3373)
Correct for Electrical Dark: No (USB2E3373)
Strobe/Lamp Enabled: No (USB2E3373)
Correct for Detector Non-linearity: No (USB2E3373)
Correct for Stray Light: No (USB2E3373)
Number of Pixels in Processed Spectrum: 2048
>>>>>Begin Processed Spectral Data<<<<<
178.53	0.000
178.91	-200.000
179.29	-125.000
179.67	5.556
180.04	-50.000
180.42	550.000
180.80	180.000
181.18	-50.000
181.56	128.571
181.94	0.000
182.31	-142.857
182.69	233.333
183.07	62.500
183.45	-22.222
183.83	127.273
184.20	90.000
184.58	500.000
184.96	900.000
185.34	-20.000
185.72	-50.000
186.09	-0.000
186.47	950.000
186.85	50.000
187.23	1400.000
187.61	-200.000
187.98	400.000
188.36	245.455
188.74	190.909
189.12	160.000
189.49	130.000
189.87	-600.000
190.25	-50.000
190.63	64.286
191.00	38.462
191.38	100.000
191.76	-50.000
192.14	500.000
192.51	62.500
192.89	200.000
193.27	162.500
193.65	-100.000
194.02	140.000
194.40	100.000
194.78	120.000
195.15	133.333
195.53	250.000
195.91	-50.000
196.29	93.750
196.66	94.737
197.04	70.000
197.42	0.000
197.79	140.000
198.17	-500.000
198.55	42.857
198.92	75.000
199.30	-160.000
199.68	0.000
200.05	66.667
200.43	85.714
200.81	600.000
201.18	133.333
201.56	-100.000
201.94	133.333
202.31	100.000
202.69	58.333
203.07	60.000
203.44	0.000
203.82	275.000
204.19	185.714
204.57	192.857
204.95	62.500
205.32	0.000
205.70	181.818
206.08	107.143
206.45	450.000
206.83	100.000
207.20	150.000
207.58	-180.000
207.96	116.667
208.33	162.500
208.71	-100.000
209.08	85.714
209.46	55.556
209.84	100.000
210.21	66.667
210.59	525.000
210.96	-175.000
211.34	0.000
211.71	180.000
212.09	150.000
212.46	0.000
212.84	366.667
213.22	450.000
213.59	-400.000
213.97	116.667
214.34	214.286
214.72	163.636
215.09	200.000
215.47	-300.000
215.84	-300.000
216.22	433.333
216.59	150.000
216.97	175.000
217.34	100.000
217.72	-133.333
218.09	0.000
218.47	-1100.000
218.84	211.111
219.22	128.571
219.59	266.667
219.97	-0.000
220.34	0.000
220.72	-166.667
221.09	85.714
221.47	425.000
221.84	-333.333
222.22	0.000
222.59	350.000
222.97	-600.000
223.34	280.000
223.72	69.231
224.09	280.000
224.46	350.000
224.84	-1000.000
225.21	-240.000
225.59	-500.000
225.96	140.000
226.34	130.000
226.71	700.000
227.08	225.000
227.46	180.000
227.83	-25.000
228.21	-200.000
228.58	88.889
228.95	-250.000
229.33	-250.000
229.70	500.000
230.08	114.286
230.45	-180.000
230.82	8.333
231.20	50.000
231.57	100.000
231.95	100.000
232.32	72.727
232.69	-9.091
233.07	14.286
233.44	53.846
233.81	-200.000
234.19	26.316
234.56	75.000
234.93	-33.333
235.31	18.182
235.68	15.385
236.05	92.857
236.43	33.333
236.80	47.368
237.17	700.000
237.55	38.095
237.92	42.857
238.29	14.286
238.67	32.258
239.04	72.414
239.41	50.000
239.79	-2.174
240.16	57.143
240.53	47.727
240.91	25.490
241.28	26.000
241.65	22.000
242.02	47.826
242.40	30.645
242.77	21.667
243.14	41.935
243.51	41.573
243.89	32.941
244.26	30.000
244.63	29.032
245.00	19.149
245.38	26.733
245.75	19.626
246.12	14.679
246.49	30.657
246.87	37.600
247.24	30.000
247.61	22.143
247.98	25.490
248.36	11.486
248.73	21.656
249.10	26.752
249.47	29.379
249.84	25.134
250.22	21.390
250.59	20.118
250.96	21.212
251.33	25.592
251.70	26.733
252.08	23.333
252.45	20.628
252.82	19.565
253.19	23.404
253.56	25.098
253.94	20.747
254.31	26.172
254.68	26.538
255.05	21.402
255.42	20.732
255.79	22.794
256.16	24.188
256.54	22.968
256.91	22.776
257.28	14.029
257.65	23.762
258.02	23.913
258.39	22.713
258.76	23.411
259.14	20.536
259.51	21.581
259.88	19.876
260.25	22.054
260.62	19.364
260.99	21.118
261.36	20.420
261.73	22.063
262.10	19.477
262.47	20.845
262.85	21.448
263.22	19.088
263.59	22.507
263.96	19.505
264.33	18.538
264.70	20.000
265.07	18.926
265.44	22.475
265.81	18.005
266.18	21.608
266.55	19.268
266.92	19.902
267.29	19.676
267.66	19.495
268.03	20.000
268.40	21.028
268.77	17.661
269.14	18.468
269.51	22.348
269.88	19.580
270.25	20.542
270.62	19.551
270.99	21.505
271.36	20.601
271.73	16.589
272.10	19.130
272.47	20.860
272.84	19.913
273.21	19.078
273.58	17.031
273.95	17.820
274.32	19.835
274.69	21.627
275.06	19.094
275.43	19.149
275.80	18.437
276.17	19.145
276.54	18.919
276.91	19.170
277.28	18.555
277.65	17.408
278.02	18.012
278.39	19.922
278.76	18.545
279.13	18.868
279.50	18.622
279.87	19.323
280.23	19.162
280.60	18.182
280.97	18.484
281.34	18.938
281.71	20.364
282.08	19.386
282.45	18.000
282.82	19.893
283.19	18.004
283.56	16.842
283.92	19.966
284.29	16.755
284.66	18.512
285.03	16.094
285.40	18.838
285.77	20.370
286.14	17.098
286.51	19.167
286.87	16.068
287.24	18.241
287.61	17.817
287.98	17.208
288.35	17.116
288.72	18.536
289.08	18.310
289.45	17.792
289.82	17.724
290.19	15.856
290.56	15.926
290.93	15.257
291.29	16.718
291.66	18.142
292.03	18.169
292.40	18.796
292.77	16.568
293.13	16.418
293.50	16.618
293.87	15.852
294.24	16.148
294.60	17.031
294.97	17.297
295.34	16.643
295.71	18.182
296.08	15.100
296.44	15.406
296.81	15.720
297.18	17.886
297.55	14.380
297.91	15.963
298.28	16.198
298.65	16.449
299.02	17.128
299.38	15.936
299.75	13.747
300.12	16.986
300.48	14.625
300.85	15.290
301.22	15.287
301.59	14.520
301.95	17.254
302.32	16.431
302.69	15.412
303.05	15.758
303.42	14.321
303.79	15.629
304.15	14.918
304.52	15.411
304.89	14.286
305.25	14.501
305.62	16.421
305.99	16.411
306.35	16.890
306.72	16.256
307.09	16.537
307.45	16.216
307.82	15.067
308.19	15.894
308.55	17.584
308.92	16.434
309.29	14.889
309.65	15.058
310.02	15.962
310.38	15.591
310.75	16.262
311.12	15.660
311.48	16.719
311.85	16.247
312.22	17.482
312.58	15.800
312.95	17.951
313.31	16.214
313.68	16.944
314.05	17.850
314.41	16.784
314.78	17.120
315.14	16.485
315.51	16.581
315.87	17.723
316.24	15.889
316.61	15.400
316.97	17.025
317.34	16.536
317.70	16.252
318.07	17.421
318.43	16.732
318.80	17.901
319.16	18.267
319.53	16.323
319.89	18.667
320.26	17.900
320.62	18.353
320.99	16.869
321.35	18.283
321.72	16.632
322.08	18.954
322.45	19.801
322.81	17.926
323.18	19.653
323.54	19.109
323.91	18.679
324.27	19.120
324.64	17.987
325.00	18.936
325.37	19.927
325.73	19.300
326.10	18.888
326.46	19.713
326.83	20.017
327.19	21.264
327.56	18.990
327.92	19.510
328.29	20.586
328.65	20.718
329.01	20.578
329.38	20.074
329.74	20.406
330.11	21.301
330.47	20.569
330.84	20.956
331.20	20.492
331.56	20.459
331.93	20.556
332.29	20.053
332.66	20.796
333.02	19.927
333.38	20.054
333.75	20.499
334.11	21.085
334.48	21.473
334.84	19.577
335.20	21.182
335.57	21.306
335.93	19.821
336.29	20.147
336.66	19.477
337.02	19.367
337.38	20.185
337.75	19.162
338.11	20.591
338.47	19.153
338.84	20.715
339.20	20.550
339.56	22.354
339.93	19.091
340.29	19.565
340.65	20.321
341.02	20.681
341.38	20.996
341.74	20.526
342.11	20.786
342.47	20.264
342.83	20.205
343.20	20.173
343.56	19.292
343.92	20.000
344.28	20.238
344.65	20.894
345.01	19.949
345.37	19.640
345.73	19.543
346.10	19.864
346.46	20.169
346.82	18.946
347.19	19.465
347.55	19.540
347.91	19.660
348.27	20.131
348.63	18.813
349.00	21.278
349.36	20.690
349.72	20.289
350.08	17.990
350.45	20.260
350.81	19.740
351.17	19.611
351.53	20.311
351.89	19.307
352.26	20.126
352.62	19.567
352.98	19.773
353.34	19.967
353.70	19.231
354.07	20.323
354.43	19.603
354.79	19.549
355.15	19.633
355.51	21.263
355.87	20.082
356.24	20.603
356.60	19.647
356.96	20.193
357.32	20.442
357.68	21.024
358.04	19.952
358.40	20.190
358.77	19.171
359.13	19.811
359.49	20.392
359.85	19.048
360.21	19.617
360.57	21.868
360.93	20.077
361.29	19.728
361.66	18.885
362.02	20.448
362.38	20.304
362.74	20.759
363.10	19.985
363.46	19.516
363.82	19.803
364.18	20.778
364.54	20.654
364.90	21.530
365.26	20.074
365.62	20.672
365.98	19.649
366.35	19.914
366.71	21.186
367.07	20.102
367.43	21.263
367.79	21.342
368.15	21.839
368.51	20.058
368.87	20.128
369.23	20.190
369.59	21.361
369.95	20.662
370.31	20.940
370.67	21.594
371.03	21.723
371.39	21.137
371.75	21.250
372.11	20.910
372.47	22.067
372.83	21.398
373.19	21.387
373.55	21.803
373.91	21.576
374.27	21.512
374.63	21.309
374.99	22.105
375.35	20.377
375.71	21.590
376.07	22.154
376.42	22.834
376.78	23.128
377.14	22.795
377.50	22.649
377.86	21.011
378.22	22.882
378.58	22.368
378.94	21.810
379.30	21.565
379.66	23.096
380.02	22.973
380.38	21.919
380.74	23.169
381.09	22.555
381.45	23.110
381.81	23.464
382.17	23.248
382.53	22.830
382.89	23.086
383.25	22.139
383.61	24.226
383.97	23.890
384.32	23.456
384.68	23.420
385.04	23.356
385.40	24.025
385.76	23.464
386.12	24.028
386.48	23.159
386.83	25.208
387.19	25.788
387.55	23.438
387.91	23.942
388.27	24.218
388.62	25.323
388.98	24.324
389.34	24.781
389.70	24.157
390.06	24.778
390.42	24.708
390.77	24.746
391.13	25.080
391.49	25.444
391.85	24.698
392.20	23.975
392.56	25.000
392.92	25.486
393.28	24.438
393.64	25.480
393.99	25.290
394.35	24.876
394.71	24.906
395.07	24.361
395.42	25.402
395.78	25.064
396.14	25.388
396.50	26.441
396.85	26.192
397.21	25.894
397.57	26.348
397.92	25.781
398.28	25.504
398.64	25.388
399.00	25.462
399.35	25.776
399.71	25.463
400.07	26.848
400.42	26.319
400.78	26.417
401.14	27.256
401.49	25.851
401.85	26.195
402.21	25.329
402.57	25.663
402.92	26.734
403.28	26.733
403.63	26.052
403.99	26.178
404.35	27.394
404.70	26.199
405.06	25.568
405.42	26.949
405.77	25.829
406.13	26.185
406.49	26.079
406.84	26.167
407.20	26.123
407.55	25.973
407.91	27.133
408.27	27.122
408.62	26.370
408.98	26.593
409.34	26.691
409.69	27.032
410.05	26.332
410.40	26.483
410.76	26.464
411.11	27.563
411.47	26.773
411.83	26.329
412.18	26.098
412.54	27.397
412.89	27.289
413.25	27.922
413.60	27.301
413.96	26.351
414.31	27.157
414.67	27.503
415.03	27.550
415.38	27.771
415.74	26.752
416.09	27.106
416.45	27.577
416.80	27.032
417.16	28.217
417.51	27.538
417.87	27.746
418.22	28.139
418.58	27.308
418.93	27.518
419.29	26.989
419.64	27.330
420.00	28.110
420.35	28.232
420.71	28.811
421.06	27.625
421.42	27.661
421.77	28.251
422.12	26.334
422.48	27.307
422.83	28.305
423.19	28.011
423.54	27.974
423.90	27.768
424.25	28.197
424.61	27.619
424.96	28.397
425.31	28.461
425.67	27.303
426.02	27.714
426.38	28.632
426.73	27.677
427.09	28.024
427.44	28.120
427.79	27.717
428.15	28.631
428.50	28.028
428.85	28.486
429.21	27.996
429.56	27.631
429.92	29.391
430.27	28.103
430.62	28.469
430.98	28.230
431.33	27.990
431.68	29.005
432.04	29.180
432.39	28.726
432.74	28.247
433.10	29.032
433.45	29.271
433.80	28.049
434.16	29.380
434.51	28.368
434.86	28.734
435.22	28.905
435.57	29.119
435.92	28.379
436.28	29.715
436.63	29.967
436.98	29.994
437.34	29.100
437.69	29.405
438.04	29.455
438.39	28.537
438.75	28.879
439.10	29.721
439.45	29.752
439.81	29.305
440.16	28.233
440.51	29.350
440.86	29.299
441.22	29.644
441.57	28.556
441.92	30.450
442.27	30.032
442.63	29.226
442.98	29.690
443.33	29.511
443.68	30.201
444.03	29.527
444.39	29.844
444.74	29.924
445.09	29.057
445.44	29.579
445.79	29.936
446.15	29.645
446.50	30.156
446.85	30.164
447.20	30.240
447.55	29.592
447.91	29.454
448.26	29.827
448.61	29.395
448.96	30.676
449.31	30.259
449.66	29.713
450.02	29.916
450.37	30.669
450.72	30.118
451.07	29.372
451.42	28.936
451.77	29.536
452.12	30.370
452.47	29.726
452.83	31.061
453.18	30.440
453.53	29.994
453.88	30.124
454.23	29.767
454.58	30.890
454.93	31.151
455.28	30.860
455.63	30.583
455.98	32.321
456.34	30.716
456.69	32.311
457.04	31.703
457.39	30.508
457.74	30.934
458.09	31.052
458.44	30.388
458.79	30.043
459.14	30.418
459.49	29.422
459.84	30.360
460.19	30.583
460.54	29.803
460.89	30.554
461.24	30.662
461.59	32.016
461.94	30.456
462.29	31.395
462.64	30.951
462.99	29.603
463.34	31.733
463.69	30.644
464.04	30.435
464.39	30.899
464.74	30.481
465.09	30.881
465.44	30.416
465.79	30.761
466.14	30.761
466.49	29.811
466.84	30.881
467.19	30.477
467.54	31.562
467.89	30.852
468.24	30.832
468.59	31.136
468.94	30.971
469.29	31.298
469.64	32.129
469.99	32.409
470.34	31.242
470.68	31.394
471.03	32.109
471.38	32.245
471.73	31.446
472.08	32.303
472.43	32.789
472.78	31.666
473.13	31.772
473.48	32.335
473.83	31.402
474.17	31.798
474.52	31.824
474.87	31.757
475.22	31.167
475.57	30.844
475.92	32.501
476.27	31.736
476.61	31.715
476.96	32.106
477.31	31.554
477.66	32.276
478.01	31.573
478.36	32.152
478.70	31.724
479.05	31.629
479.40	31.372
479.75	31.927
480.10	31.262
480.45	31.937
480.79	31.773
481.14	32.094
481.49	32.226
481.84	31.870
482.19	31.758
482.53	32.064
482.88	32.061
483.23	31.495
483.58	31.847
483.92	31.631
484.27	31.198
484.62	30.862
484.97	30.548
485.31	31.507
485.66	30.138
486.01	29.827
486.36	29.423
486.70	29.081
487.05	29.883
487.40	30.567
487.75	30.340
488.09	30.907
488.44	30.354
488.79	31.573
489.13	31.627
489.48	31.240
489.83	31.334
490.17	32.486
490.52	31.931
490.87	31.615
491.22	31.605
491.56	31.116
491.91	31.689
492.26	31.741
492.60	31.613
492.95	31.010
493.30	31.776
493.64	31.825
493.99	32.219
494.34	32.007
494.68	32.189
495.03	31.673
495.37	32.154
495.72	32.456
496.07	31.555
496.41	32.124
496.76	32.322
497.11	31.472
497.45	31.858
497.80	32.054
498.14	32.126
498.49	32.390
498.84	32.407
499.18	31.476
499.53	31.861
499.87	32.106
500.22	32.171
500.56	33.252
500.91	31.298
501.26	32.527
501.60	32.748
501.95	31.622
502.29	33.130
502.64	33.380
502.98	32.211
503.33	31.627
503.67	32.065
504.02	31.712
504.36	32.007
504.71	32.682
505.06	31.181
505.40	32.669
505.75	31.967
506.09	32.216
506.44	33.251
506.78	32.392
507.13	33.165
507.47	33.131
507.82	32.877
508.16	33.435
508.51	33.384
508.85	32.969
509.19	33.622
509.54	33.367
509.88	32.870
510.23	32.596
510.57	33.695
510.92	33.351
511.26	33.196
511.61	34.284
511.95	31.837
512.30	33.881
512.64	32.778
512.98	33.494
513.33	34.422
513.67	32.657
514.02	32.900
514.36	33.042
514.70	32.928
515.05	33.240
515.39	33.763
515.74	34.291
516.08	34.433
516.42	34.850
516.77	35.452
517.11	33.241
517.46	33.916
517.80	35.134
518.14	34.047
518.49	34.714
518.83	35.341
519.17	34.238
519.52	34.182
519.86	34.512
520.20	35.318
520.55	35.189
520.89	34.793
521.23	35.464
521.58	34.994
521.92	34.966
522.26	34.655
522.61	34.642
522.95	34.561
523.29	35.545
523.64	35.244
523.98	34.997
524.32	34.198
524.66	35.358
525.01	35.417
525.35	34.201
525.69	34.975
526.04	34.455
526.38	35.021
526.72	34.356
527.06	35.468
527.41	33.478
527.75	35.434
528.09	35.838
528.43	36.265
528.78	35.341
529.12	34.303
529.46	35.150
529.80	34.839
530.15	35.576
530.49	34.585
530.83	35.316
531.17	37.010
531.51	35.344
531.86	34.774
532.20	36.310
532.54	36.003
532.88	34.917
533.22	34.978
533.57	34.753
533.91	34.196
534.25	34.083
534.59	34.167
534.93	33.135
535.27	35.003
535.62	34.799
535.96	36.221
536.30	33.821
536.64	34.771
536.98	34.240
537.32	33.575
537.66	33.867
538.01	35.418
538.35	34.648
538.69	35.099
539.03	34.568
539.37	33.419
539.71	33.765
540.05	34.510
540.39	33.887
540.73	33.765
541.07	34.588
541.42	35.095
541.76	34.710
542.10	34.217
542.44	34.570
542.78	34.124
543.12	34.229
543.46	33.967
543.80	34.678
544.14	34.018
544.48	34.921
544.82	34.638
545.16	34.418
545.50	34.447
545.84	34.812
546.18	35.219
546.52	33.930
546.86	34.158
547.20	33.378
547.54	33.734
547.88	34.885
548.22	33.250
548.56	33.648
548.90	33.419
549.24	34.478
549.58	34.379
549.92	33.654
550.26	33.807
550.60	33.887
550.94	34.085
551.28	33.065
551.62	34.076
551.96	33.123
552.30	34.539
552.64	34.009
552.98	35.119
553.32	32.637
553.66	34.628
554.00	33.905
554.34	33.747
554.68	33.476
555.02	33.498
555.36	32.916
555.69	32.409
556.03	32.907
556.37	34.038
556.71	32.333
557.05	33.824
557.39	34.220
557.73	33.874
558.07	35.388
558.41	33.792
558.75	34.680
559.08	34.377
559.42	34.240
559.76	34.265
560.10	33.619
560.44	33.543
560.78	33.599
561.12	32.784
561.45	33.572
561.79	33.685
562.13	32.797
562.47	33.128
562.81	33.821
563.15	32.977
563.48	33.156
563.82	33.333
564.16	33.421
564.50	32.031
564.84	32.870
565.17	31.789
565.51	33.035
565.85	32.995
566.19	31.872
566.52	32.299
566.86	31.646
567.20	32.783
567.54	31.564
567.88	31.179
568.21	32.011
568.55	30.991
568.89	31.323
569.23	30.125
569.56	30.405
569.90	30.453
570.24	30.140
570.57	29.548
570.91	29.282
571.25	28.660
571.59	28.719
571.92	29.090
572.26	28.567
572.60	28.739
572.93	28.606
573.27	28.690
573.61	29.090
573.95	28.656
574.28	28.417
574.62	28.328
574.96	27.264
575.29	27.886
575.63	28.074
575.97	27.883
576.30	28.598
576.64	27.900
576.98	27.807
577.31	27.726
577.65	28.447
577.98	27.382
578.32	27.681
578.66	27.296
578.99	27.893
579.33	27.814
579.67	27.682
580.00	28.219
580.34	27.883
580.67	27.913
581.01	27.749
581.35	27.879
581.68	27.580
582.02	27.130
582.35	27.613
582.69	27.345
583.02	27.495
583.36	27.554
583.70	27.697
584.03	27.926
584.37	27.642
584.70	28.109
585.04	27.471
585.37	27.470
585.71	28.031
586.04	27.712
586.38	27.299
586.72	28.279
587.05	27.357
587.39	26.966
587.72	27.931
588.06	27.001
588.39	27.325
588.73	27.427
589.06	27.953
589.40	27.845
589.73	27.913
590.07	28.185
590.40	27.914
590.73	27.947
591.07	28.327
591.40	29.144
591.74	29.177
592.07	28.141
592.41	28.524
592.74	27.978
593.08	28.248
593.41	27.175
593.75	26.265
594.08	27.321
594.41	27.536
594.75	27.985
595.08	27.774
595.42	27.951
595.75	27.600
596.09	27.713
596.42	27.583
596.75	27.353
597.09	28.571
597.42	27.108
597.75	27.857
598.09	27.652
598.42	27.277
598.76	27.888
599.09	27.138
599.42	27.074
599.76	27.196
600.09	26.812
600.42	26.771
600.76	26.429
601.09	26.885
601.42	27.359
601.76	27.742
602.09	27.036
602.42	27.548
602.76	27.449
603.09	27.144
603.42	27.216
603.76	27.515
604.09	26.677
604.42	27.354
604.76	26.740
605.09	27.479
605.42	25.994
605.75	26.821
606.09	26.352
606.42	26.481
606.75	27.001
607.09	27.459
607.42	26.573
607.75	25.992
608.08	26.270
608.42	27.073
608.75	26.871
609.08	26.133
609.41	26.987
609.75	26.108
610.08	28.087
610.41	26.304
610.74	26.395
611.07	27.322
611.41	27.036
611.74	27.903
612.07	27.484
612.40	27.964
612.73	26.526
613.07	28.017
613.40	27.330
613.73	26.219
614.06	28.011
614.39	26.481
614.72	27.053
615.06	26.996
615.39	26.805
615.72	26.789
616.05	26.156
616.38	27.404
616.71	26.900
617.05	27.680
617.38	27.240
617.71	27.928
618.04	28.846
618.37	27.735
618.70	28.251
619.03	28.158
619.36	27.970
619.69	28.592
620.03	28.777
620.36	27.674
620.69	28.904
621.02	29.130
621.35	28.269
621.68	27.336
622.01	27.245
622.34	27.458
622.67	28.365
623.00	27.586
623.33	27.663
623.66	28.878
623.99	28.203
624.32	26.391
624.65	28.249
624.99	27.195
625.32	27.589
625.65	28.400
625.98	28.593
626.31	28.227
626.64	29.551
626.97	28.180
627.30	28.761
627.63	28.876
627.96	27.839
628.29	28.084
628.62	30.558
628.95	31.321
629.28	29.836
629.61	28.781
629.94	28.857
630.26	29.838
630.59	29.075
630.92	29.215
631.25	28.233
631.58	29.129
631.91	29.615
632.24	29.114
632.57	29.591
632.90	30.263
633.23	29.418
633.56	29.718
633.89	30.351
634.22	29.398
634.55	31.361
634.88	31.018
635.20	30.108
635.53	31.566
635.86	30.446
636.19	29.529
636.52	30.219
636.85	30.355
637.18	27.995
637.51	29.905
637.83	28.237
638.16	30.818
638.49	29.471
638.82	32.111
639.15	31.625
639.48	31.920
639.81	29.759
640.13	29.688
640.46	29.128
640.79	31.440
641.12	29.161
641.45	28.911
641.77	31.075
642.10	31.287
642.43	29.580
642.76	30.495
643.09	31.902
643.41	29.894
643.74	32.407
644.07	30.183
644.40	30.521
644.73	32.283
645.05	31.696
645.38	30.806
645.71	31.884
646.04	31.063
646.36	33.055
646.69	32.107
647.02	31.973
647.35	30.756
647.67	33.982
648.00	29.919
648.33	29.538
648.66	29.848
648.98	30.285
649.31	29.596
649.64	30.344
649.96	29.210
650.29	30.332
650.62	29.126
650.94	30.794
651.27	31.250
651.60	32.612
651.92	29.712
652.25	32.410
652.58	31.464
652.90	31.122
653.23	27.581
653.56	31.024
653.88	30.903
654.21	31.912
654.54	31.188
654.86	28.816
655.19	28.378
655.52	23.730
655.84	20.890
656.17	25.388
656.49	33.297
656.82	33.144
657.15	25.008
657.47	18.890
657.80	14.454
658.13	15.079
658.45	22.416
658.78	23.281
659.10	23.784
659.43	24.575
659.75	24.699
660.08	27.278
660.41	28.585
660.73	29.987
661.06	29.618
661.38	33.091
661.71	31.154
662.03	31.558
662.36	28.827
662.68	28.916
663.01	30.101
663.33	32.272
663.66	31.303
663.98	29.590
664.31	30.462
664.63	28.947
664.96	30.382
665.28	32.172
665.61	31.189
665.93	29.980
666.26	28.600
666.58	32.427
666.91	30.867
667.23	30.787
667.56	30.886
667.88	30.342
668.21	32.836
668.53	30.152
668.86	30.736
669.18	31.770
669.50	32.174
669.83	31.373
670.15	31.556
670.48	29.194
670.80	31.250
671.13	28.662
671.45	27.660
671.77	31.772
672.10	31.423
672.42	28.799
672.75	28.192
673.07	26.585
673.39	25.316
673.72	28.711
674.04	28.824
674.37	29.903
674.69	26.789
675.01	27.406
675.34	31.417
675.66	32.421
675.98	30.957
676.31	31.303
676.63	30.998
676.95	29.979
677.28	30.140
677.60	29.890
677.92	29.114
678.25	29.569
678.57	30.478
678.89	30.661
679.22	28.487
679.54	30.344
679.86	29.358
680.18	28.086
680.51	28.369
680.83	29.359
681.15	28.868
681.48	29.301
681.80	27.853
682.12	28.927
682.44	24.758
682.77	29.735
683.09	30.687
683.41	29.268
683.73	31.126
684.06	28.926
684.38	28.963
684.70	30.814
685.02	30.019
685.34	26.190
685.67	25.699
685.99	26.460
686.31	27.304
686.63	24.205
686.96	25.357
687.28	25.090
687.60	27.355
687.92	28.336
688.24	27.186
688.56	29.116
688.89	28.008
689.21	29.913
689.53	27.140
689.85	30.820
690.17	26.087
690.49	29.087
690.82	29.439
691.14	28.125
691.46	27.637
691.78	27.108
692.10	30.165
692.42	28.942
692.74	25.934
693.06	28.298
693.39	27.515
693.71	29.694
694.03	26.947
694.35	26.623
694.67	26.316
694.99	29.024
695.31	27.451
695.63	27.512
695.95	26.650
696.27	25.635
696.59	25.648
696.91	29.275
697.23	23.005
697.56	26.866
697.88	24.744
698.20	25.625
698.52	29.247
698.84	26.058
699.16	25.806
699.48	27.553
699.80	26.329
700.12	31.169
700.44	29.443
700.76	29.834
701.08	26.437
701.40	28.492
701.72	31.487
702.04	32.102
702.36	29.745
702.68	26.062
703.00	27.978
703.32	22.606
703.64	31.635
703.96	27.577
704.28	28.779
704.60	26.979
704.91	28.190
705.23	30.499
705.55	30.897
705.87	35.216
706.19	27.208
706.51	29.595
706.83	30.606
707.15	29.412
707.47	27.273
707.79	30.221
708.11	27.169
708.43	26.190
708.74	23.469
709.06	29.091
709.38	26.509
709.70	30.814
710.02	27.300
710.34	26.364
710.66	26.269
710.98	30.682
711.29	25.291
711.61	27.729
711.93	25.641
712.25	27.331
712.57	28.309
712.89	29.066
713.20	29.787
713.52	31.908
713.84	27.848
714.16	25.305
714.48	27.299
714.80	31.915
715.11	28.530
715.43	25.519
715.75	27.536
716.07	30.032
716.39	26.332
716.70	28.904
717.02	25.180
717.34	29.682
717.66	30.597
717.97	33.466
718.29	24.444
718.61	31.752
718.93	31.250
719.24	25.260
719.56	29.492
719.88	31.186
720.20	25.000
720.51	30.662
720.83	27.881
721.15	26.119
721.46	27.660
721.78	31.900
722.10	27.547
722.42	29.699
722.73	29.963
723.05	30.738
723.37	31.174
723.68	28.571
724.00	24.390
724.32	31.855
724.63	28.455
724.95	29.707
725.27	28.340
725.58	24.609
725.90	27.007
726.22	26.415
726.53	24.306
726.85	31.058
727.16	25.623
727.48	24.113
727.80	26.894
728.11	30.797
728.43	20.769
728.74	28.315
729.06	25.547
729.38	27.941
729.69	30.605
730.01	22.867
730.32	23.958
730.64	28.094
730.96	21.452
731.27	27.483
731.59	26.911
731.90	26.239
732.22	24.845
732.53	21.981
732.85	23.718
733.16	23.794
733.48	23.588
733.80	24.351
734.11	27.389
734.43	26.627
734.74	22.571
735.06	26.934
735.37	24.855
735.69	25.478
736.00	27.451
736.32	26.480
736.63	25.879
736.95	23.642
737.26	18.367
737.58	23.548
737.89	25.418
738.21	30.375
738.52	26.429
738.83	25.660
739.15	19.231
739.46	28.832
739.78	24.653
740.09	22.154
740.41	26.129
740.72	22.648
741.04	24.074
741.35	22.083
741.66	31.111
741.98	23.585
742.29	29.665
742.61	31.466
742.92	26.697
743.23	23.932
743.55	29.600
743.86	28.509
744.18	28.319
744.49	32.536
744.80	28.638
745.12	29.091
745.43	23.348
745.74	34.234
746.06	28.899
746.37	28.700
746.68	28.054
747.00	31.481
747.31	25.238
747.62	22.566
747.94	24.229
748.25	20.851
748.56	27.313
748.88	29.208
749.19	33.500
749.50	26.047
749.82	25.203
750.13	27.347
750.44	25.547
750.75	27.368
751.07	24.759
751.38	27.875
751.69	25.271
752.01	23.684
752.32	23.827
752.63	22.695
752.94	22.541
753.26	30.000
753.57	22.764
753.88	25.000
754.19	24.643
754.51	29.861
754.82	22.383
755.13	28.679
755.44	23.684
755.75	24.453
756.07	24.468
756.38	21.168
756.69	22.483
757.00	22.156
757.31	22.849
757.63	22.222
757.94	21.716
758.25	24.020
758.56	24.938
758.87	21.774
759.18	23.030
759.50	22.571
759.81	23.364
760.12	23.125
760.43	27.221
760.74	20.380
761.05	24.859
761.36	20.588
761.67	25.284
761.99	21.739
762.30	29.514
762.61	24.427
762.92	27.344
763.23	22.689
763.54	27.600
763.85	23.047
764.16	25.385
764.47	23.954
764.78	21.908
765.10	20.253
765.41	25.664
765.72	22.754
766.03	21.317
766.34	22.667
766.65	29.362
766.96	20.940
767.27	24.873
767.58	25.521
767.89	27.368
768.20	29.310
768.51	25.381
768.82	23.853
769.13	26.829
769.44	20.648
769.75	24.893
770.06	21.101
770.37	19.457
770.68	25.463
770.99	25.333
771.30	18.443
771.61	28.251
771.92	19.262
772.23	28.151
772.54	28.205
772.85	26.702
773.16	27.128
773.47	22.283
773.78	33.503
774.09	18.452
774.39	29.825
774.70	24.074
775.01	23.913
775.32	34.641
775.63	30.921
775.94	30.216
776.25	33.071
776.56	20.149
776.87	27.049
777.18	31.250
777.48	40.458
777.79	30.303
778.10	27.407
778.41	27.679
778.72	21.898
779.03	24.832
779.34	24.832
779.65	20.946
779.95	26.380
780.26	25.490
780.57	33.793
780.88	35.938
781.19	30.827
781.50	28.378
781.80	28.931
782.11	20.904
782.42	24.051
782.73	24.540
783.04	27.703
783.34	24.648
783.65	30.822
783.96	29.851
784.27	23.776
784.57	23.741
784.88	20.370
785.19	26.984
785.50	28.302
785.81	32.090
786.11	28.689
786.42	34.109
786.73	23.894
787.04	27.358
787.34	28.571
787.65	34.000
787.96	32.432
788.26	31.405
788.57	30.508
788.88	31.405
789.19	34.028
789.49	33.333
789.80	30.534
790.11	33.333
790.41	21.782
790.72	25.301
791.03	26.087
791.33	33.721
791.64	28.866
791.95	28.713
792.25	32.222
792.56	36.364
792.87	42.308
793.17	44.304
793.48	33.333
793.79	26.437
794.09	31.818
794.40	31.933
794.70	26.471
795.01	22.963
795.32	20.144
795.62	23.622
795.93	24.138
796.23	29.204
796.54	30.588
796.85	18.919
797.15	29.577
797.46	19.697
797.76	42.169
798.07	22.785
798.37	29.231
798.68	31.818
798.99	33.803
799.29	31.169
799.60	37.500
799.90	45.205
800.21	38.806
800.51	24.138
800.82	47.368
801.12	42.623
801.43	45.455
801.73	18.919
802.04	33.333
802.34	29.630
802.65	26.563
802.95	42.373
803.26	54.688
803.56	22.857
803.87	35.385
804.17	33.824
804.48	44.444
804.78	27.586
805.09	52.941
805.39	28.846
805.70	39.286
806.00	29.508
806.30	34.848
806.61	34.146
806.91	27.848
807.22	34.211
807.52	16.418
807.83	29.577
808.13	60.937
808.43	36.667
808.74	22.368
809.04	50.725
809.35	16.418
809.65	35.526
809.95	50.000
810.26	28.814
810.56	47.619
810.86	31.818
811.17	33.333
811.47	43.333
811.77	22.222
812.08	38.182
812.38	44.000
812.69	30.556
812.99	59.091
813.29	36.735
813.59	19.048
813.90	48.980
814.20	45.455
814.50	33.846
814.81	39.706
815.11	28.571
815.41	31.148
815.72	45.238
816.02	38.182
816.32	45.238
816.62	25.000
816.93	21.951
817.23	33.333
817.53	31.818
817.84	42.424
818.14	26.087
818.44	44.444
818.74	47.059
819.04	40.000
819.35	11.429
819.65	38.235
819.95	35.714
820.25	15.000
820.56	64.103
820.86	38.636
821.16	62.791
821.46	35.897
821.76	28.000
822.07	57.143
822.37	52.500
822.67	30.303
822.97	35.294
823.27	85.714
823.57	51.351
823.88	55.000
824.18	43.333
824.48	66.667
824.78	32.000
825.08	8.333
825.38	27.027
825.69	36.585
825.99	41.667
826.29	20.690
826.59	36.842
826.89	28.947
827.19	35.294
827.49	41.935
827.79	50.000
828.09	25.000
828.39	25.532
828.70	51.020
829.00	44.444
829.30	19.355
829.60	52.500
829.90	60.000
830.20	32.143
830.50	17.391
830.80	65.217
831.10	43.333
831.40	50.000
831.70	73.913
832.00	69.231
832.30	37.037
832.60	100.000
832.90	56.667
833.20	135.714
833.50	67.742
833.80	44.828
834.10	40.625
834.40	107.692
834.70	55.556
835.00	119.048
835.30	54.286
835.60	69.231
835.90	68.966
836.20	42.857
836.50	44.828
836.80	72.000
837.10	66.667
837.40	57.143
837.70	64.706
838.00	18.519
838.30	38.095
838.60	52.381
838.90	76.923
839.19	75.000
839.49	92.857
839.79	75.000
840.09	75.000
840.39	61.905
840.69	65.217
840.99	83.333
841.29	100.000
841.59	-41.667
841.88	106.250
842.18	55.172
842.48	52.381
842.78	50.000
843.08	69.565
843.38	59.375
843.68	66.667
843.97	46.154
844.27	51.724
844.57	109.524
844.87	50.000
845.17	37.037
845.47	100.000
845.76	-11.111
846.06	41.176
846.36	-50.000
846.66	71.429
846.96	37.500
847.25	0.000
847.55	0.000
847.85	47.826
848.15	90.000
848.44	71.429
848.74	5.556
849.04	-5.882
849.34	100.000
849.63	31.579
849.93	36.364
850.23	240.000
850.53	100.000
850.82	400.000
851.12	-100.000
851.42	800.000
851.71	60.000
852.01	166.667
852.31	66.667
852.61	66.667
852.90	52.381
853.20	68.000
853.50	47.059
853.79	71.429
854.09	58.333
854.39	62.500
854.68	37.838
854.98	48.387
855.28	33.333
855.57	58.621
855.87	62.963
856.17	63.158
856.46	-13.333
856.76	17.647
857.05	27.586
857.35	45.833
857.65	33.333
857.94	69.565
858.24	73.077
858.53	55.000
858.83	68.182
859.13	100.000
859.42	0.000
859.72	111.111
860.01	63.636
860.31	72.727
860.60	89.474
860.90	52.174
861.20	55.556
861.49	175.000
861.79	-500.000
862.08	75.000
862.38	85.714
862.67	30.769
862.97	70.588
863.26	88.889
863.56	100.000
863.85	41.667
864.15	137.500
864.44	66.667
864.74	33.333
865.03	112.500
865.33	78.947
865.62	136.364
865.92	76.923
866.21	83.333
866.51	0.000
866.80	109.091
867.10	360.000
867.39	84.615
867.69	0.000
867.98	63.158
868.27	81.818
868.57	121.053
868.86	-100.000
869.16	62.500
869.45	200.000
869.75	-600.000
870.04	33.333
870.33	100.000
870.63	225.000
870.92	500.000
871.22	128.571
871.51	129.412
871.80	71.429
872.10	50.000
>>>>>End Processed Spectral Data<<<<<
