SpectraSuite Data File
++++++++++++++++++++++++++++++++++++
Date: Wed May 13 16:46:48 PDT 2015
User: schluterlab
Dark Spectrum Present: Yes
Reference Spectrum Present: Yes
Number of Sampled Component Spectra: 1
Spectrometers: USB2E3373
Integration Time (usec): 3000 (USB2E3373)
Spectra Averaged: 3 (USB2E3373)
Boxcar Smoothing: 0 (USB2E3373)
Correct for Electrical Dark: No (USB2E3373)
Strobe/Lamp Enabled: No (USB2E3373)
Correct for Detector Non-linearity: No (USB2E3373)
Correct for Stray Light: No (USB2E3373)
Number of Pixels in Processed Spectrum: 2048
>>>>>Begin Processed Spectral Data<<<<<
178.53	0.000
178.91	-1100.000
179.29	-1375.000
179.67	-244.444
180.04	-1350.000
180.42	2550.000
180.80	880.000
181.18	-975.000
181.56	671.429
181.94	0.000
182.31	-571.429
182.69	1500.000
183.07	-512.500
183.45	-588.889
183.83	472.727
184.20	-420.000
184.58	2250.000
184.96	5400.000
185.34	-760.000
185.72	-600.000
186.09	-2200.000
186.47	2500.000
186.85	2550.000
187.23	4900.000
187.61	-1533.333
187.98	1300.000
188.36	418.182
188.74	590.909
189.12	-760.000
189.49	550.000
189.87	-4900.000
190.25	-975.000
190.63	385.714
191.00	446.154
191.38	700.000
191.76	-925.000
192.14	1375.000
192.51	600.000
192.89	883.333
193.27	550.000
193.65	-925.000
194.02	490.000
194.40	880.000
194.78	460.000
195.15	533.333
195.53	570.000
195.91	-1900.000
196.29	325.000
196.66	257.895
197.04	-330.000
197.42	0.000
197.79	540.000
198.17	-3900.000
198.55	671.429
198.92	625.000
199.30	880.000
199.68	0.000
200.05	305.556
200.43	728.571
200.81	2700.000
201.18	1433.333
201.56	-1433.333
201.94	633.333
202.31	522.222
202.69	466.667
203.07	410.000
203.44	0.000
203.82	1175.000
204.19	714.286
204.57	414.286
204.95	712.500
205.32	1233.333
205.70	527.273
206.08	314.286
206.45	2550.000
206.83	375.000
207.20	866.667
207.58	820.000
207.96	294.444
208.33	625.000
208.71	-600.000
209.08	728.571
209.46	544.444
209.84	409.091
210.21	-1133.333
210.59	1250.000
210.96	-462.500
211.34	2800.000
211.71	450.000
212.09	616.667
212.46	0.000
212.84	1533.333
213.22	1200.000
213.59	-5400.000
213.97	800.000
214.34	628.571
214.72	490.909
215.09	940.000
215.47	-2050.000
215.84	-2400.000
216.22	1666.667
216.59	364.286
216.97	1325.000
217.34	481.818
217.72	-683.333
218.09	0.000
218.47	-4900.000
218.84	544.444
219.22	614.286
219.59	1733.333
219.97	-657.143
220.34	1000.000
220.72	-1800.000
221.09	442.857
221.47	1300.000
221.84	-783.333
222.22	0.000
222.59	1275.000
222.97	-2900.000
223.34	1000.000
223.72	376.923
224.09	840.000
224.46	1900.000
224.84	-4300.000
225.21	-1040.000
225.59	-4000.000
225.96	490.000
226.34	250.000
226.71	3000.000
227.08	687.500
227.46	500.000
227.83	-950.000
228.21	-1900.000
228.58	633.333
228.95	-1900.000
229.33	-2000.000
229.70	1666.667
230.08	685.714
230.45	-660.000
230.82	416.667
231.20	900.000
231.57	742.857
231.95	458.333
232.32	227.273
232.69	345.455
233.07	628.571
233.44	253.846
233.81	-1666.667
234.19	310.526
234.56	425.000
234.93	358.333
235.31	390.909
235.68	307.692
236.05	307.143
236.43	178.788
236.80	231.579
237.17	3800.000
237.55	214.286
237.92	167.857
238.29	209.524
238.67	158.065
239.04	186.207
239.41	130.556
239.79	115.217
240.16	116.667
240.53	97.727
240.91	78.431
241.28	92.000
241.65	84.000
242.02	95.652
242.40	79.032
242.77	76.667
243.14	65.591
243.51	71.910
243.89	57.647
244.26	60.000
244.63	54.839
245.00	43.617
245.38	55.446
245.75	43.925
246.12	38.532
246.49	50.365
246.87	48.000
247.24	51.538
247.61	37.143
247.98	42.484
248.36	38.514
248.73	35.669
249.10	37.580
249.47	34.463
249.84	33.155
250.22	34.759
250.59	34.911
250.96	28.788
251.33	32.701
251.70	29.208
252.08	30.952
252.45	26.457
252.82	28.261
253.19	27.660
253.56	31.373
253.94	27.386
254.31	28.125
254.68	28.846
255.05	25.830
255.42	21.545
255.79	21.691
256.16	22.744
256.54	20.848
256.91	23.488
257.28	18.345
257.65	24.092
258.02	23.292
258.39	20.820
258.76	17.726
259.14	23.214
259.51	18.237
259.88	18.944
260.25	21.752
260.62	19.653
260.99	22.360
261.36	19.520
261.73	18.911
262.10	17.442
262.47	20.845
262.85	18.663
263.22	14.815
263.59	21.083
263.96	18.956
264.33	19.060
264.70	18.158
265.07	18.414
265.44	18.687
265.81	12.652
266.18	20.352
266.55	18.780
266.92	16.216
267.29	19.444
267.66	16.972
268.03	19.318
268.40	16.121
268.77	16.468
269.14	16.441
269.51	17.607
269.88	16.783
270.25	17.833
270.62	19.101
270.99	20.215
271.36	16.953
271.73	15.888
272.10	15.000
272.47	15.699
272.84	16.450
273.21	16.562
273.58	13.100
273.95	15.094
274.32	16.942
274.69	14.347
275.06	12.795
275.43	15.319
275.80	16.633
276.17	14.257
276.54	14.761
276.91	15.217
277.28	14.062
277.65	14.894
278.02	13.665
278.39	18.164
278.76	15.455
279.13	15.660
279.50	16.574
279.87	17.131
280.23	13.373
280.60	13.153
280.97	15.157
281.34	16.460
281.71	15.455
282.08	14.395
282.45	14.727
282.82	14.210
283.19	13.547
283.56	13.333
283.92	14.721
284.29	13.404
284.66	14.882
285.03	14.286
285.40	13.556
285.77	12.795
286.14	14.335
286.51	15.000
286.87	13.675
287.24	12.866
287.61	12.039
287.98	15.260
288.35	14.105
288.72	12.150
289.08	13.615
289.45	10.544
289.82	12.683
290.19	11.146
290.56	11.792
290.93	11.480
291.29	12.577
291.66	12.242
292.03	14.535
292.40	13.216
292.77	12.130
293.13	13.134
293.50	12.682
293.87	12.444
294.24	11.852
294.60	11.063
294.97	12.791
295.34	13.963
295.71	14.773
296.08	10.969
296.44	11.004
296.81	12.417
297.18	11.247
297.55	10.554
297.91	12.797
298.28	11.111
298.65	13.577
299.02	11.594
299.38	10.624
299.75	10.377
300.12	11.494
300.48	11.250
300.85	11.591
301.22	10.701
301.59	10.101
301.95	11.587
302.32	11.168
302.69	11.589
303.05	11.152
303.42	11.728
303.79	12.005
304.15	10.140
304.52	10.313
304.89	9.408
305.25	10.789
305.62	11.665
305.99	12.397
306.35	12.528
306.72	11.323
307.09	12.320
307.45	12.162
307.82	11.049
308.19	12.252
308.55	12.082
308.92	11.708
309.29	11.616
309.65	10.817
310.02	10.888
310.38	12.043
310.75	12.355
311.12	11.771
311.48	11.703
311.85	12.055
312.22	11.967
312.58	11.850
312.95	12.038
313.31	10.194
313.68	11.954
314.05	12.919
314.41	11.357
314.78	11.480
315.14	12.214
315.51	11.432
315.87	11.782
316.24	11.221
316.61	11.891
316.97	11.252
317.34	10.763
317.70	12.333
318.07	11.742
318.43	12.231
318.80	12.277
319.16	12.429
319.53	11.257
319.89	12.381
320.26	12.000
320.62	13.194
320.99	11.717
321.35	11.313
321.72	12.115
322.08	13.425
322.45	13.532
322.81	12.500
323.18	13.198
323.54	12.059
323.91	12.736
324.27	12.333
324.64	11.370
325.00	10.460
325.37	12.375
325.73	12.388
326.10	11.827
326.46	11.470
326.83	11.734
327.19	12.639
327.56	11.847
327.92	11.724
328.29	13.221
328.65	12.063
329.01	11.282
329.38	11.841
329.74	12.004
330.11	12.064
330.47	11.111
330.84	12.776
331.20	12.113
331.56	12.752
331.93	11.852
332.29	11.446
332.66	10.708
333.02	12.340
333.38	11.472
333.75	11.676
334.11	11.388
334.48	11.269
334.84	11.213
335.20	11.273
335.57	11.967
335.93	10.000
336.29	11.264
336.66	10.821
337.02	11.222
337.38	11.759
337.75	10.963
338.11	11.012
338.47	10.221
338.84	10.907
339.20	10.275
339.56	11.770
339.93	11.000
340.29	10.417
340.65	10.695
341.02	11.606
341.38	11.833
341.74	10.351
342.11	12.227
342.47	10.837
342.83	11.387
343.20	10.909
343.56	10.615
343.92	10.526
344.28	11.224
344.65	10.576
345.01	10.017
345.37	10.549
345.73	11.421
346.10	11.168
346.46	11.780
346.82	10.708
347.19	9.942
347.55	10.345
347.91	10.841
348.27	10.435
348.63	10.786
349.00	10.599
349.36	9.852
349.72	10.505
350.08	10.616
350.45	10.903
350.81	10.642
351.17	11.102
351.53	9.910
351.89	9.653
352.26	11.602
352.62	10.425
352.98	10.616
353.34	9.696
353.70	9.083
354.07	10.806
354.43	10.873
354.79	10.298
355.15	9.577
355.51	10.152
355.87	10.857
356.24	10.668
356.60	9.864
356.96	9.895
357.32	9.403
357.68	10.236
358.04	10.293
358.40	10.926
358.77	10.563
359.13	9.787
359.49	9.569
359.85	9.127
360.21	9.011
360.57	10.117
360.93	9.308
361.29	9.751
361.66	9.520
362.02	10.000
362.38	9.886
362.74	10.417
363.10	8.734
363.46	9.098
363.82	8.995
364.18	9.838
364.54	10.921
364.90	10.482
365.26	9.779
365.62	9.934
365.98	9.642
366.35	9.169
366.71	9.978
367.07	10.269
367.43	9.797
367.79	10.707
368.15	10.201
368.51	9.448
368.87	10.707
369.23	9.290
369.59	10.138
369.95	9.118
370.31	10.043
370.67	9.638
371.03	10.936
371.39	9.840
371.75	9.632
372.11	10.242
372.47	9.824
372.83	10.231
373.19	9.465
373.55	10.200
373.91	10.309
374.27	9.759
374.63	9.382
374.99	10.099
375.35	8.793
375.71	10.212
376.07	10.631
376.42	10.041
376.78	10.338
377.14	9.566
377.50	10.662
377.86	9.375
378.22	10.303
378.58	8.960
378.94	9.805
379.30	9.478
379.66	9.772
380.02	9.582
380.38	10.140
380.74	10.204
381.09	10.269
381.45	10.018
381.81	10.012
382.17	9.936
382.53	9.308
382.89	10.617
383.25	9.944
383.61	10.099
383.97	10.381
384.32	10.979
384.68	9.170
385.04	9.465
385.40	10.402
385.76	10.258
386.12	9.715
386.48	9.566
386.83	10.071
387.19	10.946
387.55	9.895
387.91	9.553
388.27	9.687
388.62	10.510
388.98	9.275
389.34	10.763
389.70	10.239
390.06	11.280
390.42	9.922
390.77	10.369
391.13	9.828
391.49	10.850
391.85	9.803
392.20	8.896
392.56	10.038
392.92	10.477
393.28	8.817
393.64	10.432
393.99	10.079
394.35	10.174
394.71	10.100
395.07	10.717
395.42	10.012
395.78	9.669
396.14	10.242
396.50	10.401
396.85	9.981
397.21	9.618
397.57	9.919
397.92	9.555
398.28	9.978
398.64	10.275
399.00	9.569
399.35	9.137
399.71	9.606
400.07	9.344
400.42	10.491
400.78	10.253
401.14	9.268
401.49	9.493
401.85	9.437
402.21	9.701
402.57	9.562
402.92	9.962
403.28	9.494
403.63	9.220
403.99	9.490
404.35	10.121
404.70	9.353
405.06	8.911
405.42	9.669
405.77	8.971
406.13	8.916
406.49	9.639
406.84	8.978
407.20	8.274
407.55	9.828
407.91	9.667
408.27	8.488
408.62	10.114
408.98	8.517
409.34	9.410
409.69	9.677
410.05	9.418
410.40	9.174
410.76	8.423
411.11	9.288
411.47	9.137
411.83	9.469
412.18	8.287
412.54	9.527
412.89	9.458
413.25	8.323
413.60	8.771
413.96	8.440
414.31	9.174
414.67	9.823
415.03	8.940
415.38	9.278
415.74	9.196
416.09	9.079
416.45	9.371
416.80	8.724
417.16	9.718
417.51	9.489
417.87	8.927
418.22	9.590
418.58	9.748
418.93	9.214
419.29	9.166
419.64	9.887
420.00	9.268
420.35	9.333
420.71	9.444
421.06	8.950
421.42	9.532
421.77	9.809
422.12	8.591
422.48	7.987
422.83	8.794
423.19	9.669
423.54	9.286
423.90	9.623
424.25	9.213
424.61	8.929
424.96	9.329
425.31	9.635
425.67	8.539
426.02	8.800
426.38	9.768
426.73	9.011
427.09	9.605
427.44	9.258
427.79	8.971
428.15	9.345
428.50	9.011
428.85	10.012
429.21	9.111
429.56	9.176
429.92	8.505
430.27	8.491
430.62	8.346
430.98	8.978
431.33	9.794
431.68	8.953
432.04	9.638
432.39	9.195
432.74	8.797
433.10	9.621
433.45	8.455
433.80	8.370
434.16	9.669
434.51	9.632
434.86	9.293
435.22	9.061
435.57	8.997
435.92	9.187
436.28	9.549
436.63	10.099
436.98	9.616
437.34	9.123
437.69	9.860
438.04	9.162
438.39	8.896
438.75	10.285
439.10	9.721
439.45	9.150
439.81	9.426
440.16	9.147
440.51	9.197
440.86	9.438
441.22	9.622
441.57	9.554
441.92	9.212
442.27	9.580
442.63	9.742
442.98	9.690
443.33	9.402
443.68	8.467
444.03	9.370
444.39	9.104
444.74	9.416
445.09	9.542
445.44	8.967
445.79	8.906
446.15	9.899
446.50	9.101
446.85	8.890
447.20	9.485
447.55	8.878
447.91	9.653
448.26	9.182
448.61	9.045
448.96	10.078
449.31	9.393
449.66	9.510
450.02	9.471
450.37	9.354
450.72	9.306
451.07	9.385
451.42	8.936
451.77	10.100
452.12	10.104
452.47	10.137
452.83	9.382
453.18	9.658
453.53	9.400
453.88	9.569
454.23	9.384
454.58	10.297
454.93	10.235
455.28	8.978
455.63	9.284
455.98	10.536
456.34	9.171
456.69	10.269
457.04	9.536
457.39	9.234
457.74	9.692
458.09	9.431
458.44	9.863
458.79	9.165
459.14	9.763
459.49	9.691
459.84	9.474
460.19	9.134
460.54	9.201
460.89	9.216
461.24	9.593
461.59	9.820
461.94	9.063
462.29	9.555
462.64	9.509
462.99	8.913
463.34	10.600
463.69	9.756
464.04	9.217
464.39	9.971
464.74	9.745
465.09	9.288
465.44	8.809
465.79	8.893
466.14	8.922
466.49	9.344
466.84	9.749
467.19	9.656
467.54	10.000
467.89	9.064
468.24	9.308
468.59	10.440
468.94	9.102
469.29	9.383
469.64	10.509
469.99	10.014
470.34	9.115
470.68	10.273
471.03	9.388
471.38	10.146
471.73	10.260
472.08	9.868
472.43	9.296
472.78	9.151
473.13	9.949
473.48	10.300
473.83	9.512
474.17	8.899
474.52	10.236
474.87	9.982
475.22	9.286
475.57	9.135
475.92	8.975
476.27	9.583
476.61	9.542
476.96	8.851
477.31	8.791
477.66	9.737
478.01	8.730
478.36	9.466
478.70	8.619
479.05	8.733
479.40	9.724
479.75	9.100
480.10	8.698
480.45	8.710
480.79	8.552
481.14	8.953
481.49	8.448
481.84	8.642
482.19	9.041
482.53	8.899
482.88	8.888
483.23	8.832
483.58	9.099
483.92	8.529
484.27	8.017
484.62	8.578
484.97	8.435
485.31	8.356
485.66	7.793
486.01	7.111
486.36	6.945
486.70	6.918
487.05	7.149
487.40	7.635
487.75	7.749
488.09	8.159
488.44	8.072
488.79	8.788
489.13	8.403
489.48	8.564
489.83	8.330
490.17	8.724
490.52	8.459
490.87	8.503
491.22	8.822
491.56	7.927
491.91	8.562
492.26	8.222
492.60	8.433
492.95	8.700
493.30	8.692
493.64	8.493
493.99	8.357
494.34	8.834
494.68	8.929
495.03	8.976
495.37	8.516
495.72	8.821
496.07	9.095
496.41	8.363
496.76	8.355
497.11	8.870
497.45	8.989
497.80	8.781
498.14	9.227
498.49	8.634
498.84	8.917
499.18	8.762
499.53	8.405
499.87	8.481
500.22	8.526
500.56	9.369
500.91	8.413
501.26	8.061
501.60	9.065
501.95	8.158
502.29	8.669
502.64	8.752
502.98	8.509
503.33	8.272
503.67	8.770
504.02	8.606
504.36	8.329
504.71	8.842
505.06	8.771
505.40	8.508
505.75	8.872
506.09	8.649
506.44	8.781
506.78	8.719
507.13	8.380
507.47	9.293
507.82	9.169
508.16	9.372
508.51	9.132
508.85	8.739
509.19	8.214
509.54	8.418
509.88	8.758
510.23	8.792
510.57	9.804
510.92	9.011
511.26	8.428
511.61	8.921
511.95	8.977
512.30	8.324
512.64	9.242
512.98	9.218
513.33	8.672
513.67	9.018
514.02	8.766
514.36	8.247
514.70	8.578
515.05	9.035
515.39	8.805
515.74	9.572
516.08	9.279
516.42	9.212
516.77	10.033
517.11	9.046
517.46	8.916
517.80	9.059
518.14	7.875
518.49	9.218
518.83	9.375
519.17	9.411
519.52	9.111
519.86	9.355
520.20	9.480
520.55	9.755
520.89	9.611
521.23	9.650
521.58	9.964
521.92	9.492
522.26	9.457
522.61	9.346
522.95	8.656
523.29	8.521
523.64	9.512
523.98	9.119
524.32	8.866
524.66	9.441
525.01	10.049
525.35	9.665
525.69	9.544
526.04	9.470
526.38	9.579
526.72	10.184
527.06	9.730
527.41	8.911
527.75	9.196
528.09	9.570
528.43	10.261
528.78	9.465
529.12	9.394
529.46	9.798
529.80	9.220
530.15	10.467
530.49	8.985
530.83	9.810
531.17	9.856
531.51	9.728
531.86	9.613
532.20	10.626
532.54	10.122
532.88	9.628
533.22	9.369
533.57	9.568
533.91	8.910
534.25	8.991
534.59	9.762
534.93	8.745
535.27	9.415
535.62	8.669
535.96	9.165
536.30	8.964
536.64	9.144
536.98	10.617
537.32	9.085
537.66	9.867
538.01	9.546
538.35	10.019
538.69	9.828
539.03	9.487
539.37	8.307
539.71	8.749
540.05	9.542
540.39	9.435
540.73	9.767
541.07	10.383
541.42	10.307
541.76	9.677
542.10	10.220
542.44	8.940
542.78	10.145
543.12	9.469
543.46	9.639
543.80	9.694
544.14	9.050
544.48	9.587
544.82	8.916
545.16	8.653
545.50	9.126
545.84	8.938
546.18	9.832
546.52	9.360
546.86	9.072
547.20	10.317
547.54	10.354
547.88	9.885
548.22	9.153
548.56	9.371
548.90	9.091
549.24	9.562
549.58	9.891
549.92	9.272
550.26	9.943
550.60	9.751
550.94	9.014
551.28	9.071
551.62	9.561
551.96	9.684
552.30	10.034
552.64	10.074
552.98	10.305
553.32	10.047
553.66	10.361
554.00	10.364
554.34	9.386
554.68	10.873
555.02	10.155
555.36	10.090
555.69	9.675
556.03	10.162
556.37	10.437
556.71	9.072
557.05	9.874
557.39	9.727
557.73	10.374
558.07	9.862
558.41	9.696
558.75	9.405
559.08	10.365
559.42	9.751
559.76	10.000
560.10	9.422
560.44	10.203
560.78	9.315
561.12	9.367
561.45	10.235
561.79	9.229
562.13	9.524
562.47	9.973
562.81	9.414
563.15	9.164
563.48	10.743
563.82	9.589
564.16	9.156
564.50	9.180
564.84	9.798
565.17	8.623
565.51	9.393
565.85	10.279
566.19	8.704
566.52	9.500
566.86	9.705
567.20	9.080
567.54	8.847
567.88	8.745
568.21	9.471
568.55	9.201
568.89	8.512
569.23	7.977
569.56	8.543
569.90	8.302
570.24	7.858
570.57	7.718
570.91	7.725
571.25	7.443
571.59	7.982
571.92	7.575
572.26	7.539
572.60	8.078
572.93	7.466
573.27	7.867
573.61	7.789
573.95	7.519
574.28	7.538
574.62	7.313
574.96	6.977
575.29	7.153
575.63	7.698
575.97	7.055
576.30	7.780
576.64	7.177
576.98	7.171
577.31	7.394
577.65	7.318
577.98	6.976
578.32	7.069
578.66	7.170
578.99	7.624
579.33	7.311
579.67	7.443
580.00	7.480
580.34	7.546
580.67	7.800
581.01	7.781
581.35	7.241
581.68	7.086
582.02	7.172
582.35	6.854
582.69	7.372
583.02	7.094
583.36	7.448
583.70	7.542
584.03	7.315
584.37	8.090
584.70	7.628
585.04	7.632
585.37	7.572
585.71	7.589
586.04	7.659
586.38	7.889
586.72	7.954
587.05	7.362
587.39	7.441
587.72	7.885
588.06	7.391
588.39	7.846
588.73	7.979
589.06	8.133
589.40	8.182
589.73	8.025
590.07	8.470
590.40	8.111
590.73	8.275
591.07	8.995
591.40	8.730
591.74	8.918
592.07	8.246
592.41	8.309
592.74	8.127
593.08	8.061
593.41	8.383
593.75	7.558
594.08	8.079
594.41	8.342
594.75	8.207
595.08	8.304
595.42	8.301
595.75	8.298
596.09	8.487
596.42	8.802
596.75	8.611
597.09	9.307
597.42	8.474
597.75	8.279
598.09	8.870
598.42	8.849
598.76	7.945
599.09	7.830
599.42	7.787
599.76	8.455
600.09	7.942
600.42	8.400
600.76	7.929
601.09	8.051
601.42	7.915
601.76	8.539
602.09	8.142
602.42	8.599
602.76	8.867
603.09	8.812
603.42	8.981
603.76	8.613
604.09	8.143
604.42	8.683
604.76	8.477
605.09	8.825
605.42	8.764
605.75	8.113
606.09	8.499
606.42	8.214
606.75	8.959
607.09	9.000
607.42	8.601
607.75	8.143
608.08	9.205
608.42	9.368
608.75	8.656
609.08	8.511
609.41	8.805
609.75	8.433
610.08	8.812
610.41	8.473
610.74	8.609
611.07	8.893
611.41	8.783
611.74	9.050
612.07	9.058
612.40	9.706
612.73	9.263
613.07	9.213
613.40	9.637
613.73	8.652
614.06	9.140
614.39	9.334
614.72	9.579
615.06	9.664
615.39	8.811
615.72	8.947
616.05	8.878
616.38	9.394
616.71	9.442
617.05	10.247
617.38	9.020
617.71	9.369
618.04	9.856
618.37	9.166
618.70	9.521
619.03	9.737
619.36	10.319
619.69	10.211
620.03	10.646
620.36	10.695
620.69	10.000
621.02	10.546
621.35	10.023
621.68	9.190
622.01	10.913
622.34	10.590
622.67	10.038
623.00	9.611
623.33	9.435
623.66	9.864
623.99	9.426
624.32	9.629
624.65	10.028
624.99	9.986
625.32	9.920
625.65	10.443
625.98	10.761
626.31	10.264
626.64	10.367
626.97	10.806
627.30	10.224
627.63	11.321
627.96	10.093
628.29	10.936
628.62	11.985
628.95	12.264
629.28	11.314
629.61	12.007
629.94	12.095
630.26	10.486
630.59	12.297
630.92	11.207
631.25	11.155
631.58	12.112
631.91	10.548
632.24	11.076
632.57	11.857
632.90	12.061
633.23	12.192
633.56	12.316
633.89	11.438
634.22	13.167
634.55	13.018
634.88	12.216
635.20	14.934
635.53	13.133
635.86	11.757
636.19	11.765
636.52	12.687
636.85	12.371
637.18	13.249
637.51	12.175
637.83	9.494
638.16	12.660
638.49	11.965
638.82	12.516
639.15	12.500
639.48	14.838
639.81	13.941
640.13	13.932
640.46	13.960
640.79	13.474
641.12	12.105
641.45	11.872
641.77	13.255
642.10	12.865
642.43	12.312
642.76	13.313
643.09	13.497
643.41	14.112
643.74	15.123
644.07	14.024
644.40	16.104
644.73	16.063
645.05	15.372
645.38	14.534
645.71	15.620
646.04	14.286
646.36	16.361
646.69	14.381
647.02	15.816
647.35	15.464
647.67	14.690
648.00	16.098
648.33	15.842
648.66	12.424
648.98	15.742
649.31	13.004
649.64	15.546
649.96	14.456
650.29	14.850
650.62	14.239
650.94	16.532
651.27	14.865
651.60	16.140
651.92	15.655
652.25	13.029
652.58	15.421
652.90	14.850
653.23	13.405
653.56	14.331
653.88	16.323
654.21	15.482
654.54	13.531
654.86	14.330
655.19	11.622
655.52	8.069
655.84	6.086
656.17	7.464
656.49	10.267
656.82	10.457
657.15	8.463
657.47	6.229
657.80	4.979
658.13	5.454
658.45	8.435
658.78	8.785
659.10	9.382
659.43	9.598
659.75	10.898
660.08	11.329
660.41	13.222
660.73	15.502
661.06	15.446
661.38	18.182
661.71	16.731
662.03	18.343
662.36	13.519
662.68	17.068
663.01	14.141
663.33	15.499
663.66	14.286
663.98	17.927
664.31	14.076
664.63	14.372
664.96	14.286
665.28	15.984
665.61	15.205
665.93	16.097
666.26	16.227
666.58	16.946
666.91	17.970
667.23	17.978
667.56	17.279
667.88	16.239
668.21	15.565
668.53	17.787
668.86	17.100
669.18	18.763
669.50	19.565
669.83	19.390
670.15	18.889
670.48	16.122
670.80	19.612
671.13	17.834
671.45	15.957
671.77	17.719
672.10	17.006
672.42	14.311
672.75	15.091
673.07	14.613
673.39	11.754
673.72	14.062
674.04	16.275
674.37	15.728
674.69	14.315
675.01	14.854
675.34	19.097
675.66	18.105
675.98	15.071
676.31	16.387
676.63	15.924
676.95	15.304
677.28	14.720
677.60	16.484
677.92	18.565
678.25	15.811
678.57	15.936
678.89	16.633
679.22	17.485
679.54	14.695
679.86	16.147
680.18	16.816
680.51	15.248
680.83	15.658
681.15	15.094
681.48	17.769
681.80	13.733
682.12	13.793
682.44	14.313
682.77	16.701
683.09	19.528
683.41	17.073
683.73	17.219
684.06	16.322
684.38	16.634
684.70	14.729
685.02	16.135
685.34	17.033
685.67	13.811
685.99	13.230
686.31	15.017
686.63	13.781
686.96	15.000
687.28	14.079
687.60	15.942
687.92	16.088
688.24	15.970
688.56	15.462
688.89	18.465
689.21	16.376
689.53	16.075
689.85	15.743
690.17	15.942
690.49	19.321
690.82	17.290
691.14	14.509
691.46	16.034
691.78	18.474
692.10	18.595
692.42	17.365
692.74	14.938
693.06	17.021
693.39	19.507
693.71	17.467
694.03	16.842
694.35	16.667
694.67	16.018
694.99	17.317
695.31	17.892
695.63	17.225
695.95	16.626
696.27	16.244
696.59	16.062
696.91	19.948
697.23	13.380
697.56	17.058
697.88	14.928
698.20	13.750
698.52	16.129
698.84	17.149
699.16	14.516
699.48	18.527
699.80	17.874
700.12	21.818
700.44	20.690
700.76	20.718
701.08	18.966
701.40	18.156
701.72	25.073
702.04	26.989
702.36	18.414
702.68	17.847
703.00	18.837
703.32	19.415
703.64	20.375
703.96	21.448
704.28	17.151
704.60	21.701
704.91	19.585
705.23	21.408
705.55	21.595
705.87	24.585
706.19	22.968
706.51	21.807
706.83	23.030
707.15	22.409
707.47	16.414
707.79	21.376
708.11	18.721
708.43	19.286
708.74	17.602
709.06	20.260
709.38	21.260
709.70	22.384
710.02	23.145
710.34	19.394
710.66	22.090
710.98	21.591
711.29	20.930
711.61	23.599
711.93	17.628
712.25	23.151
712.57	22.794
712.89	25.260
713.20	20.669
713.52	21.711
713.84	18.354
714.16	20.427
714.48	20.402
714.80	20.365
715.11	22.767
715.43	19.881
715.75	20.290
716.07	19.808
716.39	21.630
716.70	21.595
717.02	22.302
717.34	23.322
717.66	27.239
717.97	25.896
718.29	25.556
718.61	25.182
718.93	21.691
719.24	23.875
719.56	23.390
719.88	26.780
720.20	26.014
720.51	24.390
720.83	25.651
721.15	25.746
721.46	24.468
721.78	21.147
722.10	28.302
722.42	18.797
722.73	26.217
723.05	23.770
723.37	23.482
723.68	24.324
724.00	27.236
724.32	25.000
724.63	23.984
724.95	21.339
725.27	28.340
725.58	23.828
725.90	25.182
726.22	22.264
726.53	21.875
726.85	23.549
727.16	24.911
727.48	24.113
727.80	25.758
728.11	27.536
728.43	21.154
728.74	28.315
729.06	28.102
729.38	27.574
729.69	22.420
730.01	23.208
730.32	22.222
730.64	22.408
730.96	21.782
731.27	25.497
731.59	21.713
731.90	21.574
732.22	22.671
732.53	21.672
732.85	22.436
733.16	21.865
733.48	21.595
733.80	23.052
734.11	24.204
734.43	20.414
734.74	21.714
735.06	19.771
735.37	23.121
735.69	19.108
736.00	24.510
736.32	19.315
736.63	20.128
736.95	22.045
737.26	19.388
737.58	20.968
737.89	25.753
738.21	24.915
738.52	24.286
738.83	22.642
739.15	21.538
739.46	24.818
739.78	21.875
740.09	23.692
740.41	23.548
740.72	21.254
741.04	24.444
741.35	29.167
741.66	28.889
741.98	30.660
742.29	31.100
742.61	31.466
742.92	22.624
743.23	26.923
743.55	28.800
743.86	26.316
744.18	30.531
744.49	32.536
744.80	31.925
745.12	34.091
745.43	29.515
745.74	34.685
746.06	33.486
746.37	27.354
746.68	33.032
747.00	34.259
747.31	30.476
747.62	22.566
747.94	29.956
748.25	29.362
748.56	31.718
748.88	29.208
749.19	34.500
749.50	30.233
749.82	26.016
750.13	26.122
750.44	22.628
750.75	28.772
751.07	29.260
751.38	21.951
751.69	22.744
752.01	24.812
752.32	25.271
752.63	24.468
752.94	27.459
753.26	30.000
753.57	26.423
753.88	23.437
754.19	24.643
754.51	29.861
754.82	23.105
755.13	27.925
755.44	27.444
755.75	25.912
756.07	21.631
756.38	18.978
756.69	26.174
757.00	20.958
757.31	20.475
757.63	22.515
757.94	19.839
758.25	21.078
758.56	16.790
758.87	17.473
759.18	21.515
759.50	23.197
759.81	22.118
760.12	23.750
760.43	23.209
760.74	18.750
761.05	22.316
761.36	19.786
761.67	23.580
761.99	19.876
762.30	22.569
762.61	22.137
762.92	27.734
763.23	29.412
763.54	30.400
763.85	27.344
764.16	26.538
764.47	25.095
764.78	24.735
765.10	20.886
765.41	20.944
765.72	22.455
766.03	22.884
766.34	22.000
766.65	27.234
766.96	29.487
767.27	36.041
767.58	35.938
767.89	34.211
768.20	32.759
768.51	33.503
768.82	36.239
769.13	25.203
769.44	25.506
769.75	26.180
770.06	22.936
770.37	28.507
770.68	35.648
770.99	26.222
771.30	23.361
771.61	28.700
771.92	27.049
772.23	32.353
772.54	30.769
772.85	35.079
773.16	34.574
773.47	40.761
773.78	38.579
774.09	35.714
774.39	41.520
774.70	30.247
775.01	36.957
775.32	44.444
775.63	42.105
775.94	41.007
776.25	45.669
776.56	44.776
776.87	53.279
777.18	41.406
777.48	45.802
777.79	43.939
778.10	46.667
778.41	49.107
778.72	36.496
779.03	44.295
779.34	36.242
779.65	39.189
779.95	36.810
780.26	35.948
780.57	44.828
780.88	52.344
781.19	41.353
781.50	45.270
781.80	38.994
782.11	32.203
782.42	35.443
782.73	30.675
783.04	41.892
783.34	41.549
783.65	47.260
783.96	45.522
784.27	47.552
784.57	35.971
784.88	37.037
785.19	52.381
785.50	52.830
785.81	46.269
786.11	47.541
786.42	50.388
786.73	39.823
787.04	53.774
787.34	46.429
787.65	65.000
787.96	45.946
788.26	47.107
788.57	48.305
788.88	55.372
789.19	40.278
789.49	42.424
789.80	45.802
790.11	54.286
790.41	59.406
790.72	68.675
791.03	57.609
791.33	62.791
791.64	59.794
791.95	58.416
792.25	68.889
792.56	72.727
792.87	75.641
793.17	91.139
793.48	58.621
793.79	55.172
794.09	54.545
794.40	50.420
794.70	44.118
795.01	48.889
795.32	45.324
795.62	45.669
795.93	49.138
796.23	47.788
796.54	69.412
796.85	59.459
797.15	74.648
797.46	68.182
797.76	75.904
798.07	60.759
798.37	70.769
798.68	72.727
798.99	63.380
799.29	75.325
799.60	54.545
799.90	78.082
800.21	92.537
800.51	74.138
800.82	105.263
801.12	72.131
801.43	89.394
801.73	67.568
802.04	79.365
802.34	72.840
802.65	84.375
802.95	101.695
803.26	98.438
803.56	67.143
803.87	83.077
804.17	77.941
804.48	114.815
804.78	91.379
805.09	75.000
805.39	86.538
805.70	100.000
806.00	95.082
806.30	81.818
806.61	65.854
806.91	74.684
807.22	69.737
807.52	68.657
807.83	71.831
808.13	90.625
808.43	88.333
808.74	69.737
809.04	88.406
809.35	89.552
809.65	78.947
809.95	96.774
810.26	110.169
810.56	100.000
810.86	127.273
811.17	126.190
811.47	103.333
811.77	75.926
812.08	96.364
812.38	126.000
812.69	144.444
812.99	113.636
813.29	116.327
813.59	100.000
813.90	130.612
814.20	98.182
814.50	76.923
814.81	76.471
815.11	110.204
815.41	95.082
815.72	126.190
816.02	103.636
816.32	128.571
816.62	122.500
816.93	117.073
817.23	145.238
817.53	120.455
817.84	154.545
818.14	106.522
818.44	115.556
818.74	176.471
819.04	130.000
819.35	134.286
819.65	176.471
819.95	192.857
820.25	210.000
820.56	138.462
820.86	136.364
821.16	130.233
821.46	115.385
821.76	134.000
822.07	162.857
822.37	125.000
822.67	154.545
822.97	103.922
823.27	150.000
823.57	143.243
823.88	152.500
824.18	153.333
824.48	128.571
824.78	196.000
825.08	162.500
825.38	137.838
825.69	131.707
825.99	204.167
826.29	148.276
826.59	165.789
826.89	128.947
827.19	129.412
827.49	206.452
827.79	134.091
828.09	120.455
828.39	97.872
828.70	122.449
829.00	151.852
829.30	164.516
829.60	147.500
829.90	306.667
830.20	185.714
830.50	178.261
830.80	200.000
831.10	200.000
831.40	193.333
831.70	173.913
832.00	242.308
832.30	185.185
832.60	362.500
832.90	170.000
833.20	357.143
833.50	148.387
833.80	158.621
834.10	200.000
834.40	173.077
834.70	233.333
835.00	280.952
835.30	148.571
835.60	346.154
835.90	189.655
836.20	350.000
836.50	189.655
836.80	180.000
837.10	188.889
837.40	238.095
837.70	282.353
838.00	192.593
838.30	228.571
838.60	261.905
838.90	200.000
839.19	270.000
839.49	392.857
839.79	270.000
840.09	240.000
840.39	252.381
840.69	239.130
840.99	288.889
841.29	520.000
841.59	241.667
841.88	300.000
842.18	179.310
842.48	195.238
842.78	196.667
843.08	226.087
843.38	162.500
843.68	733.333
843.97	188.462
844.27	217.241
844.57	295.238
844.87	356.250
845.17	214.815
845.47	1200.000
845.76	488.889
846.06	347.059
846.36	475.000
846.66	378.571
846.96	325.000
847.25	436.364
847.55	300.000
847.85	243.478
848.15	490.000
848.44	335.714
848.74	305.556
849.04	270.588
849.34	520.000
849.63	200.000
849.93	427.273
850.23	860.000
850.53	492.857
850.82	1950.000
851.12	-4000.000
851.42	4800.000
851.71	270.000
852.01	-1400.000
852.31	229.167
852.61	1700.000
852.90	242.857
853.20	216.000
853.50	311.765
853.79	300.000
854.09	245.833
854.39	306.250
854.68	156.757
854.98	203.226
855.28	170.000
855.57	179.310
855.87	207.407
856.17	236.842
856.46	273.333
856.76	317.647
857.05	206.897
857.35	200.000
857.65	273.333
857.94	239.130
858.24	215.385
858.53	265.000
858.83	254.545
859.13	393.333
859.42	0.000
859.72	544.444
860.01	427.273
860.31	227.273
860.60	315.789
860.90	213.043
861.20	444.444
861.49	458.333
861.79	-3300.000
862.08	525.000
862.38	252.381
862.67	330.769
862.97	270.588
863.26	511.111
863.56	283.333
863.85	391.667
864.15	562.500
864.44	346.667
864.74	733.333
865.03	812.500
865.33	278.947
865.62	427.273
865.92	392.308
866.21	341.667
866.51	0.000
866.80	436.364
867.10	1020.000
867.39	507.692
867.69	381.818
867.98	278.947
868.27	454.545
868.57	268.421
868.86	-3800.000
869.16	312.500
869.45	1800.000
869.75	-5100.000
870.04	333.333
870.33	514.286
870.63	1300.000
870.92	2350.000
871.22	685.714
871.51	305.882
871.80	219.048
872.10	335.714
>>>>>End Processed Spectral Data<<<<<
