SpectraSuite Data File
++++++++++++++++++++++++++++++++++++
Date: Wed May 13 16:29:36 PDT 2015
User: schluterlab
Dark Spectrum Present: Yes
Reference Spectrum Present: Yes
Number of Sampled Component Spectra: 1
Spectrometers: USB2E3373
Integration Time (usec): 3000 (USB2E3373)
Spectra Averaged: 3 (USB2E3373)
Boxcar Smoothing: 0 (USB2E3373)
Correct for Electrical Dark: No (USB2E3373)
Strobe/Lamp Enabled: No (USB2E3373)
Correct for Detector Non-linearity: No (USB2E3373)
Correct for Stray Light: No (USB2E3373)
Number of Pixels in Processed Spectrum: 2048
>>>>>Begin Processed Spectral Data<<<<<
178.53	0.000
178.91	-1250.000
179.29	-1250.000
179.67	-172.222
180.04	-775.000
180.42	2750.000
180.80	1000.000
181.18	-1225.000
181.56	671.429
181.94	0.000
182.31	-557.143
182.69	1533.333
183.07	-487.500
183.45	-377.778
183.83	490.909
184.20	-390.000
184.58	2050.000
184.96	4500.000
185.34	-780.000
185.72	-612.500
186.09	-1750.000
186.47	2100.000
186.85	2250.000
187.23	4400.000
187.61	-1666.667
187.98	1100.000
188.36	463.636
188.74	472.727
189.12	-780.000
189.49	510.000
189.87	-4500.000
190.25	-1250.000
190.63	385.714
191.00	384.615
191.38	700.000
191.76	-850.000
192.14	1200.000
192.51	487.500
192.89	1033.333
193.27	625.000
193.65	-1150.000
194.02	470.000
194.40	820.000
194.78	570.000
195.15	483.333
195.53	480.000
195.91	-2150.000
196.29	325.000
196.66	273.684
197.04	-290.000
197.42	0.000
197.79	500.000
198.17	-4500.000
198.55	714.286
198.92	625.000
199.30	880.000
199.68	0.000
200.05	355.556
200.43	700.000
200.81	4500.000
201.18	1400.000
201.56	-1700.000
201.94	466.667
202.31	533.333
202.69	408.333
203.07	500.000
203.44	0.000
203.82	1325.000
204.19	657.143
204.57	385.714
204.95	675.000
205.32	1600.000
205.70	500.000
206.08	357.143
206.45	2400.000
206.83	318.750
207.20	716.667
207.58	600.000
207.96	288.889
208.33	675.000
208.71	-883.333
209.08	814.286
209.46	533.333
209.84	436.364
210.21	-1200.000
210.59	1175.000
210.96	-437.500
211.34	2350.000
211.71	480.000
212.09	766.667
212.46	0.000
212.84	1633.333
213.22	1500.000
213.59	-3300.000
213.97	833.333
214.34	628.571
214.72	500.000
215.09	940.000
215.47	-2100.000
215.84	-2200.000
216.22	1800.000
216.59	321.429
216.97	1100.000
217.34	354.545
217.72	-683.333
218.09	0.000
218.47	-4300.000
218.84	544.444
219.22	571.429
219.59	1566.667
219.97	-471.429
220.34	780.000
220.72	-1700.000
221.09	392.857
221.47	1350.000
221.84	-966.667
222.22	0.000
222.59	1400.000
222.97	-2550.000
223.34	1000.000
223.72	430.769
224.09	840.000
224.46	1600.000
224.84	-4000.000
225.21	-1060.000
225.59	-4100.000
225.96	560.000
226.34	265.000
226.71	2550.000
227.08	550.000
227.46	500.000
227.83	-950.000
228.21	-2100.000
228.58	633.333
228.95	-1600.000
229.33	-2000.000
229.70	1433.333
230.08	600.000
230.45	-580.000
230.82	408.333
231.20	900.000
231.57	685.714
231.95	466.667
232.32	250.000
232.69	354.545
233.07	600.000
233.44	300.000
233.81	-1366.667
234.19	231.579
234.56	458.333
234.93	283.333
235.31	390.909
235.68	246.154
236.05	328.571
236.43	181.818
236.80	257.895
237.17	4400.000
237.55	195.238
237.92	132.143
238.29	157.143
238.67	138.710
239.04	162.069
239.41	111.111
239.79	93.478
240.16	85.714
240.53	125.000
240.91	98.039
241.28	92.000
241.65	96.000
242.02	76.812
242.40	75.806
242.77	58.333
243.14	63.441
243.51	67.416
243.89	64.706
244.26	47.778
244.63	51.613
245.00	45.745
245.38	42.574
245.75	34.579
246.12	40.367
246.49	51.095
246.87	48.800
247.24	39.231
247.61	37.143
247.98	32.680
248.36	34.459
248.73	32.484
249.10	35.032
249.47	37.288
249.84	34.225
250.22	32.086
250.59	34.320
250.96	30.808
251.33	32.701
251.70	31.683
252.08	26.667
252.45	24.664
252.82	26.957
253.19	27.234
253.56	24.314
253.94	29.461
254.31	26.953
254.68	24.615
255.05	26.937
255.42	23.984
255.79	26.471
256.16	20.939
256.54	20.848
256.91	23.843
257.28	18.705
257.65	22.442
258.02	24.224
258.39	20.189
258.76	19.064
259.14	23.512
259.51	21.581
259.88	19.255
260.25	18.731
260.62	18.786
260.99	19.255
261.36	23.724
261.73	16.332
262.10	21.512
262.47	20.000
262.85	21.170
263.22	17.664
263.59	21.652
263.96	17.857
264.33	18.277
264.70	19.737
265.07	20.716
265.44	17.424
265.81	17.032
266.18	18.090
266.55	18.049
266.92	19.902
267.29	18.750
267.66	16.743
268.03	16.136
268.40	16.121
268.77	15.274
269.14	15.766
269.51	18.059
269.88	19.580
270.25	16.027
270.62	17.079
270.99	18.495
271.36	16.953
271.73	17.056
272.10	15.870
272.47	18.065
272.84	19.264
273.21	16.771
273.58	14.192
273.95	14.885
274.32	14.876
274.69	16.060
275.06	14.370
275.43	13.404
275.80	16.032
276.17	14.257
276.54	17.048
276.91	14.625
277.28	10.938
277.65	15.861
278.02	12.836
278.39	16.797
278.76	15.636
279.13	16.226
279.50	15.642
279.87	14.542
280.23	13.573
280.60	14.700
280.97	14.233
281.34	13.628
281.71	17.818
282.08	14.779
282.45	12.000
282.82	14.387
283.19	13.191
283.56	14.912
283.92	15.567
284.29	14.286
284.66	12.886
285.03	10.850
285.40	13.732
285.77	13.131
286.14	14.162
286.51	13.833
286.87	15.043
287.24	13.681
287.61	13.323
287.98	13.799
288.35	12.995
288.72	13.863
289.08	14.085
289.45	12.685
289.82	13.171
290.19	10.204
290.56	11.945
290.93	12.236
291.29	11.196
291.66	12.094
292.03	14.099
292.40	14.244
292.77	11.243
293.13	11.343
293.50	11.516
293.87	11.556
294.24	10.074
294.60	10.917
294.97	12.355
295.34	13.681
295.71	12.642
296.08	11.254
296.44	10.591
296.81	10.964
297.18	12.602
297.55	7.652
297.91	11.082
298.28	11.245
298.65	10.966
299.02	10.935
299.38	10.624
299.75	8.895
300.12	10.473
300.48	10.625
300.85	10.727
301.22	9.936
301.59	10.606
301.95	10.579
302.32	9.628
302.69	10.753
303.05	10.303
303.42	10.988
303.79	9.853
304.15	8.974
304.52	8.111
304.89	8.595
305.25	9.513
305.62	10.419
305.99	10.744
306.35	10.067
306.72	9.753
307.09	8.213
307.45	11.036
307.82	9.375
308.19	10.265
308.55	10.032
308.92	9.667
309.29	9.609
309.65	9.544
310.02	9.619
310.38	9.462
310.75	9.609
311.12	9.826
311.48	8.673
311.85	10.692
312.22	9.677
312.58	8.836
312.95	9.820
313.31	9.223
313.68	10.083
314.05	11.144
314.41	11.055
314.78	9.164
315.14	9.037
315.51	9.990
315.87	11.089
316.24	10.924
316.61	10.234
316.97	10.372
317.34	9.687
317.70	10.994
318.07	11.742
318.43	10.274
318.80	11.246
319.16	11.676
319.53	12.289
319.89	12.000
320.26	12.000
320.62	12.798
320.99	12.727
321.35	12.525
321.72	13.450
322.08	13.129
322.45	15.622
322.81	13.178
323.18	13.391
323.54	14.100
323.91	13.679
324.27	13.862
324.64	13.514
325.00	14.067
325.37	14.650
325.73	15.171
326.10	15.799
326.46	15.681
326.83	15.617
327.19	15.713
327.56	15.331
327.92	16.273
328.29	16.415
328.65	16.206
329.01	16.697
329.38	15.911
329.74	16.713
330.11	14.892
330.47	17.355
330.84	17.739
331.20	16.393
331.56	17.156
331.93	16.574
332.29	17.569
332.66	18.496
333.02	18.007
333.38	18.338
333.75	17.825
334.11	17.438
334.48	17.835
334.84	17.004
335.20	18.545
335.57	17.316
335.93	17.321
336.29	17.125
336.66	19.206
337.02	17.376
337.38	18.056
337.75	17.825
338.11	17.726
338.47	18.048
338.84	18.607
339.20	17.706
339.56	18.613
339.93	18.545
340.29	17.663
340.65	18.627
341.02	19.372
341.38	17.705
341.74	17.895
342.11	18.777
342.47	17.533
342.83	18.493
343.20	18.701
343.56	18.787
343.92	18.947
344.28	19.048
344.65	19.261
345.01	17.929
345.37	17.581
345.73	18.866
346.10	18.926
346.46	19.831
346.82	18.287
347.19	18.212
347.55	18.473
347.91	19.094
348.27	19.228
348.63	18.896
349.00	17.799
349.36	19.622
349.72	19.888
350.08	17.747
350.45	18.959
350.81	18.034
351.17	19.611
351.53	17.854
351.89	18.317
352.26	19.653
352.62	19.647
352.98	18.720
353.34	19.063
353.70	17.921
354.07	19.516
354.43	19.048
354.79	18.665
355.15	17.877
355.51	19.345
355.87	20.082
356.24	19.300
356.60	18.284
356.96	19.147
357.32	19.542
357.68	19.685
358.04	18.369
358.40	19.398
358.77	19.249
359.13	19.021
359.49	20.235
359.85	19.048
360.21	19.458
360.57	19.689
360.93	20.000
361.29	20.484
361.66	19.814
362.02	19.478
362.38	19.392
362.74	20.238
363.10	18.579
363.46	19.149
363.82	19.577
364.18	19.604
364.54	20.654
364.90	19.759
365.26	19.632
365.62	19.942
365.98	18.919
366.35	19.699
366.71	21.330
367.07	19.883
367.43	20.900
367.79	19.058
368.15	20.474
368.51	20.276
368.87	20.842
369.23	20.410
369.59	19.841
369.95	19.926
370.31	20.299
370.67	20.580
371.03	21.273
371.39	21.137
371.75	20.662
372.11	20.982
372.47	21.774
372.83	21.542
373.19	20.737
373.55	20.621
373.91	23.711
374.27	21.168
374.63	20.800
374.99	22.316
375.35	20.796
375.71	21.110
376.07	22.016
376.42	21.802
376.78	22.929
377.14	21.845
377.50	22.252
377.86	21.543
378.22	22.882
378.58	22.619
378.94	22.124
379.30	22.265
379.66	23.668
380.02	22.973
380.38	22.283
380.74	23.169
381.09	23.594
381.45	23.725
381.81	24.079
382.17	23.567
382.53	23.585
382.89	24.259
383.25	23.702
383.61	24.597
383.97	24.015
384.32	25.078
384.68	23.668
385.04	24.585
385.40	24.954
385.76	24.631
386.12	25.583
386.48	25.425
386.83	25.914
387.19	26.531
387.55	24.675
387.91	24.970
388.27	25.567
388.62	25.200
388.98	25.369
389.34	26.471
389.70	25.567
390.06	26.996
390.42	26.200
390.77	26.590
391.13	26.994
391.49	26.459
391.85	26.162
392.20	25.994
392.56	26.831
392.92	26.310
393.28	25.444
393.64	26.079
393.99	26.573
394.35	26.489
394.71	27.604
395.07	26.355
395.42	27.812
395.78	27.036
396.14	26.505
396.50	27.130
396.85	27.845
397.21	26.449
397.57	27.278
397.92	27.344
398.28	26.345
398.64	27.838
399.00	26.693
399.35	27.242
399.71	27.662
400.07	27.499
400.42	27.485
400.78	27.805
401.14	26.890
401.49	28.239
401.85	26.921
402.21	27.485
402.57	26.897
402.92	27.680
403.28	27.233
403.63	27.290
403.99	26.561
404.35	27.333
404.70	27.938
405.06	27.373
405.42	27.636
405.77	26.457
406.13	26.806
406.49	27.499
406.84	27.525
407.20	26.241
407.55	27.951
407.91	28.133
408.27	27.888
408.62	26.911
408.98	26.900
409.34	27.983
409.69	27.806
410.05	27.138
410.40	27.890
410.76	27.061
411.11	27.744
411.47	27.348
411.83	26.573
412.18	27.335
412.54	26.526
412.89	26.687
413.25	27.391
413.60	27.363
413.96	26.655
414.31	27.096
414.67	27.947
415.03	27.483
415.38	28.157
415.74	26.817
416.09	27.760
416.45	26.439
416.80	27.032
417.16	27.815
417.51	27.671
417.87	26.782
418.22	27.760
418.58	27.502
418.93	26.597
419.29	26.989
419.64	27.456
420.00	26.220
420.35	26.377
420.71	27.974
421.06	26.492
421.42	26.023
421.77	26.570
422.12	25.997
422.48	27.631
422.83	27.723
423.19	26.851
423.54	27.278
423.90	26.493
424.25	26.131
424.61	26.845
424.96	27.055
425.31	27.132
425.67	26.573
426.02	26.457
426.38	27.473
426.73	26.331
427.09	26.140
427.44	26.107
427.79	26.452
428.15	27.024
428.50	25.805
428.85	26.043
429.21	26.008
429.56	26.439
429.92	26.774
430.27	25.621
430.62	25.141
430.98	25.532
431.33	26.649
431.68	26.492
432.04	24.760
432.39	26.842
432.74	26.990
433.10	26.033
433.45	26.064
433.80	25.887
434.16	26.549
434.51	25.316
434.86	26.568
435.22	25.903
435.57	26.201
435.92	26.916
436.28	26.690
436.63	27.042
436.98	25.701
437.34	26.058
437.69	25.496
438.04	25.689
438.39	26.627
438.75	26.671
439.10	26.089
439.45	26.919
439.81	26.042
440.16	25.918
440.51	25.835
440.86	25.709
441.22	26.251
441.57	26.008
441.92	26.151
442.27	26.642
442.63	25.750
442.98	25.634
443.33	25.435
443.68	26.226
444.03	25.232
444.39	24.927
444.74	25.649
445.09	25.876
445.44	24.986
445.79	25.631
446.15	26.046
446.50	25.256
446.85	26.362
447.20	25.497
447.55	26.801
447.91	25.427
448.26	25.821
448.61	26.173
448.96	26.301
449.31	25.984
449.66	25.661
450.02	25.404
450.37	25.113
450.72	26.001
451.07	25.289
451.42	24.316
451.77	26.424
452.12	25.231
452.47	25.435
452.83	25.000
453.18	25.795
453.53	26.407
453.88	25.576
454.23	25.224
454.58	25.984
454.93	26.510
455.28	26.122
455.63	25.728
455.98	25.595
456.34	25.503
456.69	25.485
457.04	25.635
457.39	25.599
457.74	25.189
458.09	25.819
458.44	25.257
458.79	24.349
459.14	24.718
459.49	25.452
459.84	23.878
460.19	25.103
460.54	25.058
460.89	24.355
461.24	25.379
461.59	26.322
461.94	24.229
462.29	24.748
462.64	25.335
462.99	25.114
463.34	26.067
463.69	25.328
464.04	25.275
464.39	25.391
464.74	24.658
465.09	24.970
465.44	24.155
465.79	23.826
466.14	24.138
466.49	24.750
466.84	24.227
467.19	24.442
467.54	24.625
467.89	24.070
468.24	24.200
468.59	24.786
468.94	24.191
469.29	24.614
469.64	24.967
469.99	25.169
470.34	23.448
470.68	24.569
471.03	25.102
471.38	25.226
471.73	24.917
472.08	24.013
472.43	23.744
472.78	23.634
473.13	24.968
473.48	24.220
473.83	24.695
474.17	23.460
474.52	24.690
474.87	25.219
475.22	24.144
475.57	23.966
475.92	23.579
476.27	23.844
476.61	23.221
476.96	24.024
477.31	23.129
477.66	24.672
478.01	23.785
478.36	23.321
478.70	23.313
479.05	23.589
479.40	23.030
479.75	23.437
480.10	22.565
480.45	23.370
480.79	22.742
481.14	22.994
481.49	22.686
481.84	22.679
482.19	23.444
482.53	23.624
482.88	22.755
483.23	23.178
483.58	23.339
483.92	22.259
484.27	22.222
484.62	22.328
484.97	22.231
485.31	23.151
485.66	21.362
486.01	20.781
486.36	19.691
486.70	19.656
487.05	20.027
487.40	20.914
487.75	21.276
488.09	22.263
488.44	21.848
488.79	22.423
489.13	22.345
489.48	22.594
489.83	21.882
490.17	22.271
490.52	21.878
490.87	22.298
491.22	22.374
491.56	22.050
491.91	22.150
492.26	21.176
492.60	22.488
492.95	21.282
493.30	21.822
493.64	21.979
493.99	21.402
494.34	21.785
494.68	21.932
495.03	21.898
495.37	22.243
495.72	21.637
496.07	21.624
496.41	21.150
496.76	21.284
497.11	21.252
497.45	22.310
497.80	21.785
498.14	22.222
498.49	21.317
498.84	21.477
499.18	21.714
499.53	20.750
499.87	21.528
500.22	22.044
500.56	22.039
500.91	21.202
501.26	21.053
501.60	21.974
501.95	20.669
502.29	21.603
502.64	21.508
502.98	21.131
503.33	20.430
503.67	21.160
504.02	20.486
504.36	20.964
504.71	21.202
505.06	21.205
505.40	21.390
505.75	20.926
506.09	21.186
506.44	21.016
506.78	21.140
507.13	21.353
507.47	21.212
507.82	21.074
508.16	21.327
508.51	21.664
508.85	21.102
509.19	21.429
509.54	21.429
509.88	21.432
510.23	21.234
510.57	21.930
510.92	21.440
511.26	21.017
511.61	21.317
511.95	20.772
512.30	21.368
512.64	20.795
512.98	20.740
513.33	21.199
513.67	21.505
514.02	20.996
514.36	22.010
514.70	21.970
515.05	20.859
515.39	21.032
515.74	21.227
516.08	21.576
516.42	22.309
516.77	21.349
517.11	21.643
517.46	21.219
517.80	21.487
518.14	20.730
518.49	21.412
518.83	21.818
519.17	21.132
519.52	22.184
519.86	21.449
520.20	22.023
520.55	20.766
520.89	22.080
521.23	21.532
521.58	21.669
521.92	22.352
522.26	21.293
522.61	21.869
522.95	21.240
523.29	21.729
523.64	22.256
523.98	21.319
524.32	21.230
524.66	21.948
525.01	21.875
525.35	21.128
525.69	21.182
526.04	21.059
526.38	21.538
526.72	21.043
527.06	21.030
527.41	20.730
527.75	21.801
528.09	20.809
528.43	21.287
528.78	21.573
529.12	21.576
529.46	22.290
529.80	21.535
530.15	21.558
530.49	20.677
530.83	21.266
531.17	21.671
531.51	22.633
531.86	21.935
532.20	21.643
532.54	22.165
532.88	21.630
533.22	20.675
533.57	21.173
533.91	21.373
534.25	20.838
534.59	20.744
534.93	20.405
535.27	21.304
535.62	21.123
535.96	21.908
536.30	20.661
536.64	22.151
536.98	21.035
537.32	20.342
537.66	20.467
538.01	21.264
538.35	20.944
538.69	21.953
539.03	21.507
539.37	20.447
539.71	19.831
540.05	21.895
540.39	22.126
540.73	20.440
541.07	21.090
541.42	21.722
541.76	21.097
542.10	21.539
542.44	21.060
542.78	21.146
543.12	20.665
543.46	20.328
543.80	20.560
544.14	20.603
544.48	21.079
544.82	20.398
545.16	21.015
545.50	21.080
545.84	21.909
546.18	20.202
546.52	20.509
546.86	21.100
547.20	20.701
547.54	20.307
547.88	20.727
548.22	19.925
548.56	19.874
548.90	19.782
549.24	20.741
549.58	20.668
549.92	20.536
550.26	20.526
550.60	20.885
550.94	20.986
551.28	20.849
551.62	20.561
551.96	20.211
552.30	20.614
552.64	21.501
552.98	21.695
553.32	20.566
553.66	21.541
554.00	20.728
554.34	20.221
554.68	21.173
555.02	21.791
555.36	20.320
555.69	20.162
556.03	19.717
556.37	19.850
556.71	19.714
557.05	19.958
557.39	21.763
557.73	19.901
558.07	20.522
558.41	21.491
558.75	21.381
559.08	21.402
559.42	20.635
559.76	20.809
560.10	19.986
560.44	20.266
560.78	19.361
561.12	20.119
561.45	20.730
561.79	20.105
562.13	20.188
562.47	20.082
562.81	20.432
563.15	20.334
563.48	20.756
563.82	20.939
564.16	19.555
564.50	18.750
564.84	19.406
565.17	20.077
565.51	19.744
565.85	19.416
566.19	19.474
566.52	19.696
566.86	19.771
567.20	19.634
567.54	18.379
567.88	19.174
568.21	18.995
568.55	18.908
568.89	18.434
569.23	18.048
569.56	17.733
569.90	17.472
570.24	17.797
570.57	17.375
570.91	16.936
571.25	16.831
571.59	16.966
571.92	16.849
572.26	16.927
572.60	17.057
572.93	17.001
573.27	17.243
573.61	17.476
573.95	16.770
574.28	16.910
574.62	16.642
574.96	16.296
575.29	16.295
575.63	16.463
575.97	16.636
576.30	17.127
576.64	16.932
576.98	16.407
577.31	16.520
577.65	16.591
577.98	16.305
578.32	16.164
578.66	16.457
578.99	16.754
579.33	16.630
579.67	16.444
580.00	16.783
580.34	16.421
580.67	16.497
581.01	16.708
581.35	16.322
581.68	15.957
582.02	15.725
582.35	16.148
582.69	16.127
583.02	15.945
583.36	16.555
583.70	17.058
584.03	17.476
584.37	17.154
584.70	17.294
585.04	16.830
585.37	16.449
585.71	16.588
586.04	16.502
586.38	17.059
586.72	17.067
587.05	16.762
587.39	16.596
587.72	16.748
588.06	16.409
588.39	16.543
588.73	16.808
589.06	17.482
589.40	17.037
589.73	17.283
590.07	17.295
590.40	17.209
590.73	17.018
591.07	18.396
591.40	17.334
591.74	17.965
592.07	17.059
592.41	17.652
592.74	17.303
593.08	16.056
593.41	16.830
593.75	16.583
594.08	16.762
594.41	16.967
594.75	16.932
595.08	16.822
595.42	16.883
595.75	16.845
596.09	17.386
596.42	17.407
596.75	18.151
597.09	18.745
597.42	16.948
597.75	16.904
598.09	17.739
598.42	16.967
598.76	16.457
599.09	16.686
599.42	16.157
599.76	16.691
600.09	16.321
600.42	16.289
600.76	16.464
601.09	16.503
601.42	16.667
601.76	17.078
602.09	16.364
602.42	17.317
602.76	17.211
603.09	16.719
603.42	16.751
603.76	16.463
604.09	16.479
604.42	17.040
604.76	17.250
605.09	16.951
605.42	16.332
605.75	16.432
606.09	16.999
606.42	17.000
606.75	17.005
607.09	17.790
607.42	16.816
607.75	16.371
608.08	15.892
608.42	17.212
608.75	16.772
609.08	16.512
609.41	16.230
609.75	17.437
610.08	16.965
610.41	16.574
610.74	16.935
611.07	16.700
611.41	17.272
611.74	17.245
612.07	16.511
612.40	18.206
612.73	17.316
613.07	17.996
613.40	17.799
613.73	16.571
614.06	17.151
614.39	17.514
614.72	16.789
615.06	17.752
615.39	17.197
615.72	17.638
616.05	17.012
616.38	18.177
616.71	17.518
617.05	18.139
617.38	17.078
617.71	17.538
618.04	18.029
618.37	17.859
618.70	17.362
619.03	18.553
619.36	18.262
619.69	18.239
620.03	18.338
620.36	17.914
620.69	18.699
621.02	18.215
621.35	17.776
621.68	18.224
622.01	18.189
622.34	17.927
622.67	18.707
623.00	17.241
623.33	17.870
623.66	18.299
623.99	17.452
624.32	17.047
624.65	18.008
624.99	17.351
625.32	18.827
625.65	18.332
625.98	18.063
626.31	19.362
626.64	18.531
626.97	19.701
627.30	18.371
627.63	19.114
627.96	18.503
628.29	18.285
628.62	19.854
628.95	20.566
629.28	20.347
629.61	19.707
629.94	19.143
630.26	19.542
630.59	20.305
630.92	18.391
631.25	19.743
631.58	19.820
631.91	20.081
632.24	18.776
632.57	19.412
632.90	20.504
633.23	20.805
633.56	20.226
633.89	19.932
634.22	19.183
634.55	20.473
634.88	20.479
635.20	21.744
635.53	21.446
635.86	20.545
636.19	18.353
636.52	19.954
636.85	21.191
637.18	19.009
637.51	20.686
637.83	18.002
638.16	20.460
638.49	21.159
638.82	21.745
639.15	20.000
639.48	21.197
639.81	21.984
640.13	21.354
640.46	21.477
640.79	21.929
641.12	20.770
641.45	18.575
641.77	22.239
642.10	21.053
642.43	21.021
642.76	22.136
643.09	22.239
643.41	21.396
643.74	24.074
644.07	22.713
644.40	23.313
644.73	23.780
645.05	24.247
645.38	21.801
645.71	23.027
646.04	23.090
646.36	24.207
646.69	23.244
647.02	20.918
647.35	22.509
647.67	20.354
648.00	22.764
648.33	18.977
648.66	21.667
648.98	23.238
649.31	19.283
649.64	23.468
649.96	20.417
650.29	20.221
650.62	19.417
650.94	22.528
651.27	23.649
651.60	23.461
651.92	21.406
652.25	20.847
652.58	21.651
652.90	22.591
653.23	20.493
653.56	20.945
653.88	22.979
654.21	21.485
654.54	19.307
654.86	22.274
655.19	18.514
655.52	13.329
655.84	11.438
656.17	14.443
656.49	19.796
656.82	20.336
657.15	15.494
657.47	11.558
657.80	9.153
658.13	9.797
658.45	15.008
658.78	15.418
659.10	16.226
659.43	17.052
659.75	18.222
660.08	19.620
660.41	22.439
660.73	22.745
661.06	22.771
661.38	22.909
661.71	24.423
662.03	25.838
662.36	24.056
662.68	23.695
663.01	22.828
663.33	23.992
663.66	24.370
663.98	23.974
664.31	21.639
664.63	22.267
664.96	21.932
665.28	23.566
665.61	23.782
665.93	22.133
666.26	20.081
666.58	22.803
666.91	25.581
667.23	25.169
667.56	22.246
667.88	24.145
668.21	24.307
668.53	24.295
668.86	21.861
669.18	26.652
669.50	24.130
669.83	26.580
670.15	24.222
670.48	24.619
670.80	23.276
671.13	23.142
671.45	21.915
671.77	26.273
672.10	23.475
672.42	23.145
672.75	22.554
673.07	22.359
673.39	20.796
673.72	22.266
674.04	24.510
674.37	21.748
674.69	24.335
675.01	25.314
675.34	26.078
675.66	24.000
675.98	24.644
676.31	25.000
676.63	25.053
676.95	23.270
677.28	23.598
677.60	23.516
677.92	24.051
678.25	21.766
678.57	20.916
678.89	22.044
679.22	22.986
679.54	22.137
679.86	21.835
680.18	20.930
680.51	23.227
680.83	23.665
681.15	23.208
681.48	24.764
681.80	22.631
682.12	21.839
682.44	23.598
682.77	23.422
683.09	25.966
683.41	23.725
683.73	23.841
684.06	23.140
684.38	21.331
684.70	24.031
685.02	23.077
685.34	23.260
685.67	19.930
685.99	20.103
686.31	22.355
686.63	21.908
686.96	21.250
687.28	22.383
687.60	21.377
687.92	21.938
688.24	22.243
688.56	23.092
688.89	23.029
689.21	24.454
689.53	22.965
689.85	25.055
690.17	21.325
690.49	24.628
690.82	22.897
691.14	21.205
691.46	21.941
691.78	22.088
692.10	23.760
692.42	24.551
692.74	21.577
693.06	22.340
693.39	22.587
693.71	24.017
694.03	23.789
694.35	22.511
694.67	22.654
694.99	25.854
695.31	25.490
695.63	24.641
695.95	25.183
696.27	25.635
696.59	22.539
696.91	25.907
697.23	22.066
697.56	23.241
697.88	21.472
698.20	21.667
698.52	21.075
698.84	24.944
699.16	22.350
699.48	26.128
699.80	24.155
700.12	26.234
700.44	25.995
700.76	26.243
701.08	26.149
701.40	26.257
701.72	25.656
702.04	29.545
702.36	25.779
702.68	28.329
703.00	28.532
703.32	24.202
703.64	27.346
703.96	28.134
704.28	25.581
704.60	27.273
704.91	30.267
705.23	29.032
705.55	26.578
705.87	27.575
706.19	28.622
706.51	29.283
706.83	28.788
707.15	28.011
707.47	25.253
707.79	24.324
708.11	24.429
708.43	24.524
708.74	24.745
709.06	27.013
709.38	26.509
709.70	27.035
710.02	26.409
710.34	27.576
710.66	25.970
710.98	28.125
711.29	25.872
711.61	24.189
711.93	27.564
712.25	30.547
712.57	26.838
712.89	27.682
713.20	29.483
713.52	27.961
713.84	26.582
714.16	25.000
714.48	23.851
714.80	32.219
715.11	24.784
715.43	27.003
715.75	28.116
716.07	27.796
716.39	26.959
716.70	34.219
717.02	25.899
717.34	27.915
717.66	29.478
717.97	34.661
718.29	33.333
718.61	27.372
718.93	30.515
719.24	32.180
719.56	25.424
719.88	29.153
720.20	28.041
720.51	28.920
720.83	31.970
721.15	25.746
721.46	28.369
721.78	27.240
722.10	32.075
722.42	27.444
722.73	31.835
723.05	31.967
723.37	29.960
723.68	30.116
724.00	24.797
724.32	31.048
724.63	32.520
724.95	31.799
725.27	33.198
725.58	33.203
725.90	32.117
726.22	32.453
726.53	26.736
726.85	30.375
727.16	29.893
727.48	30.496
727.80	26.515
728.11	30.072
728.43	26.538
728.74	29.032
729.06	33.577
729.38	32.721
729.69	28.826
730.01	29.010
730.32	28.472
730.64	30.100
730.96	27.723
731.27	30.464
731.59	28.746
731.90	30.321
732.22	27.640
732.53	25.387
732.85	25.321
733.16	28.296
733.48	27.907
733.80	28.571
734.11	28.981
734.43	25.740
734.74	20.857
735.06	22.636
735.37	27.457
735.69	25.159
736.00	31.046
736.32	28.037
736.63	25.879
736.95	25.879
737.26	27.211
737.58	27.097
737.89	26.087
738.21	29.693
738.52	25.714
738.83	29.811
739.15	31.538
739.46	28.467
739.78	28.472
740.09	26.462
740.41	28.710
740.72	26.132
741.04	29.630
741.35	30.000
741.66	36.000
741.98	28.302
742.29	39.234
742.61	36.207
742.92	33.937
743.23	29.487
743.55	34.000
743.86	29.386
744.18	34.071
744.49	35.407
744.80	38.967
745.12	35.455
745.43	35.683
745.74	35.586
746.06	35.321
746.37	34.081
746.68	31.674
747.00	30.093
747.31	34.286
747.62	33.186
747.94	32.159
748.25	31.915
748.56	32.599
748.88	29.703
749.19	35.000
749.50	29.767
749.82	30.894
750.13	28.980
750.44	29.197
750.75	27.368
751.07	27.331
751.38	28.571
751.69	28.159
752.01	24.812
752.32	27.076
752.63	29.433
752.94	27.869
753.26	33.200
753.57	29.268
753.88	32.031
754.19	31.429
754.51	31.597
754.82	22.383
755.13	29.811
755.44	28.947
755.75	31.022
756.07	25.532
756.38	26.277
756.69	27.181
757.00	25.150
757.31	25.223
757.63	25.731
757.94	24.665
758.25	21.814
758.56	24.198
758.87	23.118
759.18	26.970
759.50	29.154
759.81	23.053
760.12	19.063
760.43	23.782
760.74	20.380
761.05	27.401
761.36	24.866
761.67	24.432
761.99	21.739
762.30	29.167
762.61	31.298
762.92	29.297
763.23	31.092
763.54	31.200
763.85	26.172
764.16	30.000
764.47	28.897
764.78	25.795
765.10	20.886
765.41	25.959
765.72	26.647
766.03	27.273
766.34	27.667
766.65	34.894
766.96	32.906
767.27	36.041
767.58	33.333
767.89	46.842
768.20	35.057
768.51	29.442
768.82	39.908
769.13	30.081
769.44	29.555
769.75	29.614
770.06	32.110
770.37	35.747
770.68	28.704
770.99	34.222
771.30	28.279
771.61	33.184
771.92	36.475
772.23	35.294
772.54	36.923
772.85	31.414
773.16	33.511
773.47	36.957
773.78	46.193
774.09	36.905
774.39	34.503
774.70	38.272
775.01	42.754
775.32	51.634
775.63	43.421
775.94	39.568
776.25	42.520
776.56	51.493
776.87	46.721
777.18	53.906
777.48	48.092
777.79	50.758
778.10	46.667
778.41	49.107
778.72	37.226
779.03	45.638
779.34	36.913
779.65	41.892
779.95	41.104
780.26	37.255
780.57	48.276
780.88	60.156
781.19	39.850
781.50	43.919
781.80	44.654
782.11	36.158
782.42	36.076
782.73	45.399
783.04	45.946
783.34	42.958
783.65	52.055
783.96	43.284
784.27	44.755
784.57	32.374
784.88	41.667
785.19	52.381
785.50	49.057
785.81	52.985
786.11	50.000
786.42	51.163
786.73	48.673
787.04	47.170
787.34	61.607
787.65	48.000
787.96	47.748
788.26	53.719
788.57	52.542
788.88	62.810
789.19	51.389
789.49	50.000
789.80	47.328
790.11	77.143
790.41	70.297
790.72	65.060
791.03	60.870
791.33	62.791
791.64	63.918
791.95	63.366
792.25	77.778
792.56	80.519
792.87	78.205
793.17	87.342
793.48	70.115
793.79	63.218
794.09	57.955
794.40	42.857
794.70	52.941
795.01	45.185
795.32	46.043
795.62	44.882
795.93	55.172
796.23	49.558
796.54	58.824
796.85	66.216
797.15	88.732
797.46	77.273
797.76	77.108
798.07	68.354
798.37	61.538
798.68	72.727
798.99	64.789
799.29	66.234
799.60	64.773
799.90	86.301
800.21	74.627
800.51	96.552
800.82	92.982
801.12	83.607
801.43	92.424
801.73	71.622
802.04	98.413
802.34	72.840
802.65	85.938
802.95	91.525
803.26	96.875
803.56	64.286
803.87	81.538
804.17	80.882
804.48	94.444
804.78	72.414
805.09	83.824
805.39	94.231
805.70	94.643
806.00	85.246
806.30	80.303
806.61	64.634
806.91	55.696
807.22	72.368
807.52	70.149
807.83	70.423
808.13	92.188
808.43	83.333
808.74	65.789
809.04	91.304
809.35	70.149
809.65	73.684
809.95	109.677
810.26	76.271
810.56	84.127
810.86	120.455
811.17	133.333
811.47	106.667
811.77	96.296
812.08	90.909
812.38	114.000
812.69	111.111
812.99	127.273
813.29	112.245
813.59	88.095
813.90	116.327
814.20	94.545
814.50	72.308
814.81	92.647
815.11	110.204
815.41	91.803
815.72	128.571
816.02	92.727
816.32	119.048
816.62	105.000
816.93	107.317
817.23	128.571
817.53	115.909
817.84	157.576
818.14	136.957
818.44	113.333
818.74	129.412
819.04	140.000
819.35	97.143
819.65	182.353
819.95	182.143
820.25	240.000
820.56	125.641
820.86	118.182
821.16	139.535
821.46	128.205
821.76	114.000
822.07	154.286
822.37	132.500
822.67	133.333
822.97	115.686
823.27	203.571
823.57	145.946
823.88	145.000
824.18	170.000
824.48	128.571
824.78	192.000
825.08	154.167
825.38	143.243
825.69	129.268
825.99	162.500
826.29	110.345
826.59	152.632
826.89	131.579
827.19	152.941
827.49	158.065
827.79	131.818
828.09	140.909
828.39	104.255
828.70	122.449
829.00	181.481
829.30	183.871
829.60	145.000
829.90	246.667
830.20	175.000
830.50	156.522
830.80	213.043
831.10	213.333
831.40	160.000
831.70	169.565
832.00	165.385
832.30	177.778
832.60	325.000
832.90	173.333
833.20	378.571
833.50	135.484
833.80	182.759
834.10	178.125
834.40	242.308
834.70	250.000
835.00	223.810
835.30	140.000
835.60	307.692
835.90	189.655
836.20	292.857
836.50	179.310
836.80	180.000
837.10	177.778
837.40	247.619
837.70	282.353
838.00	188.889
838.30	190.476
838.60	233.333
838.90	207.692
839.19	195.000
839.49	307.143
839.79	255.000
840.09	270.000
840.39	266.667
840.69	213.043
840.99	266.667
841.29	450.000
841.59	258.333
841.88	312.500
842.18	196.552
842.48	252.381
842.78	143.333
843.08	182.609
843.38	165.625
843.68	750.000
843.97	219.231
844.27	179.310
844.57	266.667
844.87	337.500
845.17	203.704
845.47	1266.667
845.76	433.333
846.06	252.941
846.36	500.000
846.66	421.429
846.96	275.000
847.25	381.818
847.55	418.182
847.85	213.043
848.15	460.000
848.44	350.000
848.74	255.556
849.04	229.412
849.34	450.000
849.63	294.737
849.93	400.000
850.23	940.000
850.53	335.714
850.82	1950.000
851.12	-3500.000
851.42	4400.000
851.71	260.000
852.01	-1066.667
852.31	216.667
852.61	1566.667
852.90	252.381
853.20	216.000
853.50	300.000
853.79	238.095
854.09	179.167
854.39	256.250
854.68	143.243
854.98	164.516
855.28	126.667
855.57	231.034
855.87	181.481
856.17	221.053
856.46	246.667
856.76	235.294
857.05	186.207
857.35	187.500
857.65	286.667
857.94	265.217
858.24	200.000
858.53	295.000
858.83	231.818
859.13	300.000
859.42	0.000
859.72	488.889
860.01	409.091
860.31	218.182
860.60	247.368
860.90	173.913
861.20	477.778
861.49	475.000
861.79	-3900.000
862.08	550.000
862.38	257.143
862.67	307.692
862.97	347.059
863.26	477.778
863.56	188.889
863.85	375.000
864.15	525.000
864.44	340.000
864.74	800.000
865.03	675.000
865.33	278.947
865.62	400.000
865.92	446.154
866.21	350.000
866.51	0.000
866.80	400.000
867.10	1040.000
867.39	415.385
867.69	518.182
867.98	305.263
868.27	472.727
868.57	284.211
868.86	-4200.000
869.16	325.000
869.45	2300.000
869.75	-3500.000
870.04	358.333
870.33	671.429
870.63	875.000
870.92	2300.000
871.22	685.714
871.51	294.118
871.80	185.714
872.10	321.429
>>>>>End Processed Spectral Data<<<<<
