SpectraSuite Data File
++++++++++++++++++++++++++++++++++++
Date: Wed May 13 16:04:19 PDT 2015
User: schluterlab
Dark Spectrum Present: Yes
Reference Spectrum Present: Yes
Number of Sampled Component Spectra: 1
Spectrometers: USB2E3373
Integration Time (usec): 3000 (USB2E3373)
Spectra Averaged: 3 (USB2E3373)
Boxcar Smoothing: 0 (USB2E3373)
Correct for Electrical Dark: No (USB2E3373)
Strobe/Lamp Enabled: No (USB2E3373)
Correct for Detector Non-linearity: No (USB2E3373)
Correct for Stray Light: No (USB2E3373)
Number of Pixels in Processed Spectrum: 2048
>>>>>Begin Processed Spectral Data<<<<<
178.53	0.000
178.91	-725.000
179.29	-625.000
179.67	-100.000
180.04	-325.000
180.42	900.000
180.80	600.000
181.18	-525.000
181.56	285.714
181.94	0.000
182.31	-257.143
182.69	733.333
183.07	-312.500
183.45	-188.889
183.83	245.455
184.20	-180.000
184.58	1100.000
184.96	3000.000
185.34	-340.000
185.72	-225.000
186.09	-1000.000
186.47	1400.000
186.85	1150.000
187.23	2400.000
187.61	-733.333
187.98	825.000
188.36	290.909
188.74	309.091
189.12	-320.000
189.49	320.000
189.87	-1100.000
190.25	-475.000
190.63	235.714
191.00	161.538
191.38	316.667
191.76	-425.000
192.14	775.000
192.51	137.500
192.89	550.000
193.27	375.000
193.65	-550.000
194.02	270.000
194.40	380.000
194.78	280.000
195.15	333.333
195.53	320.000
195.91	-950.000
196.29	243.750
196.66	142.105
197.04	-110.000
197.42	0.000
197.79	350.000
198.17	-2200.000
198.55	328.571
198.92	350.000
199.30	500.000
199.68	0.000
200.05	188.889
200.43	414.286
200.81	2200.000
201.18	933.333
201.56	-466.667
201.94	300.000
202.31	366.667
202.69	241.667
203.07	230.000
203.44	0.000
203.82	575.000
204.19	428.571
204.57	257.143
204.95	287.500
205.32	833.333
205.70	327.273
206.08	178.571
206.45	1250.000
206.83	131.250
207.20	433.333
207.58	260.000
207.96	150.000
208.33	387.500
208.71	-566.667
209.08	514.286
209.46	288.889
209.84	227.273
210.21	-566.667
210.59	850.000
210.96	-125.000
211.34	1450.000
211.71	300.000
212.09	383.333
212.46	0.000
212.84	733.333
213.22	800.000
213.59	-2400.000
213.97	316.667
214.34	342.857
214.72	400.000
215.09	520.000
215.47	-1050.000
215.84	-1000.000
216.22	966.667
216.59	307.143
216.97	625.000
217.34	263.636
217.72	-333.333
218.09	0.000
218.47	-1500.000
218.84	388.889
219.22	314.286
219.59	1000.000
219.97	-171.429
220.34	380.000
220.72	-833.333
221.09	185.714
221.47	750.000
221.84	-483.333
222.22	0.000
222.59	850.000
222.97	-1350.000
223.34	640.000
223.72	230.769
224.09	420.000
224.46	850.000
224.84	-2600.000
225.21	-580.000
225.59	-2600.000
225.96	370.000
226.34	145.000
226.71	1600.000
227.08	312.500
227.46	190.000
227.83	-350.000
228.21	-1200.000
228.58	322.222
228.95	-950.000
229.33	-950.000
229.70	833.333
230.08	328.571
230.45	-420.000
230.82	233.333
231.20	433.333
231.57	285.714
231.95	241.667
232.32	118.182
232.69	163.636
233.07	228.571
233.44	184.615
233.81	-700.000
234.19	194.737
234.56	166.667
234.93	158.333
235.31	190.909
235.68	130.769
236.05	171.429
236.43	72.727
236.80	89.474
237.17	1400.000
237.55	95.238
237.92	85.714
238.29	114.286
238.67	70.968
239.04	93.103
239.41	66.667
239.79	63.043
240.16	71.429
240.53	61.364
240.91	23.529
241.28	34.000
241.65	48.000
242.02	47.826
242.40	29.032
242.77	51.667
243.14	30.108
243.51	37.079
243.89	28.235
244.26	23.333
244.63	24.731
245.00	21.277
245.38	19.802
245.75	26.168
246.12	15.596
246.49	27.007
246.87	26.400
247.24	23.846
247.61	24.286
247.98	19.608
248.36	14.189
248.73	12.739
249.10	11.465
249.47	15.819
249.84	22.995
250.22	12.299
250.59	14.201
250.96	16.162
251.33	15.166
251.70	17.327
252.08	10.952
252.45	13.453
252.82	14.348
253.19	8.511
253.56	16.078
253.94	12.448
254.31	12.500
254.68	16.923
255.05	10.332
255.42	8.130
255.79	8.456
256.16	13.357
256.54	8.481
256.91	10.320
257.28	8.633
257.65	4.950
258.02	9.938
258.39	10.410
258.76	8.027
259.14	9.524
259.51	6.079
259.88	7.764
260.25	12.689
260.62	8.960
260.99	9.006
261.36	10.811
261.73	6.590
262.10	6.395
262.47	6.761
262.85	6.964
263.22	4.843
263.59	8.832
263.96	7.692
264.33	9.138
264.70	7.368
265.07	9.207
265.44	9.343
265.81	6.083
266.18	8.794
266.55	7.561
266.92	7.862
267.29	7.870
267.66	6.651
268.03	8.864
268.40	8.178
268.77	4.773
269.14	8.108
269.51	9.029
269.88	6.760
270.25	8.804
270.62	5.843
270.99	9.892
271.36	7.511
271.73	6.776
272.10	5.652
272.47	6.882
272.84	7.143
273.21	10.482
273.58	3.930
273.95	6.289
274.32	7.438
274.69	6.210
275.06	7.480
275.43	6.170
275.80	7.415
276.17	5.703
276.54	6.237
276.91	5.336
277.28	6.445
277.65	7.157
278.02	4.141
278.39	7.812
278.76	5.636
279.13	6.604
279.50	6.890
279.87	7.371
280.23	6.188
280.60	4.836
280.97	5.545
281.34	6.372
281.71	7.455
282.08	4.990
282.45	4.000
282.82	6.217
283.19	4.278
283.56	5.965
283.92	6.261
284.29	4.233
284.66	5.445
285.03	6.329
285.40	4.577
285.77	6.566
286.14	3.972
286.51	6.333
286.87	7.350
287.24	7.818
287.61	6.742
287.98	6.494
288.35	6.022
288.72	5.452
289.08	6.103
289.45	5.272
289.82	6.016
290.19	4.553
290.56	5.513
290.93	4.381
291.29	4.908
291.66	5.605
292.03	8.285
292.40	6.608
292.77	5.030
293.13	5.672
293.50	6.706
293.87	5.926
294.24	6.815
294.60	5.386
294.97	4.506
295.34	7.334
295.71	6.250
296.08	5.271
296.44	4.264
296.81	4.095
297.18	8.130
297.55	4.881
297.91	4.354
298.28	6.426
298.65	5.352
299.02	5.665
299.38	5.445
299.75	4.043
300.12	6.130
300.48	4.750
300.85	5.672
301.22	5.350
301.59	4.545
301.95	4.282
302.32	5.777
302.69	5.974
303.05	5.212
303.42	5.185
303.79	6.229
304.15	4.779
304.52	5.446
304.89	5.691
305.25	4.408
305.62	6.682
305.99	4.959
306.35	5.593
306.72	6.054
307.09	5.771
307.45	6.982
307.82	4.129
308.19	6.512
308.55	6.796
308.92	5.800
309.29	6.019
309.65	4.560
310.02	6.237
310.38	4.516
310.75	5.702
311.12	5.834
311.48	6.270
311.85	7.023
312.22	6.243
312.58	5.405
312.95	6.125
313.31	4.757
313.68	6.445
314.05	7.101
314.41	6.432
314.78	6.042
315.14	6.554
315.51	6.076
315.87	6.436
316.24	6.554
316.61	5.945
316.97	5.969
317.34	6.067
317.70	6.597
318.07	5.871
318.43	6.556
318.80	6.560
319.16	5.932
319.53	5.535
319.89	7.524
320.26	7.000
320.62	6.746
320.99	6.263
321.35	6.263
321.72	6.057
322.08	7.009
322.45	9.154
322.81	7.849
323.18	7.900
323.54	8.627
323.91	7.925
324.27	6.501
324.64	6.431
325.00	6.583
325.37	6.642
325.73	7.899
326.10	7.679
326.46	7.348
326.83	8.197
327.19	8.198
327.56	6.794
327.92	8.049
328.29	8.784
328.65	7.827
329.01	7.942
329.38	7.308
329.74	8.218
330.11	7.729
330.47	7.805
330.84	8.272
331.20	7.377
331.56	9.083
331.93	7.130
332.29	7.098
332.66	8.053
333.02	7.952
333.38	9.124
333.75	8.824
334.11	8.096
334.48	7.808
334.84	7.813
335.20	7.727
335.57	6.800
335.93	7.054
336.29	7.418
336.66	8.386
337.02	7.873
337.38	8.796
337.75	7.130
338.11	7.789
338.47	8.011
338.84	6.874
339.20	6.697
339.56	8.029
339.93	6.273
340.29	7.518
340.65	7.665
341.02	7.853
341.38	8.096
341.74	7.632
342.11	7.336
342.47	5.991
342.83	7.877
343.20	8.918
343.56	7.666
343.92	7.456
344.28	8.163
344.65	7.309
345.01	7.576
345.37	6.518
345.73	7.614
346.10	7.843
346.46	7.542
346.82	7.661
347.19	6.767
347.55	7.307
347.91	8.252
348.27	7.724
348.63	7.609
349.00	7.201
349.36	7.225
349.72	8.260
350.08	6.321
350.45	7.404
350.81	6.905
351.17	7.050
351.53	7.289
351.89	6.271
352.26	7.972
352.62	7.939
352.98	7.455
353.34	6.984
353.70	6.056
354.07	7.581
354.43	6.984
354.79	7.160
355.15	6.864
355.51	7.114
355.87	7.837
356.24	7.492
356.60	6.255
356.96	6.919
357.32	6.950
357.68	7.008
358.04	7.284
358.40	7.838
358.77	8.216
359.13	6.709
359.49	7.294
359.85	5.952
360.21	6.300
360.57	7.315
360.93	7.769
361.29	7.559
361.66	6.579
362.02	8.209
362.38	6.540
362.74	7.068
363.10	6.662
363.46	6.236
363.82	6.576
364.18	7.048
364.54	7.578
364.90	7.436
365.26	6.176
365.62	6.866
365.98	5.625
366.35	6.375
366.71	6.797
367.07	6.191
367.43	7.692
367.79	6.781
368.15	7.256
368.51	5.959
368.87	7.281
369.23	6.364
369.59	6.662
369.95	6.029
370.31	7.977
370.67	6.739
371.03	7.865
371.39	6.268
371.75	6.691
372.11	7.468
372.47	6.672
372.83	7.565
373.19	6.864
373.55	7.169
373.91	7.953
374.27	6.735
374.63	6.473
374.99	7.627
375.35	5.652
375.71	6.991
376.07	6.996
376.42	7.497
376.78	7.555
377.14	6.784
377.50	6.225
377.86	6.582
378.22	7.332
378.58	6.516
378.94	7.165
379.30	6.616
379.66	6.853
380.02	7.371
380.38	7.165
380.74	7.323
381.09	7.946
381.45	7.498
381.81	7.924
382.17	7.070
382.53	7.358
382.89	7.037
383.25	7.192
383.61	7.621
383.97	7.880
384.32	7.236
384.68	6.196
385.04	6.822
385.40	7.245
385.76	7.064
386.12	6.671
386.48	8.181
386.83	6.928
387.19	7.978
387.55	7.545
387.91	6.953
388.27	7.725
388.62	7.806
388.98	7.432
389.34	7.822
389.70	7.419
390.06	7.668
390.42	7.134
390.77	7.252
391.13	7.658
391.49	8.185
391.85	7.129
392.20	6.498
392.56	8.144
392.92	8.122
393.28	6.331
393.64	7.074
393.99	8.308
394.35	7.258
394.71	7.340
395.07	6.978
395.42	6.860
395.78	7.443
396.14	7.200
396.50	7.707
396.85	8.137
397.21	6.720
397.57	7.502
397.92	7.392
398.28	7.399
398.64	7.527
399.00	7.163
399.35	7.107
399.71	7.350
400.07	7.037
400.42	8.160
400.78	7.720
401.14	7.439
401.49	7.821
401.85	7.623
402.21	7.365
402.57	6.601
402.92	7.566
403.28	6.996
403.63	6.745
403.99	6.306
404.35	7.333
404.70	7.374
405.06	6.931
405.42	7.112
405.77	6.514
406.13	6.941
406.49	6.860
406.84	7.088
407.20	6.265
407.55	7.339
407.91	7.267
408.27	6.637
408.62	7.887
408.98	6.495
409.34	7.011
409.69	6.839
410.05	7.001
410.40	7.156
410.76	7.348
411.11	7.057
411.47	7.284
411.83	7.269
412.18	6.988
412.54	6.164
412.89	7.410
413.25	7.202
413.60	6.980
413.96	7.468
414.31	7.412
414.67	6.971
415.03	6.821
415.38	7.474
415.74	6.817
416.09	7.446
416.45	6.225
416.80	7.469
417.16	6.903
417.51	7.167
417.87	6.936
418.22	6.877
418.58	7.811
418.93	7.248
419.29	7.066
419.64	7.305
420.00	7.012
420.35	7.246
420.71	7.950
421.06	6.086
421.42	6.842
421.77	6.839
422.12	6.345
422.48	6.800
422.83	7.338
423.19	7.569
423.54	7.023
423.90	7.072
424.25	7.147
424.61	6.488
424.96	7.289
425.31	7.032
425.67	6.629
426.02	7.143
426.38	7.082
426.73	6.495
427.09	6.140
427.44	7.016
427.79	6.901
428.15	7.262
428.50	7.080
428.85	7.211
429.21	6.240
429.56	6.480
429.92	6.442
430.27	6.306
430.62	6.554
430.98	6.175
431.33	6.546
431.68	7.330
432.04	6.869
432.39	6.568
432.74	6.523
433.10	6.395
433.45	6.997
433.80	6.652
434.16	6.944
434.51	6.579
434.86	7.241
435.22	7.059
435.57	7.477
435.92	6.495
436.28	6.880
436.63	7.616
436.98	6.354
437.34	6.380
437.69	6.884
438.04	6.464
438.39	7.403
438.75	7.786
439.10	6.592
439.45	6.907
439.81	6.224
440.16	7.002
440.51	7.030
440.86	7.064
441.22	6.563
441.57	6.794
441.92	7.574
442.27	6.997
442.63	6.372
442.98	6.817
443.33	7.120
443.68	6.711
444.03	6.784
444.39	6.183
444.74	6.602
445.09	7.385
445.44	6.944
445.79	6.878
446.15	7.411
446.50	6.247
446.85	6.886
447.20	6.374
447.55	7.370
447.91	6.729
448.26	6.622
448.61	7.123
448.96	7.087
449.31	6.862
449.66	6.978
450.02	6.518
450.37	7.086
450.72	5.922
451.07	6.581
451.42	6.383
451.77	7.223
452.12	7.044
452.47	6.965
452.83	7.401
453.18	7.213
453.53	7.916
453.88	6.261
454.23	6.575
454.58	7.268
454.93	7.311
455.28	6.546
455.63	6.917
455.98	7.679
456.34	7.098
456.69	8.140
457.04	7.492
457.39	7.189
457.74	6.732
458.09	7.533
458.44	6.784
458.79	5.911
459.14	7.844
459.49	6.888
459.84	7.258
460.19	6.364
460.54	7.234
460.89	6.253
461.24	7.468
461.59	8.309
461.94	6.782
462.29	7.596
462.64	7.275
462.99	6.571
463.34	8.200
463.69	7.067
464.04	7.478
464.39	7.188
464.74	7.427
465.09	7.298
465.44	6.814
465.79	7.215
466.14	7.499
466.49	6.674
466.84	7.531
467.19	7.544
467.54	6.688
467.89	7.023
468.24	7.213
468.59	7.082
468.94	7.575
469.29	7.776
469.64	7.831
469.99	7.781
470.34	6.539
470.68	6.753
471.03	6.667
471.38	7.088
471.73	7.662
472.08	8.158
472.43	7.098
472.78	6.978
473.13	7.125
473.48	7.803
473.83	7.805
474.17	6.907
474.52	7.320
474.87	7.823
475.22	7.139
475.57	7.792
475.92	6.532
476.27	7.441
476.61	7.115
476.96	6.267
477.31	6.855
477.66	6.947
478.01	6.430
478.36	7.086
478.70	6.334
479.05	6.763
479.40	6.960
479.75	6.609
480.10	6.710
480.45	6.521
480.79	6.737
481.14	6.409
481.49	7.451
481.84	6.676
482.19	6.361
482.53	7.110
482.88	6.980
483.23	6.542
483.58	6.642
483.92	6.607
484.27	6.013
484.62	6.466
484.97	6.228
485.31	6.438
485.66	5.998
486.01	5.324
486.36	5.317
486.70	5.454
487.05	5.480
487.40	5.720
487.75	5.997
488.09	5.914
488.44	5.804
488.79	6.184
489.13	6.570
489.48	6.444
489.83	6.301
490.17	6.883
490.52	6.776
490.87	6.468
491.22	6.321
491.56	6.287
491.91	6.468
492.26	6.247
492.60	6.959
492.95	5.659
493.30	6.215
493.64	6.440
493.99	6.500
494.34	7.493
494.68	7.601
495.03	6.344
495.37	6.375
495.72	6.676
496.07	7.425
496.41	6.283
496.76	6.201
497.11	6.303
497.45	6.567
497.80	6.766
498.14	6.377
498.49	5.951
498.84	6.711
499.18	7.048
499.53	5.935
499.87	6.803
500.22	7.160
500.56	7.039
500.91	6.058
501.26	7.160
501.60	7.024
501.95	6.645
502.29	6.373
502.64	6.750
502.98	6.311
503.33	6.353
503.67	6.497
504.02	6.361
504.36	6.832
504.71	6.497
505.06	7.229
505.40	6.952
505.75	6.798
506.09	6.803
506.44	6.364
506.78	6.868
507.13	6.865
507.47	7.424
507.82	7.042
508.16	6.890
508.51	7.154
508.85	6.653
509.19	6.684
509.54	7.092
509.88	6.852
510.23	6.684
510.57	7.792
510.92	6.111
511.26	6.835
511.61	7.106
511.95	6.628
512.30	6.204
512.64	6.878
512.98	6.645
513.33	7.173
513.67	7.311
514.02	6.331
514.36	6.499
514.70	6.475
515.05	7.083
515.39	7.684
515.74	6.757
516.08	7.099
516.42	7.436
516.77	7.302
517.11	6.770
517.46	7.449
517.80	7.201
518.14	6.254
518.49	7.876
518.83	7.159
519.17	6.755
519.52	7.074
519.86	7.302
520.20	7.630
520.55	7.899
520.89	6.813
521.23	8.022
521.58	7.503
521.92	7.042
522.26	7.138
522.61	6.916
522.95	6.875
523.29	7.608
523.64	7.927
523.98	7.640
524.32	7.057
524.66	7.637
525.01	6.985
525.35	7.249
525.69	7.081
526.04	7.850
526.38	7.200
526.72	8.221
527.06	8.223
527.41	6.498
527.75	7.460
528.09	7.129
528.43	7.776
528.78	7.867
529.12	6.848
529.46	7.165
529.80	7.426
530.15	8.411
530.49	7.077
530.83	7.595
531.17	7.507
531.51	7.912
531.86	7.290
532.20	7.562
532.54	8.200
532.88	8.216
533.22	7.683
533.57	7.531
533.91	7.104
534.25	7.959
534.59	7.261
534.93	7.020
535.27	6.518
535.62	7.204
535.96	7.094
536.30	6.612
536.64	7.534
536.98	7.432
537.32	7.637
537.66	7.000
538.01	8.163
538.35	7.434
538.69	7.466
539.03	7.472
539.37	6.837
539.71	6.481
540.05	6.928
540.39	7.774
540.73	7.050
541.07	7.528
541.42	7.828
541.76	8.387
542.10	7.503
542.44	7.748
542.78	7.444
543.12	7.166
543.46	8.131
543.80	7.612
544.14	6.483
544.48	7.175
544.82	7.377
545.16	7.157
545.50	7.391
545.84	6.855
546.18	7.744
546.52	7.708
546.86	6.873
547.20	7.485
547.54	7.615
547.88	8.673
548.22	7.410
548.56	7.610
548.90	6.658
549.24	6.599
549.58	7.094
549.92	7.898
550.26	7.173
550.60	7.261
550.94	7.113
551.28	6.511
551.62	7.980
551.96	6.877
552.30	8.532
552.64	7.437
552.98	7.593
553.32	6.945
553.66	7.362
554.00	7.687
554.34	6.901
554.68	7.082
555.02	7.264
555.36	7.446
555.69	6.698
556.03	7.335
556.37	7.162
556.71	7.367
557.05	6.653
557.39	7.768
557.73	8.045
558.07	6.962
558.41	6.802
558.75	7.274
559.08	7.532
559.42	7.407
559.76	6.985
560.10	7.138
560.44	7.128
560.78	7.518
561.12	7.322
561.45	7.757
561.79	7.251
562.13	6.975
562.47	7.240
562.81	7.043
563.15	6.689
563.48	8.289
563.82	7.045
564.16	7.063
564.50	6.836
564.84	6.258
565.17	7.529
565.51	6.837
565.85	7.424
566.19	6.262
566.52	7.030
566.86	6.570
567.20	7.252
567.54	6.849
567.88	6.464
568.21	6.402
568.55	6.724
568.89	6.323
569.23	6.462
569.56	6.113
569.90	5.849
570.24	5.705
570.57	6.052
570.91	5.527
571.25	6.053
571.59	5.832
571.92	5.732
572.26	5.604
572.60	5.766
572.93	5.397
573.27	5.856
573.61	5.751
573.95	5.891
574.28	5.452
574.62	5.248
574.96	5.711
575.29	5.068
575.63	5.640
575.97	5.493
576.30	5.709
576.64	5.560
576.98	5.372
577.31	5.430
577.65	5.320
577.98	5.388
578.32	5.342
578.66	5.430
578.99	5.433
579.33	5.301
579.67	5.351
580.00	5.610
580.34	5.339
580.67	5.271
581.01	5.577
581.35	5.298
581.68	5.263
582.02	5.265
582.35	4.937
582.69	5.344
583.02	5.148
583.36	5.372
583.70	5.495
584.03	5.408
584.37	5.718
584.70	4.859
585.04	5.920
585.37	5.732
585.71	5.639
586.04	5.678
586.38	5.512
586.72	5.827
587.05	5.325
587.39	5.224
587.72	5.591
588.06	5.309
588.39	5.652
588.73	5.661
589.06	5.609
589.40	5.522
589.73	5.597
590.07	6.263
590.40	5.517
590.73	5.855
591.07	6.675
591.40	6.116
591.74	6.190
592.07	6.239
592.41	6.036
592.74	6.255
593.08	5.863
593.41	5.346
593.75	5.996
594.08	5.531
594.41	6.080
594.75	5.878
595.08	5.655
595.42	6.025
595.75	5.805
596.09	6.196
596.42	6.365
596.75	6.163
597.09	6.364
597.42	6.197
597.75	5.865
598.09	6.652
598.42	5.713
598.76	6.242
599.09	5.777
599.42	5.750
599.76	5.820
600.09	5.756
600.42	5.917
600.76	5.429
601.09	5.792
601.42	5.594
601.76	5.806
602.09	5.494
602.42	5.732
602.76	6.409
603.09	5.507
603.42	6.287
603.76	5.945
604.09	5.816
604.42	5.463
604.76	6.158
605.09	5.985
605.42	5.686
605.75	5.836
606.09	5.490
606.42	5.640
606.75	5.848
607.09	6.321
607.42	5.220
607.75	5.401
608.08	5.601
608.42	6.096
608.75	6.718
609.08	5.874
609.41	6.092
609.75	6.098
610.08	6.645
610.41	5.307
610.74	5.960
611.07	5.879
611.41	6.035
611.74	5.983
612.07	6.263
612.40	6.401
612.73	5.842
613.07	6.304
613.40	6.214
613.73	5.506
614.06	6.613
614.39	6.555
614.72	6.947
615.06	6.408
615.39	5.573
615.72	5.777
616.05	6.114
616.38	6.615
616.71	6.829
617.05	6.302
617.38	6.013
617.71	6.126
618.04	6.731
618.37	7.274
618.70	6.098
619.03	6.711
619.36	6.993
619.69	6.338
620.03	7.555
620.36	6.818
620.69	7.192
621.02	7.301
621.35	7.048
621.68	5.997
622.01	6.502
622.34	7.640
622.67	6.540
623.00	6.383
623.33	6.433
623.66	6.433
623.99	6.701
624.32	6.919
624.65	7.133
624.99	6.445
625.32	6.300
625.65	7.137
625.98	7.071
626.31	6.998
626.64	7.673
626.97	6.401
627.30	6.318
627.63	7.711
627.96	7.149
628.29	7.087
628.62	7.777
628.95	8.774
629.28	6.387
629.61	7.791
629.94	7.619
630.26	7.245
630.59	7.817
630.92	7.567
631.25	6.318
631.58	7.508
631.91	7.099
632.24	7.595
632.57	7.765
632.90	7.237
633.23	7.494
633.56	9.040
633.89	7.588
634.22	8.400
634.55	8.284
634.88	7.186
635.20	8.602
635.53	8.795
635.86	7.797
636.19	7.412
636.52	6.805
636.85	7.446
637.18	8.180
637.51	8.038
637.83	6.782
638.16	8.568
638.49	9.572
638.82	8.976
639.15	8.875
639.48	8.229
639.81	9.115
640.13	8.464
640.46	7.785
640.79	9.379
641.12	7.840
641.45	8.799
641.77	7.658
642.10	9.064
642.43	7.357
642.76	8.978
643.09	8.742
643.41	8.649
643.74	9.568
644.07	8.841
644.40	9.969
644.73	10.551
645.05	10.777
645.38	8.215
645.71	8.213
646.04	8.970
646.36	10.351
646.69	8.863
647.02	10.034
647.35	8.935
647.67	9.204
648.00	11.382
648.33	8.416
648.66	9.091
648.98	10.495
649.31	7.324
649.64	10.463
649.96	8.644
650.29	8.057
650.62	8.414
650.94	10.373
651.27	11.486
651.60	12.313
651.92	10.224
652.25	9.283
652.58	9.813
652.90	9.953
653.23	7.704
653.56	6.614
653.88	10.143
654.21	9.795
654.54	7.591
654.86	7.944
655.19	8.243
655.52	5.499
655.84	3.985
656.17	4.611
656.49	6.211
656.82	6.417
657.15	5.012
657.47	3.887
657.80	3.105
658.13	3.147
658.45	4.863
658.78	4.876
659.10	5.365
659.43	5.922
659.75	6.342
660.08	7.025
660.41	7.542
660.73	9.403
661.06	9.236
661.38	10.364
661.71	11.923
662.03	10.454
662.36	7.555
662.68	9.839
663.01	9.697
663.33	8.493
663.66	10.504
663.98	8.207
664.31	8.824
664.63	10.121
664.96	7.445
665.28	11.270
665.61	9.552
665.93	9.859
666.26	7.708
666.58	7.531
666.91	9.302
667.23	12.809
667.56	9.071
667.88	10.897
668.21	10.235
668.53	9.544
668.86	8.442
669.18	11.940
669.50	10.870
669.83	13.943
670.15	11.333
670.48	10.022
670.80	10.345
671.13	8.705
671.45	10.426
671.77	12.220
672.10	11.460
672.42	8.481
672.75	6.965
673.07	9.331
673.39	7.233
673.72	7.227
674.04	10.784
674.37	11.456
674.69	5.726
675.01	7.322
675.34	13.347
675.66	12.632
675.98	11.202
676.31	10.924
676.63	9.766
676.95	9.224
677.28	8.178
677.60	10.549
677.92	14.557
678.25	10.267
678.57	8.566
678.89	8.818
679.22	8.251
679.54	12.023
679.86	10.092
680.18	9.481
680.51	11.702
680.83	8.897
681.15	10.755
681.48	10.775
681.80	8.704
682.12	8.429
682.44	8.511
682.77	10.387
683.09	12.017
683.41	7.761
683.73	10.375
684.06	8.471
684.38	9.198
684.70	7.946
685.02	8.068
685.34	10.989
685.67	8.217
685.99	9.107
686.31	8.020
686.63	6.890
686.96	9.464
687.28	8.664
687.60	9.058
687.92	10.420
688.24	9.125
688.56	11.245
688.89	10.581
689.21	12.009
689.53	12.317
689.85	10.200
690.17	7.453
690.49	11.040
690.82	10.047
691.14	10.714
691.46	8.861
691.78	12.450
692.10	10.537
692.42	10.379
692.74	7.676
693.06	11.277
693.39	11.088
693.71	8.515
694.03	11.579
694.35	9.091
694.67	9.611
694.99	10.976
695.31	8.578
695.63	10.526
695.95	11.247
696.27	9.391
696.59	10.881
696.91	10.881
697.23	8.216
697.56	9.808
697.88	5.112
698.20	10.833
698.52	9.677
698.84	9.800
699.16	8.065
699.48	9.264
699.80	9.179
700.12	11.948
700.44	11.141
700.76	9.945
701.08	11.207
701.40	9.218
701.72	9.621
702.04	17.045
702.36	10.198
702.68	9.915
703.00	12.742
703.32	9.574
703.64	11.796
703.96	11.142
704.28	10.174
704.60	12.317
704.91	13.056
705.23	8.211
705.55	13.289
705.87	13.289
706.19	13.428
706.51	13.707
706.83	12.727
707.15	12.885
707.47	10.354
707.79	12.285
708.11	12.557
708.43	10.000
708.74	9.184
709.06	11.948
709.38	11.549
709.70	11.628
710.02	12.166
710.34	7.576
710.66	11.642
710.98	10.511
711.29	11.919
711.61	13.864
711.93	8.974
712.25	14.791
712.57	8.088
712.89	11.765
713.20	15.198
713.52	12.500
713.84	11.076
714.16	9.451
714.48	10.632
714.80	14.894
715.11	10.086
715.43	12.463
715.75	11.594
716.07	8.946
716.39	13.166
716.70	13.953
717.02	16.547
717.34	13.781
717.66	19.030
717.97	11.155
718.29	8.889
718.61	14.599
718.93	17.279
719.24	11.419
719.56	11.864
719.88	13.220
720.20	15.203
720.51	14.983
720.83	13.755
721.15	11.194
721.46	13.121
721.78	13.620
722.10	10.943
722.42	16.165
722.73	14.232
723.05	10.656
723.37	13.360
723.68	14.672
724.00	12.195
724.32	12.500
724.63	15.854
724.95	12.552
725.27	14.575
725.58	10.937
725.90	12.774
726.22	13.208
726.53	11.806
726.85	11.604
727.16	11.388
727.48	15.248
727.80	10.227
728.11	13.768
728.43	13.462
728.74	11.828
729.06	15.328
729.38	16.176
729.69	13.879
730.01	11.263
730.32	10.417
730.64	14.047
730.96	12.211
731.27	13.907
731.59	11.315
731.90	13.703
732.22	11.801
732.53	8.669
732.85	11.218
733.16	10.611
733.48	13.289
733.80	12.338
734.11	14.968
734.43	10.651
734.74	9.143
735.06	9.456
735.37	13.295
735.69	7.325
736.00	14.706
736.32	11.526
736.63	10.863
736.95	14.058
737.26	5.102
737.58	7.742
737.89	13.712
738.21	13.993
738.52	13.571
738.83	10.943
739.15	14.615
739.46	17.153
739.78	13.889
740.09	13.538
740.41	16.774
740.72	10.453
741.04	12.593
741.35	12.917
741.66	20.889
741.98	15.094
742.29	14.833
742.61	21.552
742.92	13.122
743.23	14.530
743.55	14.400
743.86	13.158
744.18	18.584
744.49	22.488
744.80	14.085
745.12	19.545
745.43	17.181
745.74	15.315
746.06	17.431
746.37	16.143
746.68	17.195
747.00	16.667
747.31	15.714
747.62	15.044
747.94	14.097
748.25	9.362
748.56	18.943
748.88	12.376
749.19	18.500
749.50	15.349
749.82	12.602
750.13	8.980
750.44	8.029
750.75	18.947
751.07	17.042
751.38	14.634
751.69	10.108
752.01	11.654
752.32	8.664
752.63	13.830
752.94	10.656
753.26	18.000
753.57	10.976
753.88	15.234
754.19	11.429
754.51	15.278
754.82	9.386
755.13	11.321
755.44	12.030
755.75	8.759
756.07	9.929
756.38	9.124
756.69	11.409
757.00	10.479
757.31	11.573
757.63	9.649
757.94	9.920
758.25	10.784
758.56	11.358
758.87	9.946
759.18	12.121
759.50	12.853
759.81	11.526
760.12	6.875
760.43	11.461
760.74	11.141
761.05	8.757
761.36	9.091
761.67	11.648
761.99	9.627
762.30	12.847
762.61	14.885
762.92	8.984
763.23	12.605
763.54	16.400
763.85	13.672
764.16	17.308
764.47	14.068
764.78	14.488
765.10	10.127
765.41	9.440
765.72	8.383
766.03	11.285
766.34	12.333
766.65	17.447
766.96	13.675
767.27	11.675
767.58	21.875
767.89	20.526
768.20	18.966
768.51	20.305
768.82	14.220
769.13	10.569
769.44	10.931
769.75	11.159
770.06	7.798
770.37	15.837
770.68	12.500
770.99	11.556
771.30	9.836
771.61	15.247
771.92	11.885
772.23	17.227
772.54	15.897
772.85	16.754
773.16	12.234
773.47	20.652
773.78	22.335
774.09	19.643
774.39	19.298
774.70	20.988
775.01	15.217
775.32	24.183
775.63	17.105
775.94	19.424
776.25	25.197
776.56	26.119
776.87	18.033
777.18	21.875
777.48	27.481
777.79	17.424
778.10	22.963
778.41	17.857
778.72	16.788
779.03	19.463
779.34	22.819
779.65	14.865
779.95	20.859
780.26	24.837
780.57	31.724
780.88	25.000
781.19	23.308
781.50	29.054
781.80	23.899
782.11	16.949
782.42	19.620
782.73	15.951
783.04	26.351
783.34	23.239
783.65	27.397
783.96	22.388
784.27	13.986
784.57	10.791
784.88	12.963
785.19	26.190
785.50	19.811
785.81	34.328
786.11	25.410
786.42	23.256
786.73	18.584
787.04	20.755
787.34	28.571
787.65	28.000
787.96	27.027
788.26	25.620
788.57	20.339
788.88	22.314
789.19	23.611
789.49	31.061
789.80	24.427
790.11	28.571
790.41	28.713
790.72	26.506
791.03	31.522
791.33	27.907
791.64	32.990
791.95	45.545
792.25	30.000
792.56	35.065
792.87	41.026
793.17	27.848
793.48	40.230
793.79	35.632
794.09	21.591
794.40	24.370
794.70	24.265
795.01	19.259
795.32	16.547
795.62	25.984
795.93	22.414
796.23	24.779
796.54	23.529
796.85	21.622
797.15	39.437
797.46	19.697
797.76	40.964
798.07	25.316
798.37	30.769
798.68	34.848
798.99	23.944
799.29	45.455
799.60	29.545
799.90	47.945
800.21	37.313
800.51	43.103
800.82	45.614
801.12	40.984
801.43	42.424
801.73	27.027
802.04	46.032
802.34	48.148
802.65	43.750
802.95	49.153
803.26	57.812
803.56	27.143
803.87	30.769
804.17	36.765
804.48	53.704
804.78	39.655
805.09	35.294
805.39	30.769
805.70	46.429
806.00	45.902
806.30	28.788
806.61	36.585
806.91	24.051
807.22	27.632
807.52	29.851
807.83	47.887
808.13	25.000
808.43	43.333
808.74	31.579
809.04	39.130
809.35	41.791
809.65	42.105
809.95	56.452
810.26	32.203
810.56	39.683
810.86	65.909
811.17	73.810
811.47	50.000
811.77	46.296
812.08	61.818
812.38	80.000
812.69	44.444
812.99	56.818
813.29	51.020
813.59	9.524
813.90	65.306
814.20	43.636
814.50	49.231
814.81	58.824
815.11	40.816
815.41	42.623
815.72	69.048
816.02	54.545
816.32	61.905
816.62	55.000
816.93	56.098
817.23	52.381
817.53	54.545
817.84	87.879
818.14	76.087
818.44	68.889
818.74	88.235
819.04	75.000
819.35	34.286
819.65	73.529
819.95	92.857
820.25	75.000
820.56	84.615
820.86	63.636
821.16	83.721
821.46	46.154
821.76	64.000
822.07	54.286
822.37	90.000
822.67	69.697
822.97	68.627
823.27	78.571
823.57	48.649
823.88	87.500
824.18	83.333
824.48	97.619
824.78	100.000
825.08	70.833
825.38	62.162
825.69	70.732
825.99	104.167
826.29	62.069
826.59	81.579
826.89	65.789
827.19	67.647
827.49	80.645
827.79	75.000
828.09	70.455
828.39	42.553
828.70	69.388
829.00	88.889
829.30	35.484
829.60	60.000
829.90	173.333
830.20	100.000
830.50	30.435
830.80	86.957
831.10	86.667
831.40	106.667
831.70	65.217
832.00	92.308
832.30	103.704
832.60	143.750
832.90	146.667
833.20	235.714
833.50	90.323
833.80	79.310
834.10	84.375
834.40	138.462
834.70	116.667
835.00	142.857
835.30	102.857
835.60	107.692
835.90	106.897
836.20	178.571
836.50	82.759
836.80	60.000
837.10	105.556
837.40	80.952
837.70	164.706
838.00	107.407
838.30	114.286
838.60	104.762
838.90	92.308
839.19	90.000
839.49	214.286
839.79	215.000
840.09	140.000
840.39	138.095
840.69	147.826
840.99	105.556
841.29	130.000
841.59	66.667
841.88	112.500
842.18	103.448
842.48	123.810
842.78	103.333
843.08	108.696
843.38	71.875
843.68	300.000
843.97	100.000
844.27	93.103
844.57	128.571
844.87	206.250
845.17	133.333
845.47	833.333
845.76	88.889
846.06	147.059
846.36	100.000
846.66	200.000
846.96	106.250
847.25	100.000
847.55	145.455
847.85	113.043
848.15	160.000
848.44	114.286
848.74	94.444
849.04	158.824
849.34	190.000
849.63	89.474
849.93	209.091
850.23	400.000
850.53	157.143
850.82	700.000
851.12	-1800.000
851.42	2000.000
851.71	105.000
852.01	-500.000
852.31	120.833
852.61	833.333
852.90	142.857
853.20	140.000
853.50	123.529
853.79	142.857
854.09	91.667
854.39	87.500
854.68	94.595
854.98	80.645
855.28	73.333
855.57	96.552
855.87	133.333
856.17	73.684
856.46	20.000
856.76	117.647
857.05	113.793
857.35	104.167
857.65	120.000
857.94	130.435
858.24	161.538
858.53	160.000
858.83	95.455
859.13	200.000
859.42	0.000
859.72	211.111
860.01	136.364
860.31	131.818
860.60	136.842
860.90	108.696
861.20	244.444
861.49	250.000
861.79	-1600.000
862.08	100.000
862.38	161.905
862.67	138.462
862.97	200.000
863.26	233.333
863.56	166.667
863.85	200.000
864.15	212.500
864.44	166.667
864.74	283.333
865.03	287.500
865.33	194.737
865.62	136.364
865.92	269.231
866.21	133.333
866.51	0.000
866.80	218.182
867.10	520.000
867.39	169.231
867.69	154.545
867.98	110.526
868.27	145.455
868.57	126.316
868.86	-2100.000
869.16	181.250
869.45	1400.000
869.75	-700.000
870.04	175.000
870.33	300.000
870.63	275.000
870.92	1000.000
871.22	242.857
871.51	176.471
871.80	109.524
872.10	185.714
>>>>>End Processed Spectral Data<<<<<
