SpectraSuite Data File
++++++++++++++++++++++++++++++++++++
Date: Wed May 13 16:33:47 PDT 2015
User: schluterlab
Dark Spectrum Present: Yes
Reference Spectrum Present: Yes
Number of Sampled Component Spectra: 1
Spectrometers: USB2E3373
Integration Time (usec): 3000 (USB2E3373)
Spectra Averaged: 3 (USB2E3373)
Boxcar Smoothing: 0 (USB2E3373)
Correct for Electrical Dark: No (USB2E3373)
Strobe/Lamp Enabled: No (USB2E3373)
Correct for Detector Non-linearity: No (USB2E3373)
Correct for Stray Light: No (USB2E3373)
Number of Pixels in Processed Spectrum: 2048
>>>>>Begin Processed Spectral Data<<<<<
178.53	0.000
178.91	-1000.000
179.29	-1150.000
179.67	-261.111
180.04	-1475.000
180.42	2250.000
180.80	940.000
181.18	-1025.000
181.56	657.143
181.94	0.000
182.31	-657.143
182.69	1533.333
183.07	-462.500
183.45	-422.222
183.83	481.818
184.20	-410.000
184.58	1650.000
184.96	6400.000
185.34	-620.000
185.72	-600.000
186.09	-2150.000
186.47	2600.000
186.85	2200.000
187.23	4400.000
187.61	-1400.000
187.98	1175.000
188.36	445.455
188.74	500.000
189.12	-940.000
189.49	550.000
189.87	-4300.000
190.25	-1225.000
190.63	385.714
191.00	446.154
191.38	900.000
191.76	-1450.000
192.14	1225.000
192.51	637.500
192.89	850.000
193.27	650.000
193.65	-1050.000
194.02	450.000
194.40	920.000
194.78	500.000
195.15	408.333
195.53	620.000
195.91	-2450.000
196.29	318.750
196.66	278.947
197.04	-320.000
197.42	0.000
197.79	600.000
198.17	-4100.000
198.55	600.000
198.92	637.500
199.30	1260.000
199.68	0.000
200.05	311.111
200.43	700.000
200.81	4200.000
201.18	1533.333
201.56	-1200.000
201.94	533.333
202.31	600.000
202.69	483.333
203.07	470.000
203.44	0.000
203.82	1250.000
204.19	585.714
204.57	400.000
204.95	537.500
205.32	1500.000
205.70	427.273
206.08	292.857
206.45	2050.000
206.83	318.750
207.20	950.000
207.58	520.000
207.96	288.889
208.33	675.000
208.71	-916.667
209.08	600.000
209.46	577.778
209.84	418.182
210.21	-1466.667
210.59	1050.000
210.96	-550.000
211.34	2400.000
211.71	550.000
212.09	716.667
212.46	0.000
212.84	1433.333
213.22	1275.000
213.59	-3800.000
213.97	766.667
214.34	857.143
214.72	463.636
215.09	820.000
215.47	-2600.000
215.84	-2400.000
216.22	1400.000
216.59	335.714
216.97	1050.000
217.34	563.636
217.72	-716.667
218.09	0.000
218.47	-3500.000
218.84	655.556
219.22	714.286
219.59	1733.333
219.97	-457.143
220.34	820.000
220.72	-1433.333
221.09	300.000
221.47	1100.000
221.84	-850.000
222.22	0.000
222.59	1175.000
222.97	-2350.000
223.34	1020.000
223.72	407.692
224.09	1040.000
224.46	2400.000
224.84	-4300.000
225.21	-900.000
225.59	-4000.000
225.96	560.000
226.34	285.000
226.71	2400.000
227.08	687.500
227.46	470.000
227.83	-850.000
228.21	-1800.000
228.58	544.444
228.95	-2050.000
229.33	-1850.000
229.70	1500.000
230.08	785.714
230.45	-760.000
230.82	458.333
231.20	916.667
231.57	614.286
231.95	375.000
232.32	240.909
232.69	372.727
233.07	557.143
233.44	315.385
233.81	-1433.333
234.19	300.000
234.56	416.667
234.93	341.667
235.31	409.091
235.68	230.769
236.05	264.286
236.43	133.333
236.80	263.158
237.17	3900.000
237.55	166.667
237.92	157.143
238.29	219.048
238.67	141.935
239.04	200.000
239.41	108.333
239.79	104.348
240.16	109.524
240.53	104.545
240.91	84.314
241.28	74.000
241.65	88.000
242.02	82.609
242.40	70.968
242.77	65.000
243.14	54.839
243.51	62.921
243.89	47.059
244.26	38.889
244.63	52.688
245.00	35.106
245.38	45.545
245.75	37.383
246.12	44.954
246.49	44.526
246.87	44.800
247.24	39.231
247.61	32.143
247.98	31.373
248.36	29.054
248.73	28.662
249.10	35.669
249.47	27.684
249.84	33.690
250.22	25.668
250.59	24.852
250.96	24.242
251.33	26.066
251.70	25.248
252.08	20.000
252.45	23.318
252.82	20.435
253.19	24.681
253.56	21.569
253.94	21.992
254.31	19.531
254.68	22.692
255.05	18.819
255.42	19.106
255.79	19.118
256.16	20.217
256.54	18.021
256.91	21.352
257.28	15.468
257.65	21.122
258.02	18.944
258.39	20.189
258.76	18.395
259.14	15.774
259.51	15.805
259.88	13.975
260.25	15.710
260.62	13.006
260.99	15.217
261.36	18.018
261.73	14.327
262.10	13.081
262.47	15.775
262.85	13.649
263.22	11.396
263.59	15.954
263.96	13.462
264.33	16.449
264.70	16.053
265.07	15.857
265.44	15.152
265.81	12.652
266.18	12.060
266.55	12.927
266.92	13.514
267.29	12.269
267.66	13.303
268.03	10.227
268.40	11.916
268.77	10.740
269.14	11.486
269.51	11.512
269.88	11.655
270.25	12.867
270.62	9.213
270.99	14.624
271.36	13.305
271.73	8.411
272.10	11.522
272.47	13.333
272.84	12.121
273.21	14.046
273.58	8.515
273.95	9.224
274.32	11.157
274.69	13.062
275.06	9.646
275.43	11.277
275.80	11.623
276.17	10.998
276.54	12.890
276.91	10.277
277.28	10.742
277.65	13.926
278.02	9.524
278.39	13.281
278.76	11.273
279.13	11.698
279.50	11.732
279.87	11.952
280.23	8.782
280.60	9.671
280.97	11.460
281.34	12.212
281.71	12.364
282.08	10.173
282.45	8.000
282.82	10.480
283.19	7.843
283.56	10.000
283.92	11.337
284.29	10.229
284.66	11.071
285.03	9.403
285.40	8.803
285.77	9.764
286.14	9.154
286.51	11.333
286.87	9.231
287.24	10.261
287.61	8.507
287.98	9.740
288.35	9.826
288.72	9.190
289.08	8.764
289.45	9.885
289.82	9.756
290.19	6.750
290.56	8.423
290.93	8.912
291.29	8.896
291.66	7.965
292.03	10.901
292.40	10.573
292.77	8.876
293.13	9.254
293.50	8.163
293.87	8.296
294.24	7.556
294.60	7.860
294.97	9.012
295.34	8.886
295.71	7.955
296.08	6.410
296.44	8.803
296.81	8.983
297.18	7.859
297.55	6.464
297.91	6.728
298.28	6.827
298.65	8.747
299.02	8.169
299.38	7.171
299.75	4.987
300.12	6.513
300.48	7.625
300.85	6.535
301.22	7.643
301.59	6.944
301.95	6.927
302.32	5.905
302.69	7.885
303.05	6.667
303.42	6.667
303.79	6.342
304.15	5.245
304.52	5.214
304.89	6.039
305.25	6.381
305.62	7.475
305.99	6.494
306.35	7.159
306.72	6.390
307.09	6.659
307.45	7.320
307.82	5.134
308.19	7.947
308.55	7.551
308.92	6.122
309.29	5.702
309.65	6.045
310.02	6.342
310.38	7.312
310.75	6.864
311.12	6.551
311.48	6.479
311.85	7.442
312.22	6.452
312.58	6.029
312.95	6.441
313.31	6.311
313.68	5.405
314.05	7.101
314.41	6.935
314.78	7.351
315.14	6.157
315.51	6.591
315.87	6.139
316.24	5.859
316.61	6.920
316.97	5.382
317.34	5.773
317.70	6.788
318.07	7.507
318.43	6.751
318.80	6.842
319.16	6.685
319.53	6.285
319.89	5.810
320.26	7.600
320.62	6.151
320.99	6.667
321.35	6.869
321.72	6.571
322.08	6.614
322.45	7.662
322.81	6.977
323.18	7.033
323.54	7.143
323.91	7.170
324.27	6.405
324.64	6.337
325.00	6.132
325.37	7.461
325.73	7.002
326.10	7.326
326.46	5.018
326.83	6.816
327.19	6.576
327.56	6.010
327.92	6.387
328.29	8.075
328.65	7.551
329.01	6.769
329.38	6.660
329.74	6.648
330.11	6.315
330.47	6.795
330.84	8.456
331.20	6.831
331.56	7.523
331.93	5.741
332.29	7.276
332.66	7.699
333.02	7.038
333.38	6.685
333.75	7.041
334.11	6.762
334.48	6.921
334.84	6.801
335.20	6.364
335.57	6.981
335.93	5.536
336.29	6.593
336.66	5.861
337.02	6.335
337.38	6.204
337.75	6.150
338.11	6.267
338.47	5.985
338.84	6.966
339.20	5.321
339.56	6.296
339.93	5.455
340.29	7.337
340.65	6.061
341.02	6.370
341.38	5.872
341.74	5.526
342.11	6.900
342.47	5.815
342.83	6.849
343.20	7.273
343.56	5.476
343.92	6.316
344.28	6.888
344.65	6.707
345.01	5.892
345.37	5.489
345.73	6.176
346.10	7.076
346.46	6.525
346.82	5.519
347.19	5.597
347.55	5.993
347.91	6.392
348.27	6.491
348.63	6.438
349.00	6.230
349.36	6.650
349.72	6.656
350.08	5.754
350.45	5.777
350.81	5.605
351.17	5.429
351.53	5.979
351.89	5.446
352.26	6.314
352.62	6.977
352.98	6.078
353.34	6.327
353.70	5.810
354.07	6.371
354.43	6.032
354.79	5.792
355.15	5.906
355.51	4.956
355.87	5.796
356.24	6.596
356.60	5.052
356.96	6.436
357.32	5.151
357.68	6.457
358.04	6.572
358.40	5.622
358.77	6.025
359.13	5.919
359.49	5.961
359.85	4.603
360.21	5.502
360.57	6.693
360.93	5.308
361.29	5.593
361.66	5.650
362.02	5.821
362.38	6.692
362.74	5.357
363.10	5.033
363.46	5.796
363.82	5.593
364.18	5.800
364.54	6.538
364.90	5.595
365.26	5.441
365.62	4.821
365.98	4.748
366.35	5.014
366.71	6.074
367.07	5.171
367.43	5.298
367.79	5.567
368.15	6.609
368.51	4.942
368.87	5.710
369.23	5.340
369.59	5.503
369.95	4.779
370.31	5.484
370.67	5.870
371.03	6.517
371.39	5.831
371.75	5.147
372.11	6.117
372.47	6.012
372.83	5.980
373.19	5.853
373.55	5.765
373.91	5.449
374.27	5.498
374.63	4.582
374.99	5.932
375.35	5.234
375.71	5.141
376.07	6.447
376.42	5.227
376.78	5.434
377.14	4.681
377.50	6.358
377.86	4.787
378.22	6.258
378.58	5.514
378.94	5.217
379.30	4.835
379.66	5.901
380.02	5.897
380.38	4.918
380.74	5.582
381.09	5.623
381.45	5.470
381.81	6.143
382.17	5.478
382.53	5.283
382.89	5.432
383.25	4.753
383.61	6.258
383.97	5.191
384.32	5.614
384.68	5.452
385.04	5.286
385.40	4.892
385.76	5.713
386.12	6.671
386.48	5.979
386.83	5.901
387.19	6.122
387.55	5.813
387.91	5.925
388.27	6.499
388.62	6.269
388.98	5.651
389.34	6.258
389.70	6.438
390.06	6.527
390.42	6.161
390.77	6.234
391.13	5.743
391.49	6.472
391.85	5.602
392.20	5.363
392.56	6.566
392.92	5.533
393.28	4.675
393.64	6.055
393.99	5.864
394.35	5.397
394.71	6.399
395.07	5.545
395.42	6.057
395.78	6.489
396.14	5.959
396.50	6.642
396.85	6.357
397.21	6.042
397.57	6.076
397.92	6.310
398.28	5.269
398.64	6.272
399.00	5.764
399.35	5.640
399.71	5.324
400.07	6.328
400.42	6.626
400.78	6.454
401.14	5.671
401.49	5.910
401.85	6.050
402.21	5.509
402.57	5.922
402.92	5.864
403.28	6.059
403.63	5.384
403.99	5.860
404.35	6.242
404.70	6.295
405.06	5.242
405.42	5.677
405.77	5.086
406.13	6.264
406.49	6.091
406.84	6.202
407.20	5.674
407.55	6.126
407.91	5.467
408.27	5.680
408.62	6.201
408.98	5.760
409.34	5.474
409.69	6.129
410.05	5.452
410.40	6.177
410.76	5.735
411.11	6.815
411.47	5.687
411.83	6.170
412.18	5.504
412.54	5.791
412.89	6.325
413.25	5.313
413.60	6.053
413.96	5.950
414.31	5.650
414.67	6.591
415.03	6.291
415.38	6.121
415.74	6.045
416.09	6.205
416.45	5.689
416.80	5.948
417.16	6.300
417.51	6.569
417.87	5.973
418.22	6.309
418.58	6.843
418.93	6.572
419.29	6.111
419.64	6.549
420.00	5.671
420.35	6.029
420.71	6.157
421.06	5.549
421.42	6.082
421.77	5.942
422.12	5.446
422.48	5.505
422.83	5.475
423.19	6.298
423.54	4.817
423.90	6.493
424.25	6.198
424.61	6.310
424.96	5.889
425.31	6.146
425.67	5.506
426.02	5.714
426.38	6.838
426.73	5.442
427.09	5.653
427.44	5.808
427.79	5.290
428.15	6.131
428.50	5.793
428.85	6.794
429.21	6.240
429.56	5.184
429.92	5.586
430.27	5.164
430.62	5.172
430.98	5.397
431.33	6.031
431.68	6.387
432.04	5.059
432.39	5.254
432.74	5.984
433.10	5.490
433.45	5.656
433.80	5.820
434.16	5.716
434.51	5.211
434.86	6.043
435.22	5.781
435.57	5.471
435.92	5.266
436.28	6.228
436.63	6.512
436.98	5.438
437.34	6.559
437.69	6.534
438.04	5.734
438.39	5.493
438.75	6.101
439.10	5.587
439.45	6.553
439.81	5.740
440.16	5.195
440.51	5.624
440.86	5.732
441.22	5.006
441.57	5.892
441.92	5.425
442.27	5.920
442.63	6.056
442.98	5.972
443.33	6.576
443.68	5.731
444.03	5.808
444.39	5.209
444.74	5.519
445.09	5.984
445.44	6.178
445.79	6.185
446.15	6.564
446.50	5.547
446.85	5.653
447.20	5.915
447.55	5.807
447.91	5.350
448.26	5.732
448.61	6.049
448.96	6.257
449.31	5.849
449.66	5.571
450.02	4.903
450.37	5.726
450.72	5.358
451.07	5.667
451.42	5.593
451.77	6.459
452.12	5.947
452.47	5.784
452.83	5.594
453.18	5.685
453.53	6.494
453.88	5.434
454.23	5.918
454.58	6.602
454.93	6.294
455.28	5.237
455.63	6.068
455.98	6.131
456.34	5.590
456.69	5.823
457.04	5.325
457.39	6.020
457.74	6.384
458.09	6.498
458.44	6.385
458.79	5.260
459.14	6.433
459.49	5.954
459.84	6.094
460.19	5.539
460.54	5.556
460.89	5.376
461.24	6.497
461.59	6.915
461.94	5.425
462.29	6.647
462.64	6.126
462.99	6.116
463.34	7.200
463.69	6.191
464.04	6.493
464.39	6.319
464.74	6.120
465.09	5.549
465.44	5.983
465.79	5.425
466.14	6.021
466.49	6.007
466.84	6.188
467.19	5.794
467.54	6.625
467.89	6.122
468.24	6.981
468.59	6.288
468.94	6.231
469.29	5.848
469.64	6.292
469.99	6.631
470.34	5.680
470.68	6.250
471.03	6.939
471.38	6.880
471.73	6.662
472.08	6.974
472.43	6.595
472.78	6.254
473.13	6.162
473.48	6.866
473.83	6.341
474.17	5.912
474.52	6.328
474.87	6.480
475.22	5.746
475.57	5.696
475.92	5.576
476.27	5.581
476.61	5.902
476.96	5.333
477.31	5.338
477.66	5.525
478.01	5.646
478.36	5.817
478.70	5.556
479.05	5.964
479.40	5.374
479.75	5.287
480.10	5.119
480.45	5.569
480.79	5.112
481.14	5.137
481.49	5.790
481.84	5.624
482.19	5.679
482.53	5.780
482.88	5.770
483.23	5.467
483.58	5.414
483.92	5.483
484.27	4.880
484.62	5.129
484.97	4.848
485.31	4.863
485.66	4.179
486.01	3.832
486.36	3.642
486.70	3.715
487.05	4.082
487.40	4.111
487.75	4.545
488.09	4.823
488.44	4.303
488.79	5.208
489.13	5.424
489.48	4.853
489.83	4.834
490.17	5.436
490.52	5.093
490.87	5.563
491.22	5.321
491.56	5.330
491.91	5.584
492.26	5.145
492.60	5.991
492.95	5.098
493.30	5.187
493.64	5.226
493.99	4.828
494.34	5.597
494.68	5.678
495.03	5.733
495.37	5.537
495.72	5.458
496.07	4.872
496.41	5.265
496.76	5.673
497.11	4.773
497.45	5.822
497.80	5.278
498.14	5.121
498.49	5.024
498.84	5.081
499.18	5.190
499.53	5.413
499.87	5.452
500.22	5.511
500.56	6.165
500.91	5.000
501.26	5.358
501.60	5.695
501.95	5.500
502.29	5.717
502.64	5.168
502.98	5.283
503.33	5.210
503.67	4.965
504.02	5.472
504.36	5.569
504.71	5.081
505.06	5.542
505.40	5.105
505.75	5.207
506.09	5.539
506.44	4.983
506.78	5.309
507.13	5.452
507.47	5.707
507.82	6.535
508.16	5.218
508.51	5.479
508.85	5.164
509.19	5.612
509.54	5.204
509.88	5.461
510.23	5.707
510.57	6.450
510.92	5.593
511.26	5.242
511.61	6.224
511.95	5.585
512.30	5.461
512.64	5.481
512.98	5.573
513.33	5.835
513.67	5.336
514.02	5.249
514.36	6.062
514.70	6.475
515.05	5.912
515.39	5.889
515.74	5.518
516.08	6.540
516.42	6.548
516.77	6.076
517.11	5.771
517.46	6.772
517.80	6.388
518.14	6.022
518.49	6.068
518.83	6.705
519.17	5.947
519.52	5.772
519.86	6.218
520.20	6.532
520.55	6.643
520.89	6.265
521.23	6.815
521.58	6.002
521.92	6.797
522.26	6.284
522.61	6.480
522.95	6.568
523.29	5.721
523.64	6.220
523.98	6.593
524.32	7.177
524.66	6.855
525.01	6.679
525.35	6.134
525.69	5.296
526.04	6.168
526.38	7.077
526.72	6.135
527.06	5.901
527.41	5.322
527.75	6.495
528.09	6.423
528.43	6.883
528.78	6.761
529.12	6.182
529.46	6.920
529.80	6.559
530.15	6.604
530.49	7.077
530.83	6.392
531.17	6.984
531.51	7.004
531.86	5.742
532.20	7.236
532.54	7.431
532.88	6.547
533.22	6.433
533.57	6.790
533.91	6.442
534.25	6.197
534.59	6.650
534.93	6.663
535.27	6.759
535.62	6.410
535.96	5.838
536.30	5.849
536.64	6.761
536.98	6.967
537.32	6.912
537.66	6.600
538.01	6.978
538.35	6.658
538.69	7.339
539.03	6.368
539.37	5.815
539.71	5.250
540.05	6.667
540.39	6.312
540.73	5.498
541.07	6.424
541.42	7.045
541.76	7.161
542.10	6.921
542.44	5.828
542.78	7.181
543.12	5.822
543.46	7.016
543.80	6.506
544.14	5.135
544.48	6.603
544.82	6.735
545.16	5.986
545.50	6.362
545.84	6.250
546.18	6.532
546.52	7.226
546.86	6.323
547.20	6.878
547.54	6.613
547.88	7.526
548.22	7.036
548.56	6.604
548.90	5.570
549.24	5.859
549.58	6.753
549.92	7.074
550.26	7.244
550.60	6.846
550.94	6.690
551.28	5.560
551.62	6.758
551.96	6.526
552.30	7.235
552.64	6.897
552.98	6.780
553.32	6.878
553.66	6.612
554.00	6.863
554.34	6.694
554.68	6.938
555.02	6.347
555.36	6.333
555.69	6.360
556.03	6.864
556.37	7.026
556.71	6.071
557.05	6.793
557.39	6.788
557.73	6.916
558.07	7.469
558.41	6.585
558.75	7.715
559.08	6.786
559.42	6.652
559.76	7.132
560.10	6.995
560.44	6.219
560.78	6.321
561.12	6.662
561.45	7.757
561.79	6.592
562.13	6.774
562.47	6.899
562.81	6.137
563.15	6.890
563.48	6.631
563.82	6.523
564.16	6.606
564.50	5.339
564.84	6.321
565.17	6.178
565.51	6.581
565.85	6.980
566.19	5.761
566.52	6.460
566.86	5.907
567.20	6.486
567.54	5.822
567.88	5.323
568.21	6.878
568.55	6.218
568.89	5.302
569.23	5.660
569.56	5.182
569.90	4.717
570.24	4.880
570.57	4.828
570.91	4.816
571.25	4.663
571.59	5.096
571.92	4.522
572.26	4.448
572.60	4.925
572.93	4.828
573.27	4.703
573.61	4.439
573.95	4.496
574.28	4.146
574.62	4.179
574.96	4.205
575.29	4.365
575.63	4.446
575.97	4.348
576.30	4.806
576.64	4.347
576.98	4.132
577.31	4.182
577.65	4.148
577.98	3.940
578.32	4.091
578.66	4.277
578.99	4.086
579.33	4.260
579.67	4.233
580.00	4.196
580.34	4.177
580.67	4.160
581.01	4.475
581.35	4.111
581.68	4.147
582.02	3.866
582.35	3.888
582.69	3.885
583.02	4.059
583.36	4.635
583.70	4.545
584.03	4.650
584.37	4.664
584.70	4.363
585.04	4.672
585.37	4.637
585.71	4.511
586.04	4.373
586.38	4.572
586.72	4.750
587.05	4.265
587.39	4.195
587.72	4.561
588.06	4.429
588.39	4.664
588.73	4.987
589.06	5.079
589.40	4.983
589.73	4.787
590.07	4.840
590.40	5.480
590.73	5.230
591.07	5.779
591.40	5.694
591.74	5.325
592.07	5.410
592.41	5.539
592.74	4.906
593.08	4.963
593.41	4.777
593.75	4.934
594.08	5.028
594.41	5.196
594.75	4.769
595.08	5.333
595.42	5.149
595.75	4.950
596.09	5.483
596.42	5.697
596.75	5.530
597.09	6.190
597.42	5.017
597.75	5.520
598.09	5.826
598.42	4.983
598.76	5.229
599.09	5.397
599.42	4.949
599.76	5.454
600.09	4.954
600.42	4.602
600.76	5.107
601.09	4.954
601.42	5.175
601.76	5.123
602.09	5.138
602.42	5.613
602.76	5.804
603.09	5.468
603.42	5.701
603.76	5.335
604.09	4.963
604.42	5.422
604.76	5.652
605.09	5.111
605.42	5.943
605.75	5.546
606.09	4.921
606.42	5.067
606.75	5.392
607.09	5.818
607.42	5.434
607.75	4.684
608.08	5.254
608.42	5.961
608.75	5.636
609.08	5.735
609.41	5.331
609.75	5.384
610.08	6.268
610.41	5.540
610.74	5.014
611.07	5.534
611.41	5.201
611.74	5.380
612.07	5.383
612.40	5.876
612.73	5.842
613.07	6.304
613.40	6.056
613.73	5.034
614.06	5.860
614.39	6.188
614.72	5.947
615.06	6.303
615.39	5.308
615.72	6.033
616.05	5.848
616.38	5.948
616.71	6.176
617.05	6.360
617.38	5.893
617.71	5.946
618.04	5.769
618.37	6.150
618.70	6.161
619.03	6.711
619.36	6.178
619.69	6.690
620.03	7.005
620.36	7.219
620.69	7.671
621.02	6.858
621.35	6.578
621.68	7.165
622.01	6.502
622.34	8.623
622.67	6.844
623.00	5.869
623.33	6.004
623.66	6.791
623.99	6.554
624.32	7.347
624.65	6.285
624.99	5.807
625.32	6.517
625.65	7.213
625.98	7.686
626.31	7.309
626.64	7.184
626.97	6.484
627.30	6.567
627.63	7.383
627.96	8.579
628.29	6.999
628.62	8.326
628.95	9.057
629.28	8.303
629.61	9.533
629.94	8.095
630.26	8.198
630.59	8.008
630.92	7.471
631.25	6.219
631.58	7.808
631.91	8.114
632.24	8.439
632.57	8.290
632.90	8.553
633.23	8.277
633.56	9.266
633.89	9.287
634.22	8.967
634.55	8.876
634.88	7.784
635.20	8.483
635.53	8.916
635.86	8.911
636.19	8.706
636.52	8.189
636.85	8.018
637.18	9.793
637.51	8.392
637.83	6.782
638.16	8.184
638.49	9.950
638.82	10.746
639.15	9.875
639.48	8.978
639.81	9.383
640.13	10.417
640.46	8.859
640.79	9.775
641.12	9.491
641.45	8.101
641.77	9.573
642.10	9.795
642.43	9.910
642.76	9.443
643.09	9.663
643.41	11.533
643.74	11.111
644.07	10.976
644.40	10.276
644.73	13.543
645.05	11.410
645.38	10.742
645.71	9.984
646.04	11.130
646.36	11.853
646.69	11.204
647.02	9.524
647.35	14.089
647.67	10.265
648.00	12.520
648.33	10.561
648.66	9.697
648.98	9.895
649.31	8.969
649.64	11.958
649.96	10.581
650.29	11.690
650.62	9.871
650.94	12.642
651.27	11.655
651.60	12.646
651.92	12.460
652.25	9.935
652.58	10.748
652.90	12.480
653.23	8.937
653.56	9.606
653.88	10.935
654.21	11.690
654.54	11.716
654.86	8.879
655.19	8.919
655.52	5.021
655.84	3.017
656.17	3.532
656.49	4.769
656.82	4.965
657.15	4.172
657.47	3.233
657.80	2.553
658.13	2.792
658.45	4.236
658.78	4.612
659.10	5.021
659.43	5.548
659.75	6.029
660.08	7.089
660.41	8.287
660.73	10.801
661.06	11.624
661.38	13.818
661.71	11.538
662.03	14.596
662.36	10.338
662.68	11.847
663.01	13.939
663.33	12.102
663.66	12.395
663.98	13.175
664.31	11.345
664.63	12.348
664.96	10.262
665.28	14.344
665.61	12.281
665.93	12.072
666.26	12.373
666.58	11.297
666.91	15.011
667.23	11.910
667.56	12.959
667.88	13.034
668.21	14.712
668.53	13.449
668.86	12.554
669.18	14.712
669.50	15.435
669.83	15.468
670.15	14.444
670.48	10.893
670.80	13.793
671.13	14.013
671.45	11.064
671.77	13.442
672.10	11.830
672.42	11.484
672.75	9.287
673.07	9.859
673.39	9.403
673.72	10.352
674.04	11.176
674.37	12.039
674.69	11.861
675.01	12.134
675.34	14.168
675.66	14.316
675.98	12.220
676.31	14.286
676.63	12.739
676.95	12.998
677.28	10.981
677.60	14.505
677.92	13.502
678.25	13.552
678.57	14.143
678.89	14.228
679.22	12.181
679.54	12.023
679.86	12.661
680.18	12.165
680.51	11.525
680.83	12.278
681.15	12.830
681.48	13.800
681.80	12.186
682.12	11.494
682.44	11.025
682.77	12.016
683.09	15.880
683.41	13.525
683.73	13.245
684.06	11.570
684.38	11.546
684.70	11.047
685.02	13.321
685.34	11.722
685.67	9.790
685.99	8.076
686.31	11.092
686.63	9.187
686.96	10.179
687.28	10.830
687.60	11.594
687.92	11.335
688.24	12.357
688.56	9.839
688.89	13.071
689.21	13.100
689.53	12.944
689.85	14.191
690.17	12.422
690.49	14.013
690.82	11.682
691.14	12.500
691.46	11.392
691.78	14.257
692.10	11.364
692.42	12.774
692.74	12.241
693.06	12.340
693.39	14.374
693.71	11.572
694.03	13.263
694.35	11.688
694.67	12.815
694.99	14.878
695.31	11.520
695.63	12.919
695.95	11.980
696.27	11.929
696.59	14.508
696.91	13.990
697.23	11.033
697.56	15.565
697.88	11.247
698.20	12.083
698.52	13.978
698.84	13.363
699.16	13.594
699.48	12.114
699.80	13.527
700.12	15.844
700.44	16.711
700.76	14.365
701.08	14.368
701.40	13.966
701.72	15.452
702.04	21.307
702.36	13.598
702.68	15.581
703.00	17.175
703.32	11.702
703.64	16.890
703.96	17.549
704.28	14.826
704.60	17.302
704.91	16.914
705.23	16.716
705.55	18.937
705.87	23.588
706.19	13.428
706.51	19.003
706.83	19.091
707.15	13.725
707.47	14.899
707.79	16.708
708.11	16.667
708.43	15.476
708.74	12.500
709.06	16.364
709.38	16.535
709.70	15.698
710.02	18.101
710.34	14.848
710.66	15.224
710.98	21.023
711.29	18.314
711.61	20.059
711.93	17.949
712.25	20.579
712.57	15.809
712.89	19.723
713.20	18.541
713.52	19.079
713.84	17.722
714.16	17.988
714.48	15.805
714.80	17.933
715.11	18.156
715.43	14.243
715.75	16.232
716.07	20.128
716.39	17.241
716.70	18.605
717.02	17.626
717.34	19.081
717.66	21.269
717.97	25.498
718.29	18.519
718.61	20.803
718.93	20.221
719.24	20.069
719.56	18.305
719.88	18.983
720.20	21.284
720.51	21.951
720.83	20.074
721.15	18.657
721.46	20.922
721.78	24.731
722.10	20.000
722.42	20.301
722.73	19.101
723.05	19.672
723.37	17.814
723.68	22.394
724.00	20.732
724.32	20.565
724.63	18.293
724.95	16.318
725.27	25.506
725.58	18.750
725.90	22.628
726.22	18.868
726.53	20.833
726.85	20.819
727.16	18.861
727.48	20.213
727.80	17.045
728.11	21.014
728.43	18.077
728.74	21.147
729.06	21.533
729.38	23.162
729.69	23.132
730.01	16.724
730.32	17.361
730.64	21.739
730.96	15.512
731.27	18.543
731.59	18.654
731.90	19.534
732.22	18.634
732.53	15.170
732.85	17.308
733.16	20.257
733.48	18.272
733.80	22.078
734.11	17.516
734.43	19.527
734.74	16.000
735.06	14.040
735.37	17.630
735.69	15.287
736.00	21.895
736.32	16.199
736.63	15.974
736.95	17.572
737.26	11.565
737.58	14.839
737.89	17.726
738.21	17.747
738.52	18.214
738.83	22.264
739.15	20.769
739.46	19.708
739.78	20.139
740.09	17.846
740.41	19.677
740.72	19.512
741.04	18.148
741.35	17.500
741.66	27.111
741.98	17.925
742.29	25.359
742.61	25.862
742.92	19.910
743.23	24.359
743.55	20.400
743.86	18.860
744.18	28.319
744.49	23.923
744.80	23.944
745.12	29.091
745.43	26.872
745.74	26.577
746.06	22.477
746.37	21.525
746.68	25.792
747.00	23.611
747.31	26.667
747.62	21.239
747.94	19.383
748.25	19.149
748.56	30.396
748.88	23.267
749.19	28.000
749.50	23.256
749.82	23.577
750.13	17.551
750.44	21.533
750.75	20.351
751.07	23.473
751.38	19.164
751.69	18.412
752.01	19.549
752.32	18.051
752.63	18.794
752.94	20.902
753.26	23.200
753.57	18.293
753.88	19.922
754.19	16.786
754.51	24.653
754.82	16.606
755.13	18.113
755.44	17.293
755.75	17.153
756.07	21.631
756.38	14.599
756.69	20.134
757.00	18.563
757.31	16.320
757.63	14.912
757.94	15.282
758.25	13.971
758.56	12.840
758.87	11.828
759.18	18.485
759.50	15.987
759.81	18.069
760.12	15.625
760.43	15.759
760.74	17.120
761.05	19.209
761.36	16.845
761.67	19.318
761.99	16.149
762.30	19.444
762.61	18.702
762.92	25.000
763.23	19.748
763.54	20.400
763.85	17.187
764.16	23.846
764.47	23.194
764.78	18.728
765.10	16.456
765.41	16.519
765.72	17.665
766.03	17.555
766.34	17.667
766.65	18.723
766.96	19.231
767.27	27.919
767.58	29.167
767.89	30.526
768.20	24.713
768.51	20.305
768.82	24.771
769.13	18.293
769.44	21.457
769.75	20.172
770.06	13.303
770.37	27.149
770.68	25.926
770.99	24.444
771.30	20.492
771.61	24.215
771.92	24.180
772.23	26.891
772.54	26.154
772.85	30.366
773.16	27.128
773.47	29.891
773.78	31.472
774.09	27.976
774.39	27.485
774.70	35.185
775.01	37.681
775.32	39.869
775.63	33.553
775.94	39.568
776.25	44.882
776.56	34.328
776.87	36.885
777.18	39.844
777.48	40.458
777.79	46.970
778.10	38.519
778.41	42.857
778.72	29.927
779.03	39.597
779.34	29.530
779.65	29.054
779.95	30.061
780.26	38.562
780.57	37.931
780.88	42.187
781.19	35.338
781.50	36.486
781.80	37.736
782.11	29.379
782.42	27.848
782.73	27.607
783.04	37.838
783.34	31.690
783.65	35.616
783.96	34.328
784.27	32.867
784.57	33.813
784.88	32.407
785.19	42.857
785.50	48.113
785.81	52.985
786.11	40.164
786.42	37.209
786.73	39.823
787.04	48.113
787.34	44.643
787.65	42.000
787.96	42.342
788.26	38.843
788.57	53.390
788.88	42.975
789.19	37.500
789.49	40.909
789.80	41.985
790.11	53.333
790.41	56.436
790.72	42.169
791.03	56.522
791.33	50.000
791.64	34.021
791.95	55.446
792.25	62.222
792.56	59.740
792.87	71.795
793.17	64.557
793.48	54.023
793.79	52.874
794.09	55.682
794.40	41.176
794.70	48.529
795.01	33.333
795.32	35.252
795.62	40.157
795.93	40.517
796.23	32.743
796.54	52.941
796.85	44.595
797.15	70.423
797.46	63.636
797.76	69.880
798.07	64.557
798.37	64.615
798.68	53.030
798.99	50.704
799.29	57.143
799.60	48.864
799.90	71.233
800.21	61.194
800.51	70.690
800.82	82.456
801.12	72.131
801.43	72.727
801.73	55.405
802.04	84.127
802.34	61.728
802.65	84.375
802.95	84.746
803.26	90.625
803.56	65.714
803.87	64.615
804.17	67.647
804.48	96.296
804.78	55.172
805.09	79.412
805.39	88.462
805.70	60.714
806.00	90.164
806.30	63.636
806.61	71.951
806.91	54.430
807.22	65.789
807.52	56.716
807.83	61.972
808.13	71.875
808.43	73.333
808.74	57.895
809.04	76.812
809.35	82.090
809.65	73.684
809.95	96.774
810.26	76.271
810.56	73.016
810.86	86.364
811.17	114.286
811.47	110.000
811.77	85.185
812.08	98.182
812.38	100.000
812.69	116.667
812.99	115.909
813.29	120.408
813.59	100.000
813.90	114.286
814.20	83.636
814.50	63.077
814.81	83.824
815.11	97.959
815.41	75.410
815.72	107.143
816.02	105.455
816.32	73.810
816.62	117.500
816.93	102.439
817.23	121.429
817.53	118.182
817.84	124.242
818.14	139.130
818.44	95.556
818.74	141.176
819.04	125.000
819.35	131.429
819.65	158.824
819.95	150.000
820.25	165.000
820.56	128.205
820.86	118.182
821.16	125.581
821.46	120.513
821.76	98.000
822.07	125.714
822.37	117.500
822.67	133.333
822.97	101.961
823.27	200.000
823.57	121.622
823.88	127.500
824.18	153.333
824.48	147.619
824.78	208.000
825.08	162.500
825.38	135.135
825.69	100.000
825.99	183.333
826.29	148.276
826.59	142.105
826.89	110.526
827.19	147.059
827.49	141.935
827.79	143.182
828.09	120.455
828.39	112.766
828.70	116.327
829.00	140.741
829.30	141.935
829.60	122.500
829.90	240.000
830.20	175.000
830.50	165.217
830.80	165.217
831.10	176.667
831.40	173.333
831.70	143.478
832.00	184.615
832.30	174.074
832.60	275.000
832.90	186.667
833.20	364.286
833.50	183.871
833.80	162.069
834.10	187.500
834.40	192.308
834.70	233.333
835.00	280.952
835.30	128.571
835.60	246.154
835.90	165.517
836.20	342.857
836.50	182.759
836.80	192.000
837.10	177.778
837.40	176.190
837.70	264.706
838.00	188.889
838.30	190.476
838.60	223.810
838.90	173.077
839.19	215.000
839.49	342.857
839.79	285.000
840.09	235.000
840.39	266.667
840.69	200.000
840.99	283.333
841.29	460.000
841.59	316.667
841.88	343.750
842.18	127.586
842.48	238.095
842.78	193.333
843.08	200.000
843.38	150.000
843.68	700.000
843.97	192.308
844.27	186.207
844.57	242.857
844.87	300.000
845.17	196.296
845.47	1433.333
845.76	388.889
846.06	247.059
846.36	525.000
846.66	292.857
846.96	231.250
847.25	336.364
847.55	336.364
847.85	208.696
848.15	420.000
848.44	342.857
848.74	211.111
849.04	282.353
849.34	330.000
849.63	215.789
849.93	445.455
850.23	820.000
850.53	407.143
850.82	1750.000
851.12	-3700.000
851.42	4300.000
851.71	275.000
852.01	-1200.000
852.31	191.667
852.61	1033.333
852.90	228.571
853.20	260.000
853.50	305.882
853.79	238.095
854.09	200.000
854.39	250.000
854.68	145.946
854.98	154.839
855.28	150.000
855.57	189.655
855.87	192.593
856.17	252.632
856.46	200.000
856.76	211.765
857.05	210.345
857.35	204.167
857.65	333.333
857.94	234.783
858.24	211.538
858.53	245.000
858.83	195.455
859.13	313.333
859.42	0.000
859.72	455.556
860.01	381.818
860.31	209.091
860.60	184.211
860.90	247.826
861.20	522.222
861.49	408.333
861.79	-4300.000
862.08	487.500
862.38	228.571
862.67	384.615
862.97	329.412
863.26	500.000
863.56	233.333
863.85	341.667
864.15	487.500
864.44	340.000
864.74	866.667
865.03	600.000
865.33	242.105
865.62	336.364
865.92	392.308
866.21	350.000
866.51	0.000
866.80	263.636
867.10	860.000
867.39	392.308
867.69	436.364
867.98	242.105
868.27	418.182
868.57	268.421
868.86	-4000.000
869.16	362.500
869.45	2450.000
869.75	-4200.000
870.04	375.000
870.33	685.714
870.63	900.000
870.92	2550.000
871.22	614.286
871.51	305.882
871.80	252.381
872.10	342.857
>>>>>End Processed Spectral Data<<<<<
