SpectraSuite Data File
++++++++++++++++++++++++++++++++++++
Date: Wed May 13 16:55:38 PDT 2015
User: schluterlab
Dark Spectrum Present: Yes
Reference Spectrum Present: Yes
Number of Sampled Component Spectra: 1
Spectrometers: USB2E3373
Integration Time (usec): 3000 (USB2E3373)
Spectra Averaged: 3 (USB2E3373)
Boxcar Smoothing: 0 (USB2E3373)
Correct for Electrical Dark: No (USB2E3373)
Strobe/Lamp Enabled: No (USB2E3373)
Correct for Detector Non-linearity: No (USB2E3373)
Correct for Stray Light: No (USB2E3373)
Number of Pixels in Processed Spectrum: 2048
>>>>>Begin Processed Spectral Data<<<<<
178.53	0.000
178.91	-1300.000
179.29	-1325.000
179.67	-233.333
180.04	-1150.000
180.42	2450.000
180.80	840.000
181.18	-925.000
181.56	700.000
181.94	0.000
182.31	-685.714
182.69	1500.000
183.07	-587.500
183.45	-666.667
183.83	536.364
184.20	-380.000
184.58	2450.000
184.96	5300.000
185.34	-920.000
185.72	-625.000
186.09	-2250.000
186.47	3000.000
186.85	2550.000
187.23	4900.000
187.61	-1600.000
187.98	1425.000
188.36	554.545
188.74	518.182
189.12	-840.000
189.49	600.000
189.87	-5200.000
190.25	-1350.000
190.63	407.143
191.00	484.615
191.38	800.000
191.76	-1200.000
192.14	1200.000
192.51	625.000
192.89	1016.667
193.27	562.500
193.65	-1250.000
194.02	540.000
194.40	980.000
194.78	580.000
195.15	500.000
195.53	550.000
195.91	-2350.000
196.29	393.750
196.66	326.316
197.04	-370.000
197.42	0.000
197.79	690.000
198.17	-5300.000
198.55	642.857
198.92	612.500
199.30	960.000
199.68	0.000
200.05	327.778
200.43	900.000
200.81	3900.000
201.18	1766.667
201.56	-1666.667
201.94	611.111
202.31	577.778
202.69	400.000
203.07	430.000
203.44	0.000
203.82	1100.000
204.19	771.429
204.57	471.429
204.95	625.000
205.32	1633.333
205.70	572.727
206.08	385.714
206.45	2750.000
206.83	356.250
207.20	816.667
207.58	1060.000
207.96	316.667
208.33	650.000
208.71	-766.667
209.08	800.000
209.46	644.444
209.84	509.091
210.21	-1333.333
210.59	1575.000
210.96	-500.000
211.34	2800.000
211.71	610.000
212.09	866.667
212.46	0.000
212.84	1766.667
213.22	1500.000
213.59	-4700.000
213.97	900.000
214.34	857.143
214.72	600.000
215.09	1000.000
215.47	-2450.000
215.84	-2000.000
216.22	1666.667
216.59	400.000
216.97	1375.000
217.34	500.000
217.72	-633.333
218.09	0.000
218.47	-3800.000
218.84	711.111
219.22	742.857
219.59	1666.667
219.97	-685.714
220.34	980.000
220.72	-1733.333
221.09	414.286
221.47	1500.000
221.84	-966.667
222.22	0.000
222.59	1400.000
222.97	-2800.000
223.34	1060.000
223.72	500.000
224.09	1080.000
224.46	2150.000
224.84	-5000.000
225.21	-1040.000
225.59	-5200.000
225.96	620.000
226.34	305.000
226.71	2600.000
227.08	662.500
227.46	660.000
227.83	-1050.000
228.21	-2250.000
228.58	700.000
228.95	-2300.000
229.33	-2750.000
229.70	1733.333
230.08	857.143
230.45	-1040.000
230.82	458.333
231.20	833.333
231.57	742.857
231.95	483.333
232.32	281.818
232.69	463.636
233.07	742.857
233.44	392.308
233.81	-1666.667
234.19	357.895
234.56	583.333
234.93	458.333
235.31	445.455
235.68	400.000
236.05	435.714
236.43	203.030
236.80	336.842
237.17	6600.000
237.55	276.190
237.92	253.571
238.29	309.524
238.67	251.613
239.04	255.172
239.41	219.444
239.79	156.522
240.16	188.095
240.53	181.818
240.91	162.745
241.28	154.000
241.65	176.000
242.02	128.986
242.40	154.839
242.77	156.667
243.14	115.054
243.51	132.584
243.89	122.353
244.26	101.111
244.63	113.978
245.00	108.511
245.38	107.921
245.75	100.935
246.12	101.835
246.49	99.270
246.87	104.800
247.24	103.846
247.61	96.429
247.98	87.582
248.36	89.189
248.73	87.261
249.10	87.898
249.47	87.006
249.84	87.701
250.22	85.027
250.59	92.899
250.96	87.374
251.33	80.569
251.70	87.129
252.08	82.381
252.45	78.475
252.82	76.957
253.19	78.298
253.56	82.353
253.94	83.817
254.31	75.781
254.68	80.000
255.05	82.288
255.42	77.236
255.79	79.779
256.16	75.090
256.54	75.972
256.91	81.495
257.28	75.540
257.65	70.957
258.02	74.224
258.39	73.817
258.76	75.920
259.14	71.726
259.51	72.948
259.88	72.671
260.25	73.716
260.62	69.942
260.99	73.292
261.36	74.474
261.73	73.352
262.10	73.837
262.47	72.676
262.85	68.524
263.22	71.510
263.59	71.225
263.96	70.055
264.33	71.279
264.70	69.737
265.07	71.867
265.44	70.960
265.81	68.370
266.18	72.613
266.55	70.488
266.92	72.727
267.29	71.991
267.66	68.119
268.03	68.864
268.40	70.093
268.77	73.031
269.14	69.595
269.51	67.269
269.88	71.329
270.25	68.397
270.62	67.191
270.99	69.892
271.36	67.811
271.73	71.495
272.10	68.696
272.47	67.312
272.84	70.346
273.21	66.457
273.58	67.249
273.95	66.247
274.32	66.736
274.69	69.165
275.06	64.567
275.43	69.149
275.80	66.132
276.17	69.450
276.54	67.775
276.91	66.601
277.28	65.234
277.65	65.184
278.02	66.667
278.39	66.016
278.76	66.000
279.13	66.792
279.50	62.197
279.87	63.546
280.23	68.862
280.60	67.118
280.97	68.022
281.34	64.602
281.71	66.545
282.08	69.674
282.45	63.818
282.82	64.476
283.19	62.389
283.56	60.526
283.92	66.497
284.29	63.668
284.66	65.699
285.03	62.206
285.40	62.324
285.77	64.310
286.14	61.831
286.51	62.667
286.87	61.368
287.24	63.518
287.61	59.390
287.98	63.474
288.35	58.003
288.72	57.944
289.08	57.903
289.45	58.320
289.82	59.350
290.19	56.986
290.56	57.734
290.93	54.985
291.29	57.822
291.66	56.490
292.03	56.541
292.40	56.681
292.77	53.994
293.13	53.731
293.50	55.831
293.87	53.926
294.24	54.370
294.60	54.440
294.97	54.506
295.34	52.327
295.71	50.852
296.08	51.425
296.44	50.619
296.81	50.859
297.18	53.117
297.55	48.681
297.91	49.472
298.28	51.406
298.65	49.608
299.02	49.407
299.38	50.066
299.75	47.709
300.12	50.064
300.48	47.875
300.85	48.829
301.22	48.917
301.59	46.970
301.95	48.741
302.32	48.267
302.69	45.639
303.05	47.515
303.42	47.160
303.79	45.866
304.15	44.056
304.52	45.191
304.89	46.690
305.25	44.780
305.62	45.074
305.99	46.635
306.35	47.204
306.72	45.964
307.09	44.839
307.45	46.171
307.82	44.196
308.19	44.702
308.55	44.876
308.92	46.402
309.29	43.717
309.65	44.327
310.02	44.503
310.38	44.839
310.75	44.456
311.12	42.886
311.48	43.574
311.85	43.711
312.22	44.329
312.58	43.243
312.95	44.456
313.31	43.204
313.68	43.971
314.05	44.280
314.41	44.221
314.78	43.102
315.14	42.502
315.51	42.842
315.87	44.257
316.24	42.900
316.61	42.885
316.97	42.759
317.34	43.151
317.70	44.168
318.07	44.081
318.43	44.031
318.80	42.830
319.16	43.597
319.53	42.589
319.89	42.476
320.26	43.000
320.62	42.460
320.99	42.929
321.35	42.626
321.72	43.634
322.08	42.744
322.45	43.383
322.81	42.829
323.18	44.605
323.54	41.929
323.91	43.962
324.27	42.256
324.64	41.379
325.00	41.208
325.37	42.584
325.73	42.819
326.10	41.130
326.46	41.308
326.83	41.674
327.19	41.588
327.56	40.767
327.92	41.820
328.29	41.526
328.65	41.529
329.01	41.877
329.38	41.351
329.74	40.628
330.11	40.999
330.47	40.404
330.84	41.085
331.20	41.257
331.56	42.018
331.93	42.870
332.29	40.905
332.66	40.619
333.02	41.133
333.38	39.566
333.75	40.909
334.11	40.125
334.48	39.663
334.84	40.717
335.20	39.091
335.57	39.166
335.93	39.643
336.29	40.385
336.66	38.864
337.02	39.005
337.38	40.648
337.75	39.127
338.11	39.749
338.47	40.147
338.84	40.147
339.20	39.450
339.56	41.150
339.93	39.727
340.29	38.587
340.65	40.820
341.02	39.703
341.38	38.968
341.74	38.246
342.11	39.301
342.47	39.031
342.83	38.185
343.20	38.528
343.56	39.343
343.92	38.070
344.28	38.776
344.65	39.983
345.01	37.879
345.37	38.508
345.73	39.171
346.10	39.386
346.46	38.983
346.82	37.315
347.19	38.429
347.55	36.864
347.91	38.754
348.27	39.523
348.63	38.712
349.00	38.430
349.36	39.163
349.72	37.610
350.08	37.682
350.45	37.022
350.81	36.393
351.17	37.763
351.53	37.019
351.89	37.954
352.26	37.648
352.62	37.370
352.98	37.277
353.34	37.141
353.70	37.234
354.07	37.823
354.43	36.111
354.79	35.640
355.15	37.989
355.51	39.089
355.87	39.347
356.24	37.622
356.60	36.648
356.96	36.525
357.32	37.612
357.68	37.480
358.04	35.313
358.40	36.817
358.77	36.541
359.13	36.701
359.49	37.333
359.85	36.508
360.21	36.443
360.57	38.054
360.93	36.692
361.29	35.828
361.66	35.759
362.02	36.418
362.38	37.186
362.74	36.830
363.10	35.529
363.46	36.684
363.82	35.676
364.18	35.609
364.54	36.924
364.90	36.331
365.26	36.103
365.62	36.669
365.98	35.646
366.35	34.527
366.71	36.804
367.07	35.543
367.43	36.502
367.79	36.188
368.15	35.776
368.51	35.901
368.87	36.188
369.23	36.723
369.59	35.771
369.95	35.147
370.31	35.043
370.67	35.217
371.03	35.805
371.39	36.224
371.75	36.176
372.11	34.282
372.47	37.097
372.83	37.032
373.19	35.116
373.55	36.142
373.91	36.009
374.27	34.158
374.63	35.200
374.99	35.805
375.35	35.031
375.71	34.613
376.07	35.802
376.42	35.901
376.78	35.321
377.14	35.753
377.50	34.834
377.86	34.176
378.22	34.387
378.58	33.459
378.94	34.758
379.30	34.924
379.66	35.216
380.02	34.767
380.38	34.305
380.74	34.814
381.09	34.474
381.45	34.972
381.81	35.381
382.17	35.414
382.53	34.780
382.89	35.247
383.25	34.146
383.61	35.068
383.97	34.709
384.32	35.122
384.68	33.953
385.04	34.296
385.40	34.427
385.76	34.275
386.12	34.262
386.48	35.683
386.83	35.087
387.19	34.818
387.55	34.075
387.91	34.643
388.27	34.151
388.62	34.726
388.98	34.828
389.34	34.981
389.70	35.009
390.06	35.425
390.42	35.084
390.77	34.606
391.13	34.716
391.49	35.025
391.85	34.564
392.20	34.006
392.56	34.470
392.92	35.138
393.28	33.964
393.64	34.592
393.99	34.087
394.35	33.995
394.71	34.442
395.07	34.455
395.42	34.549
395.78	34.415
396.14	35.320
396.50	35.652
396.85	36.173
397.21	35.142
397.57	34.904
397.92	34.315
398.28	33.408
398.64	34.050
399.00	33.968
399.35	34.349
399.71	34.144
400.07	34.536
400.42	34.969
400.78	35.223
401.14	35.305
401.49	34.687
401.85	34.180
402.21	33.653
402.57	34.115
402.92	35.309
403.28	34.603
403.63	34.344
403.99	34.204
404.35	34.667
404.70	33.333
405.06	33.955
405.42	34.872
405.77	32.971
406.13	33.860
406.49	34.536
406.84	33.963
407.20	34.456
407.55	34.269
407.91	34.733
408.27	35.099
408.62	33.594
408.98	33.946
409.34	34.071
409.69	34.968
410.05	33.086
410.40	33.884
410.76	33.453
411.11	34.077
411.47	32.588
411.83	34.698
412.18	34.075
412.54	33.998
412.89	34.458
413.25	33.766
413.60	33.539
413.96	33.151
414.31	35.298
414.67	33.904
415.03	34.040
415.38	33.441
415.74	33.505
416.09	34.553
416.45	34.739
416.80	34.898
417.16	35.121
417.51	34.107
417.87	32.884
418.22	34.700
418.58	34.345
418.93	33.292
419.29	33.736
419.64	34.131
420.00	33.598
420.35	33.855
420.71	34.489
421.06	33.413
421.42	33.333
421.77	33.632
422.12	33.464
422.48	33.297
422.83	34.188
423.19	33.702
423.54	33.662
423.90	33.275
424.25	33.222
424.61	33.571
424.96	34.169
425.31	33.223
425.67	32.360
426.02	32.686
426.38	34.188
426.73	32.358
427.09	33.313
427.44	34.215
427.79	33.525
428.15	34.583
428.50	32.885
428.85	33.194
429.21	32.910
429.56	33.022
429.92	33.317
430.27	33.416
430.62	32.924
430.98	33.264
431.33	32.887
431.68	32.827
432.04	32.375
432.39	32.496
432.74	32.855
433.10	33.503
433.45	33.936
433.80	33.758
434.16	33.226
434.51	33.316
434.86	32.440
435.22	33.296
435.57	33.009
435.92	33.587
436.28	33.333
436.63	33.002
436.98	32.627
437.34	33.154
437.69	32.789
438.04	33.502
438.39	33.970
438.75	33.062
439.10	33.631
439.45	33.353
439.81	32.749
440.16	33.202
440.51	32.455
440.86	33.932
441.22	32.592
441.57	32.962
441.92	32.856
442.27	33.961
442.63	32.701
442.98	34.704
443.33	33.533
443.68	31.699
444.03	32.113
444.39	31.889
444.74	33.333
445.09	33.100
445.44	32.586
445.79	32.756
446.15	33.669
446.50	33.226
446.85	33.916
447.20	32.942
447.55	32.887
447.91	33.370
448.26	32.443
448.61	32.956
448.96	33.278
449.31	33.858
449.66	32.583
450.02	32.479
450.37	32.086
450.72	32.657
451.07	32.115
451.42	32.705
451.77	33.588
452.12	32.679
452.47	32.587
452.83	32.809
453.18	32.702
453.53	32.962
453.88	33.077
454.23	33.293
454.58	32.950
454.93	33.757
455.28	32.544
455.63	33.252
455.98	33.750
456.34	32.852
456.69	33.062
457.04	33.375
457.39	32.613
457.74	33.082
458.09	32.375
458.44	32.554
458.79	31.291
459.14	33.578
459.49	32.224
459.84	33.352
460.19	32.351
460.54	31.655
460.89	32.693
461.24	32.423
461.59	34.166
461.94	31.936
462.29	33.234
462.64	32.227
462.99	31.620
463.34	34.000
463.69	32.458
464.04	32.406
464.39	31.594
464.74	32.917
465.09	32.147
465.44	32.078
465.79	31.655
466.14	31.691
466.49	31.702
466.84	31.524
467.19	31.865
467.54	32.813
467.89	32.833
468.24	32.577
468.59	33.089
468.94	32.071
469.29	32.712
469.64	32.530
469.99	32.070
470.34	31.704
470.68	32.399
471.03	31.293
471.38	32.592
471.73	32.312
472.08	33.816
472.43	31.910
472.78	32.258
473.13	30.873
473.48	32.709
473.83	32.561
474.17	32.110
474.52	32.568
474.87	32.458
475.22	32.850
475.57	31.059
475.92	31.067
476.27	31.172
476.61	31.771
476.96	30.456
477.31	31.345
477.66	31.619
478.01	31.364
478.36	32.152
478.70	31.880
479.05	31.363
479.40	31.576
479.75	31.418
480.10	31.461
480.45	29.986
480.79	30.865
481.14	32.436
481.49	31.229
481.84	30.818
482.19	31.259
482.53	31.147
482.88	31.317
483.23	31.121
483.58	31.074
483.92	31.068
484.27	30.196
484.62	30.733
484.97	30.903
485.31	31.815
485.66	30.826
486.01	30.029
486.36	29.230
486.70	28.422
487.05	29.274
487.40	29.877
487.75	30.449
488.09	30.786
488.44	31.054
488.79	32.007
489.13	31.513
489.48	31.077
489.83	30.470
490.17	30.688
490.52	30.779
490.87	30.846
491.22	30.696
491.56	29.385
491.91	30.014
492.26	29.858
492.60	30.323
492.95	29.139
493.30	30.280
493.64	30.611
493.99	29.991
494.34	30.527
494.68	30.815
495.03	30.451
495.37	30.619
495.72	30.945
496.07	30.302
496.41	30.664
496.76	31.091
497.11	29.761
497.45	31.067
497.80	30.374
498.14	29.710
498.49	30.049
498.84	30.058
499.18	29.667
499.53	30.864
499.87	30.009
500.22	29.534
500.56	30.485
500.91	29.087
501.26	30.109
501.60	30.755
501.95	29.239
502.29	30.975
502.64	29.842
502.98	30.809
503.33	30.302
503.67	29.745
504.02	30.870
504.36	29.574
504.71	29.946
505.06	30.892
505.40	30.919
505.75	29.605
506.09	29.640
506.44	31.130
506.78	30.346
507.13	30.338
507.47	30.101
507.82	30.344
508.16	30.041
508.51	30.999
508.85	30.040
509.19	30.153
509.54	30.765
509.88	30.036
510.23	30.026
510.57	30.134
510.92	31.176
511.26	30.062
511.61	29.927
511.95	29.906
512.30	29.586
512.64	29.876
512.98	29.475
513.33	31.424
513.67	29.456
514.02	29.600
514.36	30.584
514.70	29.662
515.05	30.173
515.39	30.230
515.74	30.124
516.08	30.464
516.42	30.244
516.77	30.769
517.11	30.189
517.46	30.982
517.80	30.546
518.14	29.763
518.49	30.747
518.83	29.830
519.17	30.600
519.52	29.542
519.86	30.747
520.20	30.462
520.55	30.700
520.89	31.509
521.23	31.242
521.58	30.552
521.92	31.598
522.26	30.628
522.61	30.779
522.95	30.080
523.29	30.067
523.64	30.915
523.98	30.684
524.32	30.036
524.66	30.487
525.01	29.841
525.35	30.050
525.69	29.495
526.04	29.595
526.38	30.567
526.72	30.123
527.06	30.383
527.41	30.012
527.75	30.547
528.09	29.994
528.43	30.338
528.78	30.608
529.12	30.545
529.46	30.190
529.80	30.693
530.15	30.592
530.49	29.969
530.83	31.139
531.17	31.201
531.51	30.610
531.86	31.806
532.20	30.769
532.54	31.006
532.88	30.937
533.22	30.169
533.57	30.988
533.91	30.042
534.25	30.741
534.59	30.506
534.93	30.339
535.27	29.572
535.62	31.197
535.96	31.011
536.30	30.324
536.64	31.037
536.98	31.055
537.32	31.007
537.66	30.667
538.01	30.876
538.35	30.963
538.69	30.568
539.03	30.604
539.37	29.968
539.71	28.775
540.05	30.784
540.39	30.233
540.73	30.336
541.07	30.175
541.42	31.833
541.76	31.355
542.10	30.918
542.44	30.861
542.78	30.764
543.12	29.750
543.46	30.492
543.80	31.230
544.14	30.103
544.48	30.857
544.82	30.340
545.16	30.384
545.50	29.884
545.84	30.175
546.18	30.438
546.52	31.315
546.86	31.134
547.20	30.411
547.54	30.862
547.88	30.995
548.22	29.888
548.56	30.692
548.90	30.090
549.24	30.034
549.58	30.764
549.92	31.044
550.26	31.037
550.60	30.982
550.94	30.211
551.28	30.871
551.62	31.129
551.96	30.667
552.30	31.536
552.64	31.102
552.98	30.983
553.32	30.411
553.66	31.288
554.00	31.503
554.34	30.159
554.68	31.116
555.02	32.017
555.36	30.341
555.69	29.702
556.03	30.821
556.37	30.764
556.71	29.945
557.05	29.412
557.39	29.951
557.73	30.064
558.07	31.255
558.41	30.029
558.75	29.537
559.08	30.649
559.42	31.066
559.76	30.882
560.10	30.050
560.44	30.398
560.78	31.005
561.12	30.145
561.45	30.574
561.79	30.784
562.13	30.382
562.47	31.284
562.81	31.172
563.15	31.171
563.48	30.968
563.82	30.594
564.16	30.020
564.50	29.167
564.84	30.278
565.17	29.794
565.51	31.310
565.85	30.393
566.19	29.806
566.52	30.906
566.86	30.018
567.20	31.545
567.54	31.279
567.88	30.527
568.21	30.317
568.55	30.384
568.89	30.739
569.23	31.105
569.56	30.040
569.90	30.679
570.24	30.893
570.57	29.922
570.91	29.476
571.25	30.266
571.59	29.720
571.92	29.320
572.26	30.040
572.60	29.670
572.93	29.535
573.27	29.666
573.61	30.290
573.95	29.819
574.28	29.598
574.62	29.616
574.96	29.486
575.29	29.389
575.63	29.700
575.97	29.029
576.30	29.740
576.64	29.896
576.98	29.874
577.31	29.875
577.65	29.815
577.98	29.674
578.32	29.210
578.66	29.790
578.99	29.308
579.33	29.484
579.67	29.287
580.00	29.585
580.34	29.782
580.67	29.827
581.01	30.088
581.35	29.863
581.68	29.942
582.02	29.718
582.35	29.458
582.69	29.107
583.02	29.630
583.36	30.182
583.70	30.644
584.03	30.460
584.37	30.171
584.70	30.486
585.04	29.452
585.37	29.986
585.71	29.770
586.04	29.597
586.38	30.251
586.72	30.378
587.05	29.992
587.39	29.815
587.72	30.224
588.06	30.576
588.39	29.465
588.73	29.715
589.06	30.414
589.40	30.707
589.73	30.869
590.07	30.605
590.40	30.216
590.73	30.484
591.07	30.322
591.40	31.000
591.74	30.693
592.07	31.326
592.41	30.591
592.74	30.375
593.08	29.880
593.41	29.706
593.75	29.232
594.08	29.433
594.41	30.824
594.75	29.834
595.08	29.993
595.42	30.508
595.75	29.452
596.09	30.229
596.42	30.373
596.75	30.730
597.09	30.649
597.42	30.017
597.75	30.272
598.09	30.652
598.42	30.756
598.76	29.672
599.09	29.989
599.42	29.258
599.76	30.088
600.09	29.654
600.42	29.912
600.76	29.250
601.09	30.128
601.42	29.833
601.76	29.715
602.09	30.000
602.42	29.896
602.76	30.431
603.09	30.212
603.42	30.730
603.76	30.335
604.09	29.120
604.42	30.208
604.76	30.704
605.09	30.537
605.42	29.329
605.75	29.760
606.09	29.809
606.42	30.241
606.75	30.859
607.09	29.803
607.42	30.167
607.75	29.662
608.08	30.135
608.42	30.435
608.75	29.486
609.08	30.065
609.41	30.129
609.75	30.157
610.08	30.914
610.41	30.168
610.74	29.991
611.07	30.534
611.41	29.784
611.74	30.820
612.07	31.056
612.40	31.165
612.73	30.368
613.07	30.765
613.40	29.805
613.73	29.995
614.06	29.839
614.39	30.572
614.72	30.000
615.06	30.515
615.39	30.096
615.72	30.624
616.05	30.197
616.38	30.962
616.71	30.523
617.05	30.565
617.38	30.006
617.71	30.931
618.04	30.409
618.37	30.219
618.70	29.932
619.03	31.184
619.36	30.346
619.69	31.197
620.03	31.799
620.36	30.749
620.69	30.959
621.02	31.416
621.35	29.992
621.68	31.231
622.01	30.882
622.34	30.635
622.67	30.418
623.00	30.007
623.33	30.307
623.66	29.807
623.99	30.118
624.32	31.027
624.65	30.014
624.99	30.453
625.32	29.399
625.65	32.081
625.98	32.129
626.31	30.715
626.64	31.673
626.97	31.255
627.30	30.590
627.63	31.337
627.96	31.119
628.29	31.671
628.62	31.016
628.95	32.264
629.28	29.380
629.61	31.347
629.94	31.143
630.26	30.887
630.59	30.887
630.92	30.460
631.25	30.602
631.58	30.130
631.91	30.832
632.24	30.802
632.57	31.165
632.90	30.154
633.23	30.761
633.56	32.542
633.89	30.804
634.22	32.463
634.55	31.834
634.88	31.257
635.20	32.378
635.53	33.012
635.86	31.807
636.19	30.471
636.52	30.334
636.85	32.761
637.18	30.184
637.51	30.969
637.83	29.223
638.16	31.586
638.49	32.242
638.82	32.238
639.15	33.250
639.48	31.297
639.81	32.038
640.13	31.771
640.46	31.544
640.79	30.383
641.12	29.986
641.45	30.726
641.77	33.726
642.10	31.433
642.43	32.132
642.76	31.115
643.09	31.135
643.41	32.473
643.74	33.951
644.07	31.860
644.40	32.209
644.73	32.126
645.05	33.281
645.38	31.912
645.71	33.816
646.04	32.890
646.36	34.558
646.69	31.940
647.02	34.184
647.35	33.849
647.67	30.442
648.00	32.358
648.33	32.343
648.66	32.576
648.98	32.834
649.31	32.735
649.64	32.436
649.96	30.700
650.29	32.543
650.62	31.553
650.94	33.225
651.27	33.784
651.60	34.609
651.92	32.588
652.25	31.270
652.58	33.956
652.90	33.017
653.23	32.203
653.56	31.024
653.88	34.548
654.21	35.387
654.54	33.993
654.86	33.956
655.19	32.432
655.52	25.762
655.84	25.700
656.17	33.650
656.49	45.583
656.82	47.021
657.15	35.253
657.47	26.222
657.80	20.477
658.13	21.395
658.45	32.789
658.78	32.879
659.10	33.510
659.43	34.922
659.75	35.194
660.08	38.608
660.41	39.665
660.73	38.755
661.06	35.032
661.38	35.455
661.71	34.615
662.03	35.108
662.36	34.195
662.68	36.145
663.01	35.354
663.33	34.820
663.66	35.084
663.98	33.261
664.31	33.613
664.63	35.223
664.96	33.400
665.28	35.451
665.61	32.943
665.93	34.205
666.26	34.280
666.58	32.427
666.91	36.575
667.23	35.281
667.56	33.909
667.88	35.470
668.21	35.608
668.53	37.527
668.86	34.199
669.18	37.527
669.50	33.696
669.83	37.691
670.15	38.222
670.48	35.948
670.80	35.129
671.13	35.244
671.45	32.979
671.77	35.642
672.10	34.381
672.42	34.099
672.75	33.499
673.07	36.796
673.39	31.646
673.72	32.812
674.04	36.275
674.37	35.146
674.69	31.288
675.01	34.519
675.34	35.934
675.66	39.158
675.98	34.012
676.31	35.714
676.63	36.093
676.95	33.962
677.28	33.645
677.60	34.066
677.92	34.388
678.25	37.577
678.57	34.661
678.89	32.465
679.22	33.988
679.54	33.397
679.86	34.128
680.18	33.989
680.51	33.865
680.83	32.740
681.15	33.396
681.48	37.051
681.80	33.075
682.12	33.716
682.44	31.335
682.77	35.845
683.09	36.481
683.41	37.694
683.73	34.216
684.06	34.298
684.38	31.898
684.70	31.977
685.02	34.709
685.34	32.784
685.67	34.441
685.99	31.443
686.31	33.959
686.63	33.746
686.96	32.679
687.28	35.199
687.60	34.058
687.92	34.186
688.24	34.411
688.56	36.948
688.89	34.232
689.21	38.428
689.53	33.403
689.85	36.364
690.17	33.747
690.49	34.607
690.82	38.551
691.14	34.821
691.46	32.068
691.78	32.129
692.10	36.157
692.42	34.930
692.74	32.365
693.06	34.468
693.39	34.908
693.71	36.463
694.03	34.316
694.35	35.714
694.67	36.156
694.99	40.000
695.31	35.784
695.63	35.885
695.95	35.452
696.27	37.817
696.59	36.010
696.91	37.824
697.23	34.977
697.56	35.608
697.88	32.720
698.20	33.542
698.52	34.409
698.84	36.971
699.16	32.028
699.48	37.530
699.80	35.266
700.12	39.740
700.44	40.849
700.76	38.674
701.08	39.368
701.40	36.313
701.72	37.318
702.04	42.045
702.36	36.261
702.68	36.261
703.00	38.504
703.32	32.979
703.64	36.193
703.96	40.390
704.28	40.988
704.60	36.950
704.91	38.576
705.23	37.830
705.55	42.857
705.87	43.522
706.19	38.869
706.51	42.056
706.83	37.576
707.15	40.896
707.47	35.859
707.79	37.101
708.11	35.616
708.43	37.381
708.74	35.714
709.06	38.182
709.38	37.795
709.70	39.244
710.02	41.246
710.34	35.455
710.66	39.403
710.98	39.773
711.29	38.081
711.61	41.298
711.93	38.462
712.25	39.228
712.57	43.015
712.89	41.176
713.20	38.906
713.52	42.105
713.84	38.291
714.16	35.061
714.48	36.207
714.80	37.690
715.11	41.787
715.43	40.356
715.75	35.362
716.07	39.297
716.39	39.185
716.70	40.199
717.02	44.964
717.34	42.403
717.66	47.015
717.97	42.629
718.29	41.111
718.61	40.146
718.93	42.279
719.24	41.522
719.56	42.712
719.88	39.322
720.20	43.243
720.51	41.463
720.83	44.610
721.15	41.418
721.46	43.617
721.78	41.577
722.10	41.509
722.42	45.489
722.73	40.449
723.05	42.623
723.37	42.510
723.68	39.768
724.00	45.935
724.32	45.161
724.63	43.496
724.95	40.586
725.27	46.559
725.58	44.922
725.90	40.876
726.22	40.377
726.53	39.931
726.85	40.614
727.16	44.128
727.48	41.135
727.80	43.561
728.11	39.493
728.43	40.000
728.74	43.728
729.06	42.336
729.38	44.118
729.69	45.552
730.01	39.590
730.32	35.764
730.64	34.783
730.96	35.644
731.27	39.404
731.59	38.226
731.90	40.233
732.22	41.925
732.53	37.771
732.85	40.064
733.16	39.228
733.48	42.857
733.80	40.584
734.11	39.490
734.43	42.012
734.74	38.286
735.06	38.968
735.37	39.017
735.69	38.854
736.00	43.137
736.32	45.794
736.63	38.978
736.95	39.936
737.26	35.714
737.58	38.065
737.89	42.809
738.21	44.369
738.52	40.714
738.83	45.660
739.15	40.769
739.46	45.985
739.78	42.708
740.09	41.538
740.41	46.129
740.72	40.418
741.04	44.444
741.35	47.083
741.66	49.333
741.98	45.755
742.29	45.933
742.61	49.569
742.92	41.629
743.23	39.744
743.55	43.200
743.86	47.368
744.18	49.558
744.49	46.890
744.80	46.009
745.12	48.182
745.43	46.256
745.74	49.099
746.06	48.624
746.37	45.291
746.68	44.344
747.00	45.370
747.31	49.048
747.62	41.593
747.94	45.815
748.25	40.426
748.56	47.577
748.88	51.485
749.19	53.500
749.50	48.372
749.82	37.398
750.13	40.408
750.44	42.701
750.75	45.965
751.07	44.695
751.38	47.038
751.69	45.487
752.01	45.489
752.32	39.711
752.63	41.135
752.94	47.131
753.26	48.000
753.57	41.057
753.88	49.219
754.19	38.214
754.51	43.056
754.82	40.794
755.13	42.264
755.44	40.977
755.75	42.336
756.07	42.553
756.38	43.796
756.69	40.604
757.00	39.521
757.31	40.950
757.63	41.813
757.94	39.678
758.25	37.255
758.56	36.296
758.87	35.753
759.18	48.182
759.50	42.006
759.81	38.629
760.12	38.750
760.43	43.840
760.74	38.043
761.05	41.525
761.36	36.631
761.67	41.761
761.99	39.441
762.30	40.625
762.61	43.511
762.92	44.531
763.23	39.916
763.54	46.000
763.85	43.359
764.16	47.308
764.47	42.205
764.78	37.809
765.10	37.342
765.41	44.543
765.72	39.222
766.03	40.125
766.34	40.667
766.65	48.936
766.96	44.872
767.27	51.777
767.58	48.438
767.89	50.526
768.20	54.023
768.51	47.716
768.82	46.330
769.13	40.650
769.44	44.130
769.75	45.923
770.06	40.826
770.37	46.606
770.68	49.074
770.99	46.667
771.30	42.623
771.61	51.121
771.92	48.361
772.23	50.000
772.54	50.769
772.85	51.309
773.16	55.319
773.47	57.065
773.78	50.254
774.09	54.167
774.39	53.216
774.70	49.383
775.01	61.594
775.32	59.477
775.63	53.289
775.94	52.518
776.25	66.142
776.56	54.478
776.87	59.016
777.18	63.281
777.48	63.359
777.79	70.455
778.10	61.481
778.41	70.536
778.72	60.584
779.03	58.389
779.34	57.718
779.65	56.757
779.95	53.374
780.26	60.784
780.57	62.759
780.88	70.312
781.19	51.128
781.50	67.568
781.80	51.572
782.11	52.542
782.42	44.304
782.73	55.215
783.04	63.514
783.34	58.451
783.65	67.123
783.96	60.448
784.27	58.741
784.57	62.590
784.88	57.407
785.19	73.016
785.50	72.642
785.81	61.940
786.11	72.131
786.42	64.341
786.73	63.717
787.04	77.358
787.34	67.857
787.65	72.000
787.96	72.973
788.26	63.636
788.57	71.186
788.88	63.636
789.19	54.861
789.49	72.727
789.80	70.229
790.11	82.857
790.41	90.099
790.72	86.747
791.03	79.348
791.33	77.907
791.64	74.227
791.95	77.228
792.25	81.111
792.56	96.104
792.87	96.154
793.17	98.734
793.48	85.057
793.79	81.609
794.09	78.409
794.40	64.706
794.70	68.382
795.01	56.296
795.32	62.590
795.62	59.055
795.93	70.690
796.23	61.947
796.54	87.059
796.85	89.189
797.15	98.592
797.46	78.788
797.76	86.747
798.07	83.544
798.37	101.538
798.68	95.455
798.99	77.465
799.29	85.714
799.60	78.409
799.90	94.521
800.21	94.030
800.51	98.276
800.82	115.789
801.12	98.361
801.43	89.394
801.73	94.595
802.04	101.587
802.34	88.889
802.65	100.000
802.95	108.475
803.26	115.625
803.56	101.429
803.87	87.692
804.17	97.059
804.48	120.370
804.78	110.345
805.09	94.118
805.39	136.538
805.70	112.500
806.00	108.197
806.30	96.970
806.61	102.439
806.91	79.747
807.22	93.421
807.52	92.537
807.83	97.183
808.13	112.500
808.43	121.667
808.74	84.211
809.04	102.899
809.35	102.985
809.65	101.316
809.95	130.645
810.26	101.695
810.56	96.825
810.86	145.455
811.17	135.714
811.47	135.000
811.77	124.074
812.08	112.727
812.38	126.000
812.69	175.000
812.99	163.636
813.29	138.776
813.59	92.857
813.90	138.776
814.20	116.364
814.50	98.462
814.81	104.412
815.11	116.327
815.41	134.426
815.72	152.381
816.02	134.545
816.32	135.714
816.62	125.000
816.93	165.854
817.23	178.571
817.53	134.091
817.84	200.000
818.14	152.174
818.44	144.444
818.74	179.412
819.04	145.000
819.35	142.857
819.65	188.235
819.95	178.571
820.25	215.000
820.56	161.538
820.86	109.091
821.16	141.860
821.46	138.462
821.76	152.000
822.07	165.714
822.37	157.500
822.67	175.758
822.97	127.451
823.27	207.143
823.57	148.649
823.88	152.500
824.18	223.333
824.48	147.619
824.78	208.000
825.08	216.667
825.38	148.649
825.69	146.341
825.99	233.333
826.29	196.552
826.59	160.526
826.89	171.053
827.19	200.000
827.49	190.323
827.79	143.182
828.09	145.455
828.39	131.915
828.70	132.653
829.00	177.778
829.30	170.968
829.60	145.000
829.90	333.333
830.20	192.857
830.50	217.391
830.80	221.739
831.10	220.000
831.40	183.333
831.70	195.652
832.00	234.615
832.30	229.630
832.60	337.500
832.90	220.000
833.20	421.429
833.50	193.548
833.80	193.103
834.10	193.750
834.40	230.769
834.70	288.889
835.00	295.238
835.30	174.286
835.60	361.538
835.90	182.759
836.20	378.571
836.50	162.069
836.80	232.000
837.10	188.889
837.40	247.619
837.70	341.176
838.00	214.815
838.30	200.000
838.60	300.000
838.90	200.000
839.19	300.000
839.49	428.571
839.79	320.000
840.09	235.000
840.39	290.476
840.69	282.609
840.99	322.222
841.29	620.000
841.59	400.000
841.88	362.500
842.18	182.759
842.48	242.857
842.78	206.667
843.08	265.217
843.38	206.250
843.68	800.000
843.97	234.615
844.27	179.310
844.57	333.333
844.87	368.750
845.17	218.519
845.47	1333.333
845.76	444.444
846.06	294.118
846.36	500.000
846.66	371.429
846.96	262.500
847.25	418.182
847.55	445.455
847.85	313.043
848.15	540.000
848.44	371.429
848.74	255.556
849.04	329.412
849.34	540.000
849.63	247.368
849.93	472.727
850.23	1000.000
850.53	400.000
850.82	2050.000
851.12	-4500.000
851.42	4100.000
851.71	285.000
852.01	-1433.333
852.31	258.333
852.61	1733.333
852.90	328.571
853.20	260.000
853.50	335.294
853.79	285.714
854.09	241.667
854.39	350.000
854.68	183.784
854.98	187.097
855.28	190.000
855.57	210.345
855.87	237.037
856.17	273.684
856.46	280.000
856.76	229.412
857.05	227.586
857.35	258.333
857.65	353.333
857.94	247.826
858.24	246.154
858.53	285.000
858.83	272.727
859.13	440.000
859.42	0.000
859.72	511.111
860.01	500.000
860.31	245.455
860.60	321.053
860.90	278.261
861.20	533.333
861.49	525.000
861.79	-4600.000
862.08	600.000
862.38	276.190
862.67	376.923
862.97	282.353
863.26	577.778
863.56	261.111
863.85	383.333
864.15	612.500
864.44	380.000
864.74	900.000
865.03	700.000
865.33	268.421
865.62	554.545
865.92	446.154
866.21	450.000
866.51	0.000
866.80	436.364
867.10	1200.000
867.39	430.769
867.69	436.364
867.98	252.632
868.27	472.727
868.57	315.789
868.86	-4700.000
869.16	331.250
869.45	2350.000
869.75	-5100.000
870.04	450.000
870.33	771.429
870.63	1025.000
870.92	2300.000
871.22	728.571
871.51	352.941
871.80	285.714
872.10	385.714
>>>>>End Processed Spectral Data<<<<<
