SpectraSuite Data File
++++++++++++++++++++++++++++++++++++
Date: Wed May 13 16:10:13 PDT 2015
User: schluterlab
Dark Spectrum Present: Yes
Reference Spectrum Present: Yes
Number of Sampled Component Spectra: 1
Spectrometers: USB2E3373
Integration Time (usec): 3000 (USB2E3373)
Spectra Averaged: 3 (USB2E3373)
Boxcar Smoothing: 0 (USB2E3373)
Correct for Electrical Dark: No (USB2E3373)
Strobe/Lamp Enabled: No (USB2E3373)
Correct for Detector Non-linearity: No (USB2E3373)
Correct for Stray Light: No (USB2E3373)
Number of Pixels in Processed Spectrum: 2048
>>>>>Begin Processed Spectral Data<<<<<
178.53	0.000
178.91	-875.000
179.29	-1125.000
179.67	-155.556
180.04	-850.000
180.42	1900.000
180.80	780.000
181.18	-875.000
181.56	528.571
181.94	0.000
182.31	-514.286
182.69	1200.000
183.07	-412.500
183.45	-388.889
183.83	363.636
184.20	-280.000
184.58	1050.000
184.96	3700.000
185.34	-700.000
185.72	-312.500
186.09	-1800.000
186.47	2050.000
186.85	2100.000
187.23	3000.000
187.61	-1233.333
187.98	1175.000
188.36	445.455
188.74	390.909
189.12	-520.000
189.49	480.000
189.87	-2800.000
190.25	-700.000
190.63	335.714
191.00	369.231
191.38	633.333
191.76	-700.000
192.14	1150.000
192.51	412.500
192.89	800.000
193.27	462.500
193.65	-1125.000
194.02	340.000
194.40	760.000
194.78	390.000
195.15	366.667
195.53	520.000
195.91	-1250.000
196.29	318.750
196.66	273.684
197.04	-270.000
197.42	0.000
197.79	480.000
198.17	-3900.000
198.55	385.714
198.92	487.500
199.30	640.000
199.68	0.000
200.05	266.667
200.43	600.000
200.81	2700.000
201.18	1266.667
201.56	-933.333
201.94	400.000
202.31	488.889
202.69	375.000
203.07	490.000
203.44	0.000
203.82	1000.000
204.19	514.286
204.57	371.429
204.95	400.000
205.32	1100.000
205.70	418.182
206.08	250.000
206.45	1750.000
206.83	225.000
207.20	750.000
207.58	620.000
207.96	255.556
208.33	512.500
208.71	-633.333
209.08	485.714
209.46	344.444
209.84	381.818
210.21	-966.667
210.59	1000.000
210.96	-212.500
211.34	1850.000
211.71	420.000
212.09	616.667
212.46	0.000
212.84	1233.333
213.22	1200.000
213.59	-3600.000
213.97	633.333
214.34	571.429
214.72	481.818
215.09	820.000
215.47	-1800.000
215.84	-1750.000
216.22	1400.000
216.59	250.000
216.97	975.000
217.34	372.727
217.72	-566.667
218.09	0.000
218.47	-2900.000
218.84	455.556
219.22	457.143
219.59	1166.667
219.97	-385.714
220.34	740.000
220.72	-1233.333
221.09	335.714
221.47	1000.000
221.84	-600.000
222.22	0.000
222.59	925.000
222.97	-1750.000
223.34	900.000
223.72	276.923
224.09	720.000
224.46	1400.000
224.84	-3800.000
225.21	-740.000
225.59	-4500.000
225.96	490.000
226.34	250.000
226.71	1750.000
227.08	550.000
227.46	320.000
227.83	-500.000
228.21	-1300.000
228.58	488.889
228.95	-1450.000
229.33	-1700.000
229.70	1400.000
230.08	514.286
230.45	-560.000
230.82	300.000
231.20	650.000
231.57	342.857
231.95	358.333
232.32	186.364
232.69	300.000
233.07	514.286
233.44	253.846
233.81	-1166.667
234.19	163.158
234.56	350.000
234.93	266.667
235.31	409.091
235.68	300.000
236.05	257.143
236.43	133.333
236.80	221.053
237.17	3600.000
237.55	204.762
237.92	160.714
238.29	180.952
238.67	135.484
239.04	165.517
239.41	122.222
239.79	102.174
240.16	116.667
240.53	122.727
240.91	88.235
241.28	94.000
241.65	84.000
242.02	75.362
242.40	90.323
242.77	73.333
243.14	66.667
243.51	76.404
243.89	69.412
244.26	51.111
244.63	51.613
245.00	55.319
245.38	49.505
245.75	53.271
246.12	53.211
246.49	57.664
246.87	60.800
247.24	55.385
247.61	43.571
247.98	44.444
248.36	40.541
248.73	43.312
249.10	45.860
249.47	42.373
249.84	40.107
250.22	42.246
250.59	46.746
250.96	41.919
251.33	35.545
251.70	37.624
252.08	37.619
252.45	33.184
252.82	33.913
253.19	38.298
253.56	36.078
253.94	36.100
254.31	30.078
254.68	39.231
255.05	30.996
255.42	36.992
255.79	34.926
256.16	34.657
256.54	33.922
256.91	34.520
257.28	32.374
257.65	31.683
258.02	34.161
258.39	33.123
258.76	35.117
259.14	33.929
259.51	31.915
259.88	30.435
260.25	29.305
260.62	28.902
260.99	31.366
261.36	30.631
261.73	32.951
262.10	29.942
262.47	30.704
262.85	33.148
263.22	29.630
263.59	31.054
263.96	26.374
264.33	27.415
264.70	30.526
265.07	30.946
265.44	31.313
265.81	30.900
266.18	30.653
266.55	29.024
266.92	30.467
267.29	29.167
267.66	28.440
268.03	29.773
268.40	27.570
268.77	29.356
269.14	28.829
269.51	30.474
269.88	28.671
270.25	26.862
270.62	26.966
270.99	30.538
271.36	28.755
271.73	26.869
272.10	27.174
272.47	30.108
272.84	29.004
273.21	30.608
273.58	28.384
273.95	27.883
274.32	24.174
274.69	28.266
275.06	26.575
275.43	27.234
275.80	27.255
276.17	26.069
276.54	27.443
276.91	26.482
277.28	26.172
277.65	24.758
278.02	26.708
278.39	27.539
278.76	25.091
279.13	27.170
279.50	27.002
279.87	23.506
280.23	23.553
280.60	25.145
280.97	26.987
281.34	25.664
281.71	26.909
282.08	28.407
282.45	25.818
282.82	26.465
283.19	24.421
283.56	25.789
283.92	26.904
284.29	22.751
284.66	24.501
285.03	23.508
285.40	24.472
285.77	26.768
286.14	23.489
286.51	23.333
286.87	27.521
287.24	23.941
287.61	25.361
287.98	23.539
288.35	23.613
288.72	26.324
289.08	23.005
289.45	23.064
289.82	22.114
290.19	20.251
290.56	24.043
290.93	20.846
291.29	22.699
291.66	23.156
292.03	25.291
292.40	25.404
292.77	21.154
293.13	22.687
293.50	22.595
293.87	23.259
294.24	23.111
294.60	21.834
294.97	21.076
295.34	24.401
295.71	19.886
296.08	20.370
296.44	22.421
296.81	20.872
297.18	21.680
297.55	19.657
297.91	20.185
298.28	21.285
298.65	21.149
299.02	21.871
299.38	19.256
299.75	17.251
300.12	18.263
300.48	20.000
300.85	19.236
301.22	19.618
301.59	19.571
301.95	20.025
302.32	19.512
302.69	18.638
303.05	20.242
303.42	18.272
303.79	19.479
304.15	17.366
304.52	18.772
304.89	16.492
305.25	18.445
305.62	19.479
305.99	19.599
306.35	18.568
306.72	19.619
307.09	17.980
307.45	19.820
307.82	18.973
308.19	18.985
308.55	20.173
308.92	18.904
309.29	18.268
309.65	18.558
310.02	19.239
310.38	19.677
310.75	18.585
311.12	19.652
311.48	19.436
311.85	19.916
312.22	19.147
312.58	19.647
312.95	19.747
313.31	18.544
313.68	18.815
314.05	21.400
314.41	19.698
314.78	19.940
315.14	18.173
315.51	19.876
315.87	20.297
316.24	19.662
316.61	18.811
316.97	18.982
317.34	18.885
317.70	19.694
318.07	19.731
318.43	20.254
318.80	19.494
319.16	20.245
319.53	20.075
319.89	21.524
320.26	21.300
320.62	20.040
320.99	20.606
321.35	20.101
321.72	20.021
322.08	21.619
322.45	20.597
322.81	21.609
323.18	21.773
323.54	21.521
323.91	20.943
324.27	21.415
324.64	20.690
325.00	21.010
325.37	22.475
325.73	21.993
326.10	21.006
326.46	20.520
326.83	21.311
327.19	21.691
327.56	22.038
327.92	21.872
328.29	22.449
328.65	21.547
329.01	21.570
329.38	21.739
329.74	21.791
330.11	22.714
330.47	20.845
330.84	22.702
331.20	21.311
331.56	22.936
331.93	21.111
332.29	22.183
332.66	23.363
333.02	22.303
333.38	22.945
333.75	22.371
334.11	22.064
334.48	22.626
334.84	22.151
335.20	21.727
335.57	22.031
335.93	20.536
336.29	20.421
336.66	22.182
337.02	20.543
337.38	21.667
337.75	21.569
338.11	22.381
338.47	21.731
338.84	22.456
339.20	20.550
339.56	22.628
339.93	21.545
340.29	21.558
340.65	21.569
341.02	22.077
341.38	21.975
341.74	20.088
342.11	20.873
342.47	21.674
342.83	21.747
343.20	21.645
343.56	21.904
343.92	21.404
344.28	20.578
344.65	22.442
345.01	21.044
345.37	19.811
345.73	20.558
346.10	21.057
346.46	20.763
346.82	21.417
347.19	20.050
347.55	21.182
347.91	21.278
348.27	21.282
348.63	21.405
349.00	20.631
349.36	21.018
349.72	20.850
350.08	20.583
350.45	21.562
350.81	21.446
351.17	19.854
351.53	21.540
351.89	19.967
352.26	20.284
352.62	20.529
352.98	20.421
353.34	20.542
353.70	19.640
354.07	20.081
354.43	20.317
354.79	20.113
355.15	20.990
355.51	21.183
355.87	20.816
356.24	21.254
356.60	19.968
356.96	20.756
357.32	20.523
357.68	20.709
358.04	21.140
358.40	21.219
358.77	21.205
359.13	19.574
359.49	21.569
359.85	19.444
360.21	20.813
360.57	20.934
360.93	21.154
361.29	20.937
361.66	20.201
362.02	21.716
362.38	20.760
362.74	20.015
363.10	20.281
363.46	20.690
363.82	20.862
364.18	20.705
364.54	22.585
364.90	21.176
365.26	21.103
365.62	21.256
365.98	20.380
366.35	19.842
366.71	21.330
367.07	20.175
367.43	20.537
367.79	20.985
368.15	22.342
368.51	20.349
368.87	21.056
369.23	20.629
369.59	21.506
369.95	20.735
370.31	20.513
370.67	20.435
371.03	22.547
371.39	21.501
371.75	21.103
372.11	21.266
372.47	22.434
372.83	21.470
373.19	20.882
373.55	21.951
373.91	22.165
374.27	20.962
374.63	21.745
374.99	21.822
375.35	20.307
375.71	21.864
376.07	21.536
376.42	22.352
376.78	22.266
377.14	21.845
377.50	21.854
377.86	21.809
378.22	23.072
378.58	21.679
378.94	21.936
379.30	21.883
379.66	23.287
380.02	22.912
380.38	22.101
380.74	23.109
381.09	22.861
381.45	22.987
381.81	23.771
382.17	24.331
382.53	22.453
382.89	23.395
383.25	22.577
383.61	23.668
383.97	23.577
384.32	23.518
384.68	23.854
385.04	23.848
385.40	23.777
385.76	24.386
386.12	24.547
386.48	24.858
386.83	25.273
387.19	25.479
387.55	25.046
387.91	24.486
388.27	23.605
388.62	24.647
388.98	24.079
389.34	25.532
389.70	24.770
390.06	25.982
390.42	24.449
390.77	25.064
391.13	25.718
391.49	26.777
391.85	24.761
392.20	24.669
392.56	25.063
392.92	24.956
393.28	25.089
393.64	25.600
393.99	26.084
394.35	26.303
394.71	25.282
395.07	25.234
395.42	26.267
395.78	25.636
396.14	26.257
396.50	26.817
396.85	26.573
397.21	25.709
397.57	25.604
397.92	26.082
398.28	25.112
398.64	27.240
399.00	25.965
399.35	25.494
399.71	26.215
400.07	26.671
400.42	26.074
400.78	26.116
401.14	25.854
401.49	26.687
401.85	26.860
402.21	25.629
402.57	25.540
402.92	26.797
403.28	25.921
403.63	26.423
403.99	25.924
404.35	26.242
404.70	25.899
405.06	26.616
405.42	26.887
405.77	25.429
406.13	26.467
406.49	26.257
406.84	26.108
407.20	25.768
407.55	26.867
407.91	27.133
408.27	26.165
408.62	26.069
408.98	26.348
409.34	26.445
409.69	26.258
410.05	26.332
410.40	26.728
410.76	26.045
411.11	26.598
411.47	26.262
411.83	26.268
412.18	26.283
412.54	26.401
412.89	26.807
413.25	26.564
413.60	26.683
413.96	26.230
414.31	26.185
414.67	26.743
415.03	25.762
415.38	26.740
415.74	25.145
416.09	26.519
416.45	26.707
416.80	27.297
417.16	27.279
417.51	27.472
417.87	26.590
418.22	26.940
418.58	26.469
418.93	27.027
419.29	26.098
419.64	26.574
420.00	26.463
420.35	27.072
420.71	26.599
421.06	26.492
421.42	26.725
421.77	27.522
422.12	25.828
422.48	26.066
422.83	26.267
423.19	26.298
423.54	26.872
423.90	26.957
424.25	26.131
424.61	26.131
424.96	25.889
425.31	26.744
425.67	25.787
426.02	25.886
426.38	27.656
426.73	25.805
427.09	27.842
427.44	27.315
427.79	26.452
428.15	27.083
428.50	27.209
428.85	26.520
429.21	26.560
429.56	26.853
429.92	26.422
430.27	25.720
430.62	25.909
430.98	26.362
431.33	26.031
431.68	26.911
432.04	26.092
432.39	26.670
432.74	26.451
433.10	26.882
433.45	27.872
433.80	27.384
434.16	26.282
434.51	25.632
434.86	25.542
435.22	27.126
435.57	26.991
435.92	26.624
436.28	27.699
436.63	27.263
436.98	26.617
437.34	26.416
437.69	27.596
438.04	27.206
438.39	28.597
438.75	27.310
439.10	27.598
439.45	27.450
439.81	26.828
440.16	26.595
440.51	27.592
440.86	26.867
441.22	27.141
441.57	26.805
441.92	27.226
442.27	26.857
442.63	27.330
442.98	28.225
443.33	27.174
443.68	27.207
444.03	26.940
444.39	26.485
444.74	27.381
445.09	26.954
445.44	26.791
445.79	26.620
446.15	27.104
446.50	27.087
446.85	26.619
447.20	27.180
447.55	27.527
447.91	27.523
448.26	26.711
448.61	27.586
448.96	29.070
449.31	27.559
449.66	27.518
450.02	26.908
450.37	26.757
450.72	27.580
451.07	27.422
451.42	26.079
451.77	28.009
452.12	27.194
452.47	27.177
452.83	27.855
453.18	27.078
453.53	28.077
453.88	27.584
454.23	27.256
454.58	28.044
454.93	28.417
455.28	27.431
455.63	27.609
455.98	29.048
456.34	27.513
456.69	27.865
457.04	27.616
457.39	26.885
457.74	27.046
458.09	27.947
458.44	27.480
458.79	26.735
459.14	27.822
459.49	27.379
459.84	27.202
460.19	27.578
460.54	27.025
460.89	27.811
461.24	27.505
461.59	28.995
461.94	27.682
462.29	27.596
462.64	28.398
462.99	27.391
463.34	29.067
463.69	28.080
464.04	27.768
464.39	27.362
464.74	27.213
465.09	27.081
465.44	27.922
465.79	26.286
466.14	27.641
466.49	26.696
466.84	27.379
467.19	27.459
467.54	27.562
467.89	27.251
468.24	27.574
468.59	28.327
468.94	28.467
469.29	27.571
469.64	28.313
469.99	28.484
470.34	27.279
470.68	28.807
471.03	27.823
471.38	28.075
471.73	28.048
472.08	28.158
472.43	28.266
472.78	28.506
473.13	27.728
473.48	27.403
473.83	27.988
474.17	28.563
474.52	28.102
474.87	27.204
475.22	27.742
475.57	26.437
475.92	27.138
476.27	27.339
476.61	27.413
476.96	27.213
477.31	26.217
477.66	28.063
478.01	26.973
478.36	28.133
478.70	27.310
479.05	26.890
479.40	27.226
479.75	27.605
480.10	27.038
480.45	26.511
480.79	26.565
481.14	27.740
481.49	27.385
481.84	26.932
482.19	27.533
482.53	26.239
482.88	26.896
483.23	26.963
483.58	27.571
483.92	26.710
484.27	26.231
484.62	26.164
484.97	26.685
485.31	26.884
485.66	25.959
486.01	24.650
486.36	23.364
486.70	23.316
487.05	23.884
487.40	24.719
487.75	24.863
488.09	25.690
488.44	25.584
488.79	27.306
489.13	26.814
489.48	27.162
489.83	27.233
490.17	27.050
490.52	26.528
490.87	26.052
491.22	27.376
491.56	26.241
491.91	26.803
492.26	26.826
492.60	26.037
492.95	26.239
493.30	26.449
493.64	26.178
493.99	27.112
494.34	26.457
494.68	26.511
495.03	26.598
495.37	26.710
495.72	27.290
496.07	26.914
496.41	25.885
496.76	27.177
497.11	25.439
497.45	26.409
497.80	26.583
498.14	26.473
498.49	27.122
498.84	27.085
499.18	26.619
499.53	27.350
499.87	26.142
500.22	26.802
500.56	26.650
500.91	26.250
501.26	26.695
501.60	27.670
501.95	25.894
502.29	27.038
502.64	26.723
502.98	26.461
503.33	26.737
503.67	26.868
504.02	26.473
504.36	26.626
504.71	27.015
505.06	26.506
505.40	26.981
505.75	26.181
506.09	27.308
506.44	27.282
506.78	26.839
507.13	26.653
507.47	27.020
507.82	27.254
508.16	27.305
508.51	27.549
508.85	26.862
509.19	26.684
509.54	26.378
509.88	27.202
510.23	26.838
510.57	27.761
510.92	27.447
511.26	27.441
511.61	27.334
511.95	27.140
512.30	27.306
512.64	26.921
512.98	26.742
513.33	27.088
513.67	26.948
514.02	26.894
514.36	28.236
514.70	28.058
515.05	26.994
515.39	27.538
515.74	27.928
516.08	27.501
516.42	28.413
516.77	28.094
517.11	27.469
517.46	27.709
517.80	27.642
518.14	26.983
518.49	28.588
518.83	27.955
519.17	28.349
519.52	28.240
519.86	28.123
520.20	27.803
520.55	29.563
520.89	28.893
521.23	28.770
521.58	27.371
521.92	28.169
522.26	27.761
522.61	28.910
522.95	28.484
523.29	28.119
523.64	27.866
523.98	27.788
524.32	28.166
524.66	28.443
525.01	27.757
525.35	27.385
525.69	27.648
526.04	27.913
526.38	28.005
526.72	27.669
527.06	28.939
527.41	26.980
527.75	29.068
528.09	28.388
528.43	28.999
528.78	27.535
529.12	28.061
529.46	28.475
529.80	28.280
530.15	29.034
530.49	27.754
530.83	27.975
531.17	28.394
531.51	28.470
531.86	28.000
532.20	29.531
532.54	28.635
532.88	28.370
533.22	27.171
533.57	27.963
533.91	26.671
534.25	27.643
534.59	27.822
534.93	26.710
535.27	27.399
535.62	27.106
535.96	28.562
536.30	27.781
536.64	28.075
536.98	27.339
537.32	27.452
537.66	27.600
538.01	27.452
538.35	27.860
538.69	28.398
539.03	27.745
539.37	26.773
539.71	27.025
540.05	28.039
540.39	27.375
540.73	27.232
541.07	29.137
541.42	27.071
541.76	27.677
542.10	27.102
542.44	27.086
542.78	28.986
543.12	26.871
543.46	27.082
543.80	27.196
544.14	27.150
544.48	28.063
544.82	27.453
545.16	27.846
545.50	26.028
545.84	27.621
546.18	28.283
546.52	27.529
546.86	26.254
547.20	27.782
547.54	27.589
547.88	27.296
548.22	26.463
548.56	27.610
548.90	26.120
549.24	26.734
549.58	27.558
549.92	27.404
550.26	27.486
550.60	26.971
550.94	27.113
551.28	26.920
551.62	28.325
551.96	27.789
552.30	27.645
552.64	28.330
552.98	27.525
553.32	27.242
553.66	27.744
554.00	27.111
554.34	27.260
554.68	27.539
555.02	27.433
555.36	28.253
555.69	26.252
556.03	26.985
556.37	27.149
556.71	27.080
557.05	27.381
557.39	27.012
557.73	27.311
558.07	27.121
558.41	27.207
558.75	27.627
559.08	28.039
559.42	28.571
559.76	28.235
560.10	27.052
560.44	26.765
560.78	26.813
561.12	26.517
561.45	26.858
561.79	26.038
562.13	26.224
562.47	26.366
562.81	26.918
563.15	27.023
563.48	26.260
563.82	26.158
564.16	27.338
564.50	25.716
564.84	25.917
565.17	26.963
565.51	26.390
565.85	26.586
566.19	25.548
566.52	25.839
566.86	25.980
567.20	26.356
567.54	26.769
567.88	24.932
568.21	26.138
568.55	25.278
568.89	25.340
569.23	24.421
569.56	24.494
569.90	24.679
570.24	23.717
570.57	23.461
570.91	23.368
571.25	23.410
571.59	23.476
571.92	22.955
572.26	23.108
572.60	23.183
572.93	23.448
573.27	23.810
573.61	23.004
573.95	23.127
574.28	22.387
574.62	22.643
574.96	22.031
575.29	22.454
575.63	22.713
575.97	22.937
576.30	23.075
576.64	22.795
576.98	22.606
577.31	22.528
577.65	22.476
577.98	22.557
578.32	21.267
578.66	21.761
578.99	22.301
579.33	22.367
579.67	21.917
580.00	22.225
580.34	22.402
580.67	22.761
581.01	22.734
581.35	22.499
581.68	22.020
582.02	21.602
582.35	21.682
582.69	21.868
583.02	21.992
583.36	22.135
583.70	22.752
584.03	22.675
584.37	23.083
584.70	22.780
585.04	22.676
585.37	22.717
585.71	22.509
586.04	21.938
586.38	22.910
586.72	23.060
587.05	22.575
587.39	22.559
587.72	22.778
588.06	22.545
588.39	22.442
588.73	22.705
589.06	23.278
589.40	23.737
589.73	23.654
590.07	23.060
590.40	23.054
590.73	24.044
591.07	24.501
591.40	23.619
591.74	24.632
592.07	23.735
592.41	23.853
592.74	23.446
593.08	22.552
593.41	23.505
593.75	22.455
594.08	22.025
594.41	22.764
594.75	23.105
595.08	22.691
595.42	23.853
595.75	22.578
596.09	23.545
596.42	23.929
596.75	24.103
597.09	24.156
597.42	23.187
597.75	23.588
598.09	23.261
598.42	24.141
598.76	23.064
599.09	22.729
599.42	22.489
599.76	23.755
600.09	23.024
600.42	22.717
600.76	22.464
601.09	22.149
601.42	22.336
601.76	23.074
602.09	23.043
602.42	23.726
602.76	23.620
603.09	23.603
603.42	23.350
603.76	23.018
604.09	22.606
604.42	23.237
604.76	23.914
605.09	23.198
605.42	23.343
605.75	22.972
606.09	23.139
606.42	23.376
606.75	23.310
607.09	23.022
607.42	22.978
607.75	22.110
608.08	23.317
608.42	23.577
608.75	22.678
609.08	23.728
609.41	22.703
609.75	23.344
610.08	24.222
610.41	23.045
610.74	23.888
611.07	23.271
611.41	23.651
611.74	23.529
612.07	23.602
612.40	23.610
612.73	22.632
613.07	23.599
613.40	23.328
613.73	23.545
614.06	24.032
614.39	24.227
614.72	24.737
615.06	24.370
615.39	23.514
615.72	23.875
616.05	22.967
616.38	23.791
616.71	24.347
617.05	24.205
617.38	23.993
617.71	24.024
618.04	24.399
618.37	24.246
618.70	24.331
619.03	25.066
619.36	25.187
619.69	25.775
620.03	24.931
620.36	24.131
620.69	25.616
621.02	25.369
621.35	24.980
621.68	25.623
622.01	25.929
622.34	25.794
622.67	25.399
623.00	24.358
623.33	23.517
623.66	25.447
623.99	23.785
624.32	25.107
624.65	24.929
624.99	23.513
625.32	24.475
625.65	24.793
625.98	25.903
626.31	26.516
626.64	25.388
626.97	26.185
627.30	24.771
627.63	25.923
627.96	26.325
628.29	26.597
628.62	26.349
628.95	27.547
629.28	26.369
629.61	26.306
629.94	27.905
630.26	25.834
630.59	26.406
630.92	26.916
631.25	25.962
631.58	26.126
631.91	25.862
632.24	26.266
632.57	27.387
632.90	28.070
633.23	28.635
633.56	28.701
633.89	28.086
634.22	27.809
634.55	27.574
634.88	26.826
635.20	27.599
635.53	28.675
635.86	27.475
636.19	26.118
636.52	25.490
636.85	28.981
637.18	26.498
637.51	28.605
637.83	24.661
638.16	27.621
638.49	28.212
638.82	28.319
639.15	27.625
639.48	29.052
639.81	26.810
640.13	27.214
640.46	28.054
640.79	28.930
641.12	26.547
641.45	28.073
641.77	29.161
642.10	31.140
642.43	27.778
642.76	29.721
643.09	29.141
643.41	30.046
643.74	30.864
644.07	27.591
644.40	30.675
644.73	31.181
645.05	30.111
645.38	29.858
645.71	30.274
646.04	31.229
646.36	30.885
646.69	32.776
647.02	28.061
647.35	30.069
647.67	29.912
648.00	29.756
648.33	27.393
648.66	28.485
648.98	29.685
649.31	27.504
649.64	28.550
649.96	28.465
650.29	28.120
650.62	29.773
650.94	30.794
651.27	29.223
651.60	29.950
651.92	29.393
652.25	29.153
652.58	29.283
652.90	30.332
653.23	28.351
653.56	27.402
653.88	30.111
654.21	30.806
654.54	28.053
654.86	28.193
655.19	27.568
655.52	19.247
655.84	17.382
656.17	22.247
656.49	29.631
656.82	30.054
657.15	22.549
657.47	16.819
657.80	13.216
658.13	13.699
658.45	20.593
658.78	20.887
659.10	21.723
659.43	22.498
659.75	23.180
660.08	25.759
660.41	28.771
660.73	28.717
661.06	29.459
661.38	30.545
661.71	32.692
662.03	30.572
662.36	28.827
662.68	31.124
663.01	27.475
663.33	31.635
663.66	31.513
663.98	30.886
664.31	31.303
664.63	28.340
664.96	28.773
665.28	30.943
665.61	29.045
665.93	32.596
666.26	28.600
666.58	29.079
666.91	30.655
667.23	33.708
667.56	29.374
667.88	31.410
668.21	31.130
668.53	31.887
668.86	29.654
669.18	31.770
669.50	32.174
669.83	34.423
670.15	31.333
670.48	30.937
670.80	29.095
671.13	31.635
671.45	30.426
671.77	35.438
672.10	30.684
672.42	28.269
672.75	28.027
673.07	27.993
673.39	30.018
673.72	28.320
674.04	29.020
674.37	29.320
674.69	30.061
675.01	29.916
675.34	32.649
675.66	32.000
675.98	30.346
676.31	30.672
676.63	31.423
676.95	31.656
677.28	32.009
677.60	29.451
677.92	31.646
678.25	32.033
678.57	29.084
678.89	28.657
679.22	28.880
679.54	28.244
679.86	31.009
680.18	29.696
680.51	27.128
680.83	28.648
681.15	29.434
681.48	30.246
681.80	27.466
682.12	28.544
682.44	27.466
682.77	29.939
683.09	32.189
683.41	30.599
683.73	31.788
684.06	29.752
684.38	27.984
684.70	27.519
685.02	28.705
685.34	27.473
685.67	27.797
685.99	26.289
686.31	27.645
686.63	26.502
686.96	27.857
687.28	27.256
687.60	25.181
687.92	28.885
688.24	29.278
688.56	29.518
688.89	28.008
689.21	30.786
689.53	31.315
689.85	30.377
690.17	29.400
690.49	31.210
690.82	32.243
691.14	27.009
691.46	28.903
691.78	29.116
692.10	30.165
692.42	29.341
692.74	28.008
693.06	29.787
693.39	31.211
693.71	28.603
694.03	29.474
694.35	29.221
694.67	29.519
694.99	29.756
695.31	31.863
695.63	28.947
695.95	31.051
696.27	26.650
696.59	26.943
696.91	32.902
697.23	28.873
697.56	30.490
697.88	24.949
698.20	28.542
698.52	28.172
698.84	30.290
699.16	28.571
699.48	32.542
699.80	28.502
700.12	34.026
700.44	32.891
700.76	32.320
701.08	34.195
701.40	33.240
701.72	33.528
702.04	36.080
702.36	31.161
702.68	31.728
703.00	32.687
703.32	32.713
703.64	31.903
703.96	33.148
704.28	32.849
704.60	36.657
704.91	27.596
705.23	32.551
705.55	32.226
705.87	39.535
706.19	33.922
706.51	33.022
706.83	30.909
707.15	33.894
707.47	28.283
707.79	30.958
708.11	28.539
708.43	29.762
708.74	26.531
709.06	30.130
709.38	30.971
709.70	33.140
710.02	33.234
710.34	32.424
710.66	30.448
710.98	30.114
711.29	31.395
711.61	32.743
711.93	32.692
712.25	35.691
712.57	35.294
712.89	32.180
713.20	31.915
713.52	34.539
713.84	33.861
714.16	33.232
714.48	31.897
714.80	35.258
715.11	31.988
715.43	32.047
715.75	34.203
716.07	32.907
716.39	33.542
716.70	33.555
717.02	36.331
717.34	33.922
717.66	36.194
717.97	36.653
718.29	31.852
718.61	33.577
718.93	35.662
719.24	34.602
719.56	31.525
719.88	34.576
720.20	36.149
720.51	37.631
720.83	40.520
721.15	30.597
721.46	35.106
721.78	36.918
722.10	36.604
722.42	36.466
722.73	35.955
723.05	34.836
723.37	36.437
723.68	35.521
724.00	36.992
724.32	31.452
724.63	34.959
724.95	35.146
725.27	38.866
725.58	37.109
725.90	41.241
726.22	35.849
726.53	31.597
726.85	31.741
727.16	33.808
727.48	32.270
727.80	32.955
728.11	34.783
728.43	36.154
728.74	32.975
729.06	40.876
729.38	37.500
729.69	33.808
730.01	31.058
730.32	32.292
730.64	35.117
730.96	30.033
731.27	35.099
731.59	30.581
731.90	31.487
732.22	29.814
732.53	31.889
732.85	31.731
733.16	30.225
733.48	30.897
733.80	33.442
734.11	35.350
734.43	33.432
734.74	29.714
735.06	30.086
735.37	34.104
735.69	31.210
736.00	33.987
736.32	33.333
736.63	33.227
736.95	30.990
737.26	26.531
737.58	30.323
737.89	32.107
738.21	34.471
738.52	36.071
738.83	30.943
739.15	31.538
739.46	32.847
739.78	32.639
740.09	29.846
740.41	35.161
740.72	29.617
741.04	30.000
741.35	34.167
741.66	38.667
741.98	36.321
742.29	36.364
742.61	39.224
742.92	33.484
743.23	41.026
743.55	35.200
743.86	32.456
744.18	42.920
744.49	43.062
744.80	39.906
745.12	39.545
745.43	38.326
745.74	39.189
746.06	38.073
746.37	40.807
746.68	36.652
747.00	41.667
747.31	41.905
747.62	34.513
747.94	37.004
748.25	37.447
748.56	40.969
748.88	32.673
749.19	40.000
749.50	36.744
749.82	35.772
750.13	30.204
750.44	35.401
750.75	31.228
751.07	35.048
751.38	33.449
751.69	35.740
752.01	36.466
752.32	32.491
752.63	34.043
752.94	34.016
753.26	36.400
753.57	33.333
753.88	38.281
754.19	31.071
754.51	37.500
754.82	31.047
755.13	32.453
755.44	33.459
755.75	34.307
756.07	33.688
756.38	30.292
756.69	37.248
757.00	32.635
757.31	32.641
757.63	28.947
757.94	30.027
758.25	29.167
758.56	29.630
758.87	27.957
759.18	30.303
759.50	30.094
759.81	31.776
760.12	27.812
760.43	31.805
760.74	31.522
761.05	31.638
761.36	30.481
761.67	33.239
761.99	28.571
762.30	33.681
762.61	32.443
762.92	40.234
763.23	33.613
763.54	35.200
763.85	37.500
764.16	36.538
764.47	33.080
764.78	30.742
765.10	31.329
765.41	33.333
765.72	30.240
766.03	30.721
766.34	30.667
766.65	39.574
766.96	34.188
767.27	36.548
767.58	41.146
767.89	37.895
768.20	42.529
768.51	36.548
768.82	38.073
769.13	37.398
769.44	32.794
769.75	36.481
770.06	30.275
770.37	37.104
770.68	42.593
770.99	33.333
771.30	32.787
771.61	34.978
771.92	32.377
772.23	36.975
772.54	37.949
772.85	41.885
773.16	42.021
773.47	39.674
773.78	41.117
774.09	34.524
774.39	42.105
774.70	45.062
775.01	43.478
775.32	52.288
775.63	45.395
775.94	35.252
776.25	56.693
776.56	51.493
776.87	50.820
777.18	49.219
777.48	57.252
777.79	37.879
778.10	48.889
778.41	58.036
778.72	43.066
779.03	41.611
779.34	38.926
779.65	42.568
779.95	35.583
780.26	41.176
780.57	45.517
780.88	53.906
781.19	50.376
781.50	52.027
781.80	44.654
782.11	37.288
782.42	32.911
782.73	40.491
783.04	45.270
783.34	41.549
783.65	56.849
783.96	52.239
784.27	46.154
784.57	35.252
784.88	46.296
785.19	48.413
785.50	49.057
785.81	58.955
786.11	46.721
786.42	46.512
786.73	53.982
787.04	54.717
787.34	57.143
787.65	56.000
787.96	50.450
788.26	48.760
788.57	58.475
788.88	54.545
789.19	47.222
789.49	59.091
789.80	46.565
790.11	64.762
790.41	62.376
790.72	73.494
791.03	57.609
791.33	56.977
791.64	68.041
791.95	59.406
792.25	65.556
792.56	70.130
792.87	74.359
793.17	74.684
793.48	60.920
793.79	67.816
794.09	64.773
794.40	52.101
794.70	45.588
795.01	45.185
795.32	42.446
795.62	51.969
795.93	54.310
796.23	50.442
796.54	55.294
796.85	59.459
797.15	78.873
797.46	66.667
797.76	77.108
798.07	75.949
798.37	56.923
798.68	72.727
798.99	56.338
799.29	70.130
799.60	65.909
799.90	73.973
800.21	91.045
800.51	79.310
800.82	87.719
801.12	83.607
801.43	84.848
801.73	62.162
802.04	90.476
802.34	71.605
802.65	71.875
802.95	93.220
803.26	78.125
803.56	58.571
803.87	80.000
804.17	89.706
804.48	96.296
804.78	79.310
805.09	61.765
805.39	90.385
805.70	89.286
806.00	86.885
806.30	63.636
806.61	70.732
806.91	65.823
807.22	61.842
807.52	55.224
807.83	100.000
808.13	67.188
808.43	78.333
808.74	52.632
809.04	79.710
809.35	91.045
809.65	75.000
809.95	96.774
810.26	93.220
810.56	80.952
810.86	97.727
811.17	95.238
811.47	93.333
811.77	77.778
812.08	83.636
812.38	106.000
812.69	122.222
812.99	113.636
813.29	104.082
813.59	66.667
813.90	100.000
814.20	83.636
814.50	52.308
814.81	88.235
815.11	104.082
815.41	96.721
815.72	114.286
816.02	101.818
816.32	100.000
816.62	110.000
816.93	109.756
817.23	119.048
817.53	104.545
817.84	136.364
818.14	110.870
818.44	93.333
818.74	144.118
819.04	122.500
819.35	117.143
819.65	123.529
819.95	117.857
820.25	140.000
820.56	102.564
820.86	109.091
821.16	106.977
821.46	107.692
821.76	124.000
822.07	142.857
822.37	122.500
822.67	103.030
822.97	70.588
823.27	146.429
823.57	116.216
823.88	155.000
824.18	166.667
824.48	114.286
824.78	164.000
825.08	129.167
825.38	124.324
825.69	107.317
825.99	175.000
826.29	110.345
826.59	126.316
826.89	115.789
827.19	150.000
827.49	129.032
827.79	106.818
828.09	106.818
828.39	89.362
828.70	112.245
829.00	88.889
829.30	106.452
829.60	122.500
829.90	200.000
830.20	135.714
830.50	121.739
830.80	165.217
831.10	146.667
831.40	176.667
831.70	139.130
832.00	161.538
832.30	133.333
832.60	231.250
832.90	156.667
833.20	257.143
833.50	158.065
833.80	162.069
834.10	146.875
834.40	180.769
834.70	233.333
835.00	223.810
835.30	140.000
835.60	215.385
835.90	137.931
836.20	271.429
836.50	168.966
836.80	152.000
837.10	161.111
837.40	209.524
837.70	270.588
838.00	148.148
838.30	138.095
838.60	219.048
838.90	157.692
839.19	165.000
839.49	264.286
839.79	235.000
840.09	210.000
840.39	204.762
840.69	204.348
840.99	227.778
841.29	330.000
841.59	200.000
841.88	243.750
842.18	148.276
842.48	209.524
842.78	166.667
843.08	173.913
843.38	118.750
843.68	750.000
843.97	157.692
844.27	165.517
844.57	219.048
844.87	325.000
845.17	174.074
845.47	1166.667
845.76	322.222
846.06	211.765
846.36	312.500
846.66	271.429
846.96	237.500
847.25	254.545
847.55	327.273
847.85	221.739
848.15	300.000
848.44	292.857
848.74	166.667
849.04	229.412
849.34	450.000
849.63	178.947
849.93	409.091
850.23	800.000
850.53	350.000
850.82	2000.000
851.12	-3600.000
851.42	3100.000
851.71	210.000
852.01	-800.000
852.31	187.500
852.61	1033.333
852.90	238.095
853.20	156.000
853.50	247.059
853.79	266.667
854.09	150.000
854.39	287.500
854.68	156.757
854.98	129.032
855.28	136.667
855.57	175.862
855.87	151.852
856.17	168.421
856.46	200.000
856.76	188.235
857.05	148.276
857.35	179.167
857.65	280.000
857.94	191.304
858.24	188.462
858.53	160.000
858.83	145.455
859.13	233.333
859.42	0.000
859.72	433.333
860.01	345.455
860.31	186.364
860.60	194.737
860.90	208.696
861.20	422.222
861.49	341.667
861.79	-3300.000
862.08	450.000
862.38	238.095
862.67	230.769
862.97	205.882
863.26	333.333
863.56	211.111
863.85	266.667
864.15	500.000
864.44	346.667
864.74	700.000
865.03	575.000
865.33	210.526
865.62	354.545
865.92	315.385
866.21	191.667
866.51	0.000
866.80	290.909
867.10	780.000
867.39	276.923
867.69	309.091
867.98	205.263
868.27	345.455
868.57	268.421
868.86	-2400.000
869.16	250.000
869.45	1550.000
869.75	-1800.000
870.04	225.000
870.33	457.143
870.63	625.000
870.92	2150.000
871.22	614.286
871.51	211.765
871.80	171.429
872.10	250.000
>>>>>End Processed Spectral Data<<<<<
