SpectraSuite Data File
++++++++++++++++++++++++++++++++++++
Date: Wed May 13 16:55:58 PDT 2015
User: schluterlab
Dark Spectrum Present: Yes
Reference Spectrum Present: Yes
Number of Sampled Component Spectra: 1
Spectrometers: USB2E3373
Integration Time (usec): 3000 (USB2E3373)
Spectra Averaged: 3 (USB2E3373)
Boxcar Smoothing: 0 (USB2E3373)
Correct for Electrical Dark: No (USB2E3373)
Strobe/Lamp Enabled: No (USB2E3373)
Correct for Detector Non-linearity: No (USB2E3373)
Correct for Stray Light: No (USB2E3373)
Number of Pixels in Processed Spectrum: 2048
>>>>>Begin Processed Spectral Data<<<<<
178.53	0.000
178.91	-1400.000
179.29	-1275.000
179.67	-266.667
180.04	-1650.000
180.42	2900.000
180.80	1060.000
181.18	-1025.000
181.56	700.000
181.94	0.000
182.31	-614.286
182.69	1566.667
183.07	-550.000
183.45	-466.667
183.83	545.455
184.20	-400.000
184.58	2250.000
184.96	4800.000
185.34	-820.000
185.72	-612.500
186.09	-2000.000
186.47	2000.000
186.85	2250.000
187.23	5500.000
187.61	-1733.333
187.98	1450.000
188.36	463.636
188.74	472.727
189.12	-880.000
189.49	680.000
189.87	-4300.000
190.25	-1025.000
190.63	450.000
191.00	423.077
191.38	783.333
191.76	-1300.000
192.14	1475.000
192.51	687.500
192.89	1066.667
193.27	562.500
193.65	-1325.000
194.02	650.000
194.40	1240.000
194.78	560.000
195.15	508.333
195.53	650.000
195.91	-2200.000
196.29	381.250
196.66	310.526
197.04	-400.000
197.42	0.000
197.79	550.000
198.17	-4500.000
198.55	728.571
198.92	612.500
199.30	880.000
199.68	0.000
200.05	288.889
200.43	857.143
200.81	5400.000
201.18	2133.333
201.56	-1700.000
201.94	611.111
202.31	544.444
202.69	458.333
203.07	540.000
203.44	0.000
203.82	1325.000
204.19	757.143
204.57	392.857
204.95	712.500
205.32	1266.667
205.70	500.000
206.08	428.571
206.45	2300.000
206.83	381.250
207.20	816.667
207.58	640.000
207.96	288.889
208.33	612.500
208.71	-1016.667
209.08	771.429
209.46	644.444
209.84	481.818
210.21	-1500.000
210.59	1300.000
210.96	-550.000
211.34	2600.000
211.71	580.000
212.09	783.333
212.46	0.000
212.84	2066.667
213.22	1200.000
213.59	-5700.000
213.97	966.667
214.34	971.429
214.72	536.364
215.09	1340.000
215.47	-2400.000
215.84	-2750.000
216.22	1700.000
216.59	371.429
216.97	1500.000
217.34	445.455
217.72	-683.333
218.09	0.000
218.47	-5600.000
218.84	711.111
219.22	671.429
219.59	1800.000
219.97	-600.000
220.34	1200.000
220.72	-1700.000
221.09	378.571
221.47	1275.000
221.84	-950.000
222.22	0.000
222.59	1300.000
222.97	-2650.000
223.34	1240.000
223.72	446.154
224.09	1120.000
224.46	2050.000
224.84	-4600.000
225.21	-980.000
225.59	-5300.000
225.96	610.000
226.34	310.000
226.71	2600.000
227.08	662.500
227.46	550.000
227.83	-1000.000
228.21	-2700.000
228.58	700.000
228.95	-2550.000
229.33	-2400.000
229.70	1933.333
230.08	857.143
230.45	-860.000
230.82	433.333
231.20	933.333
231.57	742.857
231.95	575.000
232.32	250.000
232.69	436.364
233.07	728.571
233.44	453.846
233.81	-1933.333
234.19	315.789
234.56	491.667
234.93	400.000
235.31	545.455
235.68	330.769
236.05	421.429
236.43	200.000
236.80	305.263
237.17	4200.000
237.55	280.952
237.92	221.429
238.29	261.905
238.67	183.871
239.04	200.000
239.41	175.000
239.79	139.130
240.16	169.048
240.53	161.364
240.91	121.569
241.28	142.000
241.65	138.000
242.02	101.449
242.40	116.129
242.77	106.667
243.14	94.624
243.51	88.764
243.89	83.529
244.26	86.667
244.63	91.398
245.00	84.043
245.38	78.218
245.75	85.981
246.12	72.477
246.49	85.401
246.87	83.200
247.24	79.231
247.61	70.000
247.98	71.242
248.36	62.162
248.73	68.790
249.10	72.611
249.47	66.667
249.84	62.032
250.22	63.636
250.59	68.047
250.96	59.091
251.33	64.929
251.70	64.851
252.08	58.095
252.45	51.570
252.82	52.609
253.19	58.723
253.56	58.431
253.94	56.846
254.31	56.641
254.68	56.923
255.05	56.089
255.42	48.374
255.79	56.985
256.16	54.513
256.54	50.883
256.91	55.872
257.28	48.921
257.65	49.835
258.02	49.379
258.39	46.057
258.76	50.502
259.14	49.702
259.51	51.368
259.88	52.795
260.25	51.964
260.62	45.665
260.99	51.553
261.36	52.252
261.73	49.857
262.10	46.802
262.47	47.606
262.85	44.290
263.22	45.014
263.59	52.137
263.96	47.527
264.33	46.997
264.70	49.211
265.07	47.315
265.44	49.495
265.81	44.282
266.18	47.990
266.55	44.878
266.92	47.174
267.29	47.454
267.66	43.349
268.03	44.545
268.40	43.925
268.77	40.573
269.14	43.468
269.51	46.727
269.88	45.455
270.25	43.567
270.62	45.393
270.99	45.591
271.36	43.777
271.73	47.196
272.10	41.957
272.47	44.516
272.84	45.671
273.21	44.025
273.58	43.013
273.95	44.444
274.32	42.149
274.69	43.469
275.06	42.520
275.43	45.319
275.80	43.687
276.17	43.992
276.54	45.738
276.91	43.281
277.28	41.211
277.65	42.747
278.02	42.029
278.39	43.164
278.76	40.909
279.13	41.509
279.50	40.968
279.87	43.227
280.23	44.311
280.60	41.586
280.97	42.144
281.34	41.947
281.71	41.636
282.08	42.035
282.45	38.909
282.82	40.853
283.19	37.790
283.56	39.649
283.92	40.948
284.29	38.977
284.66	39.746
285.03	39.421
285.40	37.852
285.77	39.394
286.14	38.860
286.51	38.833
286.87	37.607
287.24	38.436
287.61	36.918
287.98	37.500
288.35	37.876
288.72	36.449
289.08	36.620
289.45	38.550
289.82	36.748
290.19	34.694
290.56	36.753
290.93	35.952
291.29	38.037
291.66	35.251
292.03	35.029
292.40	36.564
292.77	34.024
293.13	33.134
293.50	35.131
293.87	34.074
294.24	34.370
294.60	31.732
294.97	32.122
295.34	32.158
295.71	34.801
296.08	33.618
296.44	32.737
296.81	31.572
297.18	34.688
297.55	31.794
297.91	30.475
298.28	32.129
298.65	32.637
299.02	32.279
299.38	30.810
299.75	28.571
300.12	30.013
300.48	31.000
300.85	30.333
301.22	30.064
301.59	29.798
301.95	31.612
302.32	29.782
302.69	29.630
303.05	29.091
303.42	30.741
303.79	28.652
304.15	29.371
304.52	27.810
304.89	28.804
305.25	28.654
305.62	28.426
305.99	29.634
306.35	27.964
306.72	29.933
307.09	28.413
307.45	30.968
307.82	27.009
308.19	28.808
308.55	29.558
308.92	29.001
309.29	27.455
309.65	28.844
310.02	28.858
310.38	29.355
310.75	29.039
311.12	29.069
311.48	28.631
311.85	29.455
312.22	29.657
312.58	28.690
312.95	29.884
313.31	26.796
313.68	29.314
314.05	32.150
314.41	29.749
314.78	30.312
315.14	30.487
315.51	30.072
315.87	30.990
316.24	30.983
316.61	30.604
316.97	30.822
317.34	30.626
317.70	31.836
318.07	31.954
318.43	33.170
318.80	33.927
319.16	33.333
319.53	31.801
319.89	33.524
320.26	34.800
320.62	34.127
320.99	35.051
321.35	35.455
321.72	36.037
322.08	36.328
322.45	36.816
322.81	37.888
323.18	39.306
323.54	36.364
323.91	37.925
324.27	36.520
324.64	38.304
325.00	38.323
325.37	40.218
325.73	41.382
326.10	40.335
326.46	40.233
326.83	41.415
327.19	41.076
327.56	42.334
327.92	40.420
328.29	43.212
328.65	43.923
329.01	42.599
329.38	43.293
329.74	43.213
330.11	44.958
330.47	44.720
330.84	45.404
331.20	44.080
331.56	45.138
331.93	45.556
332.29	43.833
332.66	43.894
333.02	44.698
333.38	46.432
333.75	46.613
334.11	45.285
334.48	45.164
334.84	46.875
335.20	45.818
335.57	46.056
335.93	45.625
336.29	45.879
336.66	45.266
337.02	45.339
337.38	46.481
337.75	46.346
338.11	46.374
338.47	46.501
338.84	47.204
339.20	45.963
339.56	46.989
339.93	45.636
340.29	45.471
340.65	45.544
341.02	46.859
341.38	46.174
341.74	45.175
342.11	46.376
342.47	46.256
342.83	45.462
343.20	46.234
343.56	44.735
343.92	46.053
344.28	46.088
344.65	47.463
345.01	45.623
345.37	45.026
345.73	46.108
346.10	46.547
346.46	46.864
346.82	45.717
347.19	45.363
347.55	45.402
347.91	46.683
348.27	47.083
348.63	46.237
349.00	45.550
349.36	46.634
349.72	45.870
350.08	46.353
350.45	46.705
350.81	45.898
351.17	46.191
351.53	44.308
351.89	45.215
352.26	46.646
352.62	45.950
352.98	44.814
353.34	46.097
353.70	45.090
354.07	45.806
354.43	44.444
354.79	44.730
355.15	44.932
355.51	46.043
355.87	45.878
356.24	46.336
356.60	45.229
356.96	45.696
357.32	47.097
357.68	45.276
358.04	45.368
358.40	44.656
358.77	46.009
359.13	45.225
359.49	45.961
359.85	45.476
360.21	45.694
360.57	47.393
360.93	45.231
361.29	45.654
361.66	44.892
362.02	45.299
362.38	45.932
362.74	45.685
363.10	45.818
363.46	46.809
363.82	45.049
364.18	45.374
364.54	46.508
364.90	46.813
365.26	45.956
365.62	46.238
365.98	45.069
366.35	45.272
366.71	45.915
367.07	44.574
367.43	46.372
367.79	46.253
368.15	46.911
368.51	46.148
368.87	47.038
369.23	46.086
369.59	47.502
369.95	45.515
370.31	46.866
370.67	46.087
371.03	47.640
371.39	45.773
371.75	45.956
372.11	46.017
372.47	47.067
372.83	46.470
373.19	47.038
373.55	47.894
373.91	48.454
374.27	46.254
374.63	47.055
374.99	47.599
375.35	46.406
375.71	46.539
376.07	47.942
376.42	46.424
376.78	47.647
377.14	48.440
377.50	47.152
377.86	47.939
378.22	47.155
378.58	45.614
378.94	46.386
379.30	47.519
379.66	47.525
380.02	47.236
380.38	46.205
380.74	46.939
381.09	47.311
381.45	48.064
381.81	47.666
382.17	47.771
382.53	47.044
382.89	48.333
383.25	47.467
383.61	47.831
383.97	47.592
384.32	47.785
384.68	48.079
385.04	47.695
385.40	47.183
385.76	47.850
386.12	48.381
386.48	47.829
386.83	47.979
387.19	49.536
387.55	48.423
387.91	48.065
388.27	46.781
388.62	47.818
388.98	46.929
389.34	48.561
389.70	48.130
390.06	48.352
390.42	48.898
390.77	48.092
391.13	48.564
391.49	48.668
391.85	48.631
392.20	47.886
392.56	48.169
392.92	48.970
393.28	47.219
393.64	48.441
393.99	46.732
394.35	48.139
394.71	47.804
395.07	46.355
395.42	48.269
395.78	47.901
396.14	47.424
396.50	49.185
396.85	50.032
397.21	46.979
397.57	47.303
397.92	46.454
398.28	46.132
398.64	47.909
399.00	46.670
399.35	47.547
399.71	46.296
400.07	47.723
400.42	47.546
400.78	47.889
401.14	48.537
401.49	47.224
401.85	46.400
402.21	47.665
402.57	46.144
402.92	48.045
403.28	47.470
403.63	46.225
403.99	46.815
404.35	47.212
404.70	45.983
405.06	46.418
405.42	48.908
405.77	45.943
406.13	46.275
406.49	46.422
406.84	46.840
407.20	45.981
407.55	46.969
407.91	47.267
408.27	46.650
408.62	46.779
408.98	45.711
409.34	46.556
409.69	47.806
410.05	46.592
410.40	46.850
410.76	45.878
411.11	45.959
411.47	46.198
411.83	45.877
412.18	45.145
412.54	46.824
412.89	45.361
413.25	45.100
413.60	45.584
413.96	45.962
414.31	45.869
414.67	46.198
415.03	46.159
415.38	45.941
415.74	46.109
416.09	46.375
416.45	47.189
416.80	46.134
417.16	46.582
417.51	46.384
417.87	45.151
418.22	46.751
418.58	45.707
418.93	46.130
419.29	45.512
419.64	46.348
420.00	45.488
420.35	45.797
420.71	46.683
421.06	45.048
421.42	45.439
421.77	46.300
422.12	45.143
422.48	44.307
422.83	46.651
423.19	44.088
423.54	45.560
423.90	45.275
424.25	46.119
424.61	45.060
424.96	45.131
425.31	44.795
425.67	44.382
426.02	43.886
426.38	45.665
426.73	44.880
427.09	45.106
427.44	44.738
427.79	45.888
428.15	45.000
428.50	45.816
428.85	45.411
429.21	45.389
429.56	44.997
429.92	45.546
430.27	45.184
430.62	44.137
430.98	44.162
431.33	44.278
431.68	45.969
432.04	44.036
432.39	45.917
432.74	46.260
433.10	46.180
433.45	45.423
433.80	45.565
434.16	45.620
434.51	44.526
434.86	45.040
435.22	45.359
435.57	45.350
435.92	44.822
436.28	45.433
436.63	44.426
436.98	45.278
437.34	45.200
437.69	46.091
438.04	45.025
438.39	45.433
438.75	45.264
439.10	46.536
439.45	45.809
439.81	45.257
440.16	45.003
440.51	45.870
440.86	46.497
441.22	44.549
441.57	45.701
441.92	45.445
442.27	44.618
442.63	44.655
442.98	45.521
443.33	45.543
443.68	44.760
444.03	44.705
444.39	44.791
444.74	45.887
445.09	45.768
445.44	45.107
445.79	45.720
446.15	44.733
446.50	44.373
446.85	45.427
447.20	45.793
447.55	46.454
447.91	45.891
448.26	44.908
448.61	46.241
448.96	46.290
449.31	45.838
449.66	44.401
450.02	45.905
450.37	46.032
450.72	45.008
451.07	44.851
451.42	45.289
451.77	46.095
452.12	45.150
452.47	44.838
452.83	46.270
453.18	44.682
453.53	46.135
453.88	44.123
454.23	44.889
454.58	46.638
454.93	46.917
455.28	46.010
455.63	45.692
455.98	46.250
456.34	44.912
456.69	46.462
457.04	45.882
457.39	45.120
457.74	45.154
458.09	45.083
458.44	45.496
458.79	45.716
459.14	45.485
459.49	46.001
459.84	45.319
460.19	44.549
460.54	43.576
460.89	44.816
461.24	45.841
461.59	46.078
461.94	45.068
462.29	46.113
462.64	44.799
462.99	45.088
463.34	45.867
463.69	45.278
464.04	44.812
464.39	44.986
464.74	44.504
465.09	46.080
465.44	44.211
465.79	45.358
466.14	43.952
466.49	43.548
466.84	44.016
467.19	45.323
467.54	44.375
467.89	43.878
468.24	45.143
468.59	44.933
468.94	43.739
469.29	45.437
469.64	45.448
469.99	45.467
470.34	44.518
470.68	45.330
471.03	44.422
471.38	46.838
471.73	44.837
472.08	45.855
472.43	44.472
472.78	45.425
473.13	44.801
473.48	45.256
473.83	45.366
474.17	45.053
474.52	44.293
474.87	44.542
475.22	44.980
475.57	43.632
475.92	43.972
476.27	43.348
476.61	44.015
476.96	43.980
477.31	43.433
477.66	44.858
478.01	43.701
478.36	43.575
478.70	43.146
479.05	44.036
479.40	44.166
479.75	44.128
480.10	43.091
480.45	43.551
480.79	42.905
481.14	43.542
481.49	43.806
481.84	42.936
482.19	43.208
482.53	42.706
482.88	43.648
483.23	43.832
483.58	42.584
483.92	43.814
484.27	41.612
484.62	42.716
484.97	42.491
485.31	43.836
485.66	43.166
486.01	41.120
486.36	39.462
486.70	37.958
487.05	39.242
487.40	40.271
487.75	40.635
488.09	41.128
488.44	41.361
488.79	41.591
489.13	42.246
489.48	42.904
489.83	41.606
490.17	42.481
490.52	41.763
490.87	42.741
491.22	42.656
491.56	42.369
491.91	41.554
492.26	41.847
492.60	42.258
492.95	41.862
493.30	41.589
493.64	42.324
493.99	41.179
494.34	42.599
494.68	42.216
495.03	42.763
495.37	41.880
495.72	42.495
496.07	42.227
496.41	40.664
496.76	41.337
497.11	41.558
497.45	42.105
497.80	42.035
498.14	41.546
498.49	41.854
498.84	41.850
499.18	41.238
499.53	42.355
499.87	42.591
500.22	41.922
500.56	41.942
500.91	40.673
501.26	41.868
501.60	42.477
501.95	41.247
502.29	42.409
502.64	42.225
502.98	41.468
503.33	40.128
503.67	41.717
504.02	41.815
504.36	41.226
504.71	42.599
505.06	41.494
505.40	42.149
505.75	41.514
506.09	41.108
506.44	41.934
506.78	41.159
507.13	42.100
507.47	42.980
507.82	41.692
508.16	42.249
508.51	42.364
508.85	42.056
509.19	41.939
509.54	41.071
509.88	41.783
510.23	42.314
510.57	41.796
510.92	42.103
511.26	41.727
511.61	41.494
511.95	41.649
512.30	40.774
512.64	41.268
512.98	42.229
513.33	41.702
513.67	41.676
514.02	41.342
514.36	41.671
514.70	42.114
515.05	41.997
515.39	41.559
515.74	42.005
516.08	41.923
516.42	43.008
516.77	43.423
517.11	41.676
517.46	41.817
517.80	42.625
518.14	40.996
518.49	42.940
518.83	41.932
519.17	42.725
519.52	41.200
519.86	40.274
520.20	41.850
520.55	42.669
520.89	41.849
521.23	42.400
521.58	41.657
521.92	42.743
522.26	41.001
522.61	42.617
522.95	41.621
523.29	41.509
523.64	42.500
523.98	42.144
524.32	41.375
524.66	42.393
525.01	41.973
525.35	41.140
525.69	41.133
526.04	42.617
526.38	41.367
526.72	41.288
527.06	42.436
527.41	39.233
527.75	41.865
528.09	42.132
528.43	42.001
528.78	41.672
529.12	41.333
529.46	41.151
529.80	41.460
530.15	40.810
530.49	40.431
530.83	40.949
531.17	42.167
531.51	42.153
531.86	42.258
532.20	41.591
532.54	40.679
532.88	41.078
533.22	40.162
533.57	40.432
533.91	40.999
534.25	40.826
534.59	40.818
534.93	40.869
535.27	40.978
535.62	40.965
535.96	40.929
536.30	40.305
536.64	41.082
536.98	41.805
537.32	41.080
537.66	40.333
538.01	40.553
538.35	41.370
538.69	41.225
539.03	40.481
539.37	40.511
539.71	39.922
540.05	40.784
540.39	40.532
540.73	40.362
541.07	41.596
541.42	40.900
541.76	40.710
542.10	40.686
542.44	41.126
542.78	41.568
543.12	38.772
543.46	39.869
543.80	40.468
544.14	39.345
544.48	40.508
544.82	39.833
545.16	39.948
545.50	38.753
545.84	40.323
546.18	40.471
546.52	41.225
546.86	40.687
547.20	40.931
547.54	40.147
547.88	41.135
548.22	39.477
548.56	39.748
548.90	39.885
549.24	40.202
549.58	41.405
549.92	40.659
550.26	40.057
550.60	39.488
550.94	39.859
551.28	38.917
551.62	40.690
551.96	40.211
552.30	40.273
552.64	39.554
552.98	39.593
553.32	39.245
553.66	40.014
554.00	39.259
554.34	38.440
554.68	41.130
555.02	40.832
555.36	39.736
555.69	39.175
556.03	41.319
556.37	39.973
556.71	38.472
557.05	38.796
557.39	39.888
557.73	39.238
558.07	40.609
558.41	39.508
558.75	39.750
559.08	40.567
559.42	39.683
559.76	40.735
560.10	38.972
560.44	39.133
560.78	38.589
561.12	38.127
561.45	39.635
561.79	37.442
562.13	38.296
562.47	39.686
562.81	40.028
563.15	39.331
563.48	39.125
563.82	38.878
564.16	38.326
564.50	37.500
564.84	38.559
565.17	38.546
565.51	38.658
565.85	38.515
566.19	37.070
566.52	38.695
566.86	37.432
567.20	38.561
567.54	37.215
567.88	37.262
568.21	37.989
568.55	37.007
568.89	37.792
569.23	36.720
569.56	36.275
569.90	36.453
570.24	35.630
570.57	36.212
570.91	35.262
571.25	34.867
571.59	34.669
571.92	35.138
572.26	35.240
572.60	35.375
572.93	34.423
573.27	35.078
573.61	35.232
573.95	35.194
574.28	34.196
574.62	34.670
574.96	34.194
575.29	34.069
575.63	34.451
575.97	33.897
576.30	34.626
576.64	34.951
576.98	34.249
577.31	33.896
577.65	33.898
577.98	34.278
578.32	33.539
578.66	34.109
578.99	33.759
579.33	33.624
579.67	33.763
580.00	33.493
580.34	33.840
580.67	33.798
581.01	34.158
581.35	33.892
581.68	34.555
582.02	33.287
582.35	33.761
582.69	33.504
583.02	33.752
583.36	33.871
583.70	34.515
584.03	34.222
584.37	35.178
584.70	35.214
585.04	33.488
585.37	33.621
585.71	34.234
586.04	33.897
586.38	34.326
586.72	34.245
587.05	34.012
587.39	33.905
587.72	34.038
588.06	34.445
588.39	34.211
588.73	33.764
589.06	34.528
589.40	34.242
589.73	35.058
590.07	34.733
590.40	34.344
590.73	35.012
591.07	35.246
591.40	35.808
591.74	35.195
592.07	35.035
592.41	34.725
592.74	35.431
593.08	34.477
593.41	34.704
593.75	32.948
594.08	34.026
594.41	34.040
594.75	34.566
595.08	34.467
595.42	34.641
595.75	34.402
596.09	34.998
596.42	34.538
596.75	34.107
597.09	35.541
597.42	34.570
597.75	34.411
598.09	34.609
598.42	34.064
598.76	34.171
599.09	33.561
599.42	33.624
599.76	34.553
600.09	33.370
600.42	33.565
600.76	32.679
601.09	33.770
601.42	33.942
601.76	33.472
602.09	34.032
602.42	33.678
602.76	34.180
603.09	34.304
603.42	34.947
603.76	34.032
604.09	34.316
604.42	34.651
604.76	34.542
605.09	33.945
605.42	33.732
605.75	33.733
606.09	33.347
606.42	33.429
606.75	33.720
607.09	34.073
607.42	34.061
607.75	33.291
608.08	33.261
608.42	34.558
608.75	33.724
609.08	33.488
609.41	33.984
609.75	33.969
610.08	34.025
610.41	33.473
610.74	33.538
611.07	34.190
611.41	33.611
611.74	34.289
612.07	33.903
612.40	35.467
612.73	34.316
613.07	34.321
613.40	34.966
613.73	33.718
614.06	34.946
614.39	34.137
614.72	34.474
615.06	33.351
615.39	33.970
615.72	33.742
616.05	33.121
616.38	33.963
616.71	34.501
617.05	36.042
617.38	34.336
617.71	34.715
618.04	34.736
618.37	34.299
618.70	34.848
619.03	35.395
619.36	35.438
619.69	34.648
620.03	35.783
620.36	34.826
620.69	36.370
621.02	35.546
621.35	34.926
621.68	34.502
622.01	35.217
622.34	36.006
622.67	35.741
623.00	35.290
623.33	35.811
623.66	34.668
623.99	35.567
624.32	35.021
624.65	35.099
624.99	33.711
625.32	34.323
625.65	34.786
625.98	34.973
626.31	36.236
626.64	35.673
626.97	35.661
627.30	35.328
627.63	35.029
627.96	35.156
628.29	35.258
628.62	36.322
628.95	37.075
629.28	36.314
629.61	36.480
629.94	37.810
630.26	36.892
630.59	37.083
630.92	35.441
631.25	36.426
631.58	35.836
631.91	34.686
632.24	36.920
632.57	37.251
632.90	35.965
633.23	37.808
633.56	39.096
633.89	36.693
634.22	37.457
634.55	39.763
634.88	37.365
635.20	37.634
635.53	38.554
635.86	36.139
636.19	36.471
636.52	38.178
636.85	37.228
637.18	36.060
637.51	36.052
637.83	34.895
638.16	38.107
638.49	37.406
638.82	39.823
639.15	36.500
639.48	37.781
639.81	36.327
640.13	37.109
640.46	37.181
640.79	37.913
641.12	37.689
641.45	38.128
641.77	39.764
642.10	38.596
642.43	36.036
642.76	38.700
643.09	39.264
643.41	38.695
643.74	40.278
644.07	37.500
644.40	39.110
644.73	39.370
645.05	38.193
645.38	34.755
645.71	39.130
646.04	39.037
646.36	40.568
646.69	38.796
647.02	40.136
647.35	39.691
647.67	40.354
648.00	37.073
648.33	37.294
648.66	38.030
648.98	40.780
649.31	36.173
649.64	35.874
649.96	37.109
650.29	39.968
650.62	36.084
650.94	38.412
651.27	40.709
651.60	37.937
651.92	39.297
652.25	37.785
652.58	39.875
652.90	38.073
653.23	34.823
653.56	38.898
653.88	37.718
654.21	39.652
654.54	39.109
654.86	38.474
655.19	36.081
655.52	27.197
655.84	26.035
656.17	34.109
656.49	45.957
656.82	46.206
657.15	34.430
657.47	25.645
657.80	19.552
658.13	20.392
658.45	30.205
658.78	29.585
659.10	31.158
659.43	32.573
659.75	33.497
660.08	36.139
660.41	38.920
660.73	40.534
661.06	39.013
661.38	39.091
661.71	41.731
662.03	40.828
662.36	37.177
662.68	39.960
663.01	42.424
663.33	44.161
663.66	40.336
663.98	41.469
664.31	38.866
664.63	37.854
664.96	38.028
665.28	40.984
665.61	41.910
665.93	37.022
666.26	41.582
666.58	39.121
666.91	41.226
667.23	42.697
667.56	39.957
667.88	42.094
668.21	42.644
668.53	38.829
668.86	40.476
669.18	40.085
669.50	42.609
669.83	44.227
670.15	40.889
670.48	40.741
670.80	42.026
671.13	38.641
671.45	40.851
671.77	40.937
672.10	39.187
672.42	38.163
672.75	36.816
673.07	37.324
673.39	36.890
673.72	37.305
674.04	38.039
674.37	37.476
674.69	37.423
675.01	38.494
675.34	43.326
675.66	41.474
675.98	39.919
676.31	40.336
676.63	40.977
676.95	38.365
677.28	40.187
677.60	37.363
677.92	39.662
678.25	37.988
678.57	38.645
678.89	39.479
679.22	38.310
679.54	37.214
679.86	36.881
680.18	37.746
680.51	37.943
680.83	36.299
681.15	38.679
681.48	39.319
681.80	38.878
682.12	36.590
682.44	36.364
682.77	38.900
683.09	42.275
683.41	43.016
683.73	39.735
684.06	38.430
684.38	36.399
684.70	38.566
685.02	38.837
685.34	37.179
685.67	34.615
685.99	34.364
686.31	37.031
686.63	34.982
686.96	37.857
687.28	34.296
687.60	37.319
687.92	36.746
688.24	40.494
688.56	37.952
688.89	39.834
689.21	40.393
689.53	38.205
689.85	41.242
690.17	35.611
690.49	39.490
690.82	40.654
691.14	37.500
691.46	36.076
691.78	36.546
692.10	39.876
692.42	39.721
692.74	36.929
693.06	40.213
693.39	39.014
693.71	38.210
694.03	39.368
694.35	37.013
694.67	37.986
694.99	41.220
695.31	39.461
695.63	42.105
695.95	40.831
696.27	38.579
696.59	38.601
696.91	43.005
697.23	38.028
697.56	37.953
697.88	34.560
698.20	36.458
698.52	37.204
698.84	38.976
699.16	38.479
699.48	37.292
699.80	37.440
700.12	42.857
700.44	40.053
700.76	40.608
701.08	42.816
701.40	42.458
701.72	45.773
702.04	48.011
702.36	39.377
702.68	40.227
703.00	40.720
703.32	39.362
703.64	41.287
703.96	39.554
704.28	40.116
704.60	42.815
704.91	41.543
705.23	44.282
705.55	46.179
705.87	49.169
706.19	46.996
706.51	42.991
706.83	45.455
707.15	42.017
707.47	41.414
707.79	42.998
708.11	39.269
708.43	36.905
708.74	37.755
709.06	42.338
709.38	40.420
709.70	46.802
710.02	42.730
710.34	43.030
710.66	42.687
710.98	39.773
711.29	42.733
711.61	44.543
711.93	41.987
712.25	43.408
712.57	47.794
712.89	41.869
713.20	42.249
713.52	45.724
713.84	44.937
714.16	40.549
714.48	39.943
714.80	48.328
715.11	40.346
715.43	42.136
715.75	38.551
716.07	42.173
716.39	41.066
716.70	46.512
717.02	43.525
717.34	42.756
717.66	47.388
717.97	47.809
718.29	45.926
718.61	45.255
718.93	50.368
719.24	46.021
719.56	41.017
719.88	45.763
720.20	47.635
720.51	45.296
720.83	48.327
721.15	43.284
721.46	43.617
721.78	46.595
722.10	45.660
722.42	49.624
722.73	46.442
723.05	45.902
723.37	46.154
723.68	44.402
724.00	52.439
724.32	43.952
724.63	47.967
724.95	46.862
725.27	46.964
725.58	45.703
725.90	49.635
726.22	50.189
726.53	42.361
726.85	41.980
727.16	48.754
727.48	45.035
727.80	44.318
728.11	46.014
728.43	47.692
728.74	43.011
729.06	46.715
729.38	48.897
729.69	43.060
730.01	41.297
730.32	43.403
730.64	41.472
730.96	41.254
731.27	44.040
731.59	43.425
731.90	41.691
732.22	42.547
732.53	40.248
732.85	42.628
733.16	44.051
733.48	45.183
733.80	40.260
734.11	40.127
734.43	40.533
734.74	39.143
735.06	36.963
735.37	43.064
735.69	39.809
736.00	46.405
736.32	44.548
736.63	41.214
736.95	39.297
737.26	40.476
737.58	41.613
737.89	44.147
738.21	45.392
738.52	46.071
738.83	46.415
739.15	44.231
739.46	43.796
739.78	44.792
740.09	43.077
740.41	42.903
740.72	41.812
741.04	44.815
741.35	42.917
741.66	47.111
741.98	53.302
742.29	50.239
742.61	51.724
742.92	45.249
743.23	48.291
743.55	49.600
743.86	50.000
744.18	53.097
744.49	52.153
744.80	52.113
745.12	53.636
745.43	41.850
745.74	48.198
746.06	47.248
746.37	50.673
746.68	45.701
747.00	50.926
747.31	50.952
747.62	46.460
747.94	44.493
748.25	42.979
748.56	49.780
748.88	48.020
749.19	49.000
749.50	42.326
749.82	41.870
750.13	45.306
750.44	42.336
750.75	42.807
751.07	44.373
751.38	46.341
751.69	45.848
752.01	48.120
752.32	43.321
752.63	45.390
752.94	49.590
753.26	50.800
753.57	45.528
753.88	47.266
754.19	41.429
754.51	43.750
754.82	40.794
755.13	44.906
755.44	42.857
755.75	42.701
756.07	42.199
756.38	45.985
756.69	38.926
757.00	40.120
757.31	37.982
757.63	39.474
757.94	39.678
758.25	38.480
758.56	38.519
758.87	38.172
759.18	40.606
759.50	39.812
759.81	42.368
760.12	37.813
760.43	38.109
760.74	38.043
761.05	40.113
761.36	38.770
761.67	40.625
761.99	40.062
762.30	44.444
762.61	41.603
762.92	48.828
763.23	44.958
763.54	46.000
763.85	42.578
764.16	47.308
764.47	44.867
764.78	38.163
765.10	39.873
765.41	39.823
765.72	42.814
766.03	41.379
766.34	42.000
766.65	46.383
766.96	49.145
767.27	51.777
767.58	49.479
767.89	56.842
768.20	55.747
768.51	50.254
768.82	44.954
769.13	40.650
769.44	44.939
769.75	46.352
770.06	45.872
770.37	47.059
770.68	51.389
770.99	45.778
771.30	42.623
771.61	47.085
771.92	49.590
772.23	48.319
772.54	51.795
772.85	52.356
773.16	51.064
773.47	54.348
773.78	56.853
774.09	54.762
774.39	60.234
774.70	51.235
775.01	58.696
775.32	57.516
775.63	59.211
775.94	56.835
776.25	59.843
776.56	64.179
776.87	52.459
777.18	59.375
777.48	74.809
777.79	59.091
778.10	64.444
778.41	66.964
778.72	56.204
779.03	57.718
779.34	57.047
779.65	55.405
779.95	52.761
780.26	63.399
780.57	47.586
780.88	76.563
781.19	60.902
781.50	57.432
781.80	58.491
782.11	48.023
782.42	51.899
782.73	57.055
783.04	69.595
783.34	58.451
783.65	63.014
783.96	64.925
784.27	55.944
784.57	52.518
784.88	53.704
785.19	63.492
785.50	66.981
785.81	65.672
786.11	68.852
786.42	62.791
786.73	67.257
787.04	69.811
787.34	62.500
787.65	79.000
787.96	65.766
788.26	65.289
788.57	79.661
788.88	72.727
789.19	66.667
789.49	65.152
789.80	66.412
790.11	73.333
790.41	66.337
790.72	68.675
791.03	78.261
791.33	75.581
791.64	73.196
791.95	80.198
792.25	81.111
792.56	84.416
792.87	91.026
793.17	86.076
793.48	91.954
793.79	88.506
794.09	85.227
794.40	61.345
794.70	68.382
795.01	54.074
795.32	61.151
795.62	62.992
795.93	68.103
796.23	65.487
796.54	74.118
796.85	89.189
797.15	90.141
797.46	83.333
797.76	96.386
798.07	86.076
798.37	96.923
798.68	100.000
798.99	83.099
799.29	79.221
799.60	78.409
799.90	94.521
800.21	83.582
800.51	89.655
800.82	135.088
801.12	111.475
801.43	113.636
801.73	85.135
802.04	115.873
802.34	93.827
802.65	98.437
802.95	110.169
803.26	106.250
803.56	85.714
803.87	106.154
804.17	95.588
804.48	111.111
804.78	101.724
805.09	95.588
805.39	92.308
805.70	101.786
806.00	109.836
806.30	83.333
806.61	97.561
806.91	83.544
807.22	90.789
807.52	92.537
807.83	102.817
808.13	92.188
808.43	106.667
808.74	96.053
809.04	76.812
809.35	104.478
809.65	90.789
809.95	124.194
810.26	91.525
810.56	100.000
810.86	138.636
811.17	140.476
811.47	111.667
811.77	129.630
812.08	132.727
812.38	132.000
812.69	150.000
812.99	143.182
813.29	118.367
813.59	119.048
813.90	142.857
814.20	110.909
814.50	98.462
814.81	114.706
815.11	118.367
815.41	114.754
815.72	126.190
816.02	123.636
816.32	123.810
816.62	160.000
816.93	151.220
817.23	138.095
817.53	131.818
817.84	193.939
818.14	158.696
818.44	144.444
818.74	155.882
819.04	147.500
819.35	154.286
819.65	194.118
819.95	185.714
820.25	235.000
820.56	156.410
820.86	147.727
821.16	148.837
821.46	153.846
821.76	130.000
822.07	185.714
822.37	177.500
822.67	178.788
822.97	105.882
823.27	210.714
823.57	164.865
823.88	150.000
824.18	180.000
824.48	135.714
824.78	236.000
825.08	175.000
825.38	159.459
825.69	136.585
825.99	225.000
826.29	172.414
826.59	163.158
826.89	150.000
827.19	176.471
827.49	206.452
827.79	150.000
828.09	143.182
828.39	112.766
828.70	132.653
829.00	159.259
829.30	190.323
829.60	132.500
829.90	373.333
830.20	175.000
830.50	221.739
830.80	213.043
831.10	190.000
831.40	183.333
831.70	213.043
832.00	250.000
832.30	233.333
832.60	318.750
832.90	233.333
833.20	414.286
833.50	193.548
833.80	244.828
834.10	212.500
834.40	207.692
834.70	327.778
835.00	314.286
835.30	151.429
835.60	346.154
835.90	217.241
836.20	385.714
836.50	203.448
836.80	220.000
837.10	175.000
837.40	261.905
837.70	317.647
838.00	240.741
838.30	238.095
838.60	333.333
838.90	226.923
839.19	235.000
839.49	371.429
839.79	355.000
840.09	275.000
840.39	252.381
840.69	234.783
840.99	305.556
841.29	480.000
841.59	366.667
841.88	318.750
842.18	213.793
842.48	295.238
842.78	186.667
843.08	286.957
843.38	171.875
843.68	750.000
843.97	257.692
844.27	210.345
844.57	314.286
844.87	375.000
845.17	218.519
845.47	1466.667
845.76	522.222
846.06	341.176
846.36	550.000
846.66	342.857
846.96	312.500
847.25	372.727
847.55	427.273
847.85	234.783
848.15	530.000
848.44	371.429
848.74	300.000
849.04	300.000
849.34	560.000
849.63	310.526
849.93	518.182
850.23	900.000
850.53	414.286
850.82	2400.000
851.12	-4100.000
851.42	4800.000
851.71	280.000
852.01	-1500.000
852.31	233.333
852.61	1666.667
852.90	290.476
853.20	240.000
853.50	276.471
853.79	285.714
854.09	245.833
854.39	375.000
854.68	186.486
854.98	164.516
855.28	213.333
855.57	231.034
855.87	233.333
856.17	252.632
856.46	280.000
856.76	264.706
857.05	220.690
857.35	250.000
857.65	326.667
857.94	282.609
858.24	215.385
858.53	310.000
858.83	277.273
859.13	360.000
859.42	0.000
859.72	622.222
860.01	509.091
860.31	250.000
860.60	305.263
860.90	269.565
861.20	577.778
861.49	541.667
861.79	-4400.000
862.08	625.000
862.38	309.524
862.67	338.462
862.97	364.706
863.26	466.667
863.56	283.333
863.85	400.000
864.15	512.500
864.44	393.333
864.74	683.333
865.03	687.500
865.33	342.105
865.62	436.364
865.92	430.769
866.21	441.667
866.51	0.000
866.80	500.000
867.10	1180.000
867.39	515.385
867.69	500.000
867.98	252.632
868.27	390.909
868.57	289.474
868.86	-5200.000
869.16	350.000
869.45	2000.000
869.75	-4000.000
870.04	375.000
870.33	657.143
870.63	1075.000
870.92	2100.000
871.22	842.857
871.51	335.294
871.80	257.143
872.10	364.286
>>>>>End Processed Spectral Data<<<<<
