SpectraSuite Data File
++++++++++++++++++++++++++++++++++++
Date: Wed May 13 16:36:21 PDT 2015
User: schluterlab
Dark Spectrum Present: Yes
Reference Spectrum Present: Yes
Number of Sampled Component Spectra: 1
Spectrometers: USB2E3373
Integration Time (usec): 3000 (USB2E3373)
Spectra Averaged: 3 (USB2E3373)
Boxcar Smoothing: 0 (USB2E3373)
Correct for Electrical Dark: No (USB2E3373)
Strobe/Lamp Enabled: No (USB2E3373)
Correct for Detector Non-linearity: No (USB2E3373)
Correct for Stray Light: No (USB2E3373)
Number of Pixels in Processed Spectrum: 2048
>>>>>Begin Processed Spectral Data<<<<<
178.53	0.000
178.91	-1125.000
179.29	-1075.000
179.67	-233.333
180.04	-1250.000
180.42	2300.000
180.80	1220.000
181.18	-1200.000
181.56	657.143
181.94	0.000
182.31	-471.429
182.69	1666.667
183.07	-500.000
183.45	-433.333
183.83	518.182
184.20	-430.000
184.58	2650.000
184.96	5200.000
185.34	-660.000
185.72	-625.000
186.09	-2700.000
186.47	3200.000
186.85	2700.000
187.23	4800.000
187.61	-1766.667
187.98	1250.000
188.36	527.273
188.74	554.545
189.12	-820.000
189.49	510.000
189.87	-5400.000
190.25	-1050.000
190.63	385.714
191.00	476.923
191.38	833.333
191.76	-1350.000
192.14	1225.000
192.51	612.500
192.89	950.000
193.27	662.500
193.65	-1225.000
194.02	530.000
194.40	880.000
194.78	540.000
195.15	500.000
195.53	590.000
195.91	-2350.000
196.29	350.000
196.66	284.211
197.04	-330.000
197.42	0.000
197.79	630.000
198.17	-5100.000
198.55	671.429
198.92	637.500
199.30	1020.000
199.68	0.000
200.05	333.333
200.43	771.429
200.81	4500.000
201.18	1700.000
201.56	-1433.333
201.94	588.889
202.31	677.778
202.69	483.333
203.07	490.000
203.44	0.000
203.82	1300.000
204.19	714.286
204.57	407.143
204.95	600.000
205.32	1333.333
205.70	427.273
206.08	328.571
206.45	2800.000
206.83	393.750
207.20	833.333
207.58	840.000
207.96	277.778
208.33	675.000
208.71	-850.000
209.08	771.429
209.46	577.778
209.84	472.727
210.21	-1500.000
210.59	1300.000
210.96	-350.000
211.34	2500.000
211.71	640.000
212.09	750.000
212.46	0.000
212.84	1700.000
213.22	1250.000
213.59	-4700.000
213.97	766.667
214.34	1028.571
214.72	654.545
215.09	900.000
215.47	-2400.000
215.84	-2400.000
216.22	1466.667
216.59	407.143
216.97	1200.000
217.34	490.909
217.72	-800.000
218.09	0.000
218.47	-5300.000
218.84	644.444
219.22	700.000
219.59	1900.000
219.97	-585.714
220.34	1040.000
220.72	-1733.333
221.09	342.857
221.47	1550.000
221.84	-933.333
222.22	0.000
222.59	1300.000
222.97	-2250.000
223.34	1240.000
223.72	461.538
224.09	1260.000
224.46	2250.000
224.84	-5100.000
225.21	-1080.000
225.59	-5400.000
225.96	510.000
226.34	280.000
226.71	2600.000
227.08	700.000
227.46	570.000
227.83	-1450.000
228.21	-1800.000
228.58	600.000
228.95	-2100.000
229.33	-2250.000
229.70	1266.667
230.08	714.286
230.45	-820.000
230.82	400.000
231.20	783.333
231.57	657.143
231.95	425.000
232.32	213.636
232.69	409.091
233.07	728.571
233.44	292.308
233.81	-1866.667
234.19	268.421
234.56	350.000
234.93	350.000
235.31	445.455
235.68	300.000
236.05	300.000
236.43	181.818
236.80	278.947
237.17	4700.000
237.55	219.048
237.92	207.143
238.29	238.095
238.67	174.194
239.04	168.966
239.41	116.667
239.79	117.391
240.16	126.190
240.53	120.455
240.91	70.588
241.28	98.000
241.65	78.000
242.02	82.609
242.40	70.968
242.77	85.000
243.14	62.366
243.51	74.157
243.89	51.765
244.26	48.889
244.63	59.140
245.00	54.255
245.38	48.515
245.75	53.271
246.12	33.945
246.49	49.635
246.87	51.200
247.24	43.846
247.61	40.000
247.98	36.601
248.36	34.459
248.73	33.758
249.10	29.936
249.47	35.593
249.84	32.086
250.22	28.877
250.59	26.036
250.96	27.273
251.33	31.280
251.70	31.188
252.08	27.143
252.45	21.076
252.82	25.652
253.19	28.936
253.56	22.745
253.94	25.311
254.31	24.219
254.68	23.846
255.05	22.878
255.42	21.138
255.79	21.324
256.16	23.105
256.54	17.314
256.91	24.911
257.28	19.065
257.65	21.782
258.02	18.634
258.39	19.558
258.76	16.054
259.14	19.940
259.51	18.237
259.88	14.907
260.25	19.637
260.62	16.763
260.99	17.391
261.36	18.919
261.73	19.771
262.10	13.663
262.47	16.338
262.85	17.827
263.22	11.681
263.59	18.519
263.96	15.385
264.33	14.883
264.70	16.579
265.07	17.903
265.44	16.919
265.81	16.788
266.18	15.327
266.55	12.927
266.92	15.233
267.29	13.657
267.66	13.532
268.03	13.636
268.40	15.654
268.77	12.649
269.14	13.514
269.51	15.350
269.88	14.685
270.25	12.867
270.62	13.933
270.99	14.409
271.36	13.734
271.73	11.449
272.10	13.913
272.47	14.624
272.84	14.286
273.21	15.304
273.58	11.790
273.95	11.321
274.32	13.017
274.69	12.206
275.06	11.220
275.43	12.553
275.80	13.828
276.17	13.238
276.54	14.553
276.91	10.672
277.28	11.523
277.65	11.605
278.02	12.215
278.39	12.109
278.76	12.364
279.13	12.453
279.50	13.035
279.87	12.948
280.23	12.974
280.60	10.445
280.97	10.721
281.34	11.681
281.71	12.909
282.08	12.284
282.45	11.455
282.82	10.657
283.19	9.626
283.56	10.877
283.92	12.014
284.29	10.406
284.66	11.797
285.03	10.488
285.40	11.268
285.77	10.269
286.14	9.499
286.51	12.500
286.87	11.453
287.24	12.866
287.61	12.841
287.98	10.877
288.35	10.777
288.72	9.813
289.08	10.485
289.45	9.390
289.82	9.756
290.19	8.948
290.56	11.179
290.93	8.006
291.29	10.429
291.66	10.767
292.03	12.209
292.40	9.104
292.77	9.615
293.13	10.000
293.50	9.767
293.87	9.037
294.24	6.815
294.60	7.860
294.97	9.302
295.34	10.860
295.71	9.375
296.08	8.547
296.44	9.078
296.81	8.719
297.18	9.079
297.55	6.596
297.91	8.443
298.28	9.639
298.65	8.225
299.02	8.564
299.38	8.898
299.75	7.008
300.12	8.046
300.48	7.125
300.85	8.015
301.22	7.516
301.59	7.449
301.95	7.935
302.32	7.702
302.69	7.527
303.05	8.485
303.42	7.654
303.79	8.494
304.15	7.459
304.52	7.184
304.89	7.201
305.25	7.773
305.62	7.928
305.99	8.028
306.35	6.823
306.72	7.063
307.09	8.324
307.45	9.234
307.82	7.254
308.19	8.057
308.55	8.954
308.92	5.908
309.29	6.969
309.65	6.469
310.02	7.611
310.38	7.957
310.75	7.075
311.12	7.062
311.48	7.106
311.85	7.862
312.22	6.660
312.58	6.029
312.95	8.553
313.31	6.796
313.68	8.316
314.05	8.679
314.41	7.236
314.78	6.546
315.14	6.455
315.51	7.518
315.87	7.624
316.24	7.150
316.61	6.043
316.97	6.262
317.34	5.969
317.70	7.266
318.07	7.507
318.43	8.023
318.80	7.404
319.16	6.780
319.53	7.223
319.89	7.714
320.26	7.700
320.62	7.540
320.99	7.778
321.35	7.677
321.72	6.982
322.08	8.095
322.45	8.259
322.81	8.430
323.18	8.092
323.54	8.905
323.91	7.925
324.27	7.553
324.64	5.312
325.00	6.492
325.37	7.461
325.73	8.618
326.10	6.708
326.46	6.362
326.83	7.852
327.19	7.515
327.56	7.056
327.92	7.612
328.29	7.808
328.65	7.551
329.01	7.671
329.38	6.753
329.74	7.756
330.11	7.352
330.47	7.530
330.84	8.548
331.20	7.923
331.56	7.982
331.93	6.019
332.29	7.720
332.66	8.053
333.02	7.861
333.38	8.040
333.75	7.932
334.11	8.274
334.48	7.098
334.84	6.618
335.20	7.636
335.57	6.890
335.93	6.518
336.29	7.418
336.66	8.476
337.02	7.240
337.38	7.685
337.75	7.932
338.11	7.431
338.47	6.814
338.84	8.249
339.20	7.523
339.56	7.755
339.93	7.000
340.29	7.609
340.65	7.576
341.02	8.639
341.38	7.384
341.74	7.281
342.11	7.598
342.47	7.137
342.83	7.877
343.20	7.706
343.56	7.245
343.92	7.368
344.28	6.378
344.65	7.567
345.01	6.818
345.37	6.690
345.73	6.853
346.10	7.161
346.46	6.864
346.82	6.919
347.19	6.600
347.55	6.240
347.91	6.715
348.27	8.217
348.63	6.605
349.00	6.877
349.36	6.979
349.72	7.618
350.08	6.888
350.45	7.486
350.81	7.067
351.17	6.969
351.53	6.880
351.89	6.766
352.26	6.709
352.62	6.656
352.98	7.455
353.34	6.984
353.70	6.547
354.07	7.419
354.43	6.905
354.79	6.999
355.15	6.065
355.51	7.514
355.87	6.857
356.24	7.410
356.60	6.095
356.96	5.873
357.32	6.378
357.68	7.323
358.04	7.443
358.40	6.572
358.77	6.573
359.13	5.446
359.49	7.216
359.85	5.714
360.21	6.459
360.57	7.626
360.93	7.077
361.29	6.652
361.66	5.728
362.02	6.493
362.38	6.920
362.74	5.878
363.10	6.070
363.46	6.383
363.82	6.878
364.18	6.608
364.54	6.984
364.90	7.082
365.26	6.765
365.62	7.012
365.98	6.939
366.35	6.375
366.71	7.014
367.07	6.264
367.43	7.112
367.79	7.566
368.15	7.328
368.51	6.541
368.87	6.638
369.23	6.364
369.59	7.024
369.95	6.324
370.31	6.909
370.67	6.739
371.03	7.266
371.39	6.195
371.75	6.397
372.11	6.828
372.47	7.405
372.83	7.997
373.19	5.853
373.55	7.391
373.91	7.437
374.27	6.667
374.63	6.182
374.99	7.556
375.35	6.490
375.71	6.580
376.07	7.407
376.42	6.809
376.78	7.488
377.14	6.920
377.50	7.616
377.86	7.513
378.22	6.890
378.58	6.391
378.94	6.600
379.30	6.489
379.66	7.234
380.02	7.248
380.38	6.800
380.74	7.263
381.09	8.252
381.45	7.560
381.81	7.862
382.17	8.089
382.53	7.421
382.89	7.716
383.25	8.068
383.61	7.559
383.97	7.442
384.32	8.172
384.68	7.125
385.04	8.113
385.40	8.111
385.76	7.740
386.12	8.290
386.48	8.811
386.83	8.595
387.19	8.844
387.55	8.534
387.91	8.343
388.27	8.461
388.62	8.851
388.98	7.924
389.34	9.136
389.70	9.197
390.06	9.823
390.42	8.236
390.77	8.969
391.13	9.445
391.49	9.454
391.85	8.912
392.20	8.328
392.56	8.902
392.92	9.064
393.28	8.166
393.64	9.832
393.99	9.774
394.35	8.933
394.71	9.473
395.07	8.785
395.42	9.518
395.78	9.860
396.14	10.242
396.50	9.774
396.85	10.045
397.21	9.618
397.57	9.733
397.92	9.796
398.28	9.249
398.64	9.558
399.00	10.353
399.35	9.645
399.71	9.780
400.07	10.585
400.42	10.552
400.78	9.831
401.14	9.390
401.49	10.806
401.85	9.558
402.21	9.701
402.57	9.254
402.92	10.025
403.28	10.493
403.63	9.839
403.99	9.172
404.35	9.758
404.70	10.132
405.06	9.843
405.42	11.042
405.77	9.943
406.13	10.553
406.49	10.112
406.84	10.041
407.20	10.757
407.55	10.338
407.91	11.000
408.27	9.764
408.62	9.813
408.98	10.600
409.34	10.517
409.69	10.194
410.05	10.099
410.40	10.031
410.76	9.737
411.11	11.098
411.47	9.968
411.83	10.385
412.18	10.080
412.54	10.523
412.89	11.145
413.25	10.331
413.60	10.191
413.96	9.897
414.31	10.571
414.67	11.153
415.03	10.397
415.38	10.954
415.74	10.804
416.09	10.777
416.45	10.107
416.80	10.839
417.16	10.992
417.51	11.546
417.87	10.726
418.22	10.852
418.58	11.750
418.93	11.364
419.29	11.903
419.64	11.146
420.00	10.915
420.35	10.957
420.71	11.118
421.06	10.084
421.42	10.643
421.77	11.211
422.12	9.826
422.48	10.254
422.83	11.124
423.19	11.271
423.54	9.925
423.90	11.304
424.25	11.837
424.61	10.536
424.96	10.729
425.31	11.794
425.67	10.112
426.02	10.971
426.38	11.416
426.73	11.176
427.09	11.064
427.44	11.386
427.79	11.041
428.15	11.845
428.50	11.001
428.85	11.144
429.21	11.044
429.56	10.990
429.92	10.720
430.27	10.228
430.62	10.292
430.98	11.261
431.33	11.134
431.68	11.309
432.04	10.490
432.39	10.965
432.74	11.909
433.10	10.979
433.45	10.729
433.80	11.364
434.16	10.791
434.51	10.632
434.86	11.688
435.22	10.951
435.57	11.307
435.92	11.118
436.28	11.447
436.63	12.141
436.98	11.162
437.34	11.926
437.69	11.960
438.04	11.298
438.39	11.940
438.75	11.795
439.10	11.341
439.45	12.456
439.81	11.722
440.16	11.406
440.51	11.541
440.86	12.160
441.22	11.402
441.57	11.465
441.92	11.617
442.27	11.302
442.63	11.427
442.98	12.113
443.33	11.793
443.68	11.668
444.03	11.859
444.39	10.808
444.74	11.472
445.09	11.806
445.44	11.263
445.79	11.677
446.15	12.282
446.50	11.955
446.85	11.562
447.20	11.627
447.55	11.837
447.91	11.307
448.26	12.076
448.61	12.380
448.96	12.292
449.31	12.092
449.66	11.930
450.02	11.421
450.37	11.905
450.72	11.224
451.07	11.213
451.42	11.307
451.77	12.507
452.12	11.894
452.47	12.189
452.83	12.354
453.18	11.491
453.53	12.245
453.88	12.345
454.23	12.552
454.58	12.296
454.93	13.096
455.28	11.908
455.63	13.289
455.98	12.738
456.34	11.997
456.69	12.085
457.04	12.198
457.39	11.981
457.74	11.782
458.09	12.593
458.44	12.315
458.79	11.497
459.14	12.190
459.49	12.201
459.84	11.524
460.19	11.491
460.54	12.384
460.89	12.781
461.24	12.325
461.59	12.667
461.94	12.207
462.29	12.760
462.64	12.317
462.99	12.427
463.34	13.133
463.69	12.383
464.04	13.623
464.39	12.406
464.74	12.775
465.09	12.063
465.44	12.521
465.79	12.192
466.14	12.151
466.49	12.291
466.84	12.901
467.19	13.518
467.54	12.750
467.89	11.825
468.24	12.682
468.59	13.309
468.94	12.889
469.29	12.404
469.64	13.052
469.99	12.382
470.34	13.078
470.68	13.003
471.03	13.741
471.38	13.065
471.73	13.324
472.08	13.882
472.43	12.940
472.78	13.430
473.13	13.864
473.48	13.421
473.83	13.415
474.17	12.383
474.52	13.027
474.87	13.310
475.22	12.885
475.57	12.251
475.92	12.108
476.27	12.120
476.61	13.514
476.96	12.095
477.31	12.977
477.66	13.074
478.01	11.866
478.36	12.903
478.70	12.305
479.05	12.939
479.40	12.845
479.75	12.811
480.10	12.028
480.45	11.899
480.79	11.753
481.14	12.084
481.49	12.387
481.84	12.529
482.19	12.222
482.53	12.156
482.88	11.819
483.23	12.804
483.58	12.648
483.92	12.559
484.27	11.895
484.62	12.241
484.97	11.470
485.31	11.610
485.66	10.595
486.01	9.727
486.36	9.636
486.70	9.389
487.05	10.262
487.40	10.087
487.75	10.624
488.09	11.313
488.44	11.441
488.79	11.646
489.13	11.650
489.48	11.419
489.83	11.480
490.17	11.837
490.52	12.002
490.87	12.302
491.22	12.051
491.56	11.617
491.91	12.331
492.26	11.989
492.60	12.581
492.95	11.413
493.30	12.103
493.64	11.853
493.99	11.931
494.34	11.933
494.68	12.317
495.03	11.936
495.37	11.680
495.72	12.281
496.07	12.343
496.41	11.327
496.76	11.478
497.11	11.977
497.45	12.296
497.80	12.380
498.14	12.222
498.49	11.610
498.84	12.368
499.18	12.286
499.53	12.013
499.87	12.395
500.22	12.294
500.56	12.961
500.91	11.923
501.26	12.565
501.60	12.862
501.95	12.053
502.29	12.512
502.64	12.523
502.98	12.202
503.33	12.523
503.67	12.761
504.02	12.208
504.36	12.354
504.71	12.311
505.06	12.434
505.40	12.299
505.75	12.536
506.09	12.439
506.44	11.840
506.78	12.518
507.13	12.367
507.47	12.525
507.82	12.665
508.16	12.918
508.51	12.582
508.85	12.512
509.19	12.602
509.54	12.908
509.88	12.571
510.23	12.751
510.57	13.622
510.92	12.481
511.26	13.566
511.61	13.226
511.95	12.526
512.30	13.468
512.64	12.789
512.98	13.290
513.33	13.544
513.67	12.593
514.02	13.095
514.36	13.053
514.70	13.835
515.05	12.716
515.39	13.741
515.74	13.739
516.08	13.583
516.42	13.818
516.77	14.660
517.11	12.875
517.46	13.431
517.80	13.879
518.14	13.086
518.49	13.886
518.83	13.807
519.17	14.434
519.52	13.243
519.86	14.204
520.20	14.451
520.55	14.183
520.89	14.112
521.23	13.812
521.58	14.166
521.92	14.697
522.26	13.301
522.61	14.330
522.95	13.874
523.29	13.877
523.64	14.146
523.98	13.555
524.32	13.571
524.66	14.251
525.01	14.338
525.35	13.693
525.69	13.732
526.04	14.206
526.38	14.338
526.72	14.663
527.06	14.250
527.41	13.490
527.75	14.212
528.09	14.130
528.43	14.723
528.78	14.505
529.12	14.303
529.46	15.309
529.80	14.790
530.15	14.891
530.49	13.785
530.83	13.671
531.17	15.013
531.51	15.953
531.86	14.774
532.20	14.993
532.54	15.439
532.88	14.827
533.22	14.241
533.57	13.704
533.91	14.088
534.25	14.459
534.59	14.033
534.93	14.277
535.27	14.605
535.62	14.469
535.96	14.501
536.30	14.177
536.64	15.068
536.98	14.599
537.32	14.483
537.66	14.533
538.01	14.747
538.35	14.286
538.69	14.550
539.03	13.970
539.37	13.291
539.71	13.027
540.05	13.922
540.39	14.286
540.73	14.036
541.07	15.445
541.42	14.873
541.76	14.645
542.10	15.136
542.44	13.311
542.78	15.415
543.12	14.203
543.46	14.689
543.80	15.029
544.14	13.992
544.48	14.349
544.82	14.304
545.16	13.858
545.50	13.239
545.84	14.583
546.18	14.882
546.52	14.591
546.86	14.570
547.20	14.295
547.54	14.629
547.88	15.753
548.22	14.570
548.56	14.591
548.90	13.700
549.24	14.343
549.58	13.915
549.92	14.011
550.26	15.199
550.60	14.454
550.94	15.634
551.28	14.338
551.62	14.881
551.96	15.860
552.30	14.403
552.64	15.078
552.98	15.186
553.32	15.577
553.66	15.065
554.00	15.168
554.34	14.631
554.68	15.236
555.02	14.739
555.36	14.892
555.69	15.020
556.03	14.536
556.37	14.734
556.71	15.280
557.05	15.056
557.39	15.395
557.73	15.102
558.07	14.648
558.41	15.774
558.75	14.989
559.08	14.989
559.42	15.949
559.76	14.265
560.10	15.489
560.44	14.675
560.78	14.305
561.12	14.776
561.45	15.580
561.79	14.502
562.13	14.152
562.47	15.164
562.81	14.644
563.15	14.783
563.48	14.523
563.82	14.286
564.16	14.061
564.50	14.453
564.84	14.855
565.17	13.771
565.51	14.441
565.85	14.150
566.19	13.964
566.52	14.630
566.86	13.864
567.20	14.446
567.54	13.984
567.88	13.199
568.21	14.127
568.55	13.498
568.89	13.765
569.23	13.102
569.56	12.996
569.90	12.566
570.24	12.451
570.57	12.275
570.91	11.603
571.25	11.581
571.59	12.106
571.92	11.262
572.26	11.670
572.60	12.012
572.93	11.754
573.27	11.801
573.61	12.004
573.95	11.525
574.28	11.256
574.62	11.200
574.96	11.063
575.29	11.227
575.63	11.204
575.97	11.325
576.30	11.577
576.64	11.018
576.98	11.084
577.31	11.391
577.65	11.205
577.98	10.736
578.32	10.882
578.66	10.629
578.99	10.842
579.33	10.990
579.67	11.311
580.00	11.124
580.34	11.533
580.67	11.534
581.01	11.626
581.35	10.902
581.68	10.787
582.02	10.652
582.35	10.398
582.69	10.839
583.02	11.027
583.36	11.275
583.70	11.763
584.03	11.703
584.37	11.726
584.70	11.677
585.04	11.717
585.37	11.556
585.71	11.701
586.04	11.621
586.38	11.703
586.72	12.041
587.05	11.519
587.39	11.504
587.72	11.750
588.06	11.580
588.39	11.385
588.73	11.763
589.06	12.465
589.40	12.761
589.73	12.284
590.07	12.278
590.40	12.313
590.73	12.920
591.07	13.757
591.40	13.286
591.74	13.420
592.07	12.740
592.41	13.229
592.74	12.397
593.08	12.358
593.41	12.022
593.75	12.117
594.08	12.236
594.41	12.549
594.75	12.828
595.08	12.634
595.42	12.750
595.75	12.999
596.09	12.805
596.42	13.281
596.75	13.297
597.09	14.199
597.42	12.943
597.75	12.850
598.09	13.348
598.42	12.801
598.76	12.606
599.09	12.771
599.42	12.809
599.76	12.335
600.09	12.313
600.42	12.491
600.76	12.679
601.09	12.423
601.42	12.785
601.76	12.941
602.09	12.885
602.42	12.898
602.76	13.341
603.09	12.982
603.42	13.081
603.76	12.614
604.09	12.447
604.42	12.964
604.76	13.539
605.09	12.931
605.42	13.040
605.75	12.955
606.09	13.054
606.42	12.914
606.75	12.443
607.09	13.144
607.42	12.880
607.75	12.616
608.08	12.896
608.42	13.850
608.75	13.255
609.08	13.830
609.41	13.279
609.75	13.435
610.08	13.713
610.41	13.128
610.74	13.292
611.07	13.834
611.41	13.886
611.74	13.223
612.07	13.458
612.40	13.956
612.73	14.158
613.07	14.871
613.40	14.007
613.73	12.847
614.06	13.763
614.39	13.686
614.72	13.421
615.06	14.233
615.39	12.792
615.72	13.292
616.05	14.088
616.38	14.286
616.71	14.014
617.05	14.429
617.38	14.191
617.71	14.294
618.04	14.303
618.37	14.015
618.70	15.308
619.03	14.671
619.36	15.139
619.69	14.859
620.03	14.835
620.36	15.441
620.69	14.863
621.02	14.676
621.35	14.800
621.68	15.109
622.01	15.170
622.34	15.809
622.67	16.122
623.00	15.921
623.33	14.296
623.66	14.725
623.99	14.801
624.32	15.121
624.65	15.184
624.99	14.377
625.32	14.482
625.65	15.702
625.98	15.142
626.31	16.563
626.64	15.592
626.97	16.293
627.30	15.212
627.63	15.833
627.96	15.812
628.29	15.923
628.62	17.109
628.95	18.585
629.28	16.332
629.61	17.049
629.94	17.143
630.26	16.873
630.59	17.159
630.92	16.954
631.25	15.893
631.58	17.417
631.91	17.140
632.24	17.827
632.57	15.740
632.90	17.873
633.23	17.897
633.56	17.853
633.89	18.347
634.22	17.140
634.55	18.935
634.88	16.886
635.20	18.877
635.53	17.711
635.86	17.450
636.19	17.529
636.52	17.186
636.85	18.099
637.18	18.664
637.51	19.267
637.83	17.509
638.16	18.159
638.49	19.144
638.82	20.607
639.15	18.875
639.48	20.075
639.81	20.509
640.13	20.964
640.46	18.255
640.79	20.343
641.12	17.744
641.45	19.693
641.77	20.913
642.10	19.591
642.43	19.369
642.76	19.195
643.09	19.939
643.41	19.272
643.74	21.451
644.07	20.884
644.40	20.859
644.73	22.047
645.05	21.553
645.38	21.011
645.71	20.451
646.04	20.598
646.36	23.038
646.69	21.739
647.02	21.259
647.35	22.337
647.67	18.761
648.00	22.114
648.33	18.482
648.66	19.545
648.98	21.139
649.31	17.489
649.64	19.432
649.96	18.927
650.29	20.221
650.62	19.256
650.94	22.204
651.27	20.946
651.60	21.464
651.92	20.447
652.25	20.684
652.58	19.938
652.90	20.063
653.23	18.644
653.56	18.898
653.88	19.810
654.21	21.169
654.54	19.307
654.86	19.470
655.19	17.703
655.52	11.775
655.84	8.781
656.17	10.996
656.49	14.994
656.82	15.464
657.15	11.652
657.47	8.766
657.80	7.117
658.13	7.362
658.45	11.474
658.78	11.619
659.10	12.791
659.43	13.785
659.75	14.515
660.08	15.949
660.41	17.598
660.73	20.712
661.06	19.745
661.38	21.273
661.71	22.308
662.03	22.288
662.36	19.682
662.68	23.695
663.01	22.020
663.33	22.081
663.66	23.950
663.98	20.302
664.31	24.160
664.63	23.482
664.96	20.523
665.28	21.926
665.61	23.392
665.93	21.328
666.26	21.704
666.58	24.268
666.91	22.199
667.23	23.146
667.56	22.246
667.88	25.641
668.21	24.520
668.53	24.078
668.86	20.563
669.18	25.160
669.50	22.391
669.83	25.926
670.15	22.667
670.48	21.133
670.80	22.629
671.13	24.841
671.45	22.553
671.77	23.014
672.10	21.072
672.42	21.201
672.75	19.403
673.07	20.246
673.39	19.530
673.72	20.508
674.04	23.529
674.37	20.777
674.69	19.427
675.01	20.502
675.34	23.409
675.66	25.474
675.98	20.978
676.31	26.050
676.63	22.505
676.95	21.803
677.28	22.664
677.60	22.637
677.92	21.730
678.25	22.177
678.57	20.518
678.89	21.042
679.22	20.825
679.54	22.901
679.86	20.917
680.18	21.288
680.51	20.745
680.83	19.573
681.15	21.321
681.48	22.873
681.80	20.890
682.12	20.881
682.44	19.536
682.77	20.570
683.09	24.249
683.41	23.282
683.73	22.296
684.06	22.727
684.38	21.918
684.70	20.736
685.02	21.013
685.34	21.795
685.67	17.832
685.99	18.900
686.31	19.966
686.63	17.845
686.96	19.464
687.28	21.119
687.60	18.297
687.92	20.475
688.24	21.673
688.56	21.687
688.89	21.577
689.21	21.834
689.53	23.173
689.85	25.499
690.17	20.083
690.49	24.204
690.82	22.430
691.14	20.089
691.46	21.097
691.78	21.888
692.10	22.934
692.42	22.954
692.74	20.124
693.06	22.553
693.39	22.382
693.71	21.397
694.03	22.737
694.35	20.779
694.67	23.341
694.99	25.366
695.31	23.039
695.63	21.770
695.95	22.005
696.27	20.812
696.59	22.539
696.91	24.870
697.23	19.484
697.56	21.535
697.88	18.609
698.20	22.500
698.52	21.720
698.84	20.935
699.16	22.581
699.48	22.803
699.80	22.222
700.12	21.558
700.44	25.995
700.76	26.519
701.08	22.989
701.40	26.816
701.72	25.948
702.04	31.250
702.36	22.946
702.68	24.929
703.00	26.593
703.32	21.277
703.64	23.056
703.96	28.134
704.28	22.965
704.60	25.513
704.91	30.564
705.23	27.273
705.55	27.575
705.87	29.568
706.19	27.562
706.51	25.857
706.83	25.455
707.15	25.490
707.47	22.727
707.79	24.079
708.11	24.429
708.43	21.905
708.74	20.663
709.06	25.195
709.38	24.147
709.70	25.581
710.02	25.816
710.34	23.939
710.66	27.164
710.98	26.420
711.29	26.453
711.61	28.909
711.93	22.115
712.25	26.688
712.57	30.515
712.89	28.720
713.20	27.660
713.52	27.632
713.84	25.949
714.16	26.829
714.48	23.851
714.80	27.964
715.11	25.937
715.43	24.036
715.75	24.928
716.07	24.601
716.39	27.900
716.70	27.907
717.02	32.014
717.34	29.329
717.66	29.478
717.97	31.474
718.29	27.407
718.61	26.277
718.93	30.147
719.24	28.028
719.56	28.136
719.88	28.814
720.20	31.081
720.51	28.920
720.83	30.112
721.15	29.851
721.46	26.950
721.78	27.599
722.10	28.679
722.42	31.203
722.73	27.341
723.05	29.098
723.37	28.340
723.68	30.502
724.00	28.862
724.32	27.419
724.63	28.049
724.95	29.707
725.27	32.794
725.58	29.297
725.90	29.927
726.22	29.811
726.53	29.167
726.85	25.939
727.16	27.402
727.48	25.887
727.80	29.167
728.11	27.899
728.43	28.077
728.74	29.391
729.06	31.752
729.38	32.353
729.69	25.623
730.01	26.280
730.32	25.347
730.64	25.418
730.96	25.413
731.27	27.152
731.59	25.994
731.90	24.198
732.22	24.845
732.53	23.220
732.85	25.962
733.16	23.473
733.48	27.243
733.80	23.052
734.11	28.662
734.43	27.515
734.74	22.857
735.06	21.777
735.37	23.121
735.69	22.611
736.00	26.797
736.32	28.037
736.63	24.920
736.95	25.240
737.26	19.728
737.58	23.226
737.89	26.756
738.21	26.280
738.52	27.500
738.83	25.660
739.15	28.462
739.46	28.832
739.78	27.778
740.09	25.538
740.41	26.452
740.72	24.739
741.04	28.889
741.35	26.667
741.66	36.000
741.98	35.849
742.29	31.100
742.61	34.914
742.92	35.747
743.23	29.487
743.55	31.600
743.86	32.895
744.18	37.168
744.49	36.842
744.80	37.089
745.12	34.091
745.43	27.753
745.74	34.234
746.06	31.651
746.37	34.529
746.68	34.842
747.00	31.944
747.31	30.000
747.62	29.646
747.94	27.753
748.25	30.213
748.56	37.885
748.88	32.178
749.19	35.000
749.50	31.628
749.82	30.488
750.13	26.939
750.44	27.372
750.75	29.474
751.07	27.331
751.38	27.178
751.69	24.549
752.01	28.947
752.32	25.993
752.63	28.369
752.94	29.508
753.26	32.800
753.57	27.642
753.88	30.469
754.19	26.071
754.51	29.861
754.82	22.744
755.13	31.321
755.44	30.827
755.75	28.102
756.07	27.305
756.38	25.547
756.69	28.859
757.00	25.150
757.31	26.113
757.63	22.222
757.94	26.005
758.25	21.324
758.56	21.235
758.87	20.968
759.18	25.758
759.50	26.646
759.81	28.037
760.12	23.125
760.43	23.496
760.74	20.109
761.05	24.011
761.36	21.123
761.67	26.420
761.99	21.118
762.30	24.306
762.61	32.443
762.92	27.734
763.23	30.252
763.54	30.000
763.85	26.953
764.16	30.385
764.47	31.559
764.78	26.148
765.10	20.253
765.41	23.009
765.72	22.156
766.03	23.824
766.34	24.333
766.65	30.213
766.96	29.487
767.27	38.579
767.58	38.542
767.89	38.947
768.20	35.057
768.51	36.548
768.82	33.028
769.13	24.390
769.44	27.126
769.75	30.472
770.06	27.064
770.37	33.484
770.68	34.259
770.99	30.667
771.30	26.230
771.61	34.529
771.92	28.279
772.23	34.034
772.54	32.308
772.85	34.031
773.16	36.170
773.47	32.609
773.78	42.132
774.09	33.929
774.39	38.596
774.70	39.506
775.01	41.304
775.32	43.791
775.63	44.079
775.94	38.849
776.25	51.181
776.56	50.000
776.87	54.918
777.18	55.469
777.48	50.382
777.79	38.636
778.10	48.148
778.41	48.214
778.72	38.686
779.03	38.255
779.34	40.268
779.65	39.865
779.95	40.491
780.26	44.444
780.57	42.759
780.88	54.688
781.19	42.857
781.50	38.514
781.80	45.912
782.11	36.158
782.42	44.304
782.73	36.810
783.04	41.892
783.34	44.366
783.65	49.315
783.96	46.269
784.27	42.657
784.57	41.007
784.88	41.667
785.19	54.762
785.50	34.906
785.81	53.731
786.11	45.082
786.42	51.938
786.73	51.327
787.04	50.000
787.34	59.821
787.65	51.000
787.96	50.450
788.26	50.413
788.57	56.780
788.88	57.851
789.19	45.833
789.49	58.333
789.80	43.511
790.11	63.810
790.41	65.347
790.72	59.036
791.03	64.130
791.33	61.628
791.64	73.196
791.95	57.426
792.25	76.667
792.56	70.130
792.87	64.103
793.17	86.076
793.48	74.713
793.79	79.310
794.09	72.727
794.40	47.899
794.70	55.147
795.01	40.741
795.32	45.324
795.62	47.244
795.93	52.586
796.23	47.788
796.54	52.941
796.85	67.568
797.15	87.324
797.46	69.697
797.76	77.108
798.07	69.620
798.37	78.462
798.68	66.667
798.99	73.239
799.29	74.026
799.60	65.909
799.90	79.452
800.21	83.582
800.51	77.586
800.82	98.246
801.12	72.131
801.43	89.394
801.73	79.730
802.04	80.952
802.34	75.309
802.65	103.125
802.95	108.475
803.26	104.688
803.56	72.857
803.87	72.308
804.17	95.588
804.48	87.037
804.78	93.103
805.09	95.588
805.39	101.923
805.70	112.500
806.00	81.967
806.30	66.667
806.61	76.829
806.91	60.759
807.22	75.000
807.52	52.239
807.83	83.099
808.13	98.437
808.43	75.000
808.74	76.316
809.04	81.159
809.35	70.149
809.65	85.526
809.95	104.839
810.26	93.220
810.56	80.952
810.86	106.818
811.17	123.810
811.47	100.000
811.77	96.296
812.08	103.636
812.38	114.000
812.69	144.444
812.99	129.545
813.29	114.286
813.59	88.095
813.90	126.531
814.20	109.091
814.50	100.000
814.81	101.471
815.11	110.204
815.41	100.000
815.72	145.238
816.02	92.727
816.32	150.000
816.62	110.000
816.93	124.390
817.23	121.429
817.53	113.636
817.84	169.697
818.14	126.087
818.44	120.000
818.74	155.882
819.04	125.000
819.35	154.286
819.65	164.706
819.95	164.286
820.25	210.000
820.56	141.026
820.86	129.545
821.16	137.209
821.46	135.897
821.76	104.000
822.07	131.429
822.37	162.500
822.67	157.576
822.97	90.196
823.27	157.143
823.57	143.243
823.88	155.000
824.18	186.667
824.48	147.619
824.78	228.000
825.08	216.667
825.38	148.649
825.69	121.951
825.99	200.000
826.29	179.310
826.59	163.158
826.89	121.053
827.19	170.588
827.49	170.968
827.79	129.545
828.09	106.818
828.39	127.660
828.70	130.612
829.00	185.185
829.30	170.968
829.60	130.000
829.90	293.333
830.20	203.571
830.50	204.348
830.80	226.087
831.10	193.333
831.40	196.667
831.70	213.043
832.00	211.538
832.30	207.407
832.60	300.000
832.90	206.667
833.20	414.286
833.50	183.871
833.80	175.862
834.10	193.750
834.40	211.538
834.70	288.889
835.00	252.381
835.30	140.000
835.60	300.000
835.90	203.448
836.20	314.286
836.50	206.897
836.80	152.000
837.10	169.444
837.40	280.952
837.70	317.647
838.00	233.333
838.30	228.571
838.60	238.095
838.90	173.077
839.19	240.000
839.49	371.429
839.79	260.000
840.09	240.000
840.39	300.000
840.69	234.783
840.99	272.222
841.29	490.000
841.59	300.000
841.88	312.500
842.18	186.207
842.48	247.619
842.78	166.667
843.08	217.391
843.38	187.500
843.68	850.000
843.97	219.231
844.27	162.069
844.57	309.524
844.87	331.250
845.17	177.778
845.47	1433.333
845.76	411.111
846.06	264.706
846.36	575.000
846.66	342.857
846.96	275.000
847.25	381.818
847.55	445.455
847.85	282.609
848.15	550.000
848.44	357.143
848.74	261.111
849.04	358.824
849.34	430.000
849.63	231.579
849.93	436.364
850.23	800.000
850.53	314.286
850.82	2400.000
851.12	-4700.000
851.42	3700.000
851.71	255.000
852.01	-1400.000
852.31	229.167
852.61	1666.667
852.90	238.095
853.20	204.000
853.50	276.471
853.79	228.571
854.09	195.833
854.39	262.500
854.68	159.459
854.98	161.290
855.28	173.333
855.57	182.759
855.87	192.593
856.17	231.579
856.46	246.667
856.76	270.588
857.05	231.034
857.35	187.500
857.65	306.667
857.94	243.478
858.24	215.385
858.53	305.000
858.83	177.273
859.13	360.000
859.42	0.000
859.72	611.111
860.01	272.727
860.31	236.364
860.60	278.947
860.90	186.957
861.20	433.333
861.49	441.667
861.79	-3800.000
862.08	537.500
862.38	271.429
862.67	376.923
862.97	329.412
863.26	533.333
863.56	255.556
863.85	366.667
864.15	650.000
864.44	380.000
864.74	983.333
865.03	525.000
865.33	315.789
865.62	472.727
865.92	392.308
866.21	333.333
866.51	0.000
866.80	445.455
867.10	1220.000
867.39	430.769
867.69	409.091
867.98	310.526
868.27	509.091
868.57	257.895
868.86	-4100.000
869.16	362.500
869.45	2550.000
869.75	-3800.000
870.04	375.000
870.33	671.429
870.63	975.000
870.92	2950.000
871.22	642.857
871.51	335.294
871.80	214.286
872.10	392.857
>>>>>End Processed Spectral Data<<<<<
