SpectraSuite Data File
++++++++++++++++++++++++++++++++++++
Date: Wed May 13 16:36:17 PDT 2015
User: schluterlab
Dark Spectrum Present: Yes
Reference Spectrum Present: Yes
Number of Sampled Component Spectra: 1
Spectrometers: USB2E3373
Integration Time (usec): 3000 (USB2E3373)
Spectra Averaged: 3 (USB2E3373)
Boxcar Smoothing: 0 (USB2E3373)
Correct for Electrical Dark: No (USB2E3373)
Strobe/Lamp Enabled: No (USB2E3373)
Correct for Detector Non-linearity: No (USB2E3373)
Correct for Stray Light: No (USB2E3373)
Number of Pixels in Processed Spectrum: 2048
>>>>>Begin Processed Spectral Data<<<<<
178.53	0.000
178.91	-1275.000
179.29	-1200.000
179.67	-250.000
180.04	-1525.000
180.42	2550.000
180.80	1080.000
181.18	-1075.000
181.56	628.571
181.94	0.000
182.31	-700.000
182.69	1533.333
183.07	-562.500
183.45	-566.667
183.83	518.182
184.20	-410.000
184.58	2100.000
184.96	4900.000
185.34	-780.000
185.72	-625.000
186.09	-2750.000
186.47	3000.000
186.85	2500.000
187.23	5400.000
187.61	-1300.000
187.98	1275.000
188.36	500.000
188.74	454.545
189.12	-960.000
189.49	500.000
189.87	-4300.000
190.25	-1350.000
190.63	378.571
191.00	476.923
191.38	816.667
191.76	-1000.000
192.14	1400.000
192.51	675.000
192.89	933.333
193.27	562.500
193.65	-1075.000
194.02	450.000
194.40	820.000
194.78	580.000
195.15	391.667
195.53	610.000
195.91	-2100.000
196.29	293.750
196.66	321.053
197.04	-420.000
197.42	0.000
197.79	650.000
198.17	-5100.000
198.55	771.429
198.92	700.000
199.30	1080.000
199.68	0.000
200.05	333.333
200.43	700.000
200.81	4100.000
201.18	1700.000
201.56	-1533.333
201.94	577.778
202.31	544.444
202.69	400.000
203.07	560.000
203.44	0.000
203.82	1225.000
204.19	800.000
204.57	400.000
204.95	575.000
205.32	1733.333
205.70	481.818
206.08	321.429
206.45	2000.000
206.83	362.500
207.20	966.667
207.58	720.000
207.96	322.222
208.33	787.500
208.71	-900.000
209.08	685.714
209.46	666.667
209.84	445.455
210.21	-1433.333
210.59	1675.000
210.96	-512.500
211.34	2700.000
211.71	570.000
212.09	783.333
212.46	0.000
212.84	1900.000
213.22	1250.000
213.59	-4000.000
213.97	733.333
214.34	785.714
214.72	572.727
215.09	1080.000
215.47	-2250.000
215.84	-2000.000
216.22	1600.000
216.59	421.429
216.97	1175.000
217.34	463.636
217.72	-666.667
218.09	0.000
218.47	-4400.000
218.84	644.444
219.22	757.143
219.59	1933.333
219.97	-585.714
220.34	1080.000
220.72	-1833.333
221.09	464.286
221.47	1375.000
221.84	-816.667
222.22	0.000
222.59	1525.000
222.97	-2500.000
223.34	1020.000
223.72	484.615
224.09	1040.000
224.46	2600.000
224.84	-3400.000
225.21	-1120.000
225.59	-4800.000
225.96	530.000
226.34	305.000
226.71	2500.000
227.08	537.500
227.46	500.000
227.83	-1225.000
228.21	-1800.000
228.58	666.667
228.95	-2200.000
229.33	-2300.000
229.70	1800.000
230.08	757.143
230.45	-680.000
230.82	500.000
231.20	716.667
231.57	642.857
231.95	466.667
232.32	268.182
232.69	354.545
233.07	671.429
233.44	346.154
233.81	-1700.000
234.19	294.737
234.56	400.000
234.93	408.333
235.31	354.545
235.68	276.923
236.05	314.286
236.43	154.545
236.80	236.842
237.17	3700.000
237.55	185.714
237.92	207.143
238.29	219.048
238.67	141.935
239.04	186.207
239.41	125.000
239.79	115.217
240.16	119.048
240.53	120.455
240.91	96.078
241.28	98.000
241.65	80.000
242.02	71.014
242.40	67.742
242.77	56.667
243.14	59.140
243.51	64.045
243.89	57.647
244.26	48.889
244.63	40.860
245.00	46.809
245.38	48.515
245.75	38.318
246.12	32.110
246.49	51.095
246.87	44.000
247.24	42.308
247.61	34.286
247.98	33.987
248.36	20.946
248.73	28.662
249.10	25.478
249.47	32.203
249.84	29.947
250.22	25.668
250.59	29.586
250.96	27.273
251.33	26.540
251.70	29.208
252.08	25.238
252.45	21.973
252.82	23.043
253.19	23.404
253.56	20.000
253.94	22.407
254.31	23.047
254.68	21.154
255.05	20.664
255.42	19.512
255.79	20.588
256.16	19.856
256.54	20.495
256.91	19.929
257.28	14.029
257.65	17.492
258.02	19.565
258.39	16.088
258.76	16.722
259.14	16.369
259.51	16.109
259.88	10.248
260.25	17.221
260.62	15.896
260.99	13.354
261.36	17.117
261.73	15.473
262.10	14.535
262.47	15.493
262.85	12.535
263.22	11.396
263.59	15.100
263.96	13.462
264.33	12.272
264.70	12.105
265.07	14.578
265.44	14.394
265.81	12.895
266.18	12.563
266.55	12.927
266.92	12.531
267.29	14.815
267.66	10.780
268.03	12.500
268.40	11.916
268.77	9.785
269.14	9.685
269.51	13.093
269.88	13.986
270.25	12.641
270.62	12.135
270.99	12.258
271.36	12.446
271.73	8.645
272.10	12.609
272.47	13.333
272.84	12.987
273.21	13.208
273.58	10.044
273.95	10.063
274.32	12.190
274.69	10.707
275.06	8.661
275.43	11.064
275.80	9.018
276.17	10.387
276.54	10.395
276.91	12.055
277.28	8.008
277.65	11.025
278.02	9.731
278.39	11.719
278.76	9.818
279.13	12.453
279.50	10.615
279.87	9.761
280.23	10.978
280.60	7.930
280.97	8.688
281.34	9.735
281.71	10.364
282.08	9.213
282.45	9.455
282.82	10.124
283.19	8.378
283.56	11.053
283.92	10.998
284.29	8.289
284.66	9.074
285.03	8.680
285.40	8.979
285.77	7.912
286.14	7.772
286.51	8.500
286.87	10.256
287.24	8.469
287.61	7.544
287.98	8.604
288.35	9.667
288.72	7.321
289.08	9.233
289.45	7.908
289.82	8.780
290.19	5.965
290.56	8.270
290.93	5.136
291.29	7.209
291.66	9.587
292.03	9.012
292.40	10.573
292.77	7.840
293.13	9.701
293.50	7.289
293.87	6.667
294.24	6.074
294.60	7.424
294.97	7.849
295.34	8.322
295.71	8.523
296.08	6.695
296.44	6.465
296.81	6.869
297.18	8.672
297.55	6.069
297.91	7.256
298.28	7.095
298.65	8.747
299.02	7.246
299.38	7.171
299.75	4.178
300.12	5.236
300.48	6.875
300.85	6.535
301.22	6.879
301.59	5.177
301.95	6.423
302.32	6.290
302.69	6.930
303.05	5.818
303.42	5.309
303.79	6.342
304.15	5.944
304.52	4.519
304.89	5.575
305.25	5.336
305.62	7.022
305.99	6.612
306.35	6.488
306.72	5.381
307.09	6.992
307.45	7.095
307.82	4.576
308.19	5.850
308.55	6.257
308.92	7.197
309.29	4.224
309.65	4.030
310.02	6.554
310.38	6.882
310.75	6.019
311.12	6.653
311.48	6.061
311.85	7.023
312.22	5.099
312.58	5.717
312.95	5.913
313.31	5.243
313.68	5.613
314.05	6.509
314.41	6.332
314.78	5.035
315.14	5.660
315.51	5.973
315.87	5.842
316.24	6.356
316.61	4.971
316.97	4.403
317.34	4.403
317.70	5.067
318.07	5.775
318.43	4.990
318.80	5.998
319.16	6.215
319.53	4.972
319.89	6.381
320.26	5.900
320.62	5.655
320.99	5.455
321.35	5.556
321.72	5.133
322.08	5.429
322.45	5.672
322.81	6.686
323.18	6.166
323.54	6.401
323.91	6.509
324.27	5.736
324.64	5.126
325.00	4.959
325.37	6.460
325.73	6.104
326.10	6.531
326.46	4.749
326.83	6.212
327.19	6.576
327.56	5.488
327.92	5.512
328.29	5.945
328.65	5.801
329.01	6.137
329.38	6.290
329.74	5.448
330.11	4.995
330.47	6.428
330.84	6.158
331.20	5.464
331.56	5.963
331.93	4.907
332.29	5.679
332.66	6.637
333.02	5.667
333.38	5.239
333.75	6.328
334.11	6.495
334.48	5.413
334.84	6.066
335.20	6.273
335.57	5.802
335.93	5.179
336.29	5.220
336.66	5.230
337.02	5.068
337.38	5.556
337.75	4.813
338.11	4.834
338.47	5.893
338.84	5.591
339.20	4.587
339.56	6.204
339.93	4.455
340.29	5.254
340.65	5.348
341.02	6.283
341.38	5.516
341.74	5.351
342.11	5.764
342.47	5.551
342.83	5.651
343.20	5.801
343.56	5.223
343.92	4.211
344.28	6.293
344.65	4.987
345.01	5.724
345.37	4.717
345.73	5.245
346.10	6.564
346.46	4.831
346.82	5.354
347.19	5.013
347.55	5.172
347.91	5.259
348.27	6.574
348.63	5.351
349.00	5.259
349.36	4.762
349.72	4.892
350.08	5.186
350.45	4.394
350.81	4.630
351.17	5.754
351.53	4.750
351.89	4.950
352.26	5.367
352.62	6.014
352.98	5.186
353.34	6.081
353.70	4.255
354.07	5.484
354.43	4.524
354.79	4.988
355.15	4.629
355.51	5.276
355.87	4.980
356.24	5.130
356.60	5.293
356.96	4.344
357.32	4.334
357.68	3.780
358.04	5.067
358.40	5.463
358.77	5.399
359.13	5.051
359.49	4.941
359.85	3.413
360.21	3.748
360.57	5.292
360.93	4.462
361.29	5.064
361.66	5.573
362.02	5.000
362.38	4.259
362.74	4.985
363.10	3.775
363.46	4.989
363.82	4.082
364.18	4.772
364.54	5.201
364.90	4.745
365.26	4.044
365.62	4.456
365.98	5.040
366.35	4.226
366.71	5.134
367.07	4.297
367.43	5.298
367.79	5.496
368.15	5.244
368.51	3.997
368.87	4.854
369.23	4.682
369.59	4.200
369.95	4.485
370.31	5.128
370.67	5.362
371.03	5.318
371.39	5.394
371.75	4.779
372.11	5.121
372.47	5.205
372.83	4.683
373.19	4.263
373.55	4.508
373.91	5.744
374.27	5.017
374.63	5.164
374.99	5.932
375.35	3.699
375.71	5.141
376.07	5.693
376.42	4.746
376.78	6.097
377.14	4.410
377.50	5.099
377.86	5.585
378.22	5.120
378.58	4.574
378.94	4.525
379.30	4.835
379.66	4.695
380.02	5.344
380.38	4.797
380.74	5.222
381.09	5.501
381.45	6.146
381.81	5.098
382.17	6.306
382.53	5.597
382.89	5.556
383.25	5.566
383.61	4.709
383.97	5.816
384.32	5.115
384.68	5.638
385.04	5.347
385.40	5.387
385.76	6.388
386.12	5.181
386.48	7.237
386.83	5.965
387.19	7.978
387.55	5.628
387.91	6.530
388.27	6.315
388.62	6.392
388.98	6.327
389.34	6.946
389.70	6.744
390.06	6.717
390.42	6.485
390.77	6.997
391.13	6.190
391.49	7.487
391.85	6.938
392.20	5.741
392.56	6.503
392.92	6.533
393.28	6.154
393.64	6.655
393.99	6.781
394.35	6.266
394.71	7.026
395.07	6.542
395.42	6.428
395.78	7.125
396.14	7.263
396.50	7.581
396.85	7.311
397.21	6.967
397.57	7.130
397.92	7.572
398.28	6.726
398.64	7.527
399.00	6.547
399.35	6.768
399.71	6.944
400.07	7.451
400.42	7.362
400.78	7.298
401.14	7.256
401.49	7.881
401.85	7.139
402.21	6.347
402.57	7.526
402.92	7.503
403.28	7.870
403.63	6.807
403.99	6.943
404.35	7.636
404.70	7.074
405.06	6.407
405.42	7.299
405.77	7.143
406.13	7.562
406.49	7.865
406.84	7.206
407.20	7.092
407.55	6.637
407.91	7.000
408.27	6.509
408.62	7.947
408.98	7.537
409.34	7.749
409.69	7.806
410.05	7.559
410.40	7.523
410.76	7.407
411.11	7.780
411.47	7.029
411.83	8.369
412.18	7.792
412.54	7.846
412.89	7.952
413.25	7.969
413.60	8.030
413.96	7.832
414.31	7.351
414.67	7.921
415.03	7.483
415.38	8.698
415.74	7.074
416.09	8.687
416.45	7.697
416.80	7.733
417.16	7.708
417.51	8.295
417.87	7.579
418.22	7.634
418.58	8.005
418.93	7.924
419.29	8.211
419.64	7.809
420.00	7.683
420.35	8.116
420.71	8.069
421.06	8.174
421.42	7.895
421.77	7.960
422.12	7.075
422.48	7.447
422.83	7.164
423.19	7.735
423.54	7.719
423.90	8.174
424.25	8.152
424.61	7.679
424.96	7.697
425.31	9.192
425.67	7.978
426.02	8.400
426.38	7.753
426.73	7.548
427.09	8.328
427.44	8.108
427.79	7.533
428.15	8.631
428.50	7.548
428.85	9.058
429.21	7.731
429.56	7.621
429.92	7.801
430.27	6.951
430.62	7.424
430.98	7.473
431.33	8.557
431.68	8.377
432.04	8.413
432.39	7.253
432.74	7.600
433.10	7.301
433.45	8.455
433.80	7.761
434.16	8.814
434.51	7.842
434.86	8.438
435.22	7.949
435.57	8.267
435.92	7.724
436.28	8.126
436.63	8.333
436.98	8.014
437.34	9.004
437.69	8.460
438.04	8.094
438.39	8.119
438.75	9.006
439.10	8.603
439.45	8.264
439.81	7.855
440.16	7.905
440.51	8.670
440.86	8.164
441.22	8.231
441.57	8.546
441.92	8.854
442.27	8.181
442.63	8.478
442.98	8.789
443.33	8.533
443.68	8.260
444.03	8.346
444.39	7.449
444.74	8.604
445.09	8.410
445.44	8.912
445.79	8.560
446.15	9.370
446.50	8.078
446.85	8.530
447.20	8.720
447.55	8.710
447.91	8.329
448.26	8.347
448.61	8.366
448.96	9.192
449.31	7.649
449.66	8.723
450.02	8.468
450.37	8.957
450.72	7.953
451.07	8.105
451.42	8.267
451.77	9.160
452.12	9.238
452.47	8.831
452.83	8.508
453.18	9.658
453.53	8.967
453.88	8.387
454.23	8.667
454.58	9.025
454.93	9.282
455.28	8.603
455.63	8.738
455.98	9.167
456.34	8.731
456.69	9.142
457.04	9.164
457.39	9.234
457.74	8.938
458.09	8.913
458.44	9.407
458.79	8.460
459.14	9.481
459.49	8.873
459.84	8.698
460.19	8.898
460.54	8.738
460.89	8.612
461.24	8.804
461.59	9.936
461.94	9.556
462.29	9.614
462.64	9.381
462.99	8.653
463.34	9.667
463.69	9.443
464.04	9.101
464.39	9.101
464.74	9.269
465.09	9.409
465.44	8.476
465.79	8.277
466.14	9.195
466.49	9.010
466.84	9.340
467.19	10.078
467.54	9.375
467.89	8.944
468.24	9.075
468.59	9.402
468.94	9.591
469.29	9.512
469.64	10.241
469.99	9.202
470.34	9.181
470.68	9.626
471.03	9.116
471.38	9.868
471.73	10.193
472.08	9.605
472.43	9.925
472.78	9.809
473.13	9.884
473.48	10.612
473.83	9.695
474.17	9.645
474.52	9.305
474.87	10.158
475.22	9.286
475.57	9.189
475.92	8.975
476.27	9.076
476.61	9.487
476.96	8.686
477.31	7.954
477.66	8.862
478.01	8.521
478.36	9.043
478.70	8.723
479.05	9.105
479.40	9.110
479.75	9.558
480.10	8.499
480.45	8.615
480.79	8.313
481.14	8.757
481.49	9.350
481.84	8.596
482.19	9.041
482.53	9.083
482.88	9.074
483.23	8.645
483.58	9.054
483.92	8.529
484.27	7.974
484.62	8.319
484.97	7.844
485.31	8.048
485.66	7.547
486.01	6.706
486.36	6.300
486.70	6.168
487.05	6.788
487.40	7.354
487.75	7.831
488.09	7.765
488.44	7.772
488.79	8.282
489.13	8.327
489.48	8.157
489.83	7.898
490.17	8.768
490.52	8.105
490.87	8.322
491.22	8.458
491.56	8.018
491.91	8.888
492.26	8.498
492.60	9.171
492.95	8.279
493.30	8.084
493.64	8.726
493.99	8.542
494.34	8.927
494.68	8.700
495.03	8.412
495.37	8.702
495.72	9.064
496.07	8.306
496.41	8.805
496.76	8.267
497.11	8.285
497.45	8.524
497.80	8.013
498.14	7.874
498.49	8.780
498.84	8.869
499.18	8.857
499.53	8.405
499.87	8.295
500.22	8.526
500.56	9.175
500.91	7.885
501.26	8.962
501.60	8.495
501.95	8.341
502.29	9.138
502.64	8.892
502.98	8.181
503.33	8.638
503.67	8.399
504.02	8.653
504.36	8.891
504.71	8.451
505.06	8.771
505.40	8.556
505.75	8.872
506.09	8.989
506.44	8.485
506.78	9.255
507.13	8.632
507.47	8.990
507.82	9.169
508.16	9.422
508.51	9.589
508.85	8.590
509.19	9.337
509.54	9.235
509.88	8.655
510.23	8.535
510.57	9.856
510.92	9.166
511.26	9.250
511.61	9.855
511.95	8.612
512.30	9.279
512.64	9.404
512.98	10.021
513.33	10.332
513.67	9.178
514.02	8.766
514.36	9.667
514.70	9.242
515.05	9.983
515.39	9.647
515.74	9.234
516.08	9.670
516.42	10.266
516.77	10.145
517.11	9.434
517.46	9.650
517.80	10.627
518.14	8.975
518.49	9.860
518.83	10.511
519.17	10.277
519.52	10.357
519.86	9.584
520.20	9.942
520.55	10.952
520.89	10.280
521.23	10.253
521.58	10.384
521.92	10.778
522.26	9.640
522.61	9.969
522.95	10.252
523.29	10.347
523.64	10.488
523.98	9.612
524.32	10.555
524.66	11.004
525.01	10.172
525.35	9.913
525.69	9.975
526.04	10.280
526.38	10.494
526.72	9.877
527.06	9.918
527.41	9.777
527.75	11.318
528.09	10.340
528.43	10.389
528.78	10.756
529.12	9.758
529.46	10.655
529.80	9.963
530.15	10.841
530.49	10.462
530.83	10.759
531.17	11.162
531.51	11.933
531.86	10.452
532.20	11.147
532.54	10.634
532.88	10.976
533.22	9.869
533.57	9.938
533.91	10.476
534.25	10.328
534.59	9.945
534.93	10.232
535.27	10.380
535.62	10.379
535.96	10.044
536.30	9.981
536.64	11.204
536.98	10.418
537.32	10.467
537.66	10.533
538.01	9.809
538.35	10.537
538.69	11.040
539.03	9.682
539.37	9.073
539.71	8.944
540.05	10.065
540.39	10.565
540.73	10.479
541.07	10.123
541.42	10.437
541.76	11.226
542.10	9.897
542.44	9.801
542.78	11.331
543.12	9.789
543.46	11.410
543.80	10.540
544.14	9.949
544.48	10.857
544.82	9.622
545.16	9.759
545.50	9.833
545.84	9.677
546.18	10.438
546.52	10.392
546.86	10.172
547.20	10.722
547.54	9.552
547.88	11.288
548.22	10.336
548.56	10.503
548.90	9.987
549.24	9.764
549.58	10.300
549.92	10.714
550.26	9.943
550.60	10.443
550.94	10.986
551.28	9.583
551.62	11.431
551.96	10.175
552.30	10.853
552.64	11.089
552.98	10.305
553.32	10.384
553.66	10.975
554.00	10.707
554.34	9.041
554.68	10.944
555.02	10.437
555.36	10.021
555.69	10.014
556.03	11.104
556.37	9.482
556.71	10.846
557.05	10.014
557.39	11.127
557.73	10.162
558.07	10.660
558.41	10.709
558.75	10.727
559.08	11.037
559.42	10.582
559.76	10.515
560.10	10.493
560.44	10.133
560.78	10.180
561.12	10.026
561.45	11.147
561.79	9.954
562.13	10.329
562.47	10.587
562.81	10.391
563.15	10.635
563.48	10.610
563.82	9.720
564.16	10.268
564.50	9.440
564.84	9.608
565.17	9.910
565.51	9.265
565.85	9.898
566.19	9.455
566.52	10.450
566.86	9.343
567.20	9.670
567.54	8.847
567.88	8.800
568.21	9.947
568.55	9.302
568.89	8.852
569.23	8.512
569.56	8.785
569.90	8.340
570.24	7.643
570.57	8.058
570.91	7.628
571.25	7.566
571.59	7.423
571.92	7.632
572.26	7.510
572.60	7.598
572.93	7.406
573.27	7.483
573.61	7.454
573.95	7.700
574.28	7.186
574.62	7.070
574.96	7.336
575.29	6.717
575.63	6.961
575.97	7.108
576.30	7.382
576.64	7.228
576.98	7.244
577.31	6.885
577.65	6.992
577.98	6.715
578.32	6.811
578.66	6.855
578.99	6.916
579.33	7.141
579.67	7.054
580.00	7.001
580.34	7.333
580.67	6.831
581.01	7.173
581.35	7.057
581.68	6.956
582.02	6.769
582.35	6.673
582.69	7.087
583.02	6.905
583.36	7.148
583.70	7.368
584.03	7.132
584.37	7.773
584.70	7.393
585.04	7.803
585.37	7.316
585.71	7.660
586.04	7.345
586.38	7.706
586.72	8.092
587.05	7.661
587.39	7.388
587.72	7.575
588.06	7.337
588.39	8.066
588.73	8.184
589.06	8.227
589.40	8.047
589.73	8.413
590.07	8.399
590.40	8.440
590.73	8.548
591.07	9.117
591.40	8.899
591.74	8.918
592.07	9.162
592.41	8.557
592.74	8.577
593.08	8.561
593.41	8.542
593.75	8.182
594.08	8.649
594.41	8.413
594.75	8.762
595.08	8.733
595.42	8.336
595.75	8.298
596.09	8.524
596.42	9.194
596.75	9.160
597.09	9.177
597.42	8.811
597.75	9.228
598.09	9.609
598.42	8.548
598.76	8.715
599.09	8.552
599.42	8.697
599.76	8.675
600.09	8.525
600.42	8.473
600.76	8.107
601.09	8.852
601.42	9.018
601.76	8.843
602.09	8.538
602.42	9.156
602.76	9.714
603.09	8.458
603.42	8.864
603.76	8.422
604.09	8.647
604.42	9.091
604.76	9.532
605.09	8.912
605.42	8.679
605.75	9.230
606.09	8.174
606.42	8.500
606.75	8.959
607.09	9.962
607.42	8.601
607.75	9.156
608.08	9.205
608.42	9.323
608.75	8.882
609.08	8.927
609.41	9.805
609.75	9.004
610.08	9.472
610.41	9.032
610.74	9.130
611.07	9.140
611.41	9.568
611.74	9.754
612.07	9.369
612.40	9.916
612.73	9.947
613.07	9.968
613.40	10.216
613.73	8.810
614.06	9.624
614.39	10.068
614.72	10.053
615.06	9.874
615.39	8.970
615.72	9.407
616.05	9.676
616.38	10.283
616.71	9.917
617.05	10.130
617.38	10.403
617.71	9.790
618.04	9.976
618.37	10.171
618.70	9.894
619.03	11.118
619.36	10.115
619.69	10.563
620.03	10.371
620.36	10.495
620.69	10.959
621.02	11.431
621.35	10.885
621.68	11.449
622.01	11.455
622.34	10.893
622.67	11.027
623.00	10.345
623.33	10.508
623.66	11.437
623.99	10.825
624.32	9.986
624.65	10.311
624.99	10.411
625.32	10.138
625.65	10.819
625.98	11.068
626.31	11.975
626.64	11.510
626.97	12.386
627.30	10.224
627.63	11.403
627.96	12.532
628.29	11.636
628.62	12.077
628.95	13.302
629.28	12.135
629.61	13.016
629.94	11.524
630.26	12.011
630.59	12.774
630.92	11.973
631.25	11.254
631.58	12.112
631.91	12.373
632.24	12.131
632.57	13.221
632.90	11.732
633.23	12.528
633.56	14.350
633.89	13.703
634.22	13.507
634.55	13.964
634.88	12.814
635.20	14.456
635.53	13.855
635.86	12.995
636.19	12.353
636.52	13.725
636.85	14.318
637.18	11.290
637.51	14.894
637.83	12.207
638.16	12.532
638.49	14.610
638.82	13.527
639.15	15.000
639.48	14.589
639.81	14.745
640.13	14.844
640.46	13.691
640.79	15.984
641.12	14.443
641.45	13.966
641.77	14.286
642.10	13.889
642.43	13.814
642.76	14.241
643.09	17.025
643.41	13.961
643.74	16.512
644.07	14.634
644.40	16.258
644.73	15.906
645.05	16.323
645.38	15.324
645.71	15.298
646.04	17.110
646.36	15.526
646.69	15.050
647.02	15.816
647.35	17.010
647.67	14.867
648.00	18.537
648.33	15.842
648.66	15.909
648.98	15.742
649.31	14.798
649.64	14.350
649.96	15.499
650.29	15.956
650.62	15.534
650.94	17.828
651.27	17.905
651.60	16.473
651.92	15.815
652.25	13.355
652.58	15.732
652.90	15.324
653.23	13.867
653.56	14.646
653.88	14.897
654.21	17.378
654.54	14.521
654.86	15.732
655.19	12.568
655.52	8.249
655.84	6.009
656.17	7.124
656.49	9.571
656.82	9.812
657.15	7.776
657.47	5.762
657.80	4.674
658.13	4.904
658.45	7.371
658.78	8.017
659.10	8.351
659.43	9.122
659.75	9.781
660.08	11.266
660.41	13.315
660.73	16.773
661.06	14.172
661.38	16.182
661.71	17.308
662.03	18.343
662.36	16.103
662.68	16.867
663.01	18.586
663.33	17.834
663.66	18.067
663.98	16.199
664.31	18.067
664.63	17.814
664.96	15.091
665.28	16.393
665.61	16.179
665.93	16.097
666.26	17.850
666.58	18.619
666.91	16.913
667.23	18.652
667.56	17.495
667.88	19.017
668.21	17.484
668.53	17.137
668.86	18.831
669.18	21.322
669.50	17.609
669.83	20.261
670.15	19.111
670.48	15.686
670.80	18.319
671.13	19.321
671.45	18.298
671.77	17.923
672.10	18.299
672.42	15.194
672.75	16.418
673.07	15.493
673.39	14.467
673.72	14.258
674.04	17.451
674.37	16.117
674.69	17.178
675.01	14.226
675.34	19.918
675.66	18.316
675.98	15.479
676.31	17.857
676.63	17.834
676.95	18.658
677.28	14.720
677.60	16.703
677.92	19.409
678.25	17.454
678.57	18.327
678.89	17.836
679.22	15.521
679.54	16.031
679.86	16.514
680.18	16.637
680.51	16.312
680.83	16.904
681.15	16.981
681.48	16.446
681.80	17.408
682.12	17.241
682.44	13.926
682.77	17.923
683.09	19.742
683.41	17.073
683.73	18.543
684.06	18.595
684.38	16.438
684.70	17.636
685.02	17.448
685.34	16.850
685.67	14.336
685.99	16.151
686.31	16.212
686.63	13.428
686.96	15.000
687.28	14.079
687.60	14.493
687.92	14.077
688.24	16.540
688.56	18.273
688.89	18.880
689.21	18.777
689.53	17.745
689.85	19.512
690.17	17.805
690.49	18.047
690.82	17.056
691.14	19.196
691.46	12.658
691.78	15.663
692.10	18.388
692.42	16.567
692.74	15.975
693.06	18.511
693.39	18.275
693.71	16.812
694.03	19.579
694.35	18.398
694.67	15.103
694.99	20.000
695.31	17.402
695.63	16.029
695.95	18.337
696.27	15.482
696.59	18.912
696.91	19.171
697.23	15.962
697.56	18.124
697.88	14.928
698.20	13.958
698.52	15.914
698.84	16.927
699.16	16.590
699.48	18.527
699.80	16.425
700.12	22.078
700.44	18.302
700.76	18.508
701.08	20.977
701.40	22.067
701.72	20.700
702.04	23.011
702.36	18.130
702.68	20.963
703.00	18.560
703.32	19.415
703.64	16.890
703.96	21.170
704.28	20.058
704.60	19.062
704.91	21.365
705.23	21.701
705.55	24.585
705.87	24.585
706.19	20.141
706.51	25.545
706.83	25.455
707.15	21.008
707.47	17.929
707.79	16.708
708.11	18.950
708.43	18.571
708.74	16.327
709.06	23.377
709.38	18.898
709.70	25.000
710.02	22.255
710.34	18.182
710.66	21.493
710.98	22.159
711.29	19.477
711.61	20.944
711.93	20.833
712.25	24.116
712.57	22.059
712.89	23.183
713.20	22.188
713.52	22.039
713.84	22.785
714.16	22.256
714.48	18.966
714.80	22.492
715.11	19.885
715.43	20.475
715.75	22.319
716.07	22.364
716.39	17.868
716.70	24.917
717.02	22.302
717.34	23.322
717.66	27.239
717.97	23.904
718.29	25.556
718.61	27.737
718.93	26.471
719.24	26.298
719.56	22.712
719.88	25.763
720.20	22.973
720.51	22.997
720.83	24.164
721.15	22.761
721.46	26.241
721.78	28.315
722.10	26.038
722.42	23.684
722.73	25.843
723.05	20.902
723.37	24.291
723.68	28.958
724.00	22.764
724.32	21.371
724.63	27.642
724.95	22.594
725.27	25.506
725.58	26.562
725.90	28.102
726.22	20.755
726.53	23.264
726.85	22.867
727.16	25.267
727.48	26.241
727.80	25.379
728.11	24.275
728.43	18.462
728.74	20.430
729.06	28.102
729.38	27.941
729.69	23.488
730.01	24.232
730.32	21.528
730.64	22.408
730.96	16.832
731.27	22.185
731.59	18.960
731.90	20.991
732.22	20.807
732.53	21.362
732.85	19.872
733.16	19.293
733.48	22.591
733.80	22.727
734.11	21.656
734.43	20.118
734.74	22.000
735.06	18.625
735.37	21.098
735.69	19.427
736.00	25.163
736.32	19.938
736.63	17.572
736.95	19.808
737.26	15.306
737.58	19.355
737.89	24.749
738.21	22.184
738.52	24.643
738.83	21.509
739.15	23.462
739.46	27.372
739.78	23.264
740.09	23.385
740.41	23.226
740.72	17.422
741.04	26.667
741.35	24.583
741.66	28.889
741.98	20.755
742.29	30.622
742.61	29.310
742.92	23.529
743.23	26.496
743.55	28.000
743.86	22.368
744.18	32.301
744.49	29.187
744.80	29.577
745.12	31.364
745.43	26.872
745.74	30.631
746.06	29.358
746.37	28.251
746.68	29.412
747.00	31.019
747.31	32.857
747.62	26.549
747.94	25.110
748.25	28.085
748.56	33.040
748.88	29.703
749.19	36.000
749.50	26.977
749.82	25.610
750.13	24.490
750.44	22.993
750.75	23.509
751.07	26.045
751.38	22.997
751.69	28.159
752.01	25.188
752.32	22.383
752.63	24.113
752.94	25.410
753.26	29.600
753.57	23.577
753.88	27.344
754.19	28.214
754.51	25.694
754.82	18.412
755.13	28.679
755.44	24.060
755.75	22.263
756.07	21.277
756.38	17.883
756.69	23.826
757.00	20.958
757.31	19.585
757.63	18.713
757.94	20.375
758.25	18.137
758.56	15.309
758.87	19.086
759.18	19.394
759.50	21.944
759.81	19.315
760.12	17.188
760.43	22.636
760.74	17.391
761.05	21.751
761.36	17.112
761.67	20.739
761.99	20.807
762.30	25.000
762.61	25.954
762.92	28.125
763.23	27.731
763.54	26.400
763.85	21.484
764.16	26.538
764.47	28.517
764.78	18.375
765.10	17.722
765.41	20.354
765.72	18.263
766.03	20.376
766.34	24.667
766.65	29.362
766.96	26.923
767.27	32.995
767.58	35.417
767.89	33.158
768.20	28.736
768.51	35.533
768.82	31.651
769.13	24.797
769.44	26.721
769.75	24.034
770.06	21.560
770.37	30.317
770.68	31.481
770.99	26.222
771.30	21.311
771.61	26.457
771.92	25.410
772.23	32.773
772.54	25.641
772.85	28.272
773.16	33.511
773.47	36.413
773.78	39.086
774.09	33.929
774.39	38.596
774.70	32.099
775.01	40.580
775.32	41.176
775.63	36.842
775.94	38.849
776.25	45.669
776.56	38.806
776.87	44.262
777.18	42.188
777.48	45.802
777.79	41.667
778.10	45.185
778.41	47.321
778.72	41.606
779.03	40.940
779.34	40.268
779.65	33.784
779.95	31.288
780.26	43.137
780.57	43.448
780.88	49.219
781.19	44.361
781.50	37.162
781.80	35.849
782.11	33.333
782.42	34.177
782.73	34.356
783.04	41.892
783.34	44.366
783.65	47.260
783.96	42.537
784.27	37.762
784.57	37.410
784.88	38.889
785.19	49.206
785.50	50.943
785.81	47.761
786.11	50.000
786.42	41.860
786.73	42.478
787.04	49.057
787.34	54.464
787.65	53.000
787.96	40.541
788.26	44.628
788.57	50.847
788.88	46.281
789.19	46.528
789.49	49.242
789.80	44.275
790.11	64.762
790.41	59.406
790.72	62.651
791.03	58.696
791.33	62.791
791.64	58.763
791.95	59.406
792.25	64.444
792.56	58.442
792.87	82.051
793.17	70.886
793.48	65.517
793.79	79.310
794.09	61.364
794.40	45.378
794.70	47.794
795.01	41.481
795.32	41.007
795.62	40.945
795.93	51.724
796.23	53.097
796.54	49.412
796.85	52.703
797.15	87.324
797.46	78.788
797.76	62.651
798.07	70.886
798.37	64.615
798.68	77.273
798.99	66.197
799.29	64.935
799.60	69.318
799.90	80.822
800.21	77.612
800.51	79.310
800.82	96.491
801.12	93.443
801.43	96.970
801.73	62.162
802.04	98.413
802.34	71.605
802.65	68.750
802.95	74.576
803.26	90.625
803.56	65.714
803.87	76.923
804.17	75.000
804.48	98.148
804.78	55.172
805.09	75.000
805.39	90.385
805.70	85.714
806.00	77.049
806.30	60.606
806.61	68.293
806.91	56.962
807.22	65.789
807.52	65.672
807.83	77.465
808.13	90.625
808.43	70.000
808.74	55.263
809.04	78.261
809.35	89.552
809.65	72.368
809.95	104.839
810.26	86.441
810.56	93.651
810.86	113.636
811.17	114.286
811.47	90.000
811.77	77.778
812.08	98.182
812.38	114.000
812.69	108.333
812.99	127.273
813.29	112.245
813.59	100.000
813.90	114.286
814.20	96.364
814.50	86.154
814.81	89.706
815.11	102.041
815.41	90.164
815.72	128.571
816.02	109.091
816.32	97.619
816.62	95.000
816.93	107.317
817.23	150.000
817.53	115.909
817.84	151.515
818.14	143.478
818.44	111.111
818.74	158.824
819.04	117.500
819.35	134.286
819.65	152.941
819.95	178.571
820.25	195.000
820.56	176.923
820.86	111.364
821.16	123.256
821.46	115.385
821.76	102.000
822.07	148.571
822.37	125.000
822.67	133.333
822.97	92.157
823.27	182.143
823.57	140.541
823.88	127.500
824.18	163.333
824.48	135.714
824.78	200.000
825.08	154.167
825.38	116.216
825.69	107.317
825.99	233.333
826.29	131.034
826.59	155.263
826.89	134.211
827.19	164.706
827.49	177.419
827.79	129.545
828.09	125.000
828.39	110.638
828.70	120.408
829.00	162.963
829.30	132.258
829.60	152.500
829.90	280.000
830.20	171.429
830.50	226.087
830.80	191.304
831.10	193.333
831.40	193.333
831.70	173.913
832.00	157.692
832.30	203.704
832.60	331.250
832.90	173.333
833.20	371.429
833.50	180.645
833.80	175.862
834.10	203.125
834.40	219.231
834.70	294.444
835.00	271.429
835.30	154.286
835.60	284.615
835.90	196.552
836.20	292.857
836.50	186.207
836.80	156.000
837.10	133.333
837.40	247.619
837.70	329.412
838.00	192.593
838.30	223.810
838.60	276.190
838.90	211.538
839.19	245.000
839.49	414.286
839.79	305.000
840.09	265.000
840.39	271.429
840.69	234.783
840.99	266.667
841.29	470.000
841.59	341.667
841.88	293.750
842.18	165.517
842.48	247.619
842.78	153.333
843.08	217.391
843.38	162.500
843.68	816.667
843.97	196.154
844.27	151.724
844.57	223.810
844.87	325.000
845.17	196.296
845.47	1200.000
845.76	322.222
846.06	305.882
846.36	437.500
846.66	285.714
846.96	268.750
847.25	245.455
847.55	427.273
847.85	230.435
848.15	520.000
848.44	328.571
848.74	244.444
849.04	241.176
849.34	390.000
849.63	263.158
849.93	400.000
850.23	1020.000
850.53	392.857
850.82	2450.000
851.12	-4700.000
851.42	4900.000
851.71	235.000
852.01	-1366.667
852.31	237.500
852.61	1733.333
852.90	228.571
853.20	228.000
853.50	329.412
853.79	261.905
854.09	191.667
854.39	287.500
854.68	162.162
854.98	183.871
855.28	183.333
855.57	189.655
855.87	222.222
856.17	242.105
856.46	266.667
856.76	241.176
857.05	168.966
857.35	191.667
857.65	353.333
857.94	243.478
858.24	246.154
858.53	290.000
858.83	195.455
859.13	366.667
859.42	0.000
859.72	488.889
860.01	436.364
860.31	231.818
860.60	247.368
860.90	204.348
861.20	600.000
861.49	458.333
861.79	-4200.000
862.08	675.000
862.38	309.524
862.67	300.000
862.97	300.000
863.26	588.889
863.56	294.444
863.85	308.333
864.15	600.000
864.44	320.000
864.74	800.000
865.03	612.500
865.33	252.632
865.62	409.091
865.92	484.615
866.21	425.000
866.51	0.000
866.80	345.455
867.10	1020.000
867.39	415.385
867.69	427.273
867.98	273.684
868.27	436.364
868.57	247.368
868.86	-4500.000
869.16	343.750
869.45	2000.000
869.75	-3700.000
870.04	358.333
870.33	657.143
870.63	950.000
870.92	2250.000
871.22	714.286
871.51	364.706
871.80	209.524
872.10	364.286
>>>>>End Processed Spectral Data<<<<<
