SpectraSuite Data File
++++++++++++++++++++++++++++++++++++
Date: Wed May 13 16:51:45 PDT 2015
User: schluterlab
Dark Spectrum Present: Yes
Reference Spectrum Present: Yes
Number of Sampled Component Spectra: 1
Spectrometers: USB2E3373
Integration Time (usec): 3000 (USB2E3373)
Spectra Averaged: 3 (USB2E3373)
Boxcar Smoothing: 0 (USB2E3373)
Correct for Electrical Dark: No (USB2E3373)
Strobe/Lamp Enabled: No (USB2E3373)
Correct for Detector Non-linearity: No (USB2E3373)
Correct for Stray Light: No (USB2E3373)
Number of Pixels in Processed Spectrum: 2048
>>>>>Begin Processed Spectral Data<<<<<
178.53	0.000
178.91	-1300.000
179.29	-1225.000
179.67	-205.556
180.04	-1425.000
180.42	2400.000
180.80	1060.000
181.18	-1050.000
181.56	728.571
181.94	0.000
182.31	-628.571
182.69	1666.667
183.07	-487.500
183.45	-566.667
183.83	454.545
184.20	-400.000
184.58	2250.000
184.96	6100.000
185.34	-780.000
185.72	-587.500
186.09	-2400.000
186.47	2550.000
186.85	2350.000
187.23	4500.000
187.61	-1366.667
187.98	1525.000
188.36	509.091
188.74	527.273
189.12	-820.000
189.49	590.000
189.87	-5500.000
190.25	-1075.000
190.63	371.429
191.00	453.846
191.38	883.333
191.76	-1275.000
192.14	1225.000
192.51	487.500
192.89	916.667
193.27	525.000
193.65	-1275.000
194.02	470.000
194.40	860.000
194.78	560.000
195.15	483.333
195.53	600.000
195.91	-2300.000
196.29	387.500
196.66	315.789
197.04	-390.000
197.42	0.000
197.79	570.000
198.17	-4500.000
198.55	642.857
198.92	687.500
199.30	840.000
199.68	0.000
200.05	333.333
200.43	757.143
200.81	4300.000
201.18	1866.667
201.56	-1700.000
201.94	577.778
202.31	622.222
202.69	433.333
203.07	540.000
203.44	0.000
203.82	1375.000
204.19	757.143
204.57	471.429
204.95	612.500
205.32	1800.000
205.70	436.364
206.08	392.857
206.45	2650.000
206.83	381.250
207.20	1000.000
207.58	900.000
207.96	300.000
208.33	650.000
208.71	-850.000
209.08	785.714
209.46	600.000
209.84	500.000
210.21	-1200.000
210.59	1350.000
210.96	-400.000
211.34	2350.000
211.71	560.000
212.09	766.667
212.46	0.000
212.84	1700.000
213.22	1175.000
213.59	-3800.000
213.97	783.333
214.34	728.571
214.72	590.909
215.09	1060.000
215.47	-2500.000
215.84	-2450.000
216.22	1600.000
216.59	378.571
216.97	1300.000
217.34	445.455
217.72	-750.000
218.09	0.000
218.47	-4900.000
218.84	822.222
219.22	742.857
219.59	1766.667
219.97	-585.714
220.34	980.000
220.72	-1266.667
221.09	357.143
221.47	1375.000
221.84	-900.000
222.22	0.000
222.59	1250.000
222.97	-2350.000
223.34	1000.000
223.72	469.231
224.09	960.000
224.46	2350.000
224.84	-5700.000
225.21	-820.000
225.59	-4900.000
225.96	650.000
226.34	265.000
226.71	2600.000
227.08	587.500
227.46	540.000
227.83	-950.000
228.21	-2400.000
228.58	655.556
228.95	-2650.000
229.33	-2500.000
229.70	1566.667
230.08	642.857
230.45	-1000.000
230.82	475.000
231.20	766.667
231.57	671.429
231.95	475.000
232.32	200.000
232.69	400.000
233.07	571.429
233.44	392.308
233.81	-1600.000
234.19	278.947
234.56	433.333
234.93	341.667
235.31	463.636
235.68	369.231
236.05	464.286
236.43	172.727
236.80	284.211
237.17	5300.000
237.55	252.381
237.92	221.429
238.29	300.000
238.67	216.129
239.04	200.000
239.41	186.111
239.79	136.957
240.16	145.238
240.53	131.818
240.91	141.176
241.28	136.000
241.65	122.000
242.02	111.594
242.40	114.516
242.77	128.333
243.14	88.172
243.51	100.000
243.89	85.882
244.26	75.556
244.63	81.720
245.00	77.660
245.38	83.168
245.75	81.308
246.12	85.321
246.49	78.102
246.87	73.600
247.24	73.077
247.61	68.571
247.98	74.510
248.36	66.216
248.73	69.427
249.10	66.879
249.47	63.842
249.84	70.588
250.22	65.775
250.59	66.272
250.96	61.616
251.33	62.085
251.70	61.881
252.08	61.905
252.45	57.399
252.82	57.391
253.19	56.170
253.56	52.157
253.94	56.432
254.31	56.250
254.68	57.692
255.05	57.196
255.42	56.098
255.79	55.882
256.16	55.596
256.54	49.823
256.91	54.804
257.28	48.921
257.65	54.455
258.02	52.795
258.39	53.312
258.76	50.836
259.14	53.571
259.51	50.760
259.88	49.379
260.25	51.662
260.62	50.000
260.99	53.106
261.36	46.847
261.73	49.570
262.10	49.419
262.47	49.577
262.85	47.354
263.22	48.718
263.59	47.578
263.96	50.000
264.33	48.564
264.70	51.579
265.07	48.849
265.44	47.222
265.81	45.985
266.18	50.251
266.55	45.366
266.92	47.912
267.29	47.222
267.66	45.642
268.03	45.682
268.40	47.196
268.77	47.733
269.14	47.072
269.51	50.564
269.88	48.252
270.25	43.792
270.62	46.517
270.99	48.172
271.36	46.996
271.73	48.832
272.10	46.957
272.47	45.806
272.84	45.455
273.21	45.073
273.58	44.760
273.95	40.671
274.32	45.041
274.69	46.467
275.06	43.307
275.43	45.532
275.80	45.892
276.17	45.214
276.54	46.362
276.91	43.083
277.28	41.992
277.65	44.294
278.02	44.928
278.39	45.117
278.76	44.545
279.13	40.755
279.50	43.203
279.87	43.825
280.23	43.912
280.60	43.327
280.97	43.993
281.34	42.832
281.71	42.364
282.08	43.570
282.45	42.182
282.82	41.385
283.19	40.463
283.56	40.000
283.92	42.640
284.29	40.741
284.66	41.924
285.03	39.060
285.40	42.782
285.77	41.919
286.14	37.651
286.51	41.167
286.87	41.026
287.24	41.368
287.61	39.968
287.98	40.747
288.35	38.986
288.72	37.539
289.08	38.341
289.45	38.221
289.82	37.724
290.19	38.148
290.56	38.132
290.93	35.650
291.29	35.583
291.66	35.103
292.03	37.209
292.40	36.711
292.77	35.503
293.13	35.672
293.50	37.172
293.87	35.259
294.24	34.519
294.60	35.517
294.97	33.866
295.34	34.274
295.71	33.381
296.08	31.766
296.44	33.838
296.81	32.497
297.18	32.656
297.55	30.475
297.91	31.530
298.28	35.207
298.65	34.856
299.02	32.806
299.38	32.005
299.75	31.132
300.12	31.034
300.48	31.000
300.85	29.840
301.22	29.809
301.59	31.313
301.95	32.116
302.32	29.910
302.69	29.391
303.05	31.758
303.42	29.383
303.79	29.898
304.15	29.487
304.52	29.896
304.89	28.339
305.25	29.118
305.62	28.766
305.99	30.815
306.35	29.083
306.72	29.260
307.09	29.745
307.45	29.392
307.82	28.013
308.19	28.698
308.55	29.989
308.92	28.034
309.29	28.405
309.65	27.890
310.02	27.907
310.38	28.387
310.75	28.089
311.12	28.557
311.48	28.527
311.85	28.931
312.22	28.512
312.58	28.586
312.95	28.828
313.31	27.184
313.68	29.002
314.05	29.586
314.41	29.447
314.78	29.104
315.14	27.110
315.51	29.042
315.87	28.317
316.24	28.302
316.61	28.363
316.97	27.984
317.34	28.082
317.70	29.063
318.07	30.221
318.43	29.354
318.80	28.397
319.16	28.814
319.53	29.362
319.89	28.000
320.26	29.700
320.62	28.770
320.99	29.495
321.35	29.192
321.72	30.595
322.08	30.701
322.45	31.144
322.81	30.329
323.18	28.805
323.54	29.870
323.91	28.962
324.27	29.828
324.64	29.077
325.00	28.224
325.37	30.027
325.73	30.072
326.10	29.126
326.46	29.122
326.83	31.493
327.19	29.633
327.56	28.920
327.92	29.921
328.29	29.547
328.65	31.123
329.01	28.520
329.38	28.955
329.74	29.455
330.11	30.349
330.47	28.834
330.84	30.423
331.20	29.781
331.56	30.092
331.93	30.556
332.29	29.281
332.66	28.850
333.02	29.799
333.38	29.539
333.75	28.966
334.11	30.160
334.48	28.394
334.84	29.412
335.20	30.727
335.57	28.830
335.93	28.929
336.29	28.755
336.66	29.937
337.02	28.054
337.38	30.370
337.75	28.966
338.11	28.201
338.47	28.637
338.84	29.423
339.20	28.807
339.56	30.657
339.93	27.636
340.29	29.076
340.65	28.966
341.02	29.494
341.38	28.559
341.74	28.772
342.11	29.170
342.47	30.044
342.83	27.825
343.20	28.831
343.56	28.307
343.92	28.421
344.28	29.422
344.65	28.633
345.01	27.694
345.37	26.930
345.73	28.342
346.10	28.474
346.46	28.136
346.82	26.689
347.19	27.151
347.55	27.340
347.91	28.236
348.27	28.677
348.63	27.759
349.00	28.074
349.36	27.011
349.72	28.148
350.08	26.499
350.45	27.746
350.81	28.351
351.17	27.634
351.53	27.682
351.89	26.815
352.26	28.414
352.62	27.987
352.98	26.985
353.34	27.198
353.70	27.005
354.07	27.258
354.43	27.143
354.79	27.192
355.15	26.496
355.51	27.018
355.87	27.102
356.24	27.036
356.60	26.704
356.96	26.468
357.32	27.310
357.68	27.244
358.04	27.158
358.40	27.237
358.77	26.369
359.13	26.440
359.49	27.294
359.85	25.952
360.21	26.794
360.57	26.693
360.93	26.692
361.29	26.909
361.66	26.858
362.02	26.716
362.38	26.616
362.74	27.083
363.10	26.129
363.46	26.779
363.82	25.624
364.18	25.991
364.54	27.712
364.90	26.771
365.26	26.029
365.62	25.858
365.98	25.347
366.35	24.642
366.71	26.970
367.07	25.273
367.43	26.488
367.79	26.838
368.15	26.724
368.51	26.017
368.87	25.625
369.23	25.457
369.59	26.503
369.95	25.956
370.31	25.499
370.67	25.290
371.03	26.367
371.39	25.437
371.75	25.882
372.11	24.609
372.47	27.053
372.83	27.017
373.19	25.650
373.55	26.681
373.91	28.277
374.27	24.467
374.63	25.236
374.99	26.766
375.35	25.750
375.71	25.497
376.07	26.200
376.42	25.378
376.78	25.646
377.14	25.237
377.50	26.291
377.86	25.931
378.22	26.043
378.58	25.501
378.94	25.519
379.30	26.018
379.66	26.523
380.02	26.106
380.38	25.683
380.74	25.150
381.09	26.284
381.45	26.245
381.81	27.150
382.17	26.115
382.53	26.415
382.89	25.741
383.25	25.516
383.61	25.651
383.97	26.016
384.32	25.827
384.68	25.836
385.04	26.613
385.40	25.635
385.76	24.877
386.12	24.935
386.48	26.558
386.83	26.171
387.19	26.283
387.55	25.974
387.91	25.695
388.27	24.893
388.62	25.937
388.98	25.737
389.34	27.534
389.70	25.567
390.06	26.489
390.42	25.875
390.77	25.064
391.13	25.973
391.49	26.650
391.85	25.398
392.20	23.975
392.56	26.957
392.92	26.074
393.28	25.148
393.64	25.420
393.99	25.168
394.35	25.993
394.71	26.600
395.07	25.670
395.42	25.711
395.78	25.064
396.14	25.574
396.50	25.815
396.85	25.938
397.21	26.326
397.57	25.728
397.92	25.661
398.28	25.785
398.64	25.986
399.00	25.238
399.35	24.535
399.71	25.405
400.07	25.310
400.42	24.969
400.78	25.694
401.14	24.756
401.49	25.791
401.85	25.227
402.21	25.269
402.57	25.108
402.92	25.599
403.28	25.921
403.63	24.196
403.99	24.013
404.35	25.394
404.70	24.760
405.06	25.102
405.42	25.639
405.77	24.743
406.13	24.661
406.49	24.956
406.84	23.922
407.20	24.291
407.55	25.846
407.91	24.800
408.27	25.144
408.62	25.166
408.98	25.123
409.34	24.969
409.69	24.903
410.05	23.916
410.40	24.098
410.76	24.014
411.11	24.789
411.47	24.217
411.83	25.107
412.18	24.985
412.54	24.907
412.89	24.157
413.25	24.380
413.60	24.460
413.96	24.712
414.31	23.633
414.67	24.778
415.03	24.768
415.38	25.129
415.74	24.566
416.09	24.886
416.45	24.230
416.80	24.917
417.16	25.670
417.51	24.419
417.87	23.443
418.22	24.543
418.58	23.822
418.93	24.570
419.29	24.698
419.64	24.559
420.00	24.268
420.35	24.696
420.71	24.985
421.06	23.807
421.42	23.860
421.77	24.776
422.12	23.582
422.48	23.206
422.83	23.821
423.19	23.867
423.54	23.854
423.90	23.884
424.25	23.897
424.61	24.286
424.96	23.907
425.31	23.920
425.67	23.764
426.02	23.714
426.38	24.603
426.73	24.108
427.09	23.951
427.44	23.922
427.79	24.267
428.15	24.226
428.50	24.166
428.85	23.778
429.21	23.302
429.56	23.328
429.92	23.402
430.27	23.932
430.62	23.912
430.98	23.716
431.33	24.227
431.68	23.455
432.04	23.482
432.39	22.901
432.74	23.818
433.10	24.958
433.45	23.965
433.80	23.559
434.16	23.878
434.51	23.842
434.86	25.257
435.22	23.402
435.57	24.620
435.92	23.874
436.28	24.318
436.63	24.503
436.98	23.927
437.34	24.091
437.69	24.037
438.04	23.328
438.39	24.537
438.75	24.521
439.10	24.469
439.45	24.557
439.81	23.686
440.16	23.377
440.51	23.667
440.86	24.725
441.22	24.194
441.57	23.832
441.92	23.951
442.27	24.435
442.63	23.749
442.98	24.169
443.33	23.315
443.68	23.955
444.03	23.865
444.39	23.612
444.74	24.351
445.09	24.043
445.44	23.893
445.79	23.058
446.15	23.875
446.50	22.994
446.85	23.638
447.20	23.661
447.55	24.511
447.91	23.662
448.26	24.040
448.61	23.403
448.96	24.640
449.31	24.691
449.66	23.860
450.02	23.844
450.37	23.866
450.72	23.745
451.07	22.730
451.42	23.708
451.77	24.662
452.12	23.730
452.47	23.134
452.83	24.242
453.18	24.450
453.53	24.057
453.88	23.863
454.23	23.551
454.58	23.985
454.93	24.603
455.28	23.566
455.63	24.272
455.98	24.286
456.34	24.372
456.69	24.296
457.04	24.706
457.39	24.021
457.74	23.854
458.09	23.462
458.44	24.173
458.79	22.668
459.14	23.758
459.49	24.752
459.84	23.269
460.19	23.984
460.54	22.917
460.89	24.081
461.24	24.651
461.59	24.288
461.94	24.168
462.29	24.332
462.64	23.548
462.99	23.422
463.34	23.867
463.69	24.515
464.04	24.174
464.39	23.942
464.74	23.827
465.09	23.703
465.44	23.213
465.79	23.210
466.14	23.591
466.49	23.248
466.84	22.417
467.19	24.442
467.54	24.000
467.89	22.509
468.24	23.153
468.59	24.237
468.94	22.480
469.29	23.458
469.64	23.896
469.99	24.290
470.34	24.306
470.68	23.922
471.03	23.741
471.38	23.697
471.73	23.451
472.08	24.408
472.43	22.990
472.78	22.976
473.13	24.198
473.48	23.596
473.83	24.207
474.17	22.464
474.52	24.007
474.87	24.402
475.22	23.157
475.57	23.267
475.92	23.367
476.27	22.548
476.61	23.387
476.96	22.870
477.31	22.763
477.66	23.085
478.01	23.053
478.36	23.480
478.70	22.482
479.05	23.536
479.40	23.286
479.75	23.538
480.10	23.360
480.45	22.228
480.79	21.978
481.14	22.456
481.49	22.829
481.84	22.908
482.19	22.626
482.53	22.294
482.88	22.383
483.23	22.804
483.58	23.157
483.92	22.212
484.27	22.048
484.62	22.328
484.97	22.310
485.31	23.288
485.66	23.132
486.01	21.776
486.36	21.366
486.70	20.095
487.05	20.275
487.40	20.608
487.75	21.030
488.09	20.807
488.44	20.781
488.79	21.844
489.13	21.963
489.48	21.737
489.83	21.666
490.17	22.315
490.52	21.789
490.87	22.840
491.22	21.783
491.56	20.866
491.91	21.871
492.26	22.232
492.60	22.212
492.95	21.609
493.30	21.589
493.64	22.818
493.99	22.238
494.34	21.832
494.68	22.299
495.03	22.086
495.37	21.405
495.72	21.784
496.07	22.599
496.41	21.372
496.76	22.164
497.11	21.297
497.45	21.984
497.80	21.977
498.14	21.256
498.49	21.659
498.84	21.764
499.18	21.048
499.53	21.747
499.87	22.134
500.22	22.044
500.56	22.524
500.91	21.635
501.26	22.617
501.60	22.829
501.95	22.090
502.29	22.165
502.64	21.462
502.98	22.113
503.33	21.846
503.67	21.624
504.02	22.123
504.36	21.759
504.71	21.739
505.06	22.506
505.40	21.439
505.75	20.636
506.09	21.866
506.44	21.904
506.78	21.529
507.13	22.211
507.47	21.919
507.82	22.746
508.16	22.138
508.51	22.831
508.85	21.847
509.19	22.194
509.54	21.327
509.88	21.278
510.23	21.645
510.57	22.343
510.92	22.475
511.26	21.120
511.61	22.147
511.95	21.190
512.30	21.156
512.64	21.333
512.98	21.329
513.33	22.537
513.67	22.038
514.02	21.537
514.36	22.392
514.70	21.583
515.05	21.417
515.39	21.929
515.74	22.354
516.08	21.912
516.42	22.531
516.77	21.349
517.11	21.532
517.46	22.291
517.80	22.242
518.14	21.830
518.49	22.287
518.83	21.705
519.17	21.998
519.52	21.788
519.86	22.191
520.20	22.717
520.55	22.501
520.89	22.689
521.23	22.256
521.58	21.909
521.92	22.290
522.26	21.477
522.61	22.243
522.95	21.424
523.29	21.242
523.64	22.317
523.98	21.750
524.32	22.075
524.66	22.189
525.01	22.243
525.35	21.499
525.69	21.860
526.04	22.804
526.38	22.209
526.72	22.086
527.06	21.532
527.41	21.163
527.75	21.994
528.09	21.965
528.43	22.052
528.78	22.188
529.12	21.636
529.46	22.045
529.80	22.463
530.15	22.492
530.49	21.662
530.83	22.152
531.17	21.997
531.51	22.892
531.86	21.484
532.20	23.794
532.54	23.318
532.88	22.272
533.22	22.049
533.57	23.333
533.91	21.975
534.25	22.175
534.59	22.270
534.93	21.773
535.27	21.666
535.62	21.795
535.96	22.285
536.30	21.360
536.64	22.215
536.98	22.296
537.32	22.383
537.66	22.067
538.01	22.317
538.35	21.590
538.69	22.527
539.03	21.118
539.37	21.150
539.71	20.480
540.05	21.634
540.39	21.462
540.73	21.410
541.07	23.361
541.42	22.179
541.76	22.774
542.10	22.251
542.44	22.119
542.78	22.069
543.12	21.753
543.46	22.623
543.80	21.991
544.14	21.181
544.48	22.349
544.82	21.745
545.16	21.926
545.50	21.722
545.84	21.438
546.18	21.886
546.52	22.092
546.86	21.375
547.20	22.117
547.54	21.910
547.88	22.258
548.22	21.046
548.56	21.572
548.90	21.255
549.24	20.337
549.58	21.282
549.92	22.253
550.26	22.656
550.60	21.784
550.94	20.986
551.28	20.849
551.62	21.639
551.96	21.333
552.30	22.594
552.64	21.974
552.98	23.119
553.32	21.173
553.66	21.881
554.00	22.169
554.34	21.808
554.68	21.817
555.02	21.509
555.36	21.294
555.69	20.907
556.03	22.207
556.37	22.237
556.71	21.487
557.05	21.148
557.39	22.323
557.73	21.736
558.07	22.408
558.41	21.635
558.75	21.528
559.08	21.551
559.42	20.786
559.76	22.206
560.10	22.270
560.44	21.523
560.78	21.025
561.12	21.504
561.45	21.969
561.79	21.885
562.13	20.993
562.47	21.790
562.81	22.106
563.15	21.405
563.48	21.220
563.82	21.526
564.16	21.844
564.50	21.549
564.84	21.049
565.17	20.978
565.51	22.109
565.85	21.701
566.19	21.227
566.52	22.229
566.86	20.555
567.20	22.229
567.54	21.176
567.88	20.858
568.21	21.640
568.55	21.587
568.89	21.060
569.23	21.168
569.56	21.417
569.90	21.057
570.24	21.349
570.57	20.571
570.91	20.233
571.25	20.784
571.59	20.736
571.92	19.988
572.26	20.537
572.60	20.240
572.93	19.850
573.27	20.438
573.61	20.408
573.95	20.724
574.28	20.477
574.62	20.190
574.96	19.665
575.29	19.859
575.63	19.893
575.97	19.760
576.30	20.738
576.64	20.344
576.98	19.932
577.31	20.171
577.65	20.565
577.98	20.507
578.32	19.936
578.66	19.979
578.99	19.950
579.33	19.874
579.67	19.460
580.00	19.947
580.34	20.242
580.67	19.972
581.01	20.733
581.35	20.413
581.68	20.718
582.02	20.010
582.35	19.837
582.69	20.504
583.02	19.502
583.36	19.783
583.70	19.930
584.03	19.958
584.37	20.369
584.70	20.010
585.04	19.667
585.37	20.294
585.71	20.230
586.04	20.077
586.38	20.637
586.72	20.547
587.05	20.348
587.39	20.000
587.72	20.227
588.06	20.197
588.39	20.604
588.73	20.505
589.06	20.910
589.40	20.370
589.73	20.169
590.07	20.000
590.40	20.351
590.73	20.531
591.07	21.612
591.40	20.962
591.74	21.039
592.07	21.030
592.41	21.083
592.74	21.161
593.08	21.019
593.41	20.342
593.75	19.988
594.08	20.516
594.41	20.926
594.75	20.998
595.08	20.437
595.42	20.981
595.75	20.264
596.09	21.367
596.42	20.747
596.75	20.810
597.09	21.429
597.42	20.531
597.75	20.267
598.09	20.348
598.42	21.220
598.76	20.592
599.09	20.258
599.42	20.488
599.76	20.388
600.09	20.328
600.42	20.416
600.76	20.393
601.09	19.454
601.42	20.091
601.76	20.152
602.09	20.395
602.42	20.621
602.76	21.644
603.09	20.889
603.42	20.656
603.76	20.274
604.09	20.744
604.42	21.525
604.76	20.160
605.09	20.489
605.42	20.821
605.75	20.944
606.09	20.862
606.42	20.719
606.75	20.406
607.09	20.762
607.42	20.924
607.75	20.042
608.08	20.321
608.42	20.484
608.75	20.018
609.08	20.398
609.41	20.276
609.75	20.057
610.08	21.536
610.41	19.972
610.74	20.577
611.07	20.751
611.41	21.050
611.74	20.261
612.07	20.963
612.40	20.409
612.73	20.789
613.07	21.498
613.40	20.695
613.73	20.294
614.06	20.753
614.39	20.451
614.72	20.579
615.06	21.481
615.39	21.391
615.72	20.297
616.05	20.096
616.38	21.123
616.71	21.081
617.05	20.730
617.38	20.625
617.71	20.841
618.04	22.416
618.37	21.407
618.70	21.282
619.03	20.921
619.36	20.638
619.69	21.620
620.03	22.802
620.36	21.390
620.69	21.918
621.02	20.870
621.35	21.535
621.68	20.950
622.01	22.214
622.34	21.785
622.67	20.989
623.00	21.203
623.33	21.015
623.66	21.086
623.99	22.091
624.32	21.755
624.65	21.822
624.99	20.822
625.32	21.289
625.65	20.962
625.98	22.060
626.31	21.617
626.64	22.612
626.97	22.278
627.30	20.948
627.63	22.559
627.96	21.362
628.29	22.310
628.62	22.690
628.95	24.434
629.28	22.901
629.61	22.181
629.94	22.952
630.26	21.354
630.59	21.258
630.92	21.456
631.25	21.323
631.58	22.523
631.91	21.298
632.24	21.835
632.57	22.455
632.90	23.136
633.23	23.714
633.56	21.695
633.89	22.537
634.22	23.269
634.55	23.787
634.88	21.198
635.20	22.939
635.53	22.048
635.86	23.391
636.19	22.588
636.52	22.837
636.85	24.628
637.18	22.926
637.51	23.404
637.83	21.332
638.16	23.402
638.49	24.433
638.82	22.377
639.15	22.625
639.48	22.319
639.81	24.263
640.13	23.307
640.46	23.624
640.79	22.985
641.12	22.971
641.45	24.721
641.77	22.828
642.10	23.684
642.43	21.922
642.76	23.529
643.09	24.540
643.41	23.217
643.74	24.228
644.07	23.476
644.40	24.847
644.73	26.142
645.05	26.624
645.38	24.487
645.71	24.477
646.04	24.751
646.36	27.379
646.69	23.579
647.02	26.020
647.35	26.117
647.67	24.425
648.00	23.902
648.33	26.073
648.66	23.939
648.98	25.637
649.31	22.870
649.64	25.262
649.96	25.335
650.29	24.487
650.62	22.977
650.94	25.608
651.27	25.676
651.60	24.792
651.92	24.601
652.25	24.267
652.58	25.234
652.90	25.592
653.23	23.112
653.56	24.567
653.88	23.930
654.21	25.434
654.54	25.083
654.86	24.922
655.19	22.027
655.52	19.127
655.84	19.059
656.17	24.820
656.49	32.762
656.82	32.057
657.15	23.262
657.47	16.836
657.80	12.826
658.13	13.063
658.45	18.579
658.78	18.208
659.10	19.107
659.43	19.673
659.75	21.617
660.08	22.975
660.41	24.209
660.73	25.413
661.06	26.115
661.38	28.182
661.71	24.231
662.03	26.430
662.36	24.453
662.68	25.502
663.01	26.667
663.33	25.053
663.66	25.840
663.98	26.566
664.31	25.420
664.63	26.113
664.96	24.950
665.28	27.049
665.61	26.511
665.93	25.755
666.26	27.586
666.58	25.941
666.91	28.541
667.23	27.191
667.56	24.838
667.88	28.632
668.21	27.719
668.53	24.946
668.86	25.108
669.18	29.211
669.50	27.391
669.83	28.105
670.15	27.111
670.48	23.312
670.80	27.371
671.13	25.690
671.45	24.681
671.77	27.291
672.10	27.172
672.42	25.265
672.75	25.041
673.07	25.528
673.39	24.955
673.72	25.391
674.04	23.725
674.37	26.019
674.69	25.971
675.01	27.197
675.34	27.926
675.66	28.421
675.98	26.680
676.31	27.731
676.63	29.724
676.95	26.415
677.28	26.636
677.60	25.934
677.92	28.059
678.25	27.926
678.57	25.896
678.89	26.253
679.22	26.326
679.54	27.099
679.86	25.505
680.18	23.792
680.51	24.645
680.83	26.690
681.15	25.472
681.48	27.977
681.80	26.112
682.12	24.904
682.44	23.791
682.77	27.088
683.09	27.468
683.41	29.047
683.73	25.828
684.06	28.099
684.38	24.266
684.70	26.357
685.02	26.829
685.34	26.374
685.67	24.650
685.99	24.570
686.31	24.915
686.63	25.972
686.96	25.893
687.28	27.978
687.60	23.913
687.92	27.239
688.24	26.046
688.56	26.305
688.89	29.046
689.21	29.476
689.53	25.261
689.85	28.381
690.17	27.536
690.49	28.875
690.82	26.168
691.14	27.009
691.46	25.316
691.78	27.510
692.10	28.306
692.42	27.745
692.74	26.971
693.06	27.021
693.39	28.953
693.71	25.983
694.03	27.789
694.35	28.788
694.67	29.748
694.99	28.537
695.31	27.206
695.63	29.904
695.95	29.095
696.27	27.919
696.59	27.720
696.91	30.829
697.23	25.117
697.56	27.505
697.88	27.607
698.20	27.083
698.52	27.097
698.84	27.394
699.16	27.650
699.48	25.891
699.80	29.469
700.12	32.987
700.44	29.708
700.76	29.006
701.08	29.310
701.40	25.698
701.72	34.694
702.04	31.250
702.36	27.479
702.68	29.745
703.00	28.809
703.32	31.117
703.64	29.491
703.96	33.983
704.28	32.849
704.60	33.138
704.91	32.344
705.23	31.085
705.55	34.884
705.87	36.877
706.19	30.035
706.51	31.153
706.83	32.727
707.15	30.252
707.47	30.808
707.79	30.467
708.11	29.680
708.43	29.524
708.74	29.592
709.06	30.130
709.38	29.659
709.70	29.070
710.02	31.751
710.34	31.515
710.66	30.448
710.98	32.102
711.29	30.523
711.61	32.153
711.93	31.410
712.25	32.476
712.57	34.191
712.89	33.564
713.20	33.739
713.52	31.908
713.84	33.544
714.16	33.841
714.48	31.897
714.80	38.602
715.11	32.853
715.43	29.377
715.75	34.203
716.07	32.268
716.39	30.094
716.70	35.216
717.02	34.892
717.34	35.336
717.66	32.463
717.97	39.044
718.29	29.630
718.61	32.482
718.93	33.456
719.24	31.834
719.56	30.847
719.88	35.932
720.20	35.473
720.51	34.843
720.83	35.688
721.15	34.328
721.46	35.106
721.78	34.050
722.10	35.472
722.42	39.474
722.73	35.581
723.05	35.656
723.37	38.057
723.68	43.243
724.00	33.740
724.32	33.871
724.63	32.520
724.95	37.657
725.27	36.842
725.58	38.281
725.90	36.496
726.22	35.094
726.53	38.194
726.85	37.884
727.16	38.078
727.48	32.270
727.80	40.909
728.11	35.145
728.43	36.154
728.74	33.333
729.06	39.416
729.38	36.397
729.69	35.231
730.01	31.058
730.32	35.417
730.64	33.445
730.96	29.703
731.27	34.106
731.59	33.945
731.90	34.402
732.22	32.298
732.53	33.127
732.85	30.449
733.16	33.441
733.48	32.558
733.80	34.091
734.11	31.529
734.43	34.320
734.74	32.286
735.06	29.799
735.37	34.104
735.69	35.669
736.00	34.641
736.32	35.826
736.63	34.185
736.95	34.824
737.26	27.891
737.58	33.548
737.89	32.776
738.21	35.836
738.52	35.357
738.83	35.472
739.15	35.385
739.46	37.226
739.78	39.236
740.09	36.615
740.41	38.065
740.72	35.540
741.04	36.296
741.35	38.333
741.66	39.111
741.98	32.547
742.29	40.191
742.61	41.810
742.92	34.842
743.23	40.598
743.55	38.400
743.86	39.474
744.18	40.708
744.49	40.670
744.80	43.662
745.12	45.455
745.43	40.088
745.74	43.694
746.06	38.532
746.37	38.565
746.68	38.009
747.00	47.685
747.31	39.048
747.62	35.398
747.94	40.529
748.25	39.149
748.56	41.410
748.88	41.584
749.19	42.000
749.50	40.000
749.82	35.366
750.13	31.837
750.44	38.686
750.75	39.298
751.07	41.801
751.38	38.328
751.69	37.184
752.01	34.586
752.32	36.101
752.63	41.135
752.94	39.344
753.26	42.000
753.57	35.772
753.88	40.625
754.19	34.643
754.51	36.806
754.82	38.628
755.13	36.226
755.44	36.090
755.75	37.591
756.07	35.106
756.38	37.591
756.69	33.557
757.00	33.234
757.31	34.125
757.63	34.503
757.94	31.903
758.25	32.108
758.56	33.827
758.87	33.065
759.18	36.970
759.50	34.483
759.81	33.022
760.12	34.687
760.43	35.817
760.74	32.337
761.05	37.571
761.36	29.412
761.67	34.091
761.99	34.783
762.30	36.111
762.61	40.076
762.92	35.156
763.23	39.496
763.54	40.400
763.85	36.328
764.16	38.846
764.47	41.445
764.78	36.396
765.10	34.177
765.41	32.448
765.72	35.629
766.03	35.423
766.34	35.667
766.65	40.426
766.96	41.453
767.27	47.716
767.58	42.708
767.89	50.000
768.20	52.874
768.51	46.193
768.82	44.037
769.13	36.179
769.44	38.057
769.75	39.914
770.06	35.321
770.37	40.271
770.68	40.278
770.99	39.111
771.30	35.246
771.61	43.946
771.92	46.311
772.23	49.160
772.54	44.103
772.85	44.503
773.16	47.340
773.47	47.283
773.78	50.254
774.09	44.048
774.39	49.123
774.70	51.235
775.01	62.319
775.32	60.784
775.63	50.000
775.94	46.763
776.25	64.567
776.56	55.970
776.87	57.377
777.18	58.594
777.48	66.412
777.79	56.061
778.10	59.259
778.41	62.500
778.72	48.905
779.03	53.020
779.34	50.336
779.65	52.703
779.95	54.601
780.26	56.863
780.57	55.172
780.88	67.188
781.19	54.135
781.50	54.730
781.80	53.459
782.11	44.068
782.42	50.633
782.73	47.239
783.04	54.730
783.34	55.634
783.65	63.699
783.96	63.433
784.27	52.448
784.57	56.115
784.88	57.407
785.19	59.524
785.50	58.491
785.81	60.448
786.11	64.754
786.42	61.240
786.73	56.637
787.04	61.321
787.34	56.250
787.65	66.000
787.96	73.874
788.26	56.198
788.57	69.492
788.88	61.157
789.19	63.889
789.49	62.121
789.80	60.305
790.11	59.048
790.41	73.267
790.72	81.928
791.03	69.565
791.33	73.256
791.64	78.351
791.95	69.307
792.25	84.444
792.56	87.013
792.87	94.872
793.17	86.076
793.48	97.701
793.79	78.161
794.09	85.227
794.40	64.706
794.70	70.588
795.01	51.852
795.32	56.835
795.62	54.331
795.93	66.379
796.23	63.717
796.54	78.824
796.85	79.730
797.15	87.324
797.46	83.333
797.76	87.952
798.07	86.076
798.37	76.923
798.68	98.485
798.99	71.831
799.29	79.221
799.60	78.409
799.90	64.384
800.21	98.507
800.51	106.897
800.82	105.263
801.12	96.721
801.43	103.030
801.73	77.027
802.04	101.587
802.34	85.185
802.65	90.625
802.95	96.610
803.26	121.875
803.56	77.143
803.87	93.846
804.17	98.529
804.48	109.259
804.78	98.276
805.09	89.706
805.39	98.077
805.70	98.214
806.00	121.311
806.30	101.515
806.61	87.805
806.91	84.810
807.22	90.789
807.52	68.657
807.83	80.282
808.13	96.875
808.43	106.667
808.74	76.316
809.04	102.899
809.35	95.522
809.65	94.737
809.95	106.452
810.26	106.780
810.56	103.175
810.86	143.182
811.17	145.238
811.47	113.333
811.77	124.074
812.08	114.545
812.38	136.000
812.69	141.667
812.99	127.273
813.29	122.449
813.59	123.810
813.90	126.531
814.20	110.909
814.50	90.769
814.81	111.765
815.11	124.490
815.41	91.803
815.72	140.476
816.02	110.909
816.32	130.952
816.62	135.000
816.93	143.902
817.23	126.190
817.53	140.909
817.84	151.515
818.14	152.174
818.44	122.222
818.74	173.529
819.04	127.500
819.35	154.286
819.65	185.294
819.95	160.714
820.25	230.000
820.56	169.231
820.86	122.727
821.16	139.535
821.46	138.462
821.76	134.000
822.07	177.143
822.37	175.000
822.67	175.758
822.97	119.608
823.27	246.429
823.57	113.514
823.88	182.500
824.18	176.667
824.48	147.619
824.78	224.000
825.08	195.833
825.38	172.973
825.69	121.951
825.99	195.833
826.29	206.897
826.59	184.211
826.89	163.158
827.19	188.235
827.49	190.323
827.79	138.636
828.09	134.091
828.39	117.021
828.70	124.490
829.00	225.926
829.30	183.871
829.60	135.000
829.90	366.667
830.20	225.000
830.50	230.435
830.80	226.087
831.10	163.333
831.40	183.333
831.70	217.391
832.00	234.615
832.30	177.778
832.60	337.500
832.90	216.667
833.20	378.571
833.50	209.677
833.80	193.103
834.10	203.125
834.40	219.231
834.70	305.556
835.00	319.048
835.30	168.571
835.60	392.308
835.90	206.897
836.20	442.857
836.50	227.586
836.80	208.000
837.10	183.333
837.40	280.952
837.70	270.588
838.00	196.296
838.30	261.905
838.60	304.762
838.90	234.615
839.19	250.000
839.49	371.429
839.79	375.000
840.09	245.000
840.39	242.857
840.69	265.217
840.99	338.889
841.29	510.000
841.59	341.667
841.88	343.750
842.18	165.517
842.48	285.714
842.78	193.333
843.08	243.478
843.38	200.000
843.68	950.000
843.97	203.846
844.27	206.897
844.57	247.619
844.87	400.000
845.17	225.926
845.47	1700.000
845.76	444.444
846.06	300.000
846.36	450.000
846.66	435.714
846.96	368.750
847.25	436.364
847.55	472.727
847.85	265.217
848.15	560.000
848.44	357.143
848.74	277.778
849.04	341.176
849.34	560.000
849.63	210.526
849.93	363.636
850.23	1020.000
850.53	414.286
850.82	2200.000
851.12	-4400.000
851.42	4700.000
851.71	260.000
852.01	-1766.667
852.31	245.833
852.61	1833.333
852.90	195.238
853.20	244.000
853.50	305.882
853.79	257.143
854.09	229.167
854.39	356.250
854.68	178.378
854.98	206.452
855.28	176.667
855.57	206.897
855.87	237.037
856.17	284.211
856.46	313.333
856.76	311.765
857.05	244.828
857.35	237.500
857.65	320.000
857.94	217.391
858.24	257.692
858.53	305.000
858.83	277.273
859.13	326.667
859.42	0.000
859.72	577.778
860.01	463.636
860.31	272.727
860.60	315.789
860.90	226.087
861.20	622.222
861.49	383.333
861.79	-5000.000
862.08	550.000
862.38	228.571
862.67	400.000
862.97	376.471
863.26	488.889
863.56	344.444
863.85	475.000
864.15	512.500
864.44	353.333
864.74	916.667
865.03	575.000
865.33	310.526
865.62	445.455
865.92	492.308
866.21	275.000
866.51	0.000
866.80	372.727
867.10	1080.000
867.39	430.769
867.69	445.455
867.98	326.316
868.27	481.818
868.57	321.053
868.86	-5200.000
869.16	387.500
869.45	1750.000
869.75	-4600.000
870.04	466.667
870.33	600.000
870.63	1125.000
870.92	3150.000
871.22	742.857
871.51	376.471
871.80	228.571
872.10	407.143
>>>>>End Processed Spectral Data<<<<<
