SpectraSuite Data File
++++++++++++++++++++++++++++++++++++
Date: Wed May 13 16:53:33 PDT 2015
User: schluterlab
Dark Spectrum Present: Yes
Reference Spectrum Present: Yes
Number of Sampled Component Spectra: 1
Spectrometers: USB2E3373
Integration Time (usec): 3000 (USB2E3373)
Spectra Averaged: 3 (USB2E3373)
Boxcar Smoothing: 0 (USB2E3373)
Correct for Electrical Dark: No (USB2E3373)
Strobe/Lamp Enabled: No (USB2E3373)
Correct for Detector Non-linearity: No (USB2E3373)
Correct for Stray Light: No (USB2E3373)
Number of Pixels in Processed Spectrum: 2048
>>>>>Begin Processed Spectral Data<<<<<
178.53	0.000
178.91	-1325.000
179.29	-1275.000
179.67	-272.222
180.04	-1225.000
180.42	2950.000
180.80	1060.000
181.18	-1100.000
181.56	728.571
181.94	0.000
182.31	-657.143
182.69	1900.000
183.07	-537.500
183.45	-577.778
183.83	518.182
184.20	-360.000
184.58	1800.000
184.96	5100.000
185.34	-880.000
185.72	-700.000
186.09	-2250.000
186.47	2650.000
186.85	2350.000
187.23	6000.000
187.61	-1566.667
187.98	1450.000
188.36	554.545
188.74	436.364
189.12	-960.000
189.49	560.000
189.87	-4500.000
190.25	-1325.000
190.63	385.714
191.00	407.692
191.38	833.333
191.76	-1050.000
192.14	1175.000
192.51	525.000
192.89	933.333
193.27	537.500
193.65	-1150.000
194.02	590.000
194.40	960.000
194.78	620.000
195.15	466.667
195.53	740.000
195.91	-2450.000
196.29	331.250
196.66	300.000
197.04	-420.000
197.42	0.000
197.79	540.000
198.17	-4800.000
198.55	657.143
198.92	700.000
199.30	940.000
199.68	0.000
200.05	361.111
200.43	685.714
200.81	3600.000
201.18	1533.333
201.56	-1633.333
201.94	577.778
202.31	588.889
202.69	441.667
203.07	490.000
203.44	0.000
203.82	1300.000
204.19	685.714
204.57	421.429
204.95	650.000
205.32	1566.667
205.70	454.545
206.08	350.000
206.45	2350.000
206.83	400.000
207.20	900.000
207.58	960.000
207.96	327.778
208.33	612.500
208.71	-816.667
209.08	885.714
209.46	566.667
209.84	545.455
210.21	-1533.333
210.59	1250.000
210.96	-387.500
211.34	2500.000
211.71	570.000
212.09	833.333
212.46	0.000
212.84	1866.667
213.22	1475.000
213.59	-4900.000
213.97	966.667
214.34	900.000
214.72	572.727
215.09	940.000
215.47	-2600.000
215.84	-2650.000
216.22	1900.000
216.59	400.000
216.97	1400.000
217.34	536.364
217.72	-783.333
218.09	0.000
218.47	-4900.000
218.84	677.778
219.22	728.571
219.59	1866.667
219.97	-700.000
220.34	940.000
220.72	-1533.333
221.09	442.857
221.47	1425.000
221.84	-950.000
222.22	0.000
222.59	1550.000
222.97	-2550.000
223.34	1220.000
223.72	376.923
224.09	1020.000
224.46	2450.000
224.84	-4600.000
225.21	-1060.000
225.59	-5100.000
225.96	550.000
226.34	300.000
226.71	2850.000
227.08	637.500
227.46	520.000
227.83	-1175.000
228.21	-2650.000
228.58	711.111
228.95	-2250.000
229.33	-2550.000
229.70	1700.000
230.08	842.857
230.45	-700.000
230.82	450.000
231.20	783.333
231.57	685.714
231.95	500.000
232.32	231.818
232.69	500.000
233.07	614.286
233.44	430.769
233.81	-1533.333
234.19	284.211
234.56	483.333
234.93	441.667
235.31	418.182
235.68	369.231
236.05	350.000
236.43	178.788
236.80	221.053
237.17	3500.000
237.55	219.048
237.92	178.571
238.29	233.333
238.67	180.645
239.04	210.345
239.41	147.222
239.79	108.696
240.16	130.952
240.53	125.000
240.91	84.314
241.28	88.000
241.65	94.000
242.02	81.159
242.40	91.935
242.77	78.333
243.14	61.290
243.51	64.045
243.89	55.294
244.26	48.889
244.63	58.065
245.00	53.191
245.38	42.574
245.75	38.318
246.12	36.697
246.49	44.526
246.87	57.600
247.24	46.923
247.61	35.000
247.98	39.869
248.36	30.405
248.73	34.395
249.10	35.032
249.47	24.859
249.84	35.829
250.22	28.342
250.59	28.402
250.96	27.778
251.33	27.488
251.70	31.188
252.08	22.381
252.45	23.767
252.82	23.043
253.19	22.128
253.56	20.784
253.94	26.556
254.31	26.953
254.68	24.615
255.05	19.557
255.42	20.325
255.79	21.691
256.16	21.300
256.54	16.961
256.91	20.641
257.28	14.029
257.65	15.512
258.02	18.323
258.39	19.874
258.76	17.726
259.14	16.667
259.51	17.325
259.88	14.907
260.25	16.012
260.62	14.740
260.99	13.043
261.36	17.117
261.73	14.040
262.10	13.372
262.47	16.338
262.85	16.435
263.22	13.960
263.59	17.379
263.96	12.363
264.33	17.232
264.70	13.421
265.07	15.090
265.44	15.152
265.81	13.869
266.18	13.065
266.55	12.195
266.92	12.776
267.29	14.120
267.66	13.532
268.03	14.318
268.40	14.252
268.77	11.933
269.14	12.838
269.51	12.641
269.88	11.888
270.25	13.544
270.62	12.584
270.99	12.903
271.36	12.017
271.73	10.748
272.10	10.000
272.47	10.968
272.84	11.472
273.21	12.998
273.58	10.917
273.95	9.853
274.32	12.397
274.69	9.208
275.06	11.417
275.43	11.915
275.80	9.419
276.17	10.591
276.54	10.811
276.91	10.474
277.28	10.938
277.65	10.638
278.02	8.489
278.39	10.937
278.76	11.636
279.13	11.132
279.50	12.104
279.87	9.761
280.23	9.581
280.60	9.865
280.97	9.242
281.34	11.504
281.71	12.364
282.08	10.557
282.45	8.545
282.82	10.835
283.19	6.774
283.56	11.228
283.92	9.983
284.29	10.053
284.66	7.985
285.03	9.403
285.40	8.627
285.77	8.754
286.14	8.808
286.51	9.667
286.87	8.889
287.24	8.958
287.61	9.149
287.98	10.552
288.35	9.192
288.72	10.903
289.08	8.920
289.45	8.237
289.82	10.569
290.19	7.378
290.56	8.116
290.93	6.949
291.29	7.975
291.66	8.702
292.03	9.884
292.40	11.601
292.77	7.249
293.13	6.866
293.50	8.309
293.87	8.444
294.24	6.963
294.60	7.278
294.97	8.430
295.34	8.886
295.71	7.955
296.08	7.265
296.44	7.840
296.81	8.454
297.18	10.298
297.55	5.805
297.91	6.596
298.28	6.961
298.65	7.963
299.02	7.642
299.38	6.507
299.75	4.447
300.12	6.386
300.48	6.875
300.85	7.152
301.22	7.516
301.59	6.061
301.95	5.919
302.32	6.418
302.69	7.168
303.05	7.030
303.42	6.296
303.79	7.475
304.15	6.061
304.52	6.025
304.89	6.272
305.25	6.845
305.62	7.928
305.99	7.674
306.35	6.488
306.72	6.951
307.09	7.103
307.45	6.532
307.82	5.022
308.19	8.057
308.55	6.904
308.92	7.519
309.29	5.385
309.65	5.938
310.02	6.765
310.38	6.344
310.75	6.125
311.12	7.677
311.48	7.001
311.85	7.233
312.22	7.700
312.58	6.029
312.95	7.497
313.31	6.893
313.68	7.692
314.05	8.580
314.41	7.839
314.78	7.553
315.14	6.852
315.51	8.342
315.87	8.317
316.24	6.455
316.61	7.212
316.97	5.675
317.34	7.534
317.70	8.222
318.07	7.411
318.43	7.730
318.80	8.341
319.16	8.004
319.53	7.692
319.89	8.762
320.26	8.600
320.62	8.532
320.99	7.677
321.35	8.485
321.72	8.419
322.08	9.872
322.45	10.348
322.81	9.012
323.18	8.863
323.54	10.019
323.91	10.283
324.27	9.560
324.64	8.947
325.00	9.468
325.37	10.555
325.73	10.952
326.10	9.620
326.46	10.305
326.83	11.562
327.19	10.248
327.56	10.105
327.92	11.461
328.29	11.358
328.65	11.694
329.01	10.740
329.38	10.731
329.74	12.096
330.11	11.593
330.47	12.397
330.84	13.143
331.20	11.566
331.56	12.018
331.93	11.204
332.29	11.446
332.66	12.389
333.02	12.157
333.38	11.834
333.75	12.478
334.11	12.278
334.48	11.358
334.84	11.489
335.20	12.455
335.57	11.423
335.93	10.893
336.29	11.813
336.66	11.362
337.02	11.584
337.38	12.222
337.75	11.141
338.11	11.370
338.47	11.694
338.84	11.549
339.20	10.000
339.56	12.500
339.93	11.000
340.29	10.688
340.65	11.319
341.02	13.002
341.38	12.011
341.74	11.754
342.11	12.576
342.47	12.070
342.83	11.387
343.20	12.121
343.56	11.036
343.92	10.614
344.28	11.650
344.65	12.296
345.01	11.027
345.37	11.235
345.73	12.521
346.10	11.168
346.46	11.695
346.82	11.203
347.19	11.195
347.55	10.509
347.91	11.327
348.27	11.832
348.63	11.957
349.00	11.165
349.36	11.002
349.72	12.831
350.08	10.859
350.45	11.880
350.81	12.023
351.17	11.345
351.53	11.302
351.89	10.891
352.26	11.760
352.62	10.986
352.98	11.831
353.34	11.750
353.70	9.247
354.07	11.290
354.43	11.111
354.79	9.735
355.15	11.093
355.51	12.070
355.87	11.755
356.24	10.586
356.60	10.345
356.96	11.183
357.32	11.529
357.68	11.024
358.04	10.768
358.40	11.164
358.77	11.581
359.13	11.287
359.49	10.980
359.85	10.714
360.21	11.244
360.57	11.751
360.93	11.846
361.29	10.960
361.66	11.533
362.02	11.791
362.38	11.711
362.74	11.533
363.10	10.733
363.46	10.271
363.82	10.809
364.18	10.793
364.54	12.036
364.90	11.473
365.26	11.103
365.62	11.103
365.98	10.884
366.35	11.461
366.71	11.786
367.07	11.143
367.43	12.264
367.79	10.778
368.15	12.356
368.51	11.265
368.87	10.921
369.23	11.119
369.59	12.020
369.95	11.471
370.31	12.037
370.67	11.377
371.03	12.135
371.39	11.516
371.75	11.765
372.11	11.238
372.47	12.097
372.83	12.320
373.19	11.055
373.55	12.565
373.91	12.518
374.27	11.271
374.63	10.691
374.99	12.571
375.35	11.096
375.71	11.515
376.07	12.483
376.42	12.655
376.78	12.392
377.14	11.601
377.50	12.318
377.86	10.971
378.22	13.021
378.58	11.216
378.94	10.748
379.30	11.578
379.66	12.183
380.02	12.838
380.38	11.050
380.74	12.365
381.09	12.653
381.45	12.293
381.81	13.084
382.17	12.229
382.53	11.698
382.89	12.654
383.25	11.945
383.61	12.515
383.97	12.695
384.32	12.726
384.68	12.020
385.04	12.784
385.40	12.941
385.76	12.285
386.12	12.047
386.48	12.775
386.83	12.829
387.19	13.234
387.55	13.234
387.91	12.576
388.27	12.262
388.62	13.276
388.98	12.899
389.34	13.079
389.70	12.324
390.06	12.991
390.42	12.776
390.77	12.532
391.13	12.827
391.49	13.832
391.85	12.922
392.20	11.861
392.56	13.068
392.92	13.184
393.28	11.657
393.64	13.309
393.99	12.889
394.35	12.097
394.71	13.174
395.07	13.084
395.42	11.990
395.78	13.041
396.14	12.663
396.50	13.346
396.85	12.905
397.21	12.824
397.57	12.957
397.92	13.281
398.28	12.724
398.64	12.843
399.00	13.039
399.35	12.239
399.71	12.731
400.07	13.542
400.42	12.945
400.78	13.148
401.14	13.537
401.49	13.134
401.85	12.341
402.21	12.934
402.57	12.647
402.92	12.926
403.28	13.242
403.63	13.366
403.99	12.994
404.35	13.091
404.70	12.110
405.06	12.405
405.42	12.664
405.77	12.114
406.13	13.149
406.49	13.306
406.84	12.699
407.20	12.234
407.55	12.508
407.91	13.133
408.27	12.891
408.62	12.462
408.98	12.929
409.34	13.223
409.69	12.968
410.05	12.825
410.40	12.355
410.76	12.366
411.11	12.967
411.47	13.099
411.83	13.500
412.18	12.121
412.54	12.889
412.89	13.735
413.25	12.220
413.60	12.477
413.96	13.115
414.31	12.090
414.67	12.864
415.03	12.980
415.38	13.466
415.74	13.119
416.09	13.521
416.45	13.119
416.80	12.492
417.16	12.735
417.51	12.541
417.87	12.588
418.22	12.934
418.58	13.363
418.93	12.838
419.29	13.240
419.64	13.413
420.00	12.683
420.35	12.464
420.71	13.150
421.06	12.112
421.42	12.807
421.77	12.724
422.12	11.567
422.48	11.603
422.83	12.580
423.19	12.983
423.54	12.072
423.90	12.464
424.25	11.893
424.61	12.917
424.96	12.303
425.31	12.458
425.67	11.742
426.02	12.114
426.38	12.515
426.73	11.995
427.09	12.644
427.44	12.018
427.79	12.076
428.15	12.321
428.50	12.463
428.85	12.515
429.21	11.651
429.56	12.182
429.92	11.827
430.27	11.470
430.62	11.316
430.98	12.143
431.33	11.753
431.68	11.780
432.04	12.460
432.39	11.822
432.74	12.089
433.10	11.545
433.45	12.478
433.80	11.530
434.16	12.821
434.51	11.316
434.86	12.657
435.22	11.951
435.57	12.036
435.92	11.235
436.28	11.684
436.63	12.804
436.98	11.849
437.34	12.463
437.69	12.835
438.04	12.254
438.39	12.060
438.75	12.318
439.10	12.514
439.45	11.688
439.81	11.843
440.16	11.519
440.51	12.302
440.86	12.507
441.22	11.902
441.57	12.049
441.92	12.590
442.27	12.110
442.63	12.217
442.98	12.901
443.33	12.717
443.68	12.235
444.03	12.055
444.39	10.906
444.74	12.229
445.09	12.129
445.44	11.591
445.79	11.133
446.15	12.546
446.50	12.278
446.85	12.025
447.20	12.494
447.55	11.334
447.91	11.307
448.26	12.855
448.61	12.041
448.96	12.735
449.31	12.767
449.66	12.043
450.02	11.532
450.37	12.358
450.72	12.126
451.07	11.944
451.42	11.672
451.77	12.625
452.12	12.818
452.47	12.500
452.83	12.296
453.18	12.347
453.53	13.049
453.88	12.345
454.23	12.194
454.58	13.325
454.93	12.905
455.28	11.970
455.63	12.197
455.98	13.452
456.34	12.249
456.69	13.400
457.04	12.012
457.39	12.741
457.74	11.898
458.09	12.191
458.44	12.486
458.79	11.334
459.14	12.528
459.49	11.384
459.84	11.690
460.19	11.903
460.54	11.458
460.89	12.233
461.24	11.900
461.59	12.377
461.94	12.515
462.29	12.700
462.64	12.317
462.99	11.971
463.34	12.533
463.69	12.758
464.04	12.406
464.39	11.188
464.74	12.121
465.09	12.304
465.44	11.524
465.79	12.081
466.14	12.534
466.49	11.680
466.84	11.559
467.19	12.372
467.54	12.688
467.89	12.365
468.24	12.507
468.59	12.271
468.94	11.973
469.29	12.982
469.64	12.985
469.99	11.908
470.34	12.021
470.68	12.428
471.03	11.020
471.38	12.161
471.73	12.525
472.08	12.632
472.43	12.374
472.78	12.179
473.13	11.938
473.48	12.921
473.83	13.171
474.17	11.761
474.52	12.903
474.87	12.785
475.22	11.608
475.57	11.445
475.92	10.993
476.27	11.612
476.61	12.190
476.96	11.380
477.31	10.989
477.66	11.433
478.01	11.291
478.36	11.475
478.70	11.371
479.05	11.874
479.40	11.924
479.75	11.439
480.10	11.581
480.45	11.518
480.79	10.989
481.14	11.693
481.49	11.913
481.84	11.340
482.19	11.540
482.53	11.376
482.88	11.540
483.23	11.449
483.58	11.192
483.92	11.668
484.27	10.719
484.62	11.250
484.97	10.642
485.31	10.856
485.66	9.956
486.01	9.267
486.36	9.104
486.70	8.712
487.05	9.292
487.40	9.831
487.75	10.077
488.09	10.616
488.44	10.007
488.79	10.741
489.13	11.039
489.48	10.685
489.83	11.049
490.17	11.179
490.52	10.762
490.87	11.352
491.22	11.050
491.56	10.843
491.91	11.261
492.26	11.254
492.60	10.922
492.95	11.132
493.30	10.935
493.64	11.433
493.99	10.864
494.34	11.147
494.68	11.355
495.03	11.184
495.37	11.121
495.72	11.209
496.07	11.323
496.41	10.664
496.76	11.258
497.11	11.211
497.45	11.178
497.80	11.468
498.14	10.435
498.49	11.073
498.84	11.649
499.18	11.095
499.53	10.874
499.87	10.997
500.22	11.540
500.56	11.990
500.91	10.865
501.26	11.190
501.60	11.628
501.95	10.816
502.29	11.293
502.64	11.359
502.98	10.940
503.33	11.015
503.67	10.812
504.02	10.804
504.36	11.558
504.71	11.236
505.06	11.759
505.40	10.549
505.75	11.138
506.09	11.273
506.44	10.952
506.78	11.154
507.13	11.156
507.47	11.667
507.82	11.651
508.16	11.246
508.51	11.568
508.85	11.023
509.19	11.378
509.54	11.837
509.88	11.025
510.23	11.774
510.57	11.816
510.92	11.393
511.26	12.230
511.61	11.411
511.95	11.169
512.30	10.764
512.64	11.499
512.98	12.004
513.33	11.510
513.67	11.580
514.02	11.472
514.36	11.688
514.70	11.566
515.05	11.880
515.39	11.161
515.74	11.543
516.08	12.465
516.42	11.709
516.77	12.152
517.11	11.820
517.46	12.190
517.80	12.485
518.14	10.886
518.49	11.902
518.83	12.386
519.17	12.067
519.52	11.602
519.86	12.094
520.20	12.601
520.55	12.148
520.89	12.652
521.23	12.726
521.58	12.125
521.92	12.431
522.26	12.630
522.61	12.212
522.95	12.093
523.29	12.477
523.64	12.622
523.98	12.076
524.32	13.269
524.66	12.327
525.01	12.500
525.35	12.330
525.69	11.946
526.04	12.399
526.38	12.569
526.72	12.270
527.06	12.241
527.41	11.262
527.75	12.283
528.09	12.139
528.43	12.683
528.78	12.907
529.12	12.182
529.46	12.860
529.80	12.438
530.15	12.773
530.49	12.431
530.83	12.848
531.17	12.663
531.51	13.554
531.86	12.903
532.20	12.842
532.54	13.325
532.88	12.901
533.22	12.992
533.57	12.716
533.91	12.583
534.25	12.454
534.59	12.325
534.93	12.374
535.27	12.674
535.62	12.393
535.96	12.492
536.30	12.397
536.64	13.007
536.98	12.674
537.32	12.574
537.66	12.467
538.01	13.101
538.35	12.605
538.69	13.338
539.03	12.541
539.37	11.565
539.71	10.758
540.05	13.137
540.39	11.761
540.73	12.937
541.07	13.498
541.42	12.394
541.76	13.290
542.10	12.743
542.44	12.649
542.78	13.570
543.12	11.900
543.46	12.131
543.80	13.012
544.14	11.938
544.48	12.889
544.82	12.251
545.16	13.208
545.50	11.761
545.84	12.097
546.18	12.323
546.52	13.696
546.86	12.990
547.20	12.677
547.54	12.024
547.88	14.031
548.22	12.267
548.56	13.333
548.90	11.268
549.24	12.593
549.58	12.688
549.92	13.049
550.26	12.429
550.60	11.757
550.94	12.254
551.28	13.168
551.62	12.725
551.96	12.211
552.30	13.515
552.64	13.387
552.98	12.339
553.32	12.947
553.66	12.952
554.00	12.629
554.34	12.491
554.68	13.090
555.02	13.399
555.36	12.874
555.69	13.058
556.03	13.190
556.37	13.233
556.71	12.278
557.05	13.165
557.39	13.296
557.73	12.703
558.07	12.183
558.41	13.169
558.75	13.079
559.08	13.274
559.42	13.228
559.76	13.897
560.10	12.777
560.44	12.718
560.78	11.776
561.12	12.401
561.45	13.103
561.79	12.327
562.13	12.676
562.47	12.432
562.81	12.901
563.15	13.177
563.48	12.003
563.82	12.590
564.16	11.772
564.50	12.044
564.84	12.579
565.17	11.905
565.51	12.524
565.85	12.754
566.19	11.772
566.52	12.730
566.86	12.297
567.20	12.205
567.54	11.473
567.88	10.809
568.21	11.905
568.55	11.780
568.89	11.284
569.23	11.230
569.56	10.931
569.90	10.717
570.24	10.370
570.57	10.337
570.91	10.052
571.25	10.130
571.59	10.191
571.92	9.994
572.26	9.734
572.60	9.880
572.93	9.625
573.27	9.760
573.61	9.771
573.95	9.974
574.28	9.598
574.62	9.427
574.96	9.200
575.29	9.651
575.63	9.350
575.97	10.049
576.30	9.639
576.64	9.376
576.98	9.699
577.31	9.658
577.65	9.273
577.98	9.208
578.32	9.154
578.66	9.287
578.99	9.039
579.33	9.659
579.67	9.219
580.00	9.350
580.34	9.540
580.67	9.761
581.01	9.669
581.35	9.123
581.68	9.355
582.02	8.746
582.35	8.861
582.69	9.153
583.02	8.893
583.36	9.592
583.70	9.441
584.03	9.718
584.37	9.433
584.70	9.561
585.04	9.344
585.37	9.739
585.71	9.445
586.04	9.785
586.38	9.901
586.72	9.859
587.05	9.698
587.39	9.182
587.72	9.714
588.06	9.685
588.39	9.712
588.73	9.387
589.06	10.252
589.40	9.529
589.73	10.243
590.07	10.356
590.40	10.303
590.73	10.773
591.07	10.501
591.40	10.966
591.74	11.255
592.07	11.213
592.41	10.955
592.74	10.412
593.08	10.626
593.41	9.775
593.75	9.681
594.08	10.023
594.41	10.569
594.75	10.388
595.08	10.236
595.42	10.368
595.75	10.506
596.09	10.439
596.42	11.198
596.75	10.553
597.09	10.736
597.42	10.118
597.75	10.910
598.09	11.261
598.42	10.911
598.76	10.134
599.09	10.376
599.42	10.226
599.76	9.993
600.09	10.164
600.42	10.409
600.76	9.643
601.09	9.945
601.42	9.970
601.76	10.323
602.09	10.158
602.42	11.067
602.76	10.883
603.09	10.740
603.42	10.308
603.76	9.794
604.09	9.616
604.42	10.640
604.76	11.261
605.09	10.834
605.42	10.389
605.75	10.430
606.09	10.411
606.42	10.666
606.75	10.825
607.09	11.051
607.42	10.441
607.75	10.338
608.08	9.813
608.42	10.892
608.75	10.460
609.08	11.286
609.41	11.138
609.75	10.624
610.08	10.792
610.41	10.056
610.74	10.596
611.07	11.018
611.41	10.550
611.74	11.714
612.07	11.491
612.40	11.070
612.73	11.105
613.07	11.638
613.40	11.058
613.73	10.225
614.06	11.559
614.39	11.904
614.72	11.316
615.06	10.924
615.39	10.775
615.72	11.503
616.05	10.367
616.38	11.228
616.71	11.461
617.05	12.073
617.38	11.004
617.71	11.291
618.04	12.200
618.37	11.236
618.70	11.699
619.03	12.632
619.36	12.084
619.69	11.831
620.03	12.637
620.36	12.567
620.69	12.466
621.02	12.389
621.35	12.451
621.68	12.383
622.01	12.926
622.34	12.557
622.67	12.243
623.00	12.619
623.33	11.580
623.66	12.294
623.99	11.782
624.32	12.553
624.65	11.582
624.99	11.686
625.32	11.803
625.65	12.397
625.98	13.144
626.31	13.919
626.64	12.245
626.97	12.884
627.30	12.552
627.63	12.961
627.96	13.288
628.29	14.698
628.62	13.541
628.95	13.679
629.28	14.051
629.61	15.032
629.94	13.143
630.26	13.632
630.59	13.346
630.92	13.314
631.25	13.228
631.58	13.714
631.91	14.503
632.24	14.241
632.57	13.956
632.90	13.925
633.23	14.765
633.56	13.672
633.89	14.949
634.22	15.664
634.55	15.740
634.88	14.371
635.20	14.934
635.53	15.301
635.86	14.975
636.19	14.353
636.52	14.418
636.85	14.204
637.18	15.668
637.51	13.830
637.83	14.797
638.16	15.729
638.49	15.617
638.82	17.067
639.15	16.125
639.48	16.459
639.81	14.879
640.13	15.625
640.46	15.570
640.79	16.116
641.12	15.268
641.45	14.804
641.77	17.526
642.10	15.936
642.43	15.766
642.76	15.480
643.09	17.791
643.41	17.147
643.74	18.210
644.07	17.530
644.40	18.252
644.73	18.898
645.05	17.274
645.38	16.588
645.71	16.586
646.04	17.774
646.36	17.696
646.69	18.729
647.02	16.497
647.35	16.667
647.67	15.929
648.00	19.187
648.33	14.686
648.66	16.818
648.98	17.841
649.31	13.602
649.64	16.891
649.96	15.946
650.29	17.694
650.62	16.505
650.94	17.990
651.27	18.074
651.60	18.636
651.92	17.252
652.25	16.938
652.58	15.576
652.90	18.325
653.23	14.330
653.56	15.276
653.88	16.482
654.21	17.062
654.54	14.686
654.86	18.692
655.19	15.135
655.52	8.846
655.84	6.783
656.17	8.364
656.49	11.345
656.82	11.382
657.15	9.057
657.47	6.653
657.80	5.285
658.13	5.518
658.45	8.188
658.78	8.588
659.10	9.434
659.43	9.803
659.75	10.898
660.08	12.152
660.41	14.246
660.73	15.248
661.06	16.561
661.38	18.364
661.71	19.038
662.03	17.554
662.36	17.694
662.68	19.076
663.01	19.394
663.33	17.622
663.66	21.008
663.98	20.086
664.31	20.168
664.63	19.231
664.96	20.121
665.28	17.828
665.61	18.713
665.93	19.316
666.26	18.661
666.58	19.247
666.91	20.507
667.23	20.899
667.56	18.790
667.88	20.085
668.21	19.616
668.53	18.872
668.86	19.481
669.18	21.535
669.50	21.739
669.83	19.826
670.15	20.667
670.48	18.519
670.80	17.457
671.13	20.807
671.45	19.149
671.77	21.792
672.10	17.745
672.42	17.668
672.75	16.584
673.07	17.077
673.39	15.913
673.72	16.797
674.04	19.020
674.37	17.670
674.69	17.587
675.01	18.201
675.34	18.686
675.66	23.158
675.98	21.181
676.31	21.008
676.63	20.807
676.95	20.755
677.28	19.626
677.60	20.000
677.92	21.308
678.25	19.713
678.57	17.928
678.89	17.034
679.22	16.699
679.54	20.038
679.86	19.817
680.18	18.247
680.51	16.667
680.83	17.972
681.15	19.245
681.48	19.282
681.80	17.215
682.12	17.050
682.44	17.795
682.77	18.737
683.09	23.820
683.41	19.734
683.73	20.309
684.06	19.215
684.38	17.221
684.70	19.574
685.02	18.386
685.34	17.033
685.67	15.385
685.99	15.292
686.31	18.601
686.63	14.664
686.96	16.250
687.28	17.329
687.60	17.210
687.92	18.099
688.24	16.350
688.56	18.876
688.89	21.369
689.21	20.087
689.53	20.251
689.85	23.947
690.17	17.184
690.49	20.382
690.82	18.925
691.14	17.634
691.46	17.932
691.78	17.068
692.10	19.215
692.42	19.561
692.74	18.257
693.06	16.809
693.39	20.329
693.71	18.122
694.03	21.474
694.35	17.749
694.67	20.595
694.99	19.512
695.31	21.324
695.63	19.617
695.95	20.782
696.27	19.036
696.59	23.575
696.91	20.207
697.23	18.545
697.56	18.763
697.88	16.973
698.20	17.917
698.52	17.419
698.84	18.708
699.16	18.433
699.48	19.952
699.80	20.048
700.12	23.896
700.44	22.016
700.76	21.823
701.08	23.563
701.40	23.184
701.72	24.198
702.04	23.864
702.36	19.263
702.68	20.113
703.00	21.607
703.32	22.074
703.64	20.107
703.96	21.448
704.28	22.384
704.60	21.408
704.91	21.662
705.23	24.047
705.55	28.904
705.87	28.239
706.19	24.735
706.51	23.988
706.83	26.364
707.15	24.090
707.47	20.707
707.79	19.410
708.11	20.320
708.43	20.000
708.74	19.643
709.06	25.455
709.38	22.047
709.70	25.291
710.02	24.629
710.34	22.424
710.66	25.075
710.98	23.011
711.29	22.674
711.61	25.959
711.93	21.154
712.25	22.186
712.57	25.368
712.89	25.260
713.20	26.444
713.52	25.658
713.84	21.519
714.16	19.817
714.48	23.851
714.80	27.356
715.11	23.055
715.43	21.958
715.75	21.449
716.07	23.003
716.39	22.571
716.70	24.917
717.02	25.540
717.34	23.675
717.66	30.970
717.97	29.084
718.29	24.444
718.61	24.088
718.93	24.632
719.24	28.720
719.56	23.051
719.88	23.729
720.20	26.689
720.51	24.390
720.83	26.766
721.15	22.015
721.46	23.050
721.78	26.523
722.10	26.415
722.42	26.692
722.73	25.468
723.05	26.639
723.37	22.267
723.68	28.571
724.00	25.203
724.32	23.790
724.63	27.236
724.95	27.615
725.27	31.579
725.58	28.906
725.90	27.372
726.22	25.283
726.53	22.569
726.85	24.915
727.16	28.826
727.48	24.823
727.80	28.030
728.11	25.362
728.43	26.538
728.74	26.165
729.06	31.022
729.38	27.941
729.69	25.623
730.01	25.256
730.32	22.917
730.64	25.753
730.96	20.792
731.27	22.848
731.59	20.489
731.90	20.991
732.22	20.497
732.53	23.220
732.85	23.397
733.16	26.045
733.48	22.259
733.80	21.753
734.11	25.796
734.43	23.669
734.74	20.857
735.06	20.057
735.37	22.254
735.69	20.382
736.00	23.203
736.32	24.611
736.63	23.323
736.95	23.323
737.26	17.687
737.58	18.387
737.89	27.425
738.21	24.915
738.52	26.071
738.83	27.170
739.15	24.231
739.46	29.927
739.78	22.917
740.09	22.769
740.41	24.839
740.72	21.254
741.04	26.296
741.35	26.250
741.66	31.111
741.98	25.943
742.29	32.057
742.61	35.345
742.92	26.697
743.23	27.778
743.55	31.600
743.86	25.877
744.18	28.761
744.49	36.364
744.80	30.516
745.12	36.364
745.43	29.075
745.74	31.532
746.06	31.193
746.37	29.148
746.68	27.602
747.00	30.093
747.31	29.524
747.62	25.221
747.94	26.432
748.25	24.681
748.56	30.396
748.88	35.149
749.19	34.500
749.50	30.698
749.82	27.642
750.13	25.714
750.44	24.453
750.75	27.018
751.07	27.653
751.38	26.132
751.69	22.744
752.01	25.188
752.32	22.383
752.63	25.532
752.94	26.639
753.26	32.800
753.57	26.829
753.88	29.688
754.19	26.071
754.51	26.736
754.82	24.188
755.13	27.547
755.44	27.068
755.75	24.818
756.07	21.631
756.38	23.723
756.69	21.477
757.00	20.958
757.31	21.958
757.63	19.883
757.94	20.375
758.25	21.324
758.56	20.247
758.87	19.355
759.18	23.333
759.50	24.765
759.81	23.988
760.12	20.625
760.43	20.917
760.74	20.380
761.05	21.469
761.36	20.321
761.67	21.307
761.99	23.913
762.30	26.736
762.61	24.046
762.92	24.609
763.23	25.630
763.54	27.600
763.85	22.656
764.16	29.615
764.47	26.236
764.78	21.201
765.10	22.785
765.41	23.009
765.72	24.551
766.03	19.749
766.34	22.000
766.65	31.064
766.96	32.051
767.27	32.487
767.58	32.812
767.89	35.789
768.20	44.253
768.51	35.025
768.82	30.734
769.13	30.081
769.44	25.506
769.75	27.039
770.06	27.982
770.37	28.959
770.68	31.019
770.99	28.444
771.30	25.410
771.61	30.045
771.92	29.918
772.23	38.235
772.54	36.410
772.85	36.649
773.16	34.043
773.47	36.413
773.78	38.071
774.09	30.952
774.39	39.766
774.70	36.420
775.01	39.855
775.32	46.405
775.63	45.395
775.94	41.727
776.25	52.756
776.56	44.030
776.87	45.082
777.18	40.625
777.48	48.855
777.79	49.242
778.10	48.889
778.41	58.929
778.72	43.796
779.03	39.597
779.34	40.268
779.65	39.189
779.95	38.650
780.26	46.405
780.57	42.759
780.88	48.438
781.19	40.602
781.50	45.270
781.80	37.736
782.11	42.373
782.42	32.911
782.73	39.877
783.04	43.919
783.34	46.479
783.65	46.575
783.96	44.030
784.27	42.657
784.57	41.727
784.88	32.407
785.19	53.175
785.50	51.887
785.81	47.761
786.11	56.557
786.42	46.512
786.73	49.558
787.04	50.943
787.34	57.143
787.65	60.000
787.96	48.649
788.26	46.281
788.57	48.305
788.88	57.851
789.19	50.694
789.49	50.000
789.80	47.328
790.11	64.762
790.41	65.347
790.72	57.831
791.03	69.565
791.33	62.791
791.64	62.887
791.95	52.475
792.25	73.333
792.56	59.740
792.87	82.051
793.17	79.747
793.48	78.161
793.79	57.471
794.09	71.591
794.40	51.261
794.70	51.471
795.01	44.444
795.32	41.007
795.62	40.945
795.93	49.138
796.23	61.947
796.54	62.353
796.85	70.270
797.15	78.873
797.46	75.758
797.76	77.108
798.07	73.418
798.37	70.769
798.68	80.303
798.99	66.197
799.29	77.922
799.60	60.227
799.90	79.452
800.21	94.030
800.51	75.862
800.82	100.000
801.12	88.525
801.43	95.455
801.73	74.324
802.04	87.302
802.34	62.963
802.65	79.687
802.95	94.915
803.26	100.000
803.56	72.857
803.87	81.538
804.17	83.824
804.48	100.000
804.78	77.586
805.09	83.824
805.39	94.231
805.70	89.286
806.00	109.836
806.30	66.667
806.61	73.171
806.91	73.418
807.22	67.105
807.52	61.194
807.83	81.690
808.13	90.625
808.43	86.667
808.74	76.316
809.04	81.159
809.35	79.104
809.65	81.579
809.95	109.677
810.26	100.000
810.56	98.413
810.86	106.818
811.17	126.190
811.47	111.667
811.77	101.852
812.08	110.909
812.38	120.000
812.69	133.333
812.99	118.182
813.29	118.367
813.59	78.571
813.90	128.571
814.20	112.727
814.50	73.846
814.81	91.176
815.11	97.959
815.41	91.803
815.72	128.571
816.02	94.545
816.32	130.952
816.62	107.500
816.93	109.756
817.23	138.095
817.53	120.455
817.84	166.667
818.14	130.435
818.44	120.000
818.74	150.000
819.04	120.000
819.35	137.143
819.65	173.529
819.95	178.571
820.25	210.000
820.56	141.026
820.86	109.091
821.16	148.837
821.46	135.897
821.76	116.000
822.07	165.714
822.37	147.500
822.67	154.545
822.97	109.804
823.27	217.857
823.57	143.243
823.88	150.000
824.18	170.000
824.48	145.238
824.78	236.000
825.08	187.500
825.38	143.243
825.69	117.073
825.99	191.667
826.29	141.379
826.59	142.105
826.89	131.579
827.19	129.412
827.49	161.290
827.79	131.818
828.09	125.000
828.39	125.532
828.70	122.449
829.00	151.852
829.30	164.516
829.60	142.500
829.90	326.667
830.20	200.000
830.50	191.304
830.80	226.087
831.10	203.333
831.40	196.667
831.70	152.174
832.00	207.692
832.30	200.000
832.60	268.750
832.90	196.667
833.20	385.714
833.50	174.194
833.80	175.862
834.10	171.875
834.40	242.308
834.70	272.222
835.00	285.714
835.30	162.857
835.60	307.692
835.90	151.724
836.20	307.143
836.50	193.103
836.80	184.000
837.10	169.444
837.40	200.000
837.70	329.412
838.00	200.000
838.30	276.190
838.60	280.952
838.90	223.077
839.19	170.000
839.49	400.000
839.79	320.000
840.09	210.000
840.39	257.143
840.69	247.826
840.99	255.556
841.29	440.000
841.59	341.667
841.88	318.750
842.18	186.207
842.48	247.619
842.78	203.333
843.08	226.087
843.38	215.625
843.68	916.667
843.97	257.692
844.27	165.517
844.57	309.524
844.87	368.750
845.17	225.926
845.47	1700.000
845.76	544.444
846.06	341.176
846.36	687.500
846.66	357.143
846.96	262.500
847.25	427.273
847.55	454.545
847.85	273.913
848.15	470.000
848.44	335.714
848.74	261.111
849.04	335.294
849.34	510.000
849.63	215.789
849.93	518.182
850.23	800.000
850.53	328.571
850.82	1950.000
851.12	-4200.000
851.42	4500.000
851.71	285.000
852.01	-1300.000
852.31	241.667
852.61	1733.333
852.90	233.333
853.20	252.000
853.50	335.294
853.79	271.429
854.09	250.000
854.39	281.250
854.68	162.162
854.98	190.323
855.28	220.000
855.57	200.000
855.87	229.630
856.17	221.053
856.46	300.000
856.76	317.647
857.05	179.310
857.35	212.500
857.65	373.333
857.94	243.478
858.24	211.538
858.53	330.000
858.83	190.909
859.13	326.667
859.42	0.000
859.72	533.333
860.01	436.364
860.31	231.818
860.60	284.211
860.90	282.609
861.20	544.444
861.49	516.667
861.79	-4700.000
862.08	575.000
862.38	276.190
862.67	369.231
862.97	305.882
863.26	511.111
863.56	311.111
863.85	416.667
864.15	500.000
864.44	426.667
864.74	783.333
865.03	700.000
865.33	252.632
865.62	490.909
865.92	423.077
866.21	400.000
866.51	0.000
866.80	472.727
867.10	1140.000
867.39	453.846
867.69	463.636
867.98	289.474
868.27	527.273
868.57	284.211
868.86	-4500.000
869.16	375.000
869.45	2250.000
869.75	-4100.000
870.04	483.333
870.33	657.143
870.63	1350.000
870.92	2550.000
871.22	642.857
871.51	323.529
871.80	223.810
872.10	371.429
>>>>>End Processed Spectral Data<<<<<
