SpectraSuite Data File
++++++++++++++++++++++++++++++++++++
Date: Wed May 13 16:11:38 PDT 2015
User: schluterlab
Dark Spectrum Present: Yes
Reference Spectrum Present: Yes
Number of Sampled Component Spectra: 1
Spectrometers: USB2E3373
Integration Time (usec): 3000 (USB2E3373)
Spectra Averaged: 3 (USB2E3373)
Boxcar Smoothing: 0 (USB2E3373)
Correct for Electrical Dark: No (USB2E3373)
Strobe/Lamp Enabled: No (USB2E3373)
Correct for Detector Non-linearity: No (USB2E3373)
Correct for Stray Light: No (USB2E3373)
Number of Pixels in Processed Spectrum: 2048
>>>>>Begin Processed Spectral Data<<<<<
178.53	0.000
178.91	-1100.000
179.29	-1050.000
179.67	-166.667
180.04	-1000.000
180.42	2350.000
180.80	800.000
181.18	-850.000
181.56	628.571
181.94	0.000
182.31	-657.143
182.69	1266.667
183.07	-337.500
183.45	-433.333
183.83	390.909
184.20	-340.000
184.58	1450.000
184.96	3800.000
185.34	-560.000
185.72	-462.500
186.09	-2050.000
186.47	1800.000
186.85	2050.000
187.23	4000.000
187.61	-1400.000
187.98	975.000
188.36	445.455
188.74	427.273
189.12	-840.000
189.49	400.000
189.87	-4200.000
190.25	-1000.000
190.63	300.000
191.00	292.308
191.38	583.333
191.76	-900.000
192.14	875.000
192.51	562.500
192.89	683.333
193.27	450.000
193.65	-825.000
194.02	440.000
194.40	760.000
194.78	440.000
195.15	400.000
195.53	510.000
195.91	-1450.000
196.29	262.500
196.66	247.368
197.04	-230.000
197.42	0.000
197.79	500.000
198.17	-4000.000
198.55	528.571
198.92	525.000
199.30	660.000
199.68	0.000
200.05	266.667
200.43	571.429
200.81	3500.000
201.18	1233.333
201.56	-1000.000
201.94	455.556
202.31	466.667
202.69	316.667
203.07	460.000
203.44	0.000
203.82	1000.000
204.19	671.429
204.57	371.429
204.95	500.000
205.32	1133.333
205.70	400.000
206.08	285.714
206.45	2550.000
206.83	250.000
207.20	583.333
207.58	680.000
207.96	261.111
208.33	600.000
208.71	-650.000
209.08	600.000
209.46	455.556
209.84	472.727
210.21	-900.000
210.59	1125.000
210.96	-387.500
211.34	2300.000
211.71	420.000
212.09	566.667
212.46	0.000
212.84	1100.000
213.22	875.000
213.59	-3700.000
213.97	666.667
214.34	571.429
214.72	490.909
215.09	780.000
215.47	-1500.000
215.84	-2000.000
216.22	1433.333
216.59	335.714
216.97	1050.000
217.34	336.364
217.72	-533.333
218.09	0.000
218.47	-4100.000
218.84	500.000
219.22	657.143
219.59	933.333
219.97	-414.286
220.34	860.000
220.72	-1233.333
221.09	300.000
221.47	1100.000
221.84	-533.333
222.22	0.000
222.59	950.000
222.97	-2000.000
223.34	920.000
223.72	361.538
224.09	860.000
224.46	1450.000
224.84	-4200.000
225.21	-780.000
225.59	-4000.000
225.96	420.000
226.34	260.000
226.71	1900.000
227.08	412.500
227.46	400.000
227.83	-850.000
228.21	-1700.000
228.58	600.000
228.95	-1950.000
229.33	-2100.000
229.70	1366.667
230.08	628.571
230.45	-480.000
230.82	425.000
231.20	733.333
231.57	457.143
231.95	350.000
232.32	236.364
232.69	245.455
233.07	685.714
233.44	315.385
233.81	-1133.333
234.19	289.474
234.56	325.000
234.93	350.000
235.31	390.909
235.68	269.231
236.05	264.286
236.43	157.576
236.80	247.368
237.17	4300.000
237.55	176.190
237.92	189.286
238.29	261.905
238.67	145.161
239.04	155.172
239.41	150.000
239.79	91.304
240.16	130.952
240.53	125.000
240.91	101.961
241.28	94.000
241.65	104.000
242.02	104.348
242.40	96.774
242.77	90.000
243.14	83.871
243.51	77.528
243.89	77.647
244.26	73.333
244.63	73.118
245.00	64.894
245.38	77.228
245.75	75.701
246.12	70.642
246.49	67.883
246.87	65.600
247.24	65.385
247.61	61.429
247.98	53.595
248.36	63.514
248.73	60.510
249.10	63.694
249.47	57.627
249.84	57.754
250.22	56.150
250.59	52.071
250.96	58.586
251.33	57.820
251.70	52.970
252.08	55.238
252.45	50.224
252.82	50.435
253.19	52.766
253.56	51.373
253.94	46.473
254.31	48.828
254.68	53.077
255.05	47.601
255.42	44.309
255.79	49.632
256.16	48.014
256.54	44.876
256.91	44.484
257.28	44.245
257.65	48.185
258.02	47.205
258.39	43.218
258.76	46.154
259.14	45.536
259.51	41.945
259.88	44.720
260.25	45.619
260.62	44.220
260.99	44.099
261.36	44.144
261.73	44.699
262.10	40.988
262.47	43.944
262.85	43.175
263.22	41.880
263.59	44.160
263.96	41.484
264.33	40.992
264.70	39.474
265.07	43.734
265.44	42.929
265.81	41.606
266.18	39.950
266.55	39.268
266.92	43.243
267.29	41.667
267.66	39.908
268.03	39.773
268.40	39.953
268.77	41.050
269.14	38.964
269.51	41.535
269.88	42.424
270.25	39.278
270.62	42.472
270.99	41.505
271.36	40.343
271.73	40.654
272.10	39.565
272.47	39.785
272.84	41.126
273.21	40.042
273.58	38.646
273.95	38.784
274.32	37.810
274.69	39.615
275.06	37.008
275.43	41.915
275.80	38.477
276.17	40.326
276.54	39.085
276.91	39.723
277.28	37.305
277.65	37.718
278.02	37.060
278.39	39.062
278.76	38.000
279.13	37.358
279.50	38.734
279.87	38.446
280.23	38.124
280.60	39.265
280.97	37.708
281.34	40.708
281.71	35.818
282.08	38.196
282.45	39.636
282.82	36.057
283.19	36.720
283.56	34.912
283.92	38.409
284.29	37.037
284.66	38.657
285.03	36.890
285.40	35.915
285.77	36.027
286.14	36.442
286.51	37.333
286.87	35.556
287.24	36.808
287.61	34.189
287.98	37.175
288.35	34.865
288.72	33.489
289.08	36.933
289.45	34.267
289.82	36.585
290.19	32.653
290.56	34.609
290.93	34.592
291.29	35.583
291.66	34.366
292.03	35.465
292.40	35.977
292.77	33.284
293.13	32.836
293.50	33.965
293.87	35.111
294.24	33.037
294.60	33.042
294.97	33.140
295.34	33.992
295.71	34.375
296.08	33.191
296.44	32.600
296.81	31.704
297.18	35.095
297.55	33.377
297.91	32.454
298.28	34.137
298.65	33.029
299.02	33.465
299.38	31.341
299.75	33.288
300.12	32.184
300.48	30.875
300.85	32.552
301.22	32.357
301.59	31.944
301.95	32.620
302.32	31.322
302.69	31.900
303.05	32.485
303.42	31.358
303.79	32.276
304.15	29.953
304.52	30.243
304.89	32.288
305.25	32.599
305.62	31.484
305.99	30.579
306.35	33.221
306.72	32.735
307.09	32.963
307.45	33.671
307.82	33.482
308.19	32.009
308.55	33.441
308.92	34.694
309.29	32.101
309.65	31.813
310.02	34.038
310.38	34.301
310.75	32.629
311.12	32.446
311.48	33.333
311.85	33.543
312.22	33.507
312.58	33.784
312.95	34.636
313.31	32.427
313.68	35.031
314.05	35.010
314.41	34.774
314.78	35.650
315.14	33.863
315.51	33.883
315.87	35.050
316.24	34.558
316.61	34.113
316.97	36.008
317.34	34.344
317.70	35.851
318.07	35.419
318.43	35.421
318.80	34.958
319.16	35.970
319.53	35.178
319.89	36.000
320.26	37.500
320.62	36.508
320.99	36.061
321.35	35.455
321.72	34.600
322.08	36.229
322.45	36.915
322.81	37.888
323.18	36.705
323.54	36.178
323.91	37.736
324.27	37.859
324.64	37.372
325.00	37.962
325.37	38.035
325.73	39.497
326.10	39.188
326.46	38.710
326.83	39.172
327.19	39.197
327.56	39.199
327.92	39.895
328.29	41.083
328.65	40.239
329.01	40.433
329.38	39.500
329.74	40.628
330.11	40.057
330.47	40.863
330.84	41.636
331.20	40.801
331.56	41.101
331.93	40.926
332.29	39.663
332.66	40.619
333.02	39.397
333.38	40.289
333.75	40.909
334.11	39.324
334.48	40.284
334.84	39.338
335.20	39.727
335.57	40.979
335.93	39.107
336.29	39.194
336.66	40.577
337.02	39.548
337.38	41.204
337.75	39.305
338.11	38.765
338.47	40.700
338.84	40.422
339.20	38.991
339.56	41.332
339.93	39.727
340.29	39.402
340.65	39.929
341.02	40.052
341.38	41.103
341.74	40.789
342.11	41.485
342.47	41.586
342.83	40.068
343.20	42.078
343.56	39.933
343.92	40.614
344.28	40.646
344.65	40.671
345.01	38.552
345.37	38.851
345.73	40.694
346.10	41.432
346.46	39.915
346.82	40.445
347.19	39.265
347.55	39.245
347.91	39.806
348.27	40.838
348.63	40.468
349.00	40.858
349.36	41.133
349.72	39.455
350.08	40.276
350.45	40.033
350.81	41.024
351.17	40.519
351.53	39.312
351.89	39.769
352.26	40.410
352.62	40.978
352.98	40.762
353.34	41.331
353.70	40.835
354.07	40.887
354.43	40.317
354.79	41.030
355.15	39.505
355.51	41.807
355.87	41.143
356.24	41.368
356.60	39.936
356.96	41.432
357.32	41.374
357.68	42.283
358.04	40.934
358.40	40.934
358.77	40.689
359.13	40.963
359.49	41.333
359.85	39.603
360.21	41.308
360.57	41.946
360.93	41.538
361.29	42.706
361.66	41.409
362.02	41.418
362.38	43.118
362.74	42.485
363.10	41.895
363.46	41.746
363.82	41.799
364.18	41.777
364.54	42.645
364.90	42.847
365.26	42.941
365.62	43.608
365.98	42.732
366.35	42.335
366.71	44.396
367.07	43.044
367.43	44.122
367.79	43.041
368.15	43.678
368.51	42.733
368.87	45.111
369.23	43.160
369.59	44.678
369.95	44.118
370.31	44.160
370.67	44.130
371.03	44.944
371.39	44.825
371.75	44.265
372.11	44.097
372.47	46.188
372.83	46.542
373.19	43.931
373.55	45.528
373.91	46.244
374.27	44.948
374.63	44.873
374.99	45.339
375.35	44.662
375.71	46.950
376.07	47.188
376.42	46.836
376.78	45.924
377.14	46.540
377.50	47.020
377.86	46.343
378.22	47.092
378.58	46.617
378.94	47.580
379.30	46.756
379.66	48.604
380.02	48.403
380.38	48.816
380.74	48.199
381.09	48.472
381.45	48.801
381.81	49.079
382.17	49.809
382.53	48.428
382.89	49.383
383.25	49.781
383.61	50.062
383.97	48.843
384.32	50.593
384.68	49.814
385.04	50.092
385.40	49.845
385.76	50.799
386.12	51.360
386.48	50.220
386.83	50.930
387.19	52.752
387.55	52.010
387.91	50.846
388.27	52.790
388.62	51.998
388.98	50.430
389.34	51.877
389.70	52.299
390.06	52.218
390.42	52.853
390.77	53.053
391.13	54.052
391.49	52.919
391.85	52.323
392.20	52.934
392.56	53.346
392.92	54.149
393.28	52.249
393.64	53.777
393.99	53.207
394.35	53.226
394.71	53.011
395.07	53.271
395.42	54.017
395.78	53.562
396.14	53.445
396.50	55.263
396.85	54.418
397.21	54.192
397.57	54.247
397.92	53.906
398.28	53.083
398.64	54.600
399.00	53.274
399.35	54.089
399.71	54.688
400.07	54.347
400.42	54.785
400.78	54.584
401.14	54.207
401.49	54.090
401.85	53.962
402.21	53.653
402.57	55.028
402.92	55.044
403.28	55.153
403.63	55.198
403.99	55.223
404.35	55.212
404.70	54.017
405.06	54.048
405.42	55.209
405.77	55.257
406.13	53.160
406.49	55.234
406.84	53.574
407.20	54.492
407.55	55.456
407.91	57.267
408.27	56.669
408.62	55.087
408.98	55.821
409.34	55.289
409.69	55.161
410.05	55.390
410.40	55.168
410.76	54.182
411.11	54.584
411.47	53.610
411.83	54.918
412.18	54.174
412.54	54.795
412.89	55.241
413.25	54.900
413.60	56.702
413.96	54.402
414.31	55.164
414.67	55.070
415.03	55.960
415.38	55.477
415.74	55.884
416.09	56.042
416.45	55.556
416.80	54.924
417.16	56.971
417.51	55.607
417.87	55.812
418.22	55.394
418.58	56.553
418.93	55.774
419.29	56.397
419.64	56.738
420.00	55.549
420.35	55.362
420.71	55.947
421.06	55.728
421.42	56.491
421.77	55.942
422.12	55.867
422.48	55.640
422.83	55.795
423.19	55.470
423.54	56.703
423.90	55.884
424.25	56.337
424.61	56.071
424.96	57.318
425.31	56.534
425.67	56.180
426.02	55.714
426.38	58.364
426.73	57.226
427.09	56.353
427.44	57.734
427.79	57.044
428.15	56.429
428.50	56.641
428.85	56.853
429.21	56.599
429.56	55.988
429.92	56.870
430.27	56.256
430.62	55.709
430.98	56.720
431.33	56.443
431.68	56.178
432.04	55.591
432.39	57.510
432.74	57.630
433.10	58.178
433.45	58.601
433.80	57.373
434.16	57.318
434.51	56.684
434.86	57.412
435.22	58.922
435.57	57.933
435.92	58.514
436.28	59.609
436.63	57.561
436.98	57.184
437.34	58.557
437.69	58.926
438.04	57.336
438.39	58.746
438.75	58.919
439.10	58.547
439.45	58.737
439.81	59.637
440.16	58.611
440.51	58.934
440.86	59.062
441.22	58.843
441.57	58.015
441.92	58.598
442.27	59.419
442.63	57.609
442.98	59.662
443.33	57.554
443.68	58.183
444.03	58.175
444.39	57.108
444.74	57.955
445.09	57.736
445.44	58.393
445.79	58.090
446.15	57.861
446.50	58.104
446.85	58.890
447.20	58.287
447.55	58.626
447.91	58.356
448.26	59.043
448.61	58.847
448.96	59.247
449.31	58.549
449.66	57.006
450.02	57.604
450.37	58.220
450.72	58.770
451.07	57.343
451.42	58.359
451.77	58.485
452.12	57.102
452.47	58.147
452.83	58.333
453.18	57.274
453.53	59.369
453.88	58.240
454.23	57.083
454.58	58.692
454.93	59.568
455.28	58.666
455.63	58.920
455.98	59.583
456.34	58.920
456.69	59.549
457.04	58.514
457.39	58.679
457.74	58.387
458.09	57.907
458.44	58.096
458.79	57.538
459.14	57.280
459.49	58.494
459.84	57.673
460.19	57.926
460.54	57.234
460.89	58.365
461.24	58.713
461.59	59.210
461.94	57.152
462.29	58.160
462.64	57.945
462.99	58.295
463.34	59.867
463.69	58.474
464.04	58.319
464.39	58.087
464.74	57.279
465.09	58.384
465.44	57.064
465.79	57.942
466.14	56.650
466.49	57.286
466.84	57.677
467.19	57.393
467.54	57.812
467.89	57.863
468.24	57.882
468.59	58.486
468.94	56.567
469.29	59.897
469.64	59.906
469.99	60.758
470.34	59.709
470.68	60.345
471.03	58.503
471.38	61.015
471.73	58.494
472.08	59.342
472.43	59.422
472.78	58.723
473.13	58.858
473.48	58.240
473.83	59.939
474.17	58.930
474.52	59.491
474.87	59.486
475.22	58.445
475.57	57.442
475.92	58.895
476.27	58.343
476.61	59.459
476.96	59.208
477.31	58.242
477.66	59.354
478.01	59.331
478.36	59.598
478.70	57.996
479.05	58.733
479.40	59.161
479.75	58.312
480.10	58.151
480.45	58.639
480.79	57.095
481.14	58.464
481.49	58.519
481.84	57.888
482.19	58.337
482.53	57.385
482.88	57.934
483.23	57.944
483.58	59.099
483.92	57.638
484.27	56.993
484.62	56.724
484.97	56.760
485.31	57.877
485.66	56.613
486.01	53.666
486.36	52.336
486.70	50.933
487.05	51.646
487.40	54.316
487.75	53.861
488.09	55.414
488.44	54.937
488.79	56.311
489.13	57.372
489.48	56.688
489.83	57.445
490.17	57.913
490.52	56.953
490.87	56.626
491.22	56.571
491.56	55.900
491.91	56.910
492.26	56.316
492.60	56.590
492.95	56.642
493.30	56.168
493.64	56.976
493.99	56.175
494.34	57.493
494.68	56.914
495.03	56.767
495.37	56.259
495.72	57.602
496.07	57.355
496.41	56.106
496.76	56.948
497.11	55.741
497.45	56.497
497.80	56.046
498.14	56.570
498.49	57.707
498.84	58.533
499.18	56.667
499.53	57.028
499.87	56.803
500.22	56.430
500.56	57.816
500.91	56.250
501.26	57.278
501.60	57.712
501.95	56.141
502.29	58.013
502.64	56.797
502.98	57.597
503.33	56.536
503.67	56.845
504.02	57.156
504.36	57.230
504.71	56.961
505.06	57.253
505.40	58.046
505.75	56.943
506.09	56.948
506.44	57.918
506.78	57.574
507.13	59.919
507.47	57.525
507.82	59.271
508.16	59.473
508.51	59.513
508.85	57.547
509.19	59.898
509.54	58.010
509.88	58.269
510.23	58.972
510.57	60.165
510.92	59.244
511.26	58.839
511.61	58.973
511.95	58.299
512.30	59.756
512.64	60.451
512.98	60.182
513.33	60.278
513.67	58.058
514.02	61.201
514.36	61.169
514.70	61.649
515.05	60.848
515.39	61.413
515.74	60.980
516.08	61.766
516.42	61.765
516.77	62.653
517.11	61.654
517.46	61.400
517.80	63.995
518.14	61.494
518.49	62.894
518.83	61.307
519.17	62.933
519.52	62.366
519.86	63.206
520.20	62.659
520.55	63.914
520.89	64.294
521.23	63.872
521.58	63.685
521.92	65.156
522.26	61.501
522.61	63.738
522.95	62.554
523.29	63.177
523.64	64.756
523.98	65.311
524.32	63.329
524.66	63.440
525.01	63.848
525.35	62.949
525.69	63.177
526.04	63.489
526.38	63.148
526.72	63.374
527.06	64.721
527.41	62.314
527.75	65.145
528.09	65.446
528.43	64.500
528.78	63.921
529.12	63.697
529.46	63.686
529.80	65.285
530.15	63.988
530.49	62.831
530.83	64.114
531.17	65.470
531.51	66.018
531.86	64.258
532.20	65.254
532.54	65.151
532.88	64.955
533.22	63.585
533.57	62.778
533.91	62.613
534.25	63.183
534.59	65.040
534.93	62.582
535.27	62.945
535.62	62.576
535.96	62.586
536.30	63.954
536.64	63.554
536.98	63.703
537.32	63.397
537.66	64.533
538.01	63.989
538.35	63.219
538.69	64.071
539.03	61.274
539.37	63.131
539.71	60.791
540.05	63.660
540.39	63.123
540.73	60.931
541.07	64.893
541.42	63.731
541.76	62.903
542.10	63.066
542.44	63.576
542.78	63.768
543.12	61.996
543.46	63.148
543.80	63.240
544.14	62.516
544.48	63.683
544.82	62.476
545.16	63.240
545.50	61.183
545.84	63.508
546.18	62.896
546.52	64.418
546.86	63.711
547.20	63.250
547.54	61.723
547.88	62.628
548.22	61.893
548.56	61.258
548.90	61.780
549.24	63.704
549.58	63.165
549.92	64.973
550.26	65.199
550.60	61.895
550.94	63.732
551.28	63.058
551.62	64.198
551.96	62.947
552.30	64.369
552.64	62.745
552.98	62.373
553.32	61.834
553.66	62.031
554.00	62.938
554.34	61.284
554.68	64.664
555.02	63.188
555.36	61.169
555.69	61.096
556.03	62.248
556.37	61.596
556.71	61.733
557.05	63.025
557.39	60.812
557.73	62.174
558.07	63.814
558.41	63.531
558.75	62.160
559.08	63.013
559.42	63.946
559.76	63.162
560.10	62.241
560.44	62.124
560.78	60.679
561.12	60.950
561.45	61.538
561.79	60.448
562.13	61.368
562.47	61.544
562.81	62.413
563.15	60.468
563.48	59.814
563.82	62.296
564.16	61.216
564.50	60.091
564.84	59.735
565.17	60.811
565.51	60.703
565.85	60.660
566.19	59.925
566.52	61.241
566.86	58.831
567.20	60.967
567.54	59.760
567.88	59.207
568.21	60.053
568.55	58.797
568.89	57.636
569.23	56.684
569.56	56.518
569.90	55.245
570.24	54.682
570.57	53.485
570.91	53.361
571.25	53.181
571.59	53.049
571.92	53.053
572.26	53.148
572.60	52.913
572.93	52.354
573.27	53.505
573.61	53.741
573.95	53.618
574.28	52.487
574.62	52.454
574.96	51.183
575.29	51.431
575.63	51.753
575.97	51.106
576.30	51.806
576.64	52.237
576.98	51.920
577.31	52.103
577.65	51.987
577.98	51.568
578.32	50.596
578.66	50.922
578.99	51.290
579.33	51.876
579.67	51.326
580.00	51.834
580.34	52.397
580.67	51.477
581.01	51.810
581.35	51.197
581.68	51.795
582.02	50.114
582.35	50.235
582.69	50.540
583.02	50.366
583.36	50.542
583.70	51.499
584.03	52.273
584.37	52.833
584.70	52.821
585.04	51.688
585.37	51.398
585.71	51.269
586.04	50.930
586.38	51.567
586.72	51.864
587.05	51.861
587.39	51.715
587.72	51.224
588.06	51.654
588.39	51.797
588.73	52.655
589.06	52.820
589.40	53.266
589.73	54.241
590.07	52.883
590.40	52.868
590.73	53.942
591.07	54.212
591.40	54.576
591.74	55.411
592.07	54.887
592.41	54.113
592.74	53.071
593.08	52.432
593.41	52.040
593.75	50.375
594.08	51.894
594.41	52.457
594.75	53.198
595.08	52.935
595.42	52.995
595.75	52.635
596.09	52.460
596.42	53.399
596.75	53.651
597.09	53.593
597.42	52.825
597.75	53.471
598.09	54.000
598.42	52.706
598.76	53.709
599.09	51.843
599.42	51.929
599.76	53.038
600.09	51.512
600.42	51.790
600.76	51.893
601.09	51.512
601.42	52.854
601.76	52.562
602.09	52.727
602.42	53.384
602.76	53.648
603.09	53.147
603.42	52.636
603.76	52.058
604.09	51.958
604.42	52.670
604.76	53.606
605.09	53.910
605.42	52.929
605.75	52.732
606.09	52.908
606.42	52.922
606.75	52.343
607.09	52.574
607.42	52.760
607.75	51.013
608.08	51.845
608.42	53.743
608.75	52.570
609.08	53.330
609.41	52.642
609.75	53.645
610.08	53.723
610.41	53.212
610.74	53.879
611.07	53.903
611.41	53.729
611.74	53.997
612.07	54.917
612.40	55.089
612.73	53.263
613.07	54.903
613.40	53.344
613.73	54.851
614.06	53.925
614.39	54.012
614.72	53.105
615.06	53.939
615.39	54.777
615.72	52.454
616.05	52.897
616.38	53.474
616.71	55.463
617.05	54.829
617.38	54.360
617.71	56.817
618.04	54.868
618.37	54.465
618.70	55.383
619.03	56.645
619.36	57.366
619.69	57.394
620.03	57.486
620.36	56.618
620.69	56.781
621.02	57.448
621.35	57.400
621.68	57.399
622.01	57.740
622.34	56.505
622.67	57.795
623.00	57.300
623.33	55.754
623.66	57.613
623.99	56.259
624.32	56.277
624.65	56.427
624.99	55.453
625.32	56.553
625.65	58.828
625.98	59.185
626.31	56.998
626.64	59.020
626.97	57.938
627.30	59.684
627.63	60.131
627.96	59.630
628.29	58.968
628.62	59.927
628.95	61.792
629.28	58.120
629.61	60.678
629.94	60.476
630.26	62.154
630.59	60.153
630.92	59.579
631.25	60.316
631.58	60.360
631.91	59.635
632.24	62.131
632.57	62.015
632.90	62.610
633.23	62.304
633.56	62.260
633.89	62.514
634.22	62.543
634.55	64.260
634.88	62.395
635.20	62.605
635.53	63.614
635.86	66.213
636.19	61.882
636.52	62.514
636.85	62.658
637.18	63.018
637.51	63.239
637.83	60.543
638.16	66.240
638.49	64.484
638.82	65.234
639.15	62.625
639.48	64.214
639.81	65.550
640.13	64.714
640.46	63.490
640.79	63.672
641.12	64.237
641.45	64.944
641.77	67.599
642.10	66.082
642.43	66.066
642.76	66.873
643.09	67.025
643.41	63.733
643.74	67.593
644.07	66.921
644.40	65.798
644.73	67.244
645.05	64.976
645.38	66.825
645.71	67.150
646.04	68.272
646.36	68.280
646.69	67.057
647.02	67.177
647.35	66.838
647.67	70.796
648.00	66.179
648.33	66.337
648.66	63.333
648.98	64.768
649.31	64.275
649.64	65.620
649.96	64.382
650.29	66.667
650.62	66.990
650.94	64.506
651.27	66.216
651.60	65.391
651.92	65.016
652.25	65.472
652.58	65.732
652.90	67.615
653.23	62.250
653.56	61.890
653.88	66.086
654.21	64.297
654.54	66.667
654.86	64.019
655.19	60.541
655.52	46.742
655.84	42.708
656.17	53.061
656.49	70.861
656.82	70.548
657.15	52.926
657.47	39.766
657.80	30.511
658.13	31.893
658.45	47.720
658.78	47.990
659.10	49.339
659.43	51.327
659.75	53.729
660.08	58.291
660.41	62.291
660.73	66.201
661.06	64.490
661.38	70.364
661.71	68.462
662.03	69.231
662.36	65.010
662.68	65.863
663.01	69.899
663.33	69.851
663.66	69.118
663.98	68.683
664.31	67.647
664.63	65.789
664.96	66.398
665.28	72.746
665.61	68.616
665.93	69.819
666.26	69.371
666.58	72.594
666.91	71.670
667.23	74.157
667.56	67.819
667.88	69.231
668.21	68.017
668.53	71.800
668.86	70.779
669.18	69.936
669.50	68.696
669.83	68.845
670.15	70.222
670.48	69.499
670.80	70.474
671.13	69.427
671.45	69.574
671.77	69.246
672.10	65.804
672.42	65.901
672.75	62.189
673.07	65.669
673.39	64.195
673.72	66.016
674.04	65.882
674.37	64.660
674.69	64.826
675.01	68.201
675.34	67.351
675.66	69.053
675.98	67.210
676.31	66.807
676.63	67.091
676.95	66.038
677.28	70.093
677.60	69.231
677.92	68.354
678.25	65.914
678.57	68.127
678.89	65.531
679.22	64.047
679.54	65.267
679.86	64.954
680.18	60.286
680.51	63.830
680.83	61.922
681.15	66.415
681.48	64.839
681.80	64.603
682.12	64.751
682.44	61.509
682.77	65.784
683.09	67.597
683.41	67.849
683.73	65.784
684.06	65.702
684.38	63.405
684.70	64.729
685.02	63.415
685.34	63.187
685.67	62.238
685.99	62.027
686.31	62.116
686.63	63.251
686.96	61.071
687.28	61.011
687.60	62.319
687.92	62.706
688.24	64.068
688.56	67.068
688.89	65.768
689.21	70.524
689.53	65.344
689.85	68.293
690.17	63.354
690.49	65.180
690.82	71.495
691.14	64.062
691.46	62.025
691.78	64.257
692.10	66.736
692.42	66.866
692.74	62.448
693.06	62.128
693.39	64.682
693.71	66.594
694.03	65.895
694.35	63.203
694.67	64.531
694.99	68.049
695.31	63.235
695.63	66.746
695.95	68.949
696.27	67.513
696.59	71.244
696.91	67.876
697.23	62.676
697.56	63.539
697.88	61.350
698.20	62.917
698.52	62.151
698.84	63.252
699.16	61.521
699.48	65.558
699.80	66.908
700.12	69.091
700.44	71.353
700.76	68.785
701.08	64.943
701.40	64.804
701.72	71.137
702.04	70.455
702.36	66.289
702.68	68.555
703.00	66.759
703.32	65.957
703.64	65.416
703.96	67.131
704.28	68.314
704.60	72.727
704.91	70.326
705.23	70.088
705.55	72.757
705.87	76.412
706.19	78.799
706.51	67.913
706.83	72.727
707.15	64.706
707.47	65.404
707.79	68.059
708.11	62.785
708.43	61.429
708.74	63.265
709.06	67.532
709.38	67.454
709.70	68.605
710.02	69.436
710.34	70.000
710.66	70.149
710.98	64.773
711.29	67.733
711.61	69.322
711.93	67.308
712.25	71.061
712.57	71.324
712.89	73.702
713.20	66.869
713.52	69.737
713.84	65.823
714.16	67.073
714.48	64.943
714.80	68.693
715.11	67.723
715.43	64.688
715.75	65.507
716.07	68.051
716.39	65.204
716.70	72.757
717.02	69.065
717.34	68.551
717.66	75.000
717.97	80.876
718.29	62.593
718.61	68.978
718.93	70.956
719.24	64.706
719.56	67.797
719.88	67.797
720.20	68.243
720.51	66.551
720.83	71.004
721.15	67.537
721.46	69.858
721.78	74.552
722.10	70.566
722.42	75.564
722.73	75.281
723.05	73.361
723.37	69.231
723.68	72.587
724.00	76.016
724.32	72.581
724.63	69.919
724.95	72.803
725.27	70.850
725.58	70.313
725.90	69.343
726.22	73.962
726.53	68.056
726.85	67.577
727.16	61.922
727.48	65.603
727.80	70.833
728.11	67.391
728.43	67.308
728.74	67.025
729.06	71.533
729.38	69.118
729.69	71.886
730.01	67.577
730.32	67.014
730.64	60.870
730.96	62.706
731.27	67.219
731.59	69.419
731.90	62.974
732.22	63.975
732.53	61.920
732.85	67.308
733.16	62.379
733.48	67.442
733.80	65.909
734.11	62.739
734.43	64.793
734.74	59.429
735.06	57.880
735.37	63.584
735.69	62.420
736.00	70.588
736.32	64.486
736.63	61.022
736.95	61.661
737.26	62.925
737.58	64.516
737.89	68.896
738.21	64.846
738.52	63.929
738.83	70.566
739.15	65.000
739.46	63.869
739.78	65.278
740.09	59.077
740.41	63.226
740.72	62.369
741.04	61.852
741.35	68.333
741.66	75.111
741.98	71.698
742.29	74.163
742.61	68.966
742.92	74.661
743.23	69.658
743.55	65.600
743.86	69.737
744.18	73.894
744.49	76.555
744.80	74.178
745.12	71.818
745.43	71.366
745.74	79.279
746.06	75.688
746.37	73.094
746.68	64.253
747.00	72.222
747.31	71.905
747.62	69.912
747.94	70.925
748.25	70.638
748.56	69.604
748.88	76.733
749.19	80.000
749.50	69.767
749.82	68.699
750.13	65.306
750.44	65.693
750.75	68.070
751.07	65.595
751.38	66.551
751.69	66.426
752.01	68.045
752.32	63.538
752.63	65.248
752.94	70.082
753.26	70.000
753.57	67.480
753.88	70.703
754.19	60.000
754.51	63.889
754.82	59.567
755.13	65.283
755.44	63.158
755.75	63.504
756.07	62.057
756.38	60.219
756.69	59.732
757.00	59.281
757.31	57.864
757.63	61.988
757.94	57.909
758.25	56.618
758.56	56.790
758.87	54.032
759.18	59.091
759.50	60.188
759.81	64.798
760.12	56.250
760.43	59.885
760.74	56.522
761.05	61.864
761.36	57.754
761.67	61.080
761.99	63.354
762.30	63.889
762.61	61.832
762.92	64.453
763.23	65.966
763.54	66.400
763.85	66.797
764.16	65.000
764.47	67.300
764.78	61.131
765.10	56.646
765.41	59.882
765.72	62.275
766.03	58.307
766.34	57.333
766.65	77.021
766.96	60.256
767.27	69.543
767.58	73.958
767.89	72.632
768.20	81.034
768.51	64.975
768.82	70.642
769.13	63.821
769.44	62.348
769.75	67.382
770.06	66.514
770.37	69.683
770.68	66.667
770.99	66.667
771.30	58.197
771.61	68.610
771.92	64.754
772.23	70.588
772.54	74.359
772.85	69.634
773.16	70.745
773.47	72.283
773.78	73.604
774.09	72.619
774.39	75.439
774.70	67.901
775.01	77.536
775.32	71.242
775.63	71.711
775.94	81.295
776.25	85.039
776.56	72.388
776.87	81.148
777.18	76.562
777.48	86.260
777.79	81.818
778.10	84.444
778.41	94.643
778.72	78.102
779.03	73.826
779.34	69.128
779.65	75.000
779.95	73.006
780.26	76.471
780.57	75.172
780.88	85.938
781.19	76.692
781.50	77.703
781.80	73.585
782.11	67.232
782.42	67.089
782.73	71.166
783.04	72.973
783.34	78.873
783.65	82.877
783.96	77.612
784.27	73.427
784.57	80.576
784.88	77.778
785.19	81.746
785.50	83.962
785.81	85.075
786.11	81.148
786.42	86.047
786.73	84.071
787.04	84.906
787.34	91.071
787.65	92.000
787.96	82.883
788.26	76.033
788.57	87.288
788.88	83.471
789.19	75.000
789.49	80.303
789.80	79.389
790.11	94.286
790.41	88.119
790.72	98.795
791.03	91.304
791.33	90.698
791.64	87.629
791.95	95.050
792.25	94.444
792.56	93.506
792.87	108.974
793.17	116.456
793.48	97.701
793.79	94.253
794.09	96.591
794.40	75.630
794.70	76.471
795.01	70.370
795.32	75.540
795.62	74.016
795.93	87.931
796.23	81.416
796.54	88.235
796.85	94.595
797.15	112.676
797.46	104.545
797.76	91.566
798.07	98.734
798.37	118.462
798.68	92.424
798.99	98.592
799.29	93.506
799.60	73.864
799.90	97.260
800.21	116.418
800.51	127.586
800.82	115.789
801.12	122.951
801.43	116.667
801.73	90.541
802.04	114.286
802.34	96.296
802.65	109.375
802.95	137.288
803.26	109.375
803.56	81.429
803.87	107.692
804.17	113.235
804.48	125.926
804.78	96.552
805.09	105.882
805.39	134.615
805.70	103.571
806.00	121.311
806.30	103.030
806.61	98.780
806.91	100.000
807.22	97.368
807.52	88.060
807.83	97.183
808.13	117.187
808.43	113.333
808.74	84.211
809.04	110.145
809.35	114.925
809.65	94.737
809.95	119.355
810.26	110.169
810.56	100.000
810.86	138.636
811.17	147.619
811.47	121.667
811.77	124.074
812.08	121.818
812.38	114.000
812.69	186.111
812.99	147.727
813.29	120.408
813.59	119.048
813.90	140.816
814.20	136.364
814.50	92.308
814.81	104.412
815.11	126.531
815.41	95.082
815.72	164.286
816.02	118.182
816.32	119.048
816.62	122.500
816.93	121.951
817.23	130.952
817.53	138.636
817.84	172.727
818.14	115.217
818.44	122.222
818.74	141.176
819.04	147.500
819.35	168.571
819.65	167.647
819.95	196.429
820.25	265.000
820.56	153.846
820.86	136.364
821.16	144.186
821.46	123.077
821.76	144.000
822.07	157.143
822.37	127.500
822.67	163.636
822.97	119.608
823.27	185.714
823.57	118.919
823.88	152.500
824.18	190.000
824.48	166.667
824.78	236.000
825.08	162.500
825.38	172.973
825.69	117.073
825.99	208.333
826.29	189.655
826.59	152.632
826.89	147.368
827.19	144.118
827.49	177.419
827.79	154.545
828.09	129.545
828.39	108.511
828.70	151.020
829.00	174.074
829.30	135.484
829.60	115.000
829.90	353.333
830.20	185.714
830.50	200.000
830.80	186.957
831.10	190.000
831.40	186.667
831.70	182.609
832.00	226.923
832.30	125.926
832.60	293.750
832.90	196.667
833.20	378.571
833.50	196.774
833.80	206.897
834.10	200.000
834.40	200.000
834.70	238.889
835.00	280.952
835.30	140.000
835.60	346.154
835.90	200.000
836.20	307.143
836.50	165.517
836.80	196.000
837.10	191.667
837.40	219.048
837.70	294.118
838.00	207.407
838.30	219.048
838.60	300.000
838.90	203.846
839.19	260.000
839.49	357.143
839.79	305.000
840.09	240.000
840.39	200.000
840.69	230.435
840.99	272.222
841.29	480.000
841.59	300.000
841.88	368.750
842.18	165.517
842.48	247.619
842.78	160.000
843.08	191.304
843.38	162.500
843.68	816.667
843.97	180.769
844.27	172.414
844.57	271.429
844.87	331.250
845.17	192.593
845.47	1266.667
845.76	433.333
846.06	247.059
846.36	500.000
846.66	314.286
846.96	218.750
847.25	327.273
847.55	363.636
847.85	200.000
848.15	380.000
848.44	335.714
848.74	227.778
849.04	311.765
849.34	410.000
849.63	242.105
849.93	400.000
850.23	700.000
850.53	342.857
850.82	1550.000
851.12	-4100.000
851.42	3600.000
851.71	270.000
852.01	-1266.667
852.31	170.833
852.61	1466.667
852.90	252.381
853.20	208.000
853.50	288.235
853.79	261.905
854.09	162.500
854.39	306.250
854.68	183.784
854.98	164.516
855.28	150.000
855.57	203.448
855.87	218.519
856.17	205.263
856.46	253.333
856.76	258.824
857.05	210.345
857.35	183.333
857.65	293.333
857.94	217.391
858.24	192.308
858.53	265.000
858.83	200.000
859.13	306.667
859.42	0.000
859.72	411.111
860.01	363.636
860.31	268.182
860.60	231.579
860.90	165.217
861.20	500.000
861.49	458.333
861.79	-4200.000
862.08	412.500
862.38	247.619
862.67	330.769
862.97	282.353
863.26	444.444
863.56	238.889
863.85	341.667
864.15	362.500
864.44	320.000
864.74	533.333
865.03	512.500
865.33	257.895
865.62	445.455
865.92	346.154
866.21	291.667
866.51	0.000
866.80	336.364
867.10	1020.000
867.39	346.154
867.69	372.727
867.98	189.474
868.27	400.000
868.57	321.053
868.86	-4200.000
869.16	287.500
869.45	1850.000
869.75	-3400.000
870.04	391.667
870.33	500.000
870.63	775.000
870.92	2200.000
871.22	428.571
871.51	258.824
871.80	171.429
872.10	335.714
>>>>>End Processed Spectral Data<<<<<
