SpectraSuite Data File
++++++++++++++++++++++++++++++++++++
Date: Wed May 13 16:56:14 PDT 2015
User: schluterlab
Dark Spectrum Present: Yes
Reference Spectrum Present: Yes
Number of Sampled Component Spectra: 1
Spectrometers: USB2E3373
Integration Time (usec): 3000 (USB2E3373)
Spectra Averaged: 3 (USB2E3373)
Boxcar Smoothing: 0 (USB2E3373)
Correct for Electrical Dark: No (USB2E3373)
Strobe/Lamp Enabled: No (USB2E3373)
Correct for Detector Non-linearity: No (USB2E3373)
Correct for Stray Light: No (USB2E3373)
Number of Pixels in Processed Spectrum: 2048
>>>>>Begin Processed Spectral Data<<<<<
178.53	0.000
178.91	-1025.000
179.29	-1250.000
179.67	-238.889
180.04	-1075.000
180.42	2250.000
180.80	1080.000
181.18	-1075.000
181.56	700.000
181.94	0.000
182.31	-700.000
182.69	1700.000
183.07	-587.500
183.45	-600.000
183.83	509.091
184.20	-410.000
184.58	2250.000
184.96	4900.000
185.34	-900.000
185.72	-600.000
186.09	-2700.000
186.47	2150.000
186.85	2500.000
187.23	5100.000
187.61	-1666.667
187.98	1150.000
188.36	545.455
188.74	509.091
189.12	-980.000
189.49	600.000
189.87	-5400.000
190.25	-1325.000
190.63	428.571
191.00	423.077
191.38	833.333
191.76	-1200.000
192.14	1300.000
192.51	637.500
192.89	916.667
193.27	612.500
193.65	-925.000
194.02	480.000
194.40	1140.000
194.78	570.000
195.15	450.000
195.53	570.000
195.91	-2950.000
196.29	375.000
196.66	326.316
197.04	-350.000
197.42	0.000
197.79	650.000
198.17	-4700.000
198.55	628.571
198.92	600.000
199.30	1160.000
199.68	0.000
200.05	350.000
200.43	871.429
200.81	3700.000
201.18	1700.000
201.56	-1600.000
201.94	555.556
202.31	622.222
202.69	425.000
203.07	520.000
203.44	0.000
203.82	1400.000
204.19	828.571
204.57	478.571
204.95	600.000
205.32	1933.333
205.70	536.364
206.08	385.714
206.45	2600.000
206.83	306.250
207.20	1033.333
207.58	700.000
207.96	294.444
208.33	650.000
208.71	-833.333
209.08	857.143
209.46	677.778
209.84	490.909
210.21	-1333.333
210.59	1450.000
210.96	-525.000
211.34	2800.000
211.71	600.000
212.09	916.667
212.46	0.000
212.84	1433.333
213.22	1350.000
213.59	-5500.000
213.97	816.667
214.34	700.000
214.72	572.727
215.09	1080.000
215.47	-2150.000
215.84	-2400.000
216.22	1566.667
216.59	385.714
216.97	1275.000
217.34	427.273
217.72	-633.333
218.09	0.000
218.47	-5000.000
218.84	655.556
219.22	685.714
219.59	1666.667
219.97	-628.571
220.34	1000.000
220.72	-1866.667
221.09	421.429
221.47	1375.000
221.84	-883.333
222.22	0.000
222.59	1350.000
222.97	-2650.000
223.34	980.000
223.72	407.692
224.09	1120.000
224.46	1950.000
224.84	-4900.000
225.21	-1020.000
225.59	-4700.000
225.96	540.000
226.34	290.000
226.71	2400.000
227.08	662.500
227.46	530.000
227.83	-1175.000
228.21	-1900.000
228.58	522.222
228.95	-2300.000
229.33	-2500.000
229.70	1466.667
230.08	742.857
230.45	-860.000
230.82	458.333
231.20	933.333
231.57	685.714
231.95	491.667
232.32	250.000
232.69	445.455
233.07	628.571
233.44	369.231
233.81	-1866.667
234.19	257.895
234.56	441.667
234.93	408.333
235.31	400.000
235.68	300.000
236.05	307.143
236.43	151.515
236.80	252.632
237.17	3600.000
237.55	238.095
237.92	203.571
238.29	209.524
238.67	158.065
239.04	217.241
239.41	133.333
239.79	100.000
240.16	102.381
240.53	138.636
240.91	84.314
241.28	120.000
241.65	84.000
242.02	78.261
242.40	88.710
242.77	75.000
243.14	60.215
243.51	71.910
243.89	63.529
244.26	58.889
244.63	53.763
245.00	53.191
245.38	52.475
245.75	46.729
246.12	35.780
246.49	54.015
246.87	50.400
247.24	52.308
247.61	45.000
247.98	41.830
248.36	34.459
248.73	43.312
249.10	43.312
249.47	35.028
249.84	33.690
250.22	31.016
250.59	37.278
250.96	34.848
251.33	30.806
251.70	33.663
252.08	33.810
252.45	29.148
252.82	26.087
253.19	28.936
253.56	27.059
253.94	29.046
254.31	30.469
254.68	30.385
255.05	28.413
255.42	24.390
255.79	26.838
256.16	28.520
256.54	24.735
256.91	24.555
257.28	21.223
257.65	21.782
258.02	24.534
258.39	25.552
258.76	23.077
259.14	21.726
259.51	19.453
259.88	19.876
260.25	22.356
260.62	21.676
260.99	21.118
261.36	22.823
261.73	21.490
262.10	21.221
262.47	21.972
262.85	20.334
263.22	18.803
263.59	22.222
263.96	17.033
264.33	21.410
264.70	18.947
265.07	20.205
265.44	18.434
265.81	15.815
266.18	19.598
266.55	17.805
266.92	18.182
267.29	19.907
267.66	17.431
268.03	18.864
268.40	18.692
268.77	16.468
269.14	17.793
269.51	18.736
269.88	19.114
270.25	17.607
270.62	17.303
270.99	20.215
271.36	19.957
271.73	16.822
272.10	16.522
272.47	18.925
272.84	17.965
273.21	18.239
273.58	15.502
273.95	16.352
274.32	16.116
274.69	15.418
275.06	14.961
275.43	16.170
275.80	15.832
276.17	16.090
276.54	15.177
276.91	15.217
277.28	15.820
277.65	15.861
278.02	14.286
278.39	18.750
278.76	15.818
279.13	14.717
279.50	18.250
279.87	17.131
280.23	15.968
280.60	13.733
280.97	14.418
281.34	17.345
281.71	15.273
282.08	16.507
282.45	16.545
282.82	15.453
283.19	11.943
283.56	14.035
283.92	15.567
284.29	14.286
284.66	16.515
285.03	14.105
285.40	14.613
285.77	13.636
286.14	13.644
286.51	15.500
286.87	14.017
287.24	13.681
287.61	13.804
287.98	15.584
288.35	14.580
288.72	14.642
289.08	15.806
289.45	13.839
289.82	14.472
290.19	12.716
290.56	13.017
290.93	12.991
291.29	16.411
291.66	13.864
292.03	15.407
292.40	14.684
292.77	10.355
293.13	12.985
293.50	13.265
293.87	13.481
294.24	13.185
294.60	11.354
294.97	13.517
295.34	13.540
295.71	12.074
296.08	12.963
296.44	12.517
296.81	10.964
297.18	12.737
297.55	10.818
297.91	10.686
298.28	12.584
298.65	12.533
299.02	12.385
299.38	12.749
299.75	10.108
300.12	10.345
300.48	11.375
300.85	11.961
301.22	9.936
301.59	11.237
301.95	10.705
302.32	10.655
302.69	11.470
303.05	11.515
303.42	9.506
303.79	11.665
304.15	11.305
304.52	10.313
304.89	10.918
305.25	11.021
305.62	11.891
305.99	11.098
306.35	10.962
306.72	10.987
307.09	11.432
307.45	11.486
307.82	10.045
308.19	11.479
308.55	10.464
308.92	10.741
309.29	9.926
309.65	9.968
310.02	10.888
310.38	11.505
310.75	9.504
311.12	11.054
311.48	11.181
311.85	11.216
312.22	11.030
312.58	9.979
312.95	12.460
313.31	10.097
313.68	10.915
314.05	11.933
314.41	13.065
314.78	11.782
315.14	10.129
315.51	12.667
315.87	11.782
316.24	11.917
316.61	10.624
316.97	11.057
317.34	11.057
317.70	12.046
318.07	11.261
318.43	12.035
318.80	12.746
319.16	12.241
319.53	11.069
319.89	12.762
320.26	12.700
320.62	11.706
320.99	12.424
321.35	12.929
321.72	13.450
322.08	12.833
322.45	14.826
322.81	13.760
323.18	13.584
323.54	13.451
323.91	14.057
324.27	13.480
324.64	12.861
325.00	13.345
325.37	13.922
325.73	14.632
326.10	12.798
326.46	12.545
326.83	13.115
327.19	13.578
327.56	14.547
327.92	13.648
328.29	13.753
328.65	13.812
329.01	14.079
329.38	13.876
329.74	14.681
330.11	13.101
330.47	13.866
330.84	15.074
331.20	13.934
331.56	14.220
331.93	13.889
332.29	15.350
332.66	14.867
333.02	14.260
333.38	14.453
333.75	14.528
334.11	14.235
334.48	13.665
334.84	12.960
335.20	14.364
335.57	12.511
335.93	13.661
336.29	12.179
336.66	14.427
337.02	12.941
337.38	14.907
337.75	12.567
338.11	13.250
338.47	13.720
338.84	13.932
339.20	12.477
339.56	13.777
339.93	13.818
340.29	13.587
340.65	13.012
341.02	13.874
341.38	13.790
341.74	13.421
342.11	14.585
342.47	13.040
342.83	13.527
343.20	14.199
343.56	12.553
343.92	13.158
344.28	12.245
344.65	13.758
345.01	12.374
345.37	12.693
345.73	13.959
346.10	13.384
346.46	12.966
346.82	14.168
347.19	13.534
347.55	14.122
347.91	13.835
348.27	14.133
348.63	14.298
349.00	12.864
349.36	13.875
349.72	14.034
350.08	12.966
350.45	12.449
350.81	13.323
351.17	13.938
351.53	13.022
351.89	13.614
352.26	13.970
352.62	14.274
352.98	13.128
353.34	13.229
353.70	13.011
354.07	12.661
354.43	13.810
354.79	11.746
355.15	13.567
355.51	14.149
355.87	14.367
356.24	13.355
356.60	13.953
356.96	13.194
357.32	13.328
357.68	14.016
358.04	13.460
358.40	14.568
358.77	14.241
359.13	13.339
359.49	13.725
359.85	12.063
360.21	12.520
360.57	14.241
360.93	14.231
361.29	13.454
361.66	13.622
362.02	14.403
362.38	13.688
362.74	13.765
363.10	13.249
363.46	13.280
363.82	14.210
364.18	13.510
364.54	15.007
364.90	13.881
365.26	13.971
365.62	13.806
365.98	13.148
366.35	12.894
366.71	13.666
367.07	13.401
367.43	14.224
367.79	15.132
368.15	14.727
368.51	12.863
368.87	14.204
369.23	14.265
369.59	14.989
369.95	13.824
370.31	14.601
370.67	13.623
371.03	15.281
371.39	13.703
371.75	14.926
372.11	14.651
372.47	15.029
372.83	15.274
373.19	14.234
373.55	14.486
373.91	15.685
374.27	15.395
374.63	13.600
374.99	14.760
375.35	14.375
375.71	15.079
376.07	15.364
376.42	15.750
376.78	16.103
377.14	14.925
377.50	15.629
377.86	15.160
378.22	15.866
378.58	15.100
378.94	15.085
379.30	15.267
379.66	16.244
380.02	16.339
380.38	15.543
380.74	15.606
381.09	16.687
381.45	16.902
381.81	17.015
382.17	16.624
382.53	16.478
382.89	17.037
383.25	16.010
383.61	17.472
383.97	17.323
384.32	16.906
384.68	16.481
385.04	16.779
385.40	15.789
385.76	16.646
386.12	16.645
386.48	18.125
386.83	17.062
387.19	18.120
387.55	18.553
387.91	17.775
388.27	17.658
388.62	18.132
388.98	17.260
389.34	19.149
389.70	18.700
390.06	19.011
390.42	18.677
390.77	19.466
391.13	18.762
391.49	17.576
391.85	18.905
392.20	18.423
392.56	18.434
392.92	18.599
393.28	17.988
393.64	18.585
393.99	18.204
394.35	18.176
394.71	19.448
395.07	18.692
395.42	18.850
395.78	19.211
396.14	19.801
396.50	19.236
396.85	19.517
397.21	18.927
397.57	17.979
397.92	19.231
398.28	18.778
398.64	19.295
399.00	18.635
399.35	18.331
399.71	19.039
400.07	19.870
400.42	19.325
400.78	19.300
401.14	18.780
401.49	18.985
401.85	18.996
402.21	18.683
402.57	19.062
402.92	18.979
403.28	19.738
403.63	19.059
403.99	19.554
404.35	18.970
404.70	19.365
405.06	18.870
405.42	19.526
405.77	18.514
406.13	18.172
406.49	19.160
406.84	19.551
407.20	18.499
407.55	19.655
407.91	19.200
408.27	19.145
408.62	18.423
408.98	18.260
409.34	18.143
409.69	19.742
410.05	19.765
410.40	19.144
410.76	19.116
411.11	19.542
411.47	19.361
411.83	18.387
412.18	18.862
412.54	18.742
412.89	18.795
413.25	18.595
413.60	18.962
413.96	18.397
414.31	18.834
414.67	19.011
415.03	18.940
415.38	19.523
415.74	18.778
416.09	18.746
416.45	18.675
416.80	19.101
417.16	19.504
417.51	18.978
417.87	18.882
418.22	18.991
418.58	19.109
418.93	18.489
419.29	18.778
419.64	19.081
420.00	19.024
420.35	18.377
420.71	19.307
421.06	18.138
421.42	18.070
421.77	18.946
422.12	18.248
422.48	17.917
422.83	18.346
423.19	18.453
423.54	17.586
423.90	19.246
424.25	18.425
424.61	18.452
424.96	18.950
425.31	18.605
425.67	17.697
426.02	18.286
426.38	19.292
426.73	18.373
427.09	18.298
427.44	18.976
427.79	17.999
428.15	19.345
428.50	18.198
428.85	18.951
429.21	17.946
429.56	17.937
429.92	18.017
430.27	18.322
430.62	17.665
430.98	18.007
431.33	18.144
431.68	18.743
432.04	18.211
432.39	18.332
432.74	18.791
433.10	19.072
433.45	18.776
433.80	18.016
434.16	18.002
434.51	18.474
434.86	18.301
435.22	17.899
435.57	18.176
435.92	18.373
436.28	18.565
436.63	19.371
436.98	18.203
437.34	18.605
437.69	18.436
438.04	18.044
438.39	18.627
438.75	18.710
439.10	18.324
439.45	18.359
439.81	18.308
440.16	18.351
440.51	18.336
440.86	19.108
441.22	18.632
441.57	18.206
441.92	18.117
442.27	17.922
442.63	18.220
442.98	18.704
443.33	17.554
443.68	17.759
444.03	18.204
444.39	17.283
444.74	17.803
445.09	18.221
445.44	17.551
445.79	17.813
446.15	18.105
446.50	17.717
446.85	17.883
447.20	17.950
447.55	18.314
447.91	17.705
448.26	18.475
448.61	17.524
448.96	18.549
449.31	18.898
449.66	18.177
450.02	17.604
450.37	18.254
450.72	17.428
451.07	17.672
451.42	16.960
451.77	18.438
452.12	18.014
452.47	17.786
452.83	17.308
453.18	17.787
453.53	18.244
453.88	18.252
454.23	17.992
454.58	18.716
454.93	18.754
455.28	17.456
455.63	17.718
455.98	18.929
456.34	18.405
456.69	18.347
457.04	17.957
457.39	17.300
457.74	17.644
458.09	18.114
458.44	18.358
458.79	16.703
459.14	18.341
459.49	17.747
459.84	17.618
460.19	17.207
460.54	16.956
460.89	17.170
461.24	17.486
461.59	19.059
461.94	17.941
462.29	17.151
462.64	17.486
462.99	17.502
463.34	18.200
463.69	18.074
464.04	17.739
464.39	17.333
464.74	17.469
465.09	17.310
465.44	16.454
465.79	16.834
466.14	16.913
466.49	16.018
466.84	16.871
467.19	17.683
467.54	17.500
467.89	17.407
468.24	16.928
468.59	17.643
468.94	16.555
469.29	16.452
469.64	17.403
469.99	17.456
470.34	16.645
470.68	17.529
471.03	16.871
471.38	17.929
471.73	17.588
472.08	17.895
472.43	17.337
472.78	17.380
473.13	18.228
473.48	17.291
473.83	16.890
474.17	16.677
474.52	17.494
474.87	16.871
475.22	16.889
475.57	16.067
475.92	16.357
476.27	16.573
476.61	17.209
476.96	15.888
477.31	15.856
477.66	16.849
478.01	15.944
478.36	16.658
478.70	15.680
479.05	16.667
479.40	16.274
479.75	16.065
480.10	15.855
480.45	15.707
480.79	15.958
481.14	15.949
481.49	16.327
481.84	16.004
482.19	15.766
482.53	15.872
482.88	14.844
483.23	15.561
483.58	15.787
483.92	15.933
484.27	14.989
484.62	15.216
484.97	15.215
485.31	15.000
485.66	14.725
486.01	13.780
486.36	13.181
486.70	12.903
487.05	13.239
487.40	13.713
487.75	14.102
488.09	14.195
488.44	14.276
488.79	14.720
489.13	15.126
489.48	14.682
489.83	14.545
490.17	14.993
490.52	14.925
490.87	15.197
491.22	15.371
491.56	14.989
491.91	14.518
492.26	14.653
492.60	15.253
492.95	14.546
493.30	14.533
493.64	14.746
493.99	14.531
494.34	14.709
494.68	14.927
495.03	15.226
495.37	15.589
495.72	14.912
496.07	15.499
496.41	14.912
496.76	14.468
497.11	14.723
497.45	15.417
497.80	15.067
498.14	14.686
498.49	14.829
498.84	14.621
499.18	14.667
499.53	15.480
499.87	14.958
500.22	15.309
500.56	15.534
500.91	14.087
501.26	14.557
501.60	15.282
501.95	14.574
502.29	15.183
502.64	14.944
502.98	14.399
503.33	14.442
503.67	14.803
504.02	14.687
504.36	14.693
504.71	14.949
505.06	14.554
505.40	13.904
505.75	14.947
506.09	14.626
506.44	15.343
506.78	14.369
507.13	14.942
507.47	14.545
507.82	15.400
508.16	14.691
508.51	14.764
508.85	14.449
509.19	14.439
509.54	14.847
509.88	14.786
510.23	14.756
510.57	15.531
510.92	14.552
511.26	14.286
511.61	15.249
511.95	14.353
512.30	14.846
512.64	14.723
512.98	15.702
513.33	16.113
513.67	14.194
514.02	14.394
514.36	15.674
514.70	14.831
515.05	15.059
515.39	15.031
515.74	14.583
516.08	15.204
516.42	15.205
516.77	15.831
517.11	14.484
517.46	15.463
517.80	14.750
518.14	14.013
518.49	15.986
518.83	15.455
519.17	15.935
519.52	14.771
519.86	15.060
520.20	15.029
520.55	15.560
520.89	16.058
521.23	15.983
521.58	15.246
521.92	15.677
522.26	14.521
522.61	15.202
522.95	15.347
523.29	15.094
523.64	14.939
523.98	15.465
524.32	15.320
524.66	15.695
525.01	14.890
525.35	14.994
525.69	15.209
526.04	16.012
526.38	15.131
526.72	14.969
527.06	15.317
527.41	13.861
527.75	15.691
528.09	15.864
528.43	14.659
528.78	15.734
529.12	15.455
529.46	15.432
529.80	15.161
530.15	16.137
530.49	14.954
530.83	15.190
531.17	15.796
531.51	15.888
531.86	16.000
532.20	16.558
532.54	15.695
532.88	15.469
533.22	14.928
533.57	16.235
533.91	14.329
534.25	15.249
534.59	15.009
534.93	14.991
535.27	15.510
535.62	14.957
535.96	15.066
536.30	14.749
536.64	15.712
536.98	15.328
537.32	14.681
537.66	14.933
538.01	15.668
538.35	15.255
538.69	15.763
539.03	14.165
539.37	14.185
539.71	14.064
540.05	13.856
540.39	14.286
540.73	14.942
541.07	15.250
541.42	15.134
541.76	15.871
542.10	14.877
542.44	15.033
542.78	15.152
543.12	14.651
543.46	15.082
543.80	14.769
544.14	13.800
544.48	15.048
544.82	14.368
545.16	14.899
545.50	14.974
545.84	15.054
546.18	14.882
546.52	15.829
546.86	14.296
547.20	15.307
547.54	15.297
547.88	15.115
548.22	14.321
548.56	14.591
548.90	14.597
549.24	14.545
549.58	14.256
549.92	15.110
550.26	14.702
550.60	14.938
550.94	14.155
551.28	14.850
551.62	14.953
551.96	14.877
552.30	14.608
552.64	15.078
552.98	15.390
553.32	15.239
553.66	14.997
554.00	13.933
554.34	14.079
554.68	15.665
555.02	14.880
555.36	14.962
555.69	14.344
556.03	14.670
556.37	14.325
556.71	14.666
557.05	14.916
557.39	14.136
557.73	14.891
558.07	14.503
558.41	14.544
558.75	14.475
559.08	14.616
559.42	14.588
559.76	15.368
560.10	14.133
560.44	15.164
560.78	14.438
561.12	14.116
561.45	14.342
561.79	14.239
562.13	14.554
562.47	14.003
562.81	13.459
563.15	14.381
563.48	14.456
563.82	13.699
564.16	14.061
564.50	13.867
564.84	13.338
565.17	14.093
565.51	15.016
565.85	14.086
566.19	13.463
566.52	13.680
566.86	14.105
567.20	14.446
567.54	13.642
567.88	13.199
568.21	13.439
568.55	13.802
568.89	12.208
569.23	13.057
569.56	12.591
569.90	12.113
570.24	12.235
570.57	12.037
570.91	11.797
571.25	11.705
571.59	11.723
571.92	11.665
572.26	11.496
572.60	11.772
572.93	11.754
573.27	11.713
573.61	11.669
573.95	11.292
574.28	11.307
574.62	11.297
574.96	10.705
575.29	10.936
575.63	11.001
575.97	11.221
576.30	11.418
576.64	11.246
576.98	11.181
577.31	11.252
577.65	10.901
577.98	11.078
578.32	10.703
578.66	10.839
578.99	11.025
579.33	11.014
579.67	11.092
580.00	11.076
580.34	11.343
580.67	10.919
581.01	11.356
581.35	10.902
581.68	11.028
582.02	10.513
582.35	10.506
582.69	10.707
583.02	10.881
583.36	11.229
583.70	11.439
584.03	11.024
584.37	11.673
584.70	11.050
585.04	11.448
585.37	10.624
585.71	11.349
586.04	11.186
586.38	11.364
586.72	11.323
587.05	11.464
587.39	11.214
587.72	11.389
588.06	10.993
588.39	11.385
588.73	11.528
589.06	11.374
589.40	12.121
589.73	11.580
590.07	11.637
590.40	11.765
590.73	11.827
591.07	12.169
591.40	12.189
591.74	12.424
592.07	12.478
592.41	12.071
592.74	11.835
593.08	11.726
593.41	11.420
593.75	11.024
594.08	11.700
594.41	12.124
594.75	11.238
595.08	12.062
595.42	12.154
595.75	10.897
596.09	11.416
596.42	12.141
596.75	12.073
597.09	12.338
597.42	12.437
597.75	11.988
598.09	12.348
598.42	12.027
598.76	12.039
599.09	11.859
599.42	11.608
599.76	11.420
600.09	11.475
600.42	11.395
600.76	11.179
601.09	11.548
601.42	11.986
601.76	11.651
602.09	11.858
602.42	12.500
602.76	12.132
603.09	12.116
603.42	11.988
603.76	11.776
604.09	11.361
604.42	11.822
604.76	12.189
605.09	12.014
605.42	12.099
605.75	12.045
606.09	11.265
606.42	11.729
606.75	11.987
607.09	12.055
607.42	11.896
607.75	11.435
608.08	11.550
608.42	12.326
608.75	11.993
609.08	12.165
609.41	12.185
609.75	12.292
610.08	12.535
610.41	11.918
610.74	11.542
611.07	12.549
611.41	12.267
611.74	12.921
612.07	12.422
612.40	12.539
612.73	11.895
613.07	12.392
613.40	13.007
613.73	12.113
614.06	12.258
614.39	12.323
614.72	12.526
615.06	12.553
615.39	12.314
615.72	12.628
616.05	12.600
616.38	12.618
616.71	12.292
617.05	13.133
617.38	12.688
617.71	12.432
618.04	12.800
618.37	12.833
618.70	13.006
619.03	13.882
619.36	13.646
619.69	13.169
620.03	14.148
620.36	12.567
620.69	13.904
621.02	13.422
621.35	13.939
621.68	13.863
622.01	13.700
622.34	13.918
622.67	13.004
623.00	13.720
623.33	13.224
623.66	14.010
623.99	12.813
624.32	12.839
624.65	12.571
624.99	12.819
625.32	13.324
625.65	13.824
625.98	14.220
626.31	13.686
626.64	14.449
626.97	13.882
627.30	14.298
627.63	14.110
627.96	14.130
628.29	14.873
628.62	13.907
628.95	15.000
629.28	14.416
629.61	14.940
629.94	15.143
630.26	14.299
630.59	14.204
630.92	13.027
631.25	15.400
631.58	14.014
631.91	14.909
632.24	15.401
632.57	15.005
632.90	14.583
633.23	15.548
633.56	16.497
633.89	16.648
634.22	16.118
634.55	15.621
634.88	15.569
635.20	16.487
635.53	17.108
635.86	15.470
636.19	15.882
636.52	14.648
636.85	16.266
637.18	15.553
637.51	17.021
637.83	14.180
638.16	16.624
638.49	16.751
638.82	16.814
639.15	16.625
639.48	17.830
639.81	17.426
640.13	15.755
640.46	16.107
640.79	17.041
641.12	15.681
641.45	15.223
641.77	16.495
642.10	16.082
642.43	16.967
642.76	17.337
643.09	16.104
643.41	16.995
643.74	19.136
644.07	18.445
644.40	20.092
644.73	17.953
645.05	18.067
645.38	19.115
645.71	17.552
646.04	17.110
646.36	18.865
646.69	18.395
647.02	17.857
647.35	16.667
647.67	16.991
648.00	17.886
648.33	17.492
648.66	16.212
648.98	19.490
649.31	15.994
649.64	15.994
649.96	16.393
650.29	16.746
650.62	17.314
650.94	19.935
651.27	21.284
651.60	19.301
651.92	20.447
652.25	16.775
652.58	15.576
652.90	17.694
653.23	17.103
653.56	17.323
653.88	17.116
654.21	18.641
654.54	18.152
654.86	17.445
655.19	15.811
655.52	10.759
655.84	8.098
656.17	10.104
656.49	13.577
656.82	13.843
657.15	10.795
657.47	7.943
657.80	6.319
658.13	6.715
658.45	10.277
658.78	10.455
659.10	11.126
659.43	12.219
659.75	12.550
660.08	13.418
660.41	15.270
660.73	18.551
661.06	16.242
661.38	19.818
661.71	19.423
662.03	20.316
662.36	18.290
662.68	19.478
663.01	21.212
663.33	20.382
663.66	19.958
663.98	19.654
664.31	21.639
664.63	19.636
664.96	17.706
665.28	22.336
665.61	18.324
665.93	17.505
666.26	19.473
666.58	21.339
666.91	20.296
667.23	20.449
667.56	20.302
667.88	21.154
668.21	21.962
668.53	19.306
668.86	19.913
669.18	24.733
669.50	19.130
669.83	21.786
670.15	21.333
670.48	22.440
670.80	20.905
671.13	21.444
671.45	20.426
671.77	19.552
672.10	19.409
672.42	18.021
672.75	15.920
673.07	16.549
673.39	18.987
673.72	17.578
674.04	17.451
674.37	16.699
674.69	17.791
675.01	18.201
675.34	23.203
675.66	20.211
675.98	18.737
676.31	22.269
676.63	20.594
676.95	18.449
677.28	18.458
677.60	19.121
677.92	23.207
678.25	21.766
678.57	20.120
678.89	18.236
679.22	18.075
679.54	17.939
679.86	23.853
680.18	17.710
680.51	19.504
680.83	17.438
681.15	20.566
681.48	19.660
681.80	18.956
682.12	18.966
682.44	18.956
682.77	18.941
683.09	20.172
683.41	21.286
683.73	20.309
684.06	20.248
684.38	18.982
684.70	19.961
685.02	20.450
685.34	18.315
685.67	18.182
685.99	16.323
686.31	16.553
686.63	17.845
686.96	16.786
687.28	18.231
687.60	18.659
687.92	17.916
688.24	19.202
688.56	19.478
688.89	20.124
689.21	21.397
689.53	19.207
689.85	21.508
690.17	19.876
690.49	22.505
690.82	20.327
691.14	19.866
691.46	18.565
691.78	18.675
692.10	19.835
692.42	20.160
692.74	17.427
693.06	19.787
693.39	19.918
693.71	16.812
694.03	21.684
694.35	20.346
694.67	20.824
694.99	19.756
695.31	19.363
695.63	20.813
695.95	22.494
696.27	18.782
696.59	20.466
696.91	19.948
697.23	18.075
697.56	22.175
697.88	18.814
698.20	18.750
698.52	18.280
698.84	19.599
699.16	19.124
699.48	18.765
699.80	20.048
700.12	23.636
700.44	22.281
700.76	22.652
701.08	22.989
701.40	23.743
701.72	24.198
702.04	26.705
702.36	21.530
702.68	22.663
703.00	22.715
703.32	22.340
703.64	21.984
703.96	25.070
704.28	23.837
704.60	21.994
704.91	26.113
705.23	23.460
705.55	26.246
705.87	26.910
706.19	22.615
706.51	24.299
706.83	27.273
707.15	24.370
707.47	22.222
707.79	22.850
708.11	21.918
708.43	19.524
708.74	20.918
709.06	24.156
709.38	24.147
709.70	23.256
710.02	23.442
710.34	21.515
710.66	24.776
710.98	23.580
711.29	22.384
711.61	26.844
711.93	25.000
712.25	27.331
712.57	22.059
712.89	25.952
713.20	27.660
713.52	28.289
713.84	23.101
714.16	22.561
714.48	23.851
714.80	24.012
715.11	22.767
715.43	19.585
715.75	22.609
716.07	22.045
716.39	21.630
716.70	24.252
717.02	26.619
717.34	27.915
717.66	29.851
717.97	27.092
718.29	30.000
718.61	27.737
718.93	26.103
719.24	26.298
719.56	25.763
719.88	27.119
720.20	30.068
720.51	24.739
720.83	25.279
721.15	23.134
721.46	28.014
721.78	29.032
722.10	28.302
722.42	28.195
722.73	25.468
723.05	25.000
723.37	27.126
723.68	29.344
724.00	26.829
724.32	31.048
724.63	26.423
724.95	27.615
725.27	31.579
725.58	29.687
725.90	27.737
726.22	21.509
726.53	27.431
726.85	27.645
727.16	25.623
727.48	21.986
727.80	30.682
728.11	26.812
728.43	24.615
728.74	25.806
729.06	30.657
729.38	30.147
729.69	26.335
730.01	22.184
730.32	27.778
730.64	25.084
730.96	22.772
731.27	26.159
731.59	25.688
731.90	23.324
732.22	24.534
732.53	21.053
732.85	30.128
733.16	25.402
733.48	25.914
733.80	25.000
734.11	25.478
734.43	25.444
734.74	20.571
735.06	21.777
735.37	22.254
735.69	21.656
736.00	26.797
736.32	26.168
736.63	23.642
736.95	30.032
737.26	23.129
737.58	22.581
737.89	26.087
738.21	26.621
738.52	24.286
738.83	23.774
739.15	23.462
739.46	24.088
739.78	23.264
740.09	25.846
740.41	27.419
740.72	25.784
741.04	27.037
741.35	26.667
741.66	33.333
741.98	26.415
742.29	33.014
742.61	35.345
742.92	32.127
743.23	31.624
743.55	26.000
743.86	31.140
744.18	33.628
744.49	35.885
744.80	30.047
745.12	39.545
745.43	32.159
745.74	35.135
746.06	32.569
746.37	32.735
746.68	32.127
747.00	37.037
747.31	31.429
747.62	26.106
747.94	30.396
748.25	27.660
748.56	37.004
748.88	34.653
749.19	35.500
749.50	28.372
749.82	30.081
750.13	24.490
750.44	28.102
750.75	26.316
751.07	29.260
751.38	28.920
751.69	23.105
752.01	25.940
752.32	26.715
752.63	26.950
752.94	23.361
753.26	29.200
753.57	24.797
753.88	31.641
754.19	26.429
754.51	28.472
754.82	23.466
755.13	26.038
755.44	27.068
755.75	25.912
756.07	23.404
756.38	27.007
756.69	24.497
757.00	22.754
757.31	22.255
757.63	22.807
757.94	20.912
758.25	22.549
758.56	19.753
758.87	22.312
759.18	23.939
759.50	24.138
759.81	22.118
760.12	22.813
760.43	21.490
760.74	23.641
761.05	22.881
761.36	24.599
761.67	23.011
761.99	28.882
762.30	25.000
762.61	27.481
762.92	29.687
763.23	28.571
763.54	31.200
763.85	23.047
764.16	34.231
764.47	29.658
764.78	19.788
765.10	23.101
765.41	25.074
765.72	21.856
766.03	25.705
766.34	22.000
766.65	27.234
766.96	33.333
767.27	38.071
767.58	33.854
767.89	41.053
768.20	35.632
768.51	28.934
768.82	33.028
769.13	30.081
769.44	27.126
769.75	31.760
770.06	26.606
770.37	34.389
770.68	33.796
770.99	33.778
771.30	27.459
771.61	33.184
771.92	29.508
772.23	39.076
772.54	37.436
772.85	34.031
773.16	42.021
773.47	33.696
773.78	34.010
774.09	35.119
774.39	43.860
774.70	35.185
775.01	44.928
775.32	45.752
775.63	45.395
775.94	45.324
776.25	48.819
776.56	43.284
776.87	50.000
777.18	55.469
777.48	50.382
777.79	45.455
778.10	48.148
778.41	53.571
778.72	32.847
779.03	43.624
779.34	40.268
779.65	35.811
779.95	42.331
780.26	39.216
780.57	46.207
780.88	53.125
781.19	39.850
781.50	49.324
781.80	39.623
782.11	35.028
782.42	36.709
782.73	38.037
783.04	42.568
783.34	45.070
783.65	52.740
783.96	47.015
784.27	41.958
784.57	36.691
784.88	46.296
785.19	53.175
785.50	51.887
785.81	49.254
786.11	50.820
786.42	50.388
786.73	47.788
787.04	61.321
787.34	52.679
787.65	59.000
787.96	59.459
788.26	47.934
788.57	57.627
788.88	61.157
789.19	48.611
789.49	59.091
789.80	47.328
790.11	62.857
790.41	62.376
790.72	61.446
791.03	67.391
791.33	75.581
791.64	58.763
791.95	66.337
792.25	75.556
792.56	74.026
792.87	76.923
793.17	78.481
793.48	80.460
793.79	68.966
794.09	59.091
794.40	46.218
794.70	53.676
795.01	48.889
795.32	47.482
795.62	50.394
795.93	62.069
796.23	55.752
796.54	65.882
796.85	64.865
797.15	95.775
797.46	80.303
797.76	71.084
798.07	77.215
798.37	69.231
798.68	87.879
798.99	54.930
799.29	71.429
799.60	68.182
799.90	78.082
800.21	88.060
800.51	100.000
800.82	98.246
801.12	95.082
801.43	93.939
801.73	93.243
802.04	88.889
802.34	77.778
802.65	85.938
802.95	116.949
803.26	90.625
803.56	72.857
803.87	87.692
804.17	70.588
804.48	98.148
804.78	101.724
805.09	91.176
805.39	96.154
805.70	94.643
806.00	111.475
806.30	89.394
806.61	78.049
806.91	67.089
807.22	64.474
807.52	50.746
807.83	83.099
808.13	90.625
808.43	98.333
808.74	75.000
809.04	85.507
809.35	77.612
809.65	75.000
809.95	101.613
810.26	98.305
810.56	92.063
810.86	143.182
811.17	128.571
811.47	105.000
811.77	92.593
812.08	103.636
812.38	124.000
812.69	141.667
812.99	129.545
813.29	114.286
813.59	97.619
813.90	136.735
814.20	105.455
814.50	78.462
814.81	97.059
815.11	118.367
815.41	95.082
815.72	142.857
816.02	123.636
816.32	140.476
816.62	122.500
816.93	109.756
817.23	140.476
817.53	134.091
817.84	154.545
818.14	128.261
818.44	137.778
818.74	164.706
819.04	140.000
819.35	134.286
819.65	147.059
819.95	178.571
820.25	210.000
820.56	138.462
820.86	118.182
821.16	139.535
821.46	135.897
821.76	124.000
822.07	171.429
822.37	145.000
822.67	151.515
822.97	109.804
823.27	196.429
823.57	140.541
823.88	162.500
824.18	173.333
824.48	121.429
824.78	232.000
825.08	200.000
825.38	154.054
825.69	148.780
825.99	208.333
826.29	175.862
826.59	152.632
826.89	152.632
827.19	150.000
827.49	180.645
827.79	138.636
828.09	138.636
828.39	123.404
828.70	114.286
829.00	177.778
829.30	151.613
829.60	145.000
829.90	366.667
830.20	189.286
830.50	200.000
830.80	200.000
831.10	200.000
831.40	170.000
831.70	221.739
832.00	230.769
832.30	196.296
832.60	318.750
832.90	226.667
833.20	335.714
833.50	170.968
833.80	189.655
834.10	215.625
834.40	257.692
834.70	327.778
835.00	304.762
835.30	174.286
835.60	276.923
835.90	206.897
836.20	321.429
836.50	189.655
836.80	180.000
837.10	155.556
837.40	280.952
837.70	317.647
838.00	237.037
838.30	200.000
838.60	309.524
838.90	188.462
839.19	270.000
839.49	371.429
839.79	325.000
840.09	265.000
840.39	261.905
840.69	269.565
840.99	300.000
841.29	410.000
841.59	358.333
841.88	343.750
842.18	179.310
842.48	271.429
842.78	173.333
843.08	221.739
843.38	175.000
843.68	816.667
843.97	226.923
844.27	196.552
844.57	276.190
844.87	300.000
845.17	222.222
845.47	1600.000
845.76	411.111
846.06	317.647
846.36	475.000
846.66	335.714
846.96	306.250
847.25	400.000
847.55	463.636
847.85	256.522
848.15	520.000
848.44	371.429
848.74	266.667
849.04	335.294
849.34	510.000
849.63	226.316
849.93	418.182
850.23	900.000
850.53	457.143
850.82	2100.000
851.12	-4200.000
851.42	5200.000
851.71	270.000
852.01	-1200.000
852.31	245.833
852.61	1566.667
852.90	266.667
853.20	236.000
853.50	288.235
853.79	328.571
854.09	229.167
854.39	306.250
854.68	156.757
854.98	174.194
855.28	206.667
855.57	217.241
855.87	259.259
856.17	247.368
856.46	253.333
856.76	317.647
857.05	213.793
857.35	216.667
857.65	320.000
857.94	226.087
858.24	234.615
858.53	325.000
858.83	263.636
859.13	353.333
859.42	0.000
859.72	600.000
860.01	390.909
860.31	277.273
860.60	278.947
860.90	243.478
861.20	566.667
861.49	441.667
861.79	-4900.000
862.08	725.000
862.38	233.333
862.67	353.846
862.97	341.176
863.26	588.889
863.56	277.778
863.85	391.667
864.15	462.500
864.44	360.000
864.74	833.333
865.03	650.000
865.33	273.684
865.62	445.455
865.92	469.231
866.21	450.000
866.51	0.000
866.80	418.182
867.10	1160.000
867.39	461.538
867.69	354.545
867.98	247.368
868.27	454.545
868.57	315.789
868.86	-4600.000
869.16	331.250
869.45	1850.000
869.75	-4600.000
870.04	458.333
870.33	600.000
870.63	1200.000
870.92	2650.000
871.22	671.429
871.51	347.059
871.80	209.524
872.10	421.429
>>>>>End Processed Spectral Data<<<<<
