SpectraSuite Data File
++++++++++++++++++++++++++++++++++++
Date: Wed May 13 16:53:40 PDT 2015
User: schluterlab
Dark Spectrum Present: Yes
Reference Spectrum Present: Yes
Number of Sampled Component Spectra: 1
Spectrometers: USB2E3373
Integration Time (usec): 3000 (USB2E3373)
Spectra Averaged: 3 (USB2E3373)
Boxcar Smoothing: 0 (USB2E3373)
Correct for Electrical Dark: No (USB2E3373)
Strobe/Lamp Enabled: No (USB2E3373)
Correct for Detector Non-linearity: No (USB2E3373)
Correct for Stray Light: No (USB2E3373)
Number of Pixels in Processed Spectrum: 2048
>>>>>Begin Processed Spectral Data<<<<<
178.53	0.000
178.91	-1350.000
179.29	-1650.000
179.67	-216.667
180.04	-1325.000
180.42	2700.000
180.80	960.000
181.18	-1100.000
181.56	771.429
181.94	0.000
182.31	-685.714
182.69	1766.667
183.07	-637.500
183.45	-522.222
183.83	454.545
184.20	-380.000
184.58	2250.000
184.96	4900.000
185.34	-900.000
185.72	-687.500
186.09	-1950.000
186.47	2650.000
186.85	1950.000
187.23	4500.000
187.61	-1566.667
187.98	1475.000
188.36	572.727
188.74	500.000
189.12	-820.000
189.49	610.000
189.87	-5000.000
190.25	-1175.000
190.63	414.286
191.00	392.308
191.38	700.000
191.76	-1400.000
192.14	1525.000
192.51	750.000
192.89	1066.667
193.27	550.000
193.65	-1075.000
194.02	480.000
194.40	1080.000
194.78	600.000
195.15	591.667
195.53	650.000
195.91	-1950.000
196.29	400.000
196.66	321.053
197.04	-380.000
197.42	0.000
197.79	640.000
198.17	-4900.000
198.55	685.714
198.92	725.000
199.30	1020.000
199.68	0.000
200.05	372.222
200.43	757.143
200.81	5300.000
201.18	1766.667
201.56	-2000.000
201.94	577.778
202.31	577.778
202.69	391.667
203.07	550.000
203.44	0.000
203.82	1150.000
204.19	757.143
204.57	442.857
204.95	662.500
205.32	1566.667
205.70	418.182
206.08	335.714
206.45	2850.000
206.83	325.000
207.20	883.333
207.58	840.000
207.96	338.889
208.33	700.000
208.71	-750.000
209.08	857.143
209.46	522.222
209.84	481.818
210.21	-1533.333
210.59	1450.000
210.96	-575.000
211.34	2750.000
211.71	600.000
212.09	650.000
212.46	0.000
212.84	1600.000
213.22	1325.000
213.59	-3900.000
213.97	750.000
214.34	700.000
214.72	590.909
215.09	1100.000
215.47	-2600.000
215.84	-2450.000
216.22	2033.333
216.59	471.429
216.97	1325.000
217.34	500.000
217.72	-666.667
218.09	0.000
218.47	-5600.000
218.84	622.222
219.22	728.571
219.59	1633.333
219.97	-571.429
220.34	1040.000
220.72	-1566.667
221.09	371.429
221.47	1350.000
221.84	-900.000
222.22	0.000
222.59	1575.000
222.97	-2550.000
223.34	940.000
223.72	438.462
224.09	1120.000
224.46	2400.000
224.84	-4500.000
225.21	-860.000
225.59	-5600.000
225.96	580.000
226.34	295.000
226.71	2750.000
227.08	625.000
227.46	550.000
227.83	-700.000
228.21	-2400.000
228.58	688.889
228.95	-2200.000
229.33	-2200.000
229.70	1766.667
230.08	671.429
230.45	-840.000
230.82	383.333
231.20	883.333
231.57	571.429
231.95	450.000
232.32	245.455
232.69	400.000
233.07	785.714
233.44	330.769
233.81	-1466.667
234.19	278.947
234.56	433.333
234.93	341.667
235.31	445.455
235.68	361.538
236.05	314.286
236.43	184.848
236.80	273.684
237.17	3500.000
237.55	271.429
237.92	175.000
238.29	295.238
238.67	183.871
239.04	165.517
239.41	119.444
239.79	100.000
240.16	104.762
240.53	102.273
240.91	100.000
241.28	86.000
241.65	88.000
242.02	75.362
242.40	77.419
242.77	78.333
243.14	62.366
243.51	65.169
243.89	58.824
244.26	47.778
244.63	44.086
245.00	48.936
245.38	52.475
245.75	43.925
246.12	34.862
246.49	43.796
246.87	48.000
247.24	43.846
247.61	32.857
247.98	39.869
248.36	31.081
248.73	30.573
249.10	30.573
249.47	25.424
249.84	33.690
250.22	29.412
250.59	24.852
250.96	25.253
251.33	28.910
251.70	27.228
252.08	24.762
252.45	21.973
252.82	22.609
253.19	20.000
253.56	22.745
253.94	23.651
254.31	25.000
254.68	25.000
255.05	25.092
255.42	17.886
255.79	19.853
256.16	20.578
256.54	20.848
256.91	20.996
257.28	12.590
257.65	19.142
258.02	18.012
258.39	17.981
258.76	17.391
259.14	20.238
259.51	18.541
259.88	12.112
260.25	17.221
260.62	14.162
260.99	12.422
261.36	17.117
261.73	12.034
262.10	15.407
262.47	13.803
262.85	15.877
263.22	11.681
263.59	14.815
263.96	11.813
264.33	15.666
264.70	14.474
265.07	16.624
265.44	12.374
265.81	13.139
266.18	15.829
266.55	11.220
266.92	11.794
267.29	16.204
267.66	13.991
268.03	11.364
268.40	11.916
268.77	10.263
269.14	11.937
269.51	12.641
269.88	11.655
270.25	13.995
270.62	10.112
270.99	14.194
271.36	12.661
271.73	10.981
272.10	12.826
272.47	13.548
272.84	11.905
273.21	12.579
273.58	10.044
273.95	11.530
274.32	10.744
274.69	10.064
275.06	9.646
275.43	12.766
275.80	11.623
276.17	8.147
276.54	10.603
276.91	10.870
277.28	10.547
277.65	10.445
278.02	8.903
278.39	11.133
278.76	11.091
279.13	10.755
279.50	11.546
279.87	10.558
280.23	10.778
280.60	9.091
280.97	9.427
281.34	9.027
281.71	11.455
282.08	9.597
282.45	9.091
282.82	9.947
283.19	9.269
283.56	9.649
283.92	9.983
284.29	8.642
284.66	8.530
285.03	9.765
285.40	7.923
285.77	9.596
286.14	8.463
286.51	9.167
286.87	9.231
287.24	10.423
287.61	6.902
287.98	9.578
288.35	8.399
288.72	8.723
289.08	9.546
289.45	9.885
289.82	7.317
290.19	6.436
290.56	8.882
290.93	8.006
291.29	8.282
291.66	8.112
292.03	9.302
292.40	11.160
292.77	8.432
293.13	8.955
293.50	6.997
293.87	7.259
294.24	7.704
294.60	6.841
294.97	7.558
295.34	8.039
295.71	8.097
296.08	7.550
296.44	7.840
296.81	7.266
297.18	9.621
297.55	5.937
297.91	8.443
298.28	7.631
298.65	9.008
299.02	7.905
299.38	6.773
299.75	4.987
300.12	5.619
300.48	7.375
300.85	7.645
301.22	7.516
301.59	6.187
301.95	7.053
302.32	7.317
302.69	7.527
303.05	6.545
303.42	6.296
303.79	7.248
304.15	5.944
304.52	7.648
304.89	5.575
305.25	6.961
305.62	7.248
305.99	7.084
306.35	6.711
306.72	7.175
307.09	6.881
307.45	8.671
307.82	5.246
308.19	7.395
308.55	7.551
308.92	6.337
309.29	6.864
309.65	6.257
310.02	6.660
310.38	6.452
310.75	6.758
311.12	7.369
311.48	7.628
311.85	7.757
312.22	7.804
312.58	6.549
312.95	7.709
313.31	6.990
313.68	6.653
314.05	9.270
314.41	8.945
314.78	7.654
315.14	8.242
315.51	8.857
315.87	8.020
316.24	9.037
316.61	8.674
316.97	8.317
317.34	7.828
317.70	9.560
318.07	9.143
318.43	9.100
318.80	9.653
319.16	9.887
319.53	10.507
319.89	11.143
320.26	11.200
320.62	10.913
320.99	10.909
321.35	11.717
321.72	12.936
322.08	12.241
322.45	13.035
322.81	13.857
323.18	13.584
323.54	12.430
323.91	14.717
324.27	13.002
324.64	13.234
325.00	13.796
325.37	14.832
325.73	15.260
326.10	15.446
326.46	16.219
326.83	16.480
327.19	16.482
327.56	18.380
327.92	17.673
328.29	17.036
328.65	18.048
329.01	18.682
329.38	18.686
329.74	17.544
330.11	18.756
330.47	19.467
330.84	19.761
331.20	18.852
331.56	20.550
331.93	17.685
332.29	20.586
332.66	20.177
333.02	20.750
333.38	20.867
333.75	21.480
334.11	20.641
334.48	20.852
334.84	20.588
335.20	20.545
335.57	20.490
335.93	19.464
336.29	20.421
336.66	21.551
337.02	19.910
337.38	20.833
337.75	20.410
338.11	20.770
338.47	20.350
338.84	20.073
339.20	19.817
339.56	21.898
339.93	20.091
340.29	22.011
340.65	19.697
341.02	21.815
341.38	20.819
341.74	21.754
342.11	21.397
342.47	21.145
342.83	20.034
343.20	21.818
343.56	21.314
343.92	19.825
344.28	21.854
344.65	21.668
345.01	20.286
345.37	20.326
345.73	20.897
346.10	19.949
346.46	20.593
346.82	20.593
347.19	19.799
347.55	20.279
347.91	20.146
348.27	21.200
348.63	21.321
349.00	21.117
349.36	21.100
349.72	21.812
350.08	20.502
350.45	21.074
350.81	20.552
351.17	20.583
351.53	21.212
351.89	19.389
352.26	22.099
352.62	21.091
352.98	21.070
353.34	20.953
353.70	20.704
354.07	20.806
354.43	19.841
354.79	20.917
355.15	20.351
355.51	21.023
355.87	22.041
356.24	20.358
356.60	19.968
356.96	20.837
357.32	20.605
357.68	20.630
358.04	20.744
358.40	21.615
358.77	20.188
359.13	20.205
359.49	21.804
359.85	19.524
360.21	19.777
360.57	20.778
360.93	21.462
361.29	20.786
361.66	21.130
362.02	20.821
362.38	21.065
362.74	20.982
363.10	20.947
363.46	20.616
363.82	21.315
364.18	20.705
364.54	21.025
364.90	21.955
365.26	20.956
365.62	21.841
365.98	21.402
366.35	20.559
366.71	22.343
367.07	21.413
367.43	21.988
367.79	22.555
368.15	22.270
368.51	21.802
368.87	21.699
369.23	21.653
369.59	21.579
369.95	21.176
370.31	22.009
370.67	21.667
371.03	23.446
371.39	21.939
371.75	22.353
372.11	21.764
372.47	23.754
372.83	22.983
373.19	22.616
373.55	21.877
373.91	23.564
374.27	21.718
374.63	22.836
374.99	23.588
375.35	22.470
375.71	22.824
376.07	23.388
376.42	23.659
376.78	22.929
377.14	22.252
377.50	22.715
377.86	22.872
378.22	23.578
378.58	22.306
378.94	23.507
379.30	23.601
379.66	24.175
380.02	23.894
380.38	23.740
380.74	23.289
381.09	24.694
381.45	24.524
381.81	24.201
382.17	24.140
382.53	24.025
382.89	25.062
383.25	24.891
383.61	25.279
383.97	24.453
384.32	24.392
384.68	24.102
385.04	25.630
385.40	24.706
385.76	24.386
386.12	24.547
386.48	25.991
386.83	24.759
387.19	25.850
387.55	24.923
387.91	24.970
388.27	24.280
388.62	25.077
388.98	24.509
389.34	25.845
389.70	25.628
390.06	26.869
390.42	24.838
390.77	25.763
391.13	25.973
391.49	25.571
391.85	25.398
392.20	25.678
392.56	25.316
392.92	25.486
393.28	24.497
393.64	26.799
393.99	25.718
394.35	25.372
394.71	25.784
395.07	25.109
395.42	25.896
395.78	26.145
396.14	25.574
396.50	25.689
396.85	25.366
397.21	24.476
397.57	24.613
397.92	25.962
398.28	25.168
398.64	25.747
399.00	25.518
399.35	25.268
399.71	24.537
400.07	25.370
400.42	24.540
400.78	25.090
401.14	25.244
401.49	24.955
401.85	24.501
402.21	24.611
402.57	24.800
402.92	25.536
403.28	24.922
403.63	25.619
403.99	24.586
404.35	24.545
404.70	24.760
405.06	25.218
405.42	25.452
405.77	24.629
406.13	23.758
406.49	24.778
406.84	24.454
407.20	24.113
407.55	25.973
407.91	25.467
408.27	25.782
408.62	25.166
408.98	24.449
409.34	24.539
409.69	25.161
410.05	24.659
410.40	24.893
410.76	24.970
411.11	23.945
411.47	24.217
411.83	24.435
412.18	23.686
412.54	24.907
412.89	24.940
413.25	24.734
413.60	25.015
413.96	23.983
414.31	24.605
414.67	24.715
415.03	23.377
415.38	25.258
415.74	24.051
416.09	24.494
416.45	24.833
416.80	24.983
417.16	24.732
417.51	24.818
417.87	23.892
418.22	24.858
418.58	24.597
418.93	24.877
419.29	24.507
419.64	25.126
420.00	23.902
420.35	24.116
420.71	24.626
421.06	24.642
421.42	23.860
421.77	24.608
422.12	23.751
422.48	23.206
422.83	24.520
423.19	23.867
423.54	24.724
423.90	24.116
424.25	24.567
424.61	23.452
424.96	24.023
425.31	24.474
425.67	23.820
426.02	23.486
426.38	25.214
426.73	23.581
427.09	24.498
427.44	23.577
427.79	23.577
428.15	24.940
428.50	24.166
428.85	24.255
429.21	23.136
429.56	23.484
429.92	24.157
430.27	23.436
430.62	23.246
430.98	23.352
431.33	23.814
431.68	23.927
432.04	23.429
432.39	23.187
432.74	24.057
433.10	23.656
433.45	23.965
433.80	23.559
434.16	24.199
434.51	23.526
434.86	23.432
435.22	23.735
435.57	23.587
435.92	23.581
436.28	24.437
436.63	24.448
436.98	24.385
437.34	24.448
437.69	24.096
438.04	23.496
438.39	24.060
438.75	24.869
439.10	23.575
439.45	24.026
439.81	24.048
440.16	23.151
440.51	24.312
440.86	24.204
441.22	22.859
441.57	24.151
441.92	23.490
442.27	23.197
442.63	23.539
442.98	24.169
443.33	24.511
443.68	23.129
444.03	23.280
444.39	23.272
444.74	23.701
445.09	23.450
445.44	23.783
445.79	23.652
446.15	23.663
446.50	23.748
446.85	23.279
447.20	24.222
447.55	24.176
447.91	23.662
448.26	23.817
448.61	23.233
448.96	23.865
449.31	24.128
449.66	24.198
450.02	22.953
450.37	24.093
450.72	23.801
451.07	23.522
451.42	23.465
451.77	24.193
452.12	23.326
452.47	23.756
452.83	23.893
453.18	23.350
453.53	23.377
453.88	22.918
454.23	23.371
454.58	23.622
454.93	24.412
455.28	23.005
455.63	22.998
455.98	24.226
456.34	22.739
456.69	23.482
457.04	23.715
457.39	23.261
457.74	22.751
458.09	22.714
458.44	23.375
458.79	23.319
459.14	24.041
459.49	23.584
459.84	23.047
460.19	22.687
460.54	22.627
460.89	23.094
461.24	24.408
461.59	24.114
461.94	23.428
462.29	23.145
462.64	23.229
462.99	22.251
463.34	23.933
463.69	23.827
464.04	23.014
464.39	23.014
464.74	22.757
465.09	23.221
465.44	23.047
465.79	22.539
466.14	22.770
466.49	22.636
466.84	22.650
467.19	22.873
467.54	23.562
467.89	22.569
468.24	23.153
468.59	22.955
468.94	22.663
469.29	23.201
469.64	23.226
469.99	23.613
470.34	22.787
470.68	23.348
471.03	21.973
471.38	23.141
471.73	22.652
472.08	23.421
472.43	21.985
472.78	22.383
473.13	22.657
473.48	22.909
473.83	22.744
474.17	21.344
474.52	22.643
474.87	23.117
475.22	22.577
475.57	22.192
475.92	21.455
476.27	20.970
476.61	22.063
476.96	21.660
477.31	21.455
477.66	21.663
478.01	21.432
478.36	21.629
478.70	21.599
479.05	22.045
479.40	21.341
479.75	22.318
480.10	21.620
480.45	21.609
480.79	20.736
481.14	21.673
481.49	21.642
481.84	21.399
482.19	21.399
482.53	20.872
482.88	21.359
483.23	21.215
483.58	21.429
483.92	21.228
484.27	20.610
484.62	20.733
484.97	20.891
485.31	21.404
485.66	21.534
486.01	20.339
486.36	19.336
486.70	18.869
487.05	19.441
487.40	19.612
487.75	19.962
488.09	20.049
488.44	19.880
488.79	20.217
489.13	20.894
489.48	20.106
489.83	19.940
490.17	20.517
490.52	19.708
490.87	21.031
491.22	20.600
491.56	19.863
491.91	19.730
492.26	20.625
492.60	20.829
492.95	19.972
493.30	20.374
493.64	20.112
493.99	19.591
494.34	20.305
494.68	20.421
495.03	20.066
495.37	20.568
495.72	20.614
496.07	20.093
496.41	19.735
496.76	19.745
497.11	20.351
497.45	19.842
497.80	20.010
498.14	19.227
498.49	20.341
498.84	21.237
499.18	20.429
499.53	20.608
499.87	20.503
500.22	20.396
500.56	20.874
500.91	19.375
501.26	20.057
501.60	20.313
501.95	20.119
502.29	20.056
502.64	20.158
502.98	20.243
503.33	19.287
503.67	20.232
504.02	19.645
504.36	20.309
504.71	20.029
505.06	19.518
505.40	20.078
505.75	18.852
506.09	20.117
506.44	19.290
506.78	19.825
507.13	19.334
507.47	19.949
507.82	19.757
508.16	20.263
508.51	20.649
508.85	20.010
509.19	19.388
509.54	20.153
509.88	19.578
510.23	19.692
510.57	20.485
510.92	19.213
511.26	18.911
511.61	20.332
511.95	19.572
512.30	19.565
512.64	19.130
512.98	19.989
513.33	20.075
513.67	19.264
514.02	18.885
514.36	19.498
514.70	20.421
515.05	20.413
515.39	19.518
515.74	19.707
516.08	19.788
516.42	19.645
516.77	20.178
517.11	19.090
517.46	19.470
517.80	19.861
518.14	18.240
518.49	20.012
518.83	19.148
519.17	18.938
519.52	18.902
519.86	18.597
520.20	20.000
520.55	20.168
520.89	19.586
521.23	19.542
521.58	20.348
521.92	20.147
522.26	18.853
522.61	19.875
522.95	19.398
523.29	19.294
523.64	20.000
523.98	19.532
524.32	19.602
524.66	19.904
525.01	20.098
525.35	19.579
525.69	18.658
526.04	20.062
526.38	19.402
526.72	19.264
527.06	19.335
527.41	18.502
527.75	18.971
528.09	19.461
528.43	19.630
528.78	19.422
529.12	19.030
529.46	19.412
529.80	20.297
530.15	19.688
530.49	18.400
530.83	19.557
531.17	19.125
531.51	19.844
531.86	19.935
532.20	19.948
532.54	19.923
532.88	19.255
533.22	18.613
533.57	19.074
533.91	19.747
534.25	19.441
534.59	19.768
534.93	19.155
535.27	18.890
535.62	18.559
535.96	19.021
536.30	19.517
536.64	20.476
536.98	19.177
537.32	19.487
537.66	19.400
538.01	19.289
538.35	20.168
538.69	19.145
539.03	18.843
539.37	18.850
539.71	17.952
540.05	19.804
540.39	19.468
540.73	18.693
541.07	19.533
541.42	20.222
541.76	19.032
542.10	20.375
542.44	19.073
542.78	20.092
543.12	19.066
543.46	18.820
543.80	19.779
544.14	18.806
544.48	19.111
544.82	19.115
545.16	19.649
545.50	18.573
545.84	19.758
546.18	18.990
546.52	18.789
546.86	19.313
547.20	19.488
547.54	19.305
547.88	20.217
548.22	18.804
548.56	20.000
548.90	18.630
549.24	18.586
549.58	19.441
549.92	19.025
550.26	18.608
550.60	19.156
550.94	18.451
551.28	18.288
551.62	18.907
551.96	18.105
552.30	20.137
552.64	19.270
552.98	19.254
553.32	19.150
553.66	19.973
554.00	19.698
554.34	18.496
554.68	19.385
555.02	18.759
555.36	18.511
555.69	18.539
556.03	18.843
556.37	19.031
556.71	17.667
557.05	18.768
557.39	18.195
557.73	19.407
558.07	18.202
558.41	18.452
558.75	18.295
559.08	18.717
559.42	18.896
559.76	18.897
560.10	19.129
560.44	18.588
560.78	18.496
561.12	18.206
561.45	18.579
561.79	18.919
562.13	18.779
562.47	19.126
562.81	18.480
563.15	18.863
563.48	18.037
563.82	18.134
564.16	17.789
564.50	17.969
564.84	18.458
565.17	18.275
565.51	18.594
565.85	18.464
566.19	17.971
566.52	18.113
566.86	18.324
567.20	18.632
567.54	18.493
567.88	18.197
568.21	18.519
568.55	17.391
568.89	17.802
569.23	18.316
569.56	18.502
569.90	17.585
570.24	17.653
570.57	17.171
570.91	17.001
571.25	17.233
571.59	17.202
571.92	16.878
572.26	17.071
572.60	17.237
572.93	16.972
573.27	17.184
573.61	17.225
573.95	17.235
574.28	16.583
574.62	17.031
574.96	16.798
575.29	16.537
575.63	16.946
575.97	16.610
576.30	17.047
576.64	16.629
576.98	16.966
577.31	16.774
577.65	16.982
577.98	16.828
578.32	16.739
578.66	16.709
578.99	16.480
579.33	16.727
579.67	16.614
580.00	16.351
580.34	17.299
580.67	16.734
581.01	17.248
581.35	16.711
581.68	16.980
582.02	16.320
582.35	16.510
582.69	16.487
583.02	16.698
583.36	17.016
583.70	16.633
584.03	17.268
584.37	17.365
584.70	16.588
585.04	16.830
585.37	16.775
585.71	16.494
586.04	16.695
586.38	16.484
586.72	16.929
587.05	16.680
587.39	16.280
587.72	16.619
588.06	17.049
588.39	16.872
588.73	16.808
589.06	16.952
589.40	17.273
589.73	17.212
590.07	17.367
590.40	16.843
590.73	17.447
591.07	17.216
591.40	17.714
591.74	18.355
592.07	17.059
592.41	17.156
592.74	17.341
593.08	17.222
593.41	16.862
593.75	16.771
594.08	16.661
594.41	16.826
594.75	17.227
595.08	17.072
595.42	17.198
595.75	17.023
596.09	17.537
596.42	17.485
596.75	17.434
597.09	17.619
597.42	16.737
597.75	17.594
598.09	16.957
598.42	17.268
598.76	16.903
599.09	16.990
599.42	16.739
599.76	16.545
600.09	16.903
600.42	16.399
600.76	16.750
601.09	16.612
601.42	17.047
601.76	17.116
602.09	16.957
602.42	16.600
602.76	17.251
603.09	17.034
603.42	17.181
603.76	16.578
604.09	16.247
604.42	16.673
604.76	17.377
605.09	16.645
605.42	16.930
605.75	16.887
606.09	16.958
606.42	16.551
606.75	17.047
607.09	17.706
607.42	16.774
607.75	16.329
608.08	16.240
608.42	17.078
608.75	16.546
609.08	16.744
609.41	16.659
609.75	17.199
610.08	17.436
610.41	16.201
610.74	16.935
611.07	17.441
611.41	16.830
611.74	17.496
612.07	17.598
612.40	18.101
612.73	17.526
613.07	17.403
613.40	17.746
613.73	16.256
614.06	17.634
614.39	17.200
614.72	17.737
615.06	17.437
615.39	16.561
615.72	16.922
616.05	16.002
616.38	17.287
616.71	17.696
617.05	17.786
617.38	16.476
617.71	17.718
618.04	17.608
618.37	17.445
618.70	17.175
619.03	18.421
619.36	17.108
619.69	17.887
620.03	19.162
620.36	18.115
620.69	17.808
621.02	18.510
621.35	16.836
621.68	17.445
622.01	18.189
622.34	17.247
622.67	17.643
623.00	17.975
623.33	17.441
623.66	17.727
623.99	17.452
624.32	17.261
624.65	17.655
624.99	17.068
625.32	17.379
625.65	17.280
625.98	18.832
626.31	17.185
626.64	19.102
626.97	17.955
627.30	16.791
627.63	18.130
627.96	17.746
628.29	18.198
628.62	19.122
628.95	18.302
629.28	19.434
629.61	18.332
629.94	18.476
630.26	16.778
630.59	18.780
630.92	18.199
631.25	18.756
631.58	17.818
631.91	18.256
632.24	18.038
632.57	19.203
632.90	19.408
633.23	19.911
633.56	19.661
633.89	18.347
634.22	18.275
634.55	19.172
634.88	17.725
635.20	18.877
635.53	20.120
635.86	18.688
636.19	19.176
636.52	19.493
636.85	18.557
637.18	19.470
637.51	19.149
637.83	16.646
638.16	19.437
638.49	18.766
638.82	21.113
639.15	20.750
639.48	19.701
639.81	18.365
640.13	19.531
640.46	20.403
640.79	19.683
641.12	18.294
641.45	18.017
641.77	19.440
642.10	20.760
642.43	18.619
642.76	20.588
643.09	22.699
643.41	18.816
643.74	20.370
644.07	19.512
644.40	21.319
644.73	21.260
645.05	21.078
645.38	20.063
645.71	22.383
646.04	20.432
646.36	22.037
646.69	22.074
647.02	23.639
647.35	20.790
647.67	20.708
648.00	22.439
648.33	19.637
648.66	18.788
648.98	20.990
649.31	19.283
649.64	19.731
649.96	19.076
650.29	20.853
650.62	20.550
650.94	21.880
651.27	21.284
651.60	22.463
651.92	21.725
652.25	18.893
652.58	21.963
652.90	19.273
653.23	19.569
653.56	20.157
653.88	21.078
654.21	21.643
654.54	20.297
654.86	19.315
655.19	18.108
655.52	13.867
655.84	13.011
656.17	16.804
656.49	23.114
656.82	22.908
657.15	17.037
657.47	12.534
657.80	9.874
658.13	9.894
658.45	15.141
658.78	14.979
659.10	15.777
659.43	16.236
659.75	17.552
660.08	18.291
660.41	20.950
660.73	20.457
661.06	18.949
661.38	22.545
661.71	22.885
662.03	23.077
662.36	21.074
662.68	21.687
663.01	22.222
663.33	21.231
663.66	22.059
663.98	23.326
664.31	20.588
664.63	21.457
664.96	19.316
665.28	22.131
665.61	21.248
665.93	22.133
666.26	20.690
666.58	21.967
666.91	23.044
667.23	22.697
667.56	22.678
667.88	21.795
668.21	24.307
668.53	21.258
668.86	22.294
669.18	25.800
669.50	23.696
669.83	25.490
670.15	22.444
670.48	23.747
670.80	25.216
671.13	23.355
671.45	21.277
671.77	22.607
672.10	21.627
672.42	21.555
672.75	21.393
673.07	20.246
673.39	18.626
673.72	20.703
674.04	20.784
674.37	22.718
674.69	22.699
675.01	24.059
675.34	24.846
675.66	25.474
675.98	21.996
676.31	22.059
676.63	22.505
676.95	24.109
677.28	20.794
677.60	24.176
677.92	25.949
678.25	21.561
678.57	23.307
678.89	21.042
679.22	21.022
679.54	24.809
679.86	21.284
680.18	21.288
680.51	21.454
680.83	22.242
681.15	22.075
681.48	21.361
681.80	21.277
682.12	22.989
682.44	19.923
682.77	23.625
683.09	22.103
683.41	22.173
683.73	24.283
684.06	22.314
684.38	20.744
684.70	24.612
685.02	22.514
685.34	21.429
685.67	20.105
685.99	20.790
686.31	20.648
686.63	18.728
686.96	20.536
687.28	22.383
687.60	20.652
687.92	22.852
688.24	21.293
688.56	20.683
688.89	23.651
689.21	23.581
689.53	21.503
689.85	22.838
690.17	21.325
690.49	23.355
690.82	22.897
691.14	22.098
691.46	21.097
691.78	21.285
692.10	21.488
692.42	20.160
692.74	20.954
693.06	22.979
693.39	21.766
693.71	20.306
694.03	22.526
694.35	22.944
694.67	22.426
694.99	22.439
695.31	21.569
695.63	24.402
695.95	22.983
696.27	20.812
696.59	22.021
696.91	24.352
697.23	18.779
697.56	24.733
697.88	19.018
698.20	20.417
698.52	21.935
698.84	22.494
699.16	21.198
699.48	20.903
699.80	24.638
700.12	28.052
700.44	25.729
700.76	23.481
701.08	25.862
701.40	24.860
701.72	27.988
702.04	28.977
702.36	24.929
702.68	23.229
703.00	25.762
703.32	25.266
703.64	22.252
703.96	27.855
704.28	27.035
704.60	28.152
704.91	25.223
705.23	25.220
705.55	27.575
705.87	29.568
706.19	24.382
706.51	27.103
706.83	28.788
707.15	28.852
707.47	24.242
707.79	26.044
708.11	23.973
708.43	24.286
708.74	19.898
709.06	25.195
709.38	26.247
709.70	21.802
710.02	28.487
710.34	23.939
710.66	26.567
710.98	28.693
711.29	27.616
711.61	28.614
711.93	25.962
712.25	31.190
712.57	30.515
712.89	30.796
713.20	29.787
713.52	28.289
713.84	30.380
714.16	26.524
714.48	24.713
714.80	27.964
715.11	28.530
715.43	24.332
715.75	27.246
716.07	26.837
716.39	28.213
716.70	27.907
717.02	28.417
717.34	28.269
717.66	30.224
717.97	31.873
718.29	29.259
718.61	25.912
718.93	30.882
719.24	30.796
719.56	27.119
719.88	25.763
720.20	31.757
720.51	26.829
720.83	30.855
721.15	25.373
721.46	30.496
721.78	32.616
722.10	29.811
722.42	31.579
722.73	28.090
723.05	27.459
723.37	27.530
723.68	28.958
724.00	27.642
724.32	33.468
724.63	30.894
724.95	27.615
725.27	32.794
725.58	32.422
725.90	32.117
726.22	29.811
726.53	27.778
726.85	29.352
727.16	30.961
727.48	30.142
727.80	28.409
728.11	29.710
728.43	28.077
728.74	29.391
729.06	29.927
729.38	29.779
729.69	30.961
730.01	27.304
730.32	24.653
730.64	29.097
730.96	27.723
731.27	32.781
731.59	27.217
731.90	27.405
732.22	27.329
732.53	24.768
732.85	25.962
733.16	28.617
733.48	27.907
733.80	27.597
734.11	26.752
734.43	28.402
734.74	24.571
735.06	21.490
735.37	30.058
735.69	27.070
736.00	26.471
736.32	27.726
736.63	27.796
736.95	33.227
737.26	21.088
737.58	24.516
737.89	27.759
738.21	27.645
738.52	30.000
738.83	30.189
739.15	25.385
739.46	29.197
739.78	27.778
740.09	28.923
740.41	27.742
740.72	25.087
741.04	28.148
741.35	28.750
741.66	35.111
741.98	28.774
742.29	39.713
742.61	35.345
742.92	31.674
743.23	30.769
743.55	34.400
743.86	29.386
744.18	29.646
744.49	35.407
744.80	30.986
745.12	34.545
745.43	32.599
745.74	36.036
746.06	30.734
746.37	32.287
746.68	29.864
747.00	32.407
747.31	38.095
747.62	34.956
747.94	31.278
748.25	24.681
748.56	36.564
748.88	33.168
749.19	39.500
749.50	29.302
749.82	27.642
750.13	30.204
750.44	28.467
750.75	27.719
751.07	27.974
751.38	28.920
751.69	34.296
752.01	26.692
752.32	26.354
752.63	28.369
752.94	29.098
753.26	33.200
753.57	26.423
753.88	35.156
754.19	31.429
754.51	27.778
754.82	26.715
755.13	26.038
755.44	29.699
755.75	25.182
756.07	27.305
756.38	25.182
756.69	27.517
757.00	24.850
757.31	25.816
757.63	22.807
757.94	24.129
758.25	21.814
758.56	23.457
758.87	25.269
759.18	23.939
759.50	26.019
759.81	24.922
760.12	24.688
760.43	27.507
760.74	26.902
761.05	24.859
761.36	25.668
761.67	28.977
761.99	27.950
762.30	29.514
762.61	27.481
762.92	30.859
763.23	28.151
763.54	30.000
763.85	30.469
764.16	38.077
764.47	25.095
764.78	26.148
765.10	23.418
765.41	25.074
765.72	26.347
766.03	25.078
766.34	25.333
766.65	31.915
766.96	29.915
767.27	38.071
767.58	34.896
767.89	36.842
768.20	49.425
768.51	32.487
768.82	33.028
769.13	28.862
769.44	27.530
769.75	30.901
770.06	27.523
770.37	37.557
770.68	36.111
770.99	35.111
771.30	23.361
771.61	34.978
771.92	35.246
772.23	34.874
772.54	33.846
772.85	40.314
773.16	36.170
773.47	39.130
773.78	43.147
774.09	33.929
774.39	41.520
774.70	43.210
775.01	49.275
775.32	44.444
775.63	42.105
775.94	41.727
776.25	51.181
776.56	44.030
776.87	46.721
777.18	52.344
777.48	55.725
777.79	47.727
778.10	50.370
778.41	57.143
778.72	39.416
779.03	47.651
779.34	40.268
779.65	43.243
779.95	39.877
780.26	49.020
780.57	50.345
780.88	55.469
781.19	44.361
781.50	42.568
781.80	45.912
782.11	40.678
782.42	40.506
782.73	34.356
783.04	45.270
783.34	38.732
783.65	48.630
783.96	54.478
784.27	49.650
784.57	39.568
784.88	40.741
785.19	57.143
785.50	56.604
785.81	52.985
786.11	58.197
786.42	50.388
786.73	44.248
787.04	54.717
787.34	49.107
787.65	54.000
787.96	53.153
788.26	46.281
788.57	52.542
788.88	57.851
789.19	49.306
789.49	56.061
789.80	54.198
790.11	61.905
790.41	65.347
790.72	67.470
791.03	66.304
791.33	61.628
791.64	72.165
791.95	68.317
792.25	58.889
792.56	64.935
792.87	80.769
793.17	84.810
793.48	64.368
793.79	75.862
794.09	78.409
794.40	55.462
794.70	50.735
795.01	42.222
795.32	51.799
795.62	51.181
795.93	54.310
796.23	48.673
796.54	65.882
796.85	62.162
797.15	77.465
797.46	78.788
797.76	72.289
798.07	62.025
798.37	75.385
798.68	69.697
798.99	70.423
799.29	74.026
799.60	64.773
799.90	97.260
800.21	85.075
800.51	82.759
800.82	101.754
801.12	90.164
801.43	81.818
801.73	75.676
802.04	74.603
802.34	76.543
802.65	87.500
802.95	108.475
803.26	101.563
803.56	75.714
803.87	86.154
804.17	73.529
804.48	96.296
804.78	89.655
805.09	73.529
805.39	103.846
805.70	96.429
806.00	100.000
806.30	78.788
806.61	63.415
806.91	63.291
807.22	68.421
807.52	74.627
807.83	78.873
808.13	87.500
808.43	95.000
808.74	71.053
809.04	89.855
809.35	70.149
809.65	78.947
809.95	122.581
810.26	93.220
810.56	84.127
810.86	113.636
811.17	100.000
811.47	101.667
811.77	101.852
812.08	105.455
812.38	122.000
812.69	158.333
812.99	140.909
813.29	100.000
813.59	104.762
813.90	122.449
814.20	83.636
814.50	86.154
814.81	104.412
815.11	108.163
815.41	90.164
815.72	142.857
816.02	116.364
816.32	114.286
816.62	117.500
816.93	126.829
817.23	145.238
817.53	120.455
817.84	154.545
818.14	106.522
818.44	113.333
818.74	161.765
819.04	107.500
819.35	122.857
819.65	179.412
819.95	167.857
820.25	185.000
820.56	151.282
820.86	120.455
821.16	153.488
821.46	123.077
821.76	140.000
822.07	154.286
822.37	125.000
822.67	145.455
822.97	107.843
823.27	164.286
823.57	140.541
823.88	162.500
824.18	203.333
824.48	135.714
824.78	220.000
825.08	216.667
825.38	129.730
825.69	153.659
825.99	212.500
826.29	186.207
826.59	144.737
826.89	144.737
827.19	167.647
827.49	167.742
827.79	131.818
828.09	147.727
828.39	121.277
828.70	112.245
829.00	162.963
829.30	177.419
829.60	132.500
829.90	293.333
830.20	214.286
830.50	156.522
830.80	173.913
831.10	160.000
831.40	170.000
831.70	173.913
832.00	219.231
832.30	196.296
832.60	312.500
832.90	183.333
833.20	342.857
833.50	187.097
833.80	220.690
834.10	184.375
834.40	230.769
834.70	266.667
835.00	314.286
835.30	174.286
835.60	292.308
835.90	206.897
836.20	278.571
836.50	206.897
836.80	160.000
837.10	155.556
837.40	257.143
837.70	270.588
838.00	214.815
838.30	219.048
838.60	271.429
838.90	211.538
839.19	320.000
839.49	392.857
839.79	340.000
840.09	260.000
840.39	257.143
840.69	260.870
840.99	272.222
841.29	560.000
841.59	391.667
841.88	337.500
842.18	165.517
842.48	238.095
842.78	170.000
843.08	204.348
843.38	209.375
843.68	766.667
843.97	207.692
844.27	165.517
844.57	304.762
844.87	306.250
845.17	255.556
845.47	1533.333
845.76	477.778
846.06	235.294
846.36	550.000
846.66	371.429
846.96	287.500
847.25	454.545
847.55	454.545
847.85	239.130
848.15	540.000
848.44	300.000
848.74	211.111
849.04	223.529
849.34	450.000
849.63	294.737
849.93	390.909
850.23	980.000
850.53	428.571
850.82	2150.000
851.12	-4500.000
851.42	4500.000
851.71	250.000
852.01	-1033.333
852.31	241.667
852.61	1566.667
852.90	290.476
853.20	204.000
853.50	311.765
853.79	285.714
854.09	229.167
854.39	356.250
854.68	167.568
854.98	193.548
855.28	186.667
855.57	186.207
855.87	211.111
856.17	252.632
856.46	233.333
856.76	270.588
857.05	162.069
857.35	220.833
857.65	333.333
857.94	217.391
858.24	257.692
858.53	280.000
858.83	236.364
859.13	326.667
859.42	0.000
859.72	433.333
860.01	418.182
860.31	254.545
860.60	257.895
860.90	204.348
861.20	644.444
861.49	508.333
861.79	-3600.000
862.08	662.500
862.38	280.952
862.67	361.538
862.97	388.235
863.26	455.556
863.56	288.889
863.85	433.333
864.15	537.500
864.44	406.667
864.74	866.667
865.03	700.000
865.33	263.158
865.62	409.091
865.92	407.692
866.21	400.000
866.51	0.000
866.80	463.636
867.10	1140.000
867.39	392.308
867.69	436.364
867.98	289.474
868.27	390.909
868.57	284.211
868.86	-5100.000
869.16	312.500
869.45	2300.000
869.75	-3100.000
870.04	366.667
870.33	800.000
870.63	1225.000
870.92	2650.000
871.22	757.143
871.51	311.765
871.80	200.000
872.10	400.000
>>>>>End Processed Spectral Data<<<<<
