SpectraSuite Data File
++++++++++++++++++++++++++++++++++++
Date: Wed May 13 16:15:37 PDT 2015
User: schluterlab
Dark Spectrum Present: Yes
Reference Spectrum Present: Yes
Number of Sampled Component Spectra: 1
Spectrometers: USB2E3373
Integration Time (usec): 3000 (USB2E3373)
Spectra Averaged: 3 (USB2E3373)
Boxcar Smoothing: 0 (USB2E3373)
Correct for Electrical Dark: No (USB2E3373)
Strobe/Lamp Enabled: No (USB2E3373)
Correct for Detector Non-linearity: No (USB2E3373)
Correct for Stray Light: No (USB2E3373)
Number of Pixels in Processed Spectrum: 2048
>>>>>Begin Processed Spectral Data<<<<<
178.53	0.000
178.91	-975.000
179.29	-825.000
179.67	-183.333
180.04	-1075.000
180.42	2000.000
180.80	880.000
181.18	-900.000
181.56	471.429
181.94	0.000
182.31	-628.571
182.69	1433.333
183.07	-350.000
183.45	-366.667
183.83	372.727
184.20	-310.000
184.58	1550.000
184.96	4700.000
185.34	-580.000
185.72	-412.500
186.09	-1850.000
186.47	2200.000
186.85	1750.000
187.23	3800.000
187.61	-1500.000
187.98	1050.000
188.36	509.091
188.74	336.364
189.12	-680.000
189.49	460.000
189.87	-4000.000
190.25	-975.000
190.63	350.000
191.00	369.231
191.38	866.667
191.76	-675.000
192.14	1050.000
192.51	450.000
192.89	650.000
193.27	475.000
193.65	-775.000
194.02	510.000
194.40	680.000
194.78	410.000
195.15	508.333
195.53	550.000
195.91	-1450.000
196.29	275.000
196.66	273.684
197.04	-360.000
197.42	0.000
197.79	490.000
198.17	-4700.000
198.55	671.429
198.92	400.000
199.30	560.000
199.68	0.000
200.05	294.444
200.43	685.714
200.81	2500.000
201.18	1566.667
201.56	-1133.333
201.94	533.333
202.31	477.778
202.69	350.000
203.07	530.000
203.44	0.000
203.82	1025.000
204.19	671.429
204.57	350.000
204.95	587.500
205.32	1133.333
205.70	427.273
206.08	300.000
206.45	1800.000
206.83	256.250
207.20	633.333
207.58	800.000
207.96	261.111
208.33	675.000
208.71	-666.667
209.08	742.857
209.46	500.000
209.84	409.091
210.21	-900.000
210.59	1175.000
210.96	-387.500
211.34	2300.000
211.71	390.000
212.09	550.000
212.46	0.000
212.84	1433.333
213.22	1250.000
213.59	-4800.000
213.97	733.333
214.34	828.571
214.72	554.545
215.09	960.000
215.47	-1800.000
215.84	-2500.000
216.22	1366.667
216.59	371.429
216.97	1225.000
217.34	381.818
217.72	-633.333
218.09	0.000
218.47	-3300.000
218.84	422.222
219.22	600.000
219.59	1100.000
219.97	-471.429
220.34	760.000
220.72	-1366.667
221.09	400.000
221.47	1250.000
221.84	-800.000
222.22	0.000
222.59	1125.000
222.97	-2150.000
223.34	840.000
223.72	307.692
224.09	780.000
224.46	2100.000
224.84	-3500.000
225.21	-800.000
225.59	-3700.000
225.96	500.000
226.34	220.000
226.71	2150.000
227.08	550.000
227.46	420.000
227.83	-875.000
228.21	-1550.000
228.58	488.889
228.95	-1700.000
229.33	-1700.000
229.70	1333.333
230.08	671.429
230.45	-640.000
230.82	266.667
231.20	616.667
231.57	600.000
231.95	408.333
232.32	177.273
232.69	327.273
233.07	557.143
233.44	323.077
233.81	-1166.667
234.19	247.368
234.56	400.000
234.93	341.667
235.31	418.182
235.68	284.615
236.05	350.000
236.43	178.788
236.80	242.105
237.17	4500.000
237.55	228.571
237.92	217.857
238.29	223.810
238.67	187.097
239.04	224.138
239.41	172.222
239.79	126.087
240.16	183.333
240.53	161.364
240.91	109.804
241.28	134.000
241.65	156.000
242.02	120.290
242.40	124.194
242.77	131.667
243.14	91.398
243.51	101.124
243.89	96.471
244.26	93.333
244.63	108.602
245.00	101.064
245.38	89.109
245.75	85.047
246.12	88.073
246.49	88.321
246.87	87.200
247.24	82.308
247.61	83.571
247.98	81.046
248.36	81.081
248.73	79.618
249.10	87.898
249.47	72.316
249.84	85.027
250.22	72.727
250.59	76.331
250.96	79.798
251.33	74.408
251.70	78.218
252.08	73.333
252.45	72.197
252.82	70.435
253.19	69.787
253.56	70.980
253.94	71.784
254.31	67.188
254.68	73.462
255.05	73.063
255.42	69.512
255.79	68.015
256.16	75.090
256.54	71.731
256.91	66.548
257.28	66.547
257.65	66.667
258.02	66.770
258.39	67.508
258.76	67.893
259.14	69.048
259.51	65.957
259.88	63.043
260.25	70.997
260.62	66.763
260.99	67.081
261.36	69.069
261.73	67.335
262.10	68.023
262.47	63.662
262.85	64.067
263.22	60.969
263.59	64.387
263.96	60.440
264.33	63.708
264.70	65.526
265.07	65.473
265.44	63.636
265.81	62.044
266.18	63.568
266.55	63.415
266.92	63.636
267.29	62.963
267.66	60.321
268.03	62.045
268.40	62.850
268.77	61.098
269.14	61.036
269.51	62.528
269.88	64.802
270.25	60.948
270.62	61.348
270.99	61.505
271.36	59.227
271.73	60.981
272.10	61.739
272.47	62.796
272.84	59.957
273.21	60.797
273.58	57.424
273.95	58.910
274.32	59.298
274.69	60.600
275.06	57.283
275.43	62.128
275.80	58.717
276.17	57.434
276.54	60.707
276.91	59.091
277.28	56.445
277.65	59.381
278.02	58.799
278.39	58.984
278.76	58.727
279.13	57.170
279.50	57.542
279.87	58.167
280.23	58.683
280.60	58.607
280.97	58.780
281.34	56.814
281.71	58.000
282.08	59.501
282.45	56.545
282.82	57.549
283.19	56.328
283.56	55.439
283.92	56.684
284.29	57.143
284.66	56.080
285.03	52.441
285.40	53.169
285.77	55.556
286.14	55.268
286.51	55.167
286.87	54.872
287.24	54.560
287.61	52.648
287.98	54.221
288.35	49.762
288.72	51.246
289.08	52.582
289.45	52.389
289.82	51.707
290.19	50.706
290.56	51.608
290.93	50.000
291.29	50.767
291.66	48.968
292.03	50.436
292.40	48.605
292.77	47.041
293.13	48.358
293.50	47.085
293.87	47.852
294.24	45.778
294.60	46.870
294.97	45.203
295.34	46.121
295.71	46.875
296.08	45.157
296.44	44.842
296.81	43.065
297.18	47.019
297.55	43.140
297.91	43.668
298.28	45.382
298.65	42.689
299.02	44.137
299.38	44.356
299.75	39.892
300.12	43.040
300.48	44.000
300.85	42.663
301.22	40.637
301.59	43.434
301.95	41.058
302.32	41.977
302.69	40.980
303.05	40.242
303.42	40.741
303.79	39.524
304.15	39.277
304.52	40.209
304.89	39.489
305.25	40.371
305.62	39.524
305.99	40.378
306.35	39.597
306.72	41.256
307.09	37.736
307.45	42.117
307.82	37.500
308.19	39.183
308.55	40.992
308.92	39.420
309.29	37.698
309.65	38.388
310.02	38.055
310.38	39.247
310.75	39.599
311.12	38.588
311.48	40.439
311.85	38.679
312.22	39.230
312.58	37.734
312.95	40.971
313.31	37.184
313.68	40.437
314.05	40.138
314.41	40.000
314.78	40.483
315.14	39.424
315.51	38.929
315.87	39.802
316.24	39.126
316.61	39.181
316.97	39.824
317.34	40.509
317.70	40.535
318.07	39.269
318.43	40.117
318.80	40.394
319.16	40.678
319.53	39.024
319.89	41.143
320.26	41.800
320.62	41.865
320.99	39.394
321.35	40.808
321.72	41.992
322.08	42.547
322.45	43.284
322.81	41.764
323.18	43.545
323.54	41.651
323.91	43.208
324.27	43.786
324.64	42.964
325.00	42.020
325.37	44.950
325.73	44.255
326.10	44.484
326.46	43.817
326.83	45.643
327.19	44.577
327.56	45.383
327.92	45.757
328.29	46.495
328.65	45.672
329.01	44.043
329.38	45.513
329.74	47.184
330.11	46.937
330.47	46.006
330.84	47.059
331.20	46.448
331.56	46.147
331.93	47.963
332.29	46.229
332.66	48.584
333.02	45.795
333.38	48.690
333.75	48.841
334.11	48.043
334.48	47.560
334.84	48.437
335.20	48.091
335.57	46.147
335.93	45.625
336.29	47.894
336.66	48.602
337.02	47.059
337.38	49.537
337.75	47.148
338.11	47.538
338.47	49.263
338.84	47.754
339.20	45.596
339.56	50.730
339.93	48.455
340.29	48.913
340.65	47.237
341.02	48.342
341.38	48.577
341.74	47.193
342.11	49.432
342.47	48.987
342.83	48.031
343.20	48.139
343.56	46.167
343.92	48.684
344.28	48.384
344.65	47.635
345.01	45.875
345.37	46.998
345.73	47.208
346.10	47.229
346.46	46.780
346.82	47.282
347.19	46.951
347.55	46.634
347.91	47.249
348.27	47.987
348.63	47.575
349.00	46.602
349.36	45.977
349.72	47.554
350.08	46.353
350.45	48.902
350.81	47.197
351.17	46.840
351.53	46.355
351.89	46.287
352.26	48.066
352.62	46.993
352.98	46.353
353.34	47.165
353.70	46.890
354.07	47.661
354.43	46.508
354.79	46.661
355.15	46.848
355.51	47.962
355.87	48.327
356.24	47.231
356.60	47.073
356.96	46.500
357.32	48.487
357.68	47.008
358.04	47.902
358.40	47.348
358.77	47.340
359.13	45.383
359.49	47.137
359.85	46.984
360.21	46.411
360.57	49.650
360.93	47.385
361.29	47.090
361.66	47.136
362.02	47.687
362.38	46.692
362.74	48.140
363.10	47.298
363.46	46.442
363.82	47.997
364.18	46.696
364.54	47.177
364.90	48.513
365.26	47.353
365.62	47.626
365.98	47.626
366.35	47.135
366.71	47.650
367.07	47.633
367.43	49.057
367.79	48.965
368.15	48.204
368.51	47.456
368.87	48.894
369.23	49.232
369.59	49.312
369.95	49.632
370.31	49.288
370.67	48.188
371.03	49.513
371.39	48.907
371.75	49.485
372.11	48.293
372.47	50.073
372.83	50.072
373.19	48.410
373.55	49.963
373.91	49.853
374.27	46.942
374.63	50.255
374.99	50.565
375.35	49.546
375.71	50.583
376.07	50.137
376.42	51.032
376.78	50.431
377.14	49.389
377.50	49.470
377.86	50.133
378.22	50.948
378.58	49.373
378.94	51.226
379.30	51.145
379.66	50.825
380.02	50.921
380.38	50.091
380.74	51.981
381.09	50.611
381.45	51.506
381.81	51.290
382.17	52.803
382.53	51.447
382.89	52.222
383.25	53.346
383.61	53.903
383.97	50.782
384.32	51.903
384.68	52.478
385.04	53.042
385.40	52.322
385.76	53.256
386.12	52.461
386.48	53.304
386.83	54.073
387.19	54.731
387.55	54.484
387.91	53.386
388.27	53.403
388.62	53.473
388.98	53.624
389.34	54.756
389.70	54.813
390.06	54.880
390.42	54.994
390.77	55.089
391.13	55.903
391.49	55.964
391.85	54.106
392.20	54.763
392.56	54.987
392.92	55.327
393.28	55.148
393.64	55.815
393.99	54.673
394.35	55.831
394.71	53.764
395.07	54.206
395.42	55.686
395.78	54.453
396.14	55.121
396.50	56.203
396.85	55.245
397.21	55.919
397.57	55.735
397.92	56.671
398.28	55.157
398.64	54.898
399.00	54.337
399.35	56.007
399.71	55.729
400.07	56.535
400.42	57.055
400.78	56.393
401.14	56.585
401.49	56.537
401.85	56.019
402.21	55.329
402.57	55.830
402.92	56.494
403.28	57.527
403.63	56.621
403.99	56.752
404.35	56.485
404.70	56.775
405.06	56.436
405.42	57.580
405.77	55.657
406.13	54.910
406.49	57.008
406.84	56.881
407.20	56.797
407.55	58.264
407.91	59.133
408.27	58.073
408.62	57.014
408.98	57.414
409.34	57.503
409.69	58.065
410.05	57.187
410.40	57.125
410.76	58.363
411.11	57.117
411.47	56.166
411.83	58.033
412.18	57.205
412.54	58.344
412.89	58.855
413.25	56.612
413.60	58.369
413.96	56.588
414.31	57.837
414.67	57.731
415.03	58.344
415.38	58.698
415.74	58.842
416.09	60.483
416.45	58.300
416.80	58.559
417.16	58.981
417.51	59.390
417.87	58.317
418.22	58.423
418.58	57.327
418.93	59.214
419.29	59.007
419.64	59.320
420.00	58.232
420.35	58.203
420.71	59.175
421.06	58.652
421.42	59.181
421.77	58.800
422.12	58.113
422.48	58.662
422.83	58.824
423.19	58.011
423.54	58.793
423.90	58.841
424.25	58.124
424.61	58.810
424.96	58.892
425.31	59.192
425.67	57.416
426.02	58.914
426.38	60.073
426.73	57.109
427.09	59.878
427.44	58.884
427.79	59.172
428.15	59.167
428.50	59.391
428.85	60.369
429.21	59.580
429.56	59.046
429.92	58.530
430.27	57.696
430.62	58.986
430.98	59.834
431.33	58.402
431.68	59.319
432.04	58.253
432.39	59.737
432.74	58.767
433.10	60.045
433.45	60.816
433.80	60.310
434.16	58.761
434.51	59.158
434.86	59.578
435.22	60.478
435.57	60.669
435.92	58.982
436.28	61.744
436.63	61.038
436.98	59.989
437.34	60.525
437.69	61.844
438.04	61.720
438.39	60.776
438.75	62.057
439.10	61.285
439.45	60.035
439.81	61.208
440.16	60.418
440.51	61.863
440.86	61.494
441.22	62.403
441.57	61.306
441.92	61.720
442.27	61.195
442.63	61.190
442.98	63.042
443.33	60.707
443.68	61.125
444.03	61.152
444.39	60.857
444.74	61.797
445.09	61.617
445.44	60.962
445.79	60.168
446.15	61.196
446.50	61.282
446.85	60.946
447.20	62.162
447.55	63.149
447.91	61.942
448.26	61.213
448.61	61.560
448.96	61.517
449.31	62.992
449.66	61.002
450.02	62.507
450.37	61.961
450.72	62.211
451.07	61.548
451.42	61.641
451.77	63.417
452.12	61.490
452.47	63.806
452.83	64.161
453.18	61.675
453.53	63.451
453.88	60.721
454.23	62.941
454.58	63.780
454.93	64.526
455.28	63.404
455.63	64.138
455.98	64.345
456.34	64.008
456.69	62.930
457.04	64.768
457.39	63.063
457.74	63.146
458.09	64.405
458.44	63.170
458.79	60.900
459.14	64.503
459.49	63.748
459.84	62.604
460.19	62.404
460.54	60.880
460.89	63.522
461.24	63.024
461.59	64.323
461.94	62.762
462.29	63.798
462.64	62.923
462.99	63.565
463.34	63.933
463.69	64.103
464.04	63.652
464.39	62.435
464.74	63.518
465.09	63.510
465.44	62.216
465.79	63.367
466.14	62.562
466.49	62.236
466.84	63.923
467.19	61.376
467.54	63.813
467.89	63.685
468.24	62.536
468.59	64.225
468.94	62.981
469.29	64.460
469.64	66.198
469.99	64.208
470.34	64.003
470.68	66.451
471.03	64.286
471.38	65.810
471.73	65.090
472.08	65.461
472.43	65.829
472.78	64.648
473.13	65.212
473.48	64.482
473.83	64.024
474.17	64.157
474.52	64.950
474.87	64.156
475.22	65.815
475.57	64.213
475.92	62.400
476.27	63.529
476.61	65.030
476.96	64.376
477.31	63.789
477.66	64.606
478.01	62.781
478.36	64.675
478.70	64.849
479.05	64.643
479.40	65.046
479.75	64.616
480.10	65.010
480.45	63.208
480.79	63.067
481.14	64.481
481.49	64.215
481.84	63.603
482.19	64.789
482.53	63.899
482.88	65.007
483.23	64.486
483.58	64.513
483.92	64.574
484.27	62.832
484.62	64.310
484.97	63.145
485.31	65.719
485.66	63.250
486.01	60.593
486.36	58.137
486.70	56.918
487.05	58.841
487.40	60.853
487.75	61.309
488.09	62.845
488.44	62.408
488.79	63.834
489.13	64.477
489.48	64.641
489.83	64.998
490.17	64.840
490.52	64.438
490.87	64.722
491.22	64.075
491.56	64.146
491.91	64.542
492.26	63.757
492.60	64.700
492.95	64.359
493.30	64.346
493.64	65.376
493.99	63.835
494.34	64.709
494.68	64.927
495.03	64.803
495.37	63.658
495.72	66.179
496.07	66.543
496.41	62.743
496.76	64.204
497.11	64.025
497.45	65.021
497.80	64.347
498.14	65.411
498.49	66.098
498.84	64.717
499.18	65.048
499.53	65.337
499.87	65.005
500.22	64.814
500.56	66.456
500.91	65.769
501.26	65.908
501.60	66.350
501.95	65.032
502.29	65.042
502.64	65.410
502.98	65.124
503.33	64.488
503.67	65.012
504.02	65.295
504.36	64.483
504.71	65.657
505.06	65.590
505.40	66.018
505.75	63.983
506.09	66.375
506.44	65.910
506.78	66.926
507.13	67.239
507.47	65.758
507.82	66.515
508.16	67.275
508.51	66.870
508.85	65.392
509.19	67.194
509.54	66.480
509.88	65.842
510.23	67.249
510.57	68.215
510.92	67.840
511.26	66.701
511.61	67.324
511.95	65.866
512.30	67.285
512.64	67.061
512.98	67.738
513.33	67.398
513.67	66.862
514.02	66.504
514.36	68.542
514.70	68.733
515.05	68.433
515.39	67.471
515.74	68.468
516.08	68.865
516.42	68.479
516.77	69.175
517.11	67.536
517.46	68.567
517.80	70.441
518.14	68.327
518.49	69.487
518.83	68.693
519.17	68.533
519.52	69.553
519.86	69.082
520.20	68.150
520.55	70.138
520.89	70.681
521.23	70.989
521.58	69.928
521.92	70.729
522.26	70.348
522.61	71.651
522.95	70.227
523.29	69.629
523.64	70.793
523.98	71.719
524.32	70.627
524.66	71.197
525.01	70.588
525.35	70.818
525.69	69.889
526.04	69.844
526.38	69.555
526.72	69.448
527.06	70.873
527.41	68.193
527.75	71.961
528.09	71.419
528.43	70.300
528.78	69.637
529.12	70.545
529.46	69.504
529.80	71.535
530.15	70.405
530.49	69.785
530.83	70.316
531.17	73.042
531.51	73.217
531.86	70.710
532.20	72.034
532.54	72.197
532.88	70.154
533.22	69.457
533.57	70.185
533.91	68.934
534.25	69.806
534.59	69.982
534.93	69.601
535.27	70.006
535.62	70.391
535.96	71.689
536.30	70.375
536.64	71.024
536.98	70.737
537.32	70.573
537.66	72.133
538.01	72.284
538.35	69.489
538.69	72.687
539.03	68.681
539.37	70.479
539.71	70.253
540.05	70.654
540.39	71.561
540.73	69.793
541.07	71.123
541.42	71.755
541.76	70.839
542.10	70.699
542.44	70.464
542.78	71.607
543.12	69.930
543.46	70.689
543.80	69.876
544.14	69.833
544.48	70.921
544.82	67.992
545.16	71.698
545.50	69.087
545.84	69.288
546.18	71.246
546.52	72.815
546.86	72.027
547.20	70.937
547.54	70.608
547.88	72.321
548.22	69.054
548.56	70.063
548.90	69.334
549.24	70.236
549.58	71.896
549.92	71.016
550.26	73.935
550.60	70.816
550.94	70.563
551.28	71.617
551.62	72.035
551.96	70.386
552.30	71.195
552.64	70.453
552.98	71.254
553.32	71.814
553.66	69.598
554.00	71.380
554.34	69.841
554.68	72.246
555.02	71.157
555.36	70.912
555.69	70.636
556.03	69.650
556.37	72.237
556.71	69.509
557.05	69.328
557.39	69.979
557.73	71.771
558.07	72.879
558.41	70.550
558.75	71.859
559.08	72.782
559.42	73.772
559.76	71.471
560.10	71.163
560.44	69.881
560.78	68.862
561.12	69.657
561.45	70.535
561.79	70.732
562.13	71.496
562.47	71.926
562.81	72.524
563.15	69.967
563.48	70.557
563.82	70.254
564.16	69.392
564.50	71.094
564.84	69.848
565.17	70.077
565.51	71.438
565.85	69.734
566.19	68.566
566.52	71.184
566.86	68.535
567.20	70.401
567.54	69.578
567.88	67.463
568.21	68.201
568.55	67.947
568.89	67.267
569.23	66.176
569.56	65.506
569.90	64.189
570.24	65.160
570.57	63.924
570.91	63.348
571.25	62.878
571.59	62.739
571.92	62.500
572.26	62.536
572.60	62.793
572.93	62.249
573.27	62.260
573.61	63.121
573.95	62.946
574.28	62.060
574.62	62.366
574.96	60.908
575.29	61.057
575.63	61.458
575.97	60.817
576.30	62.347
576.64	61.562
576.98	61.619
577.31	62.639
577.65	62.172
577.98	61.681
578.32	59.929
578.66	60.650
578.99	61.356
579.33	60.470
579.67	60.861
580.00	62.023
580.34	61.723
580.67	61.640
581.01	61.727
581.35	61.403
581.68	61.986
582.02	60.504
582.35	60.416
582.69	60.110
583.02	61.017
583.36	61.379
583.70	62.088
584.03	62.356
584.37	62.767
584.70	63.088
585.04	61.619
585.37	61.486
585.71	60.926
586.04	61.029
586.38	61.573
586.72	62.662
587.05	61.559
587.39	61.530
587.72	61.788
588.06	62.540
588.39	61.509
588.73	61.778
589.06	63.260
589.40	63.737
589.73	64.168
590.07	62.776
590.40	62.769
590.73	64.169
591.07	64.469
591.40	65.373
591.74	65.238
592.07	64.442
592.41	64.159
592.74	62.959
593.08	62.525
593.41	62.354
593.75	61.149
594.08	62.353
594.41	62.001
594.75	62.773
595.08	63.099
595.42	62.942
595.75	62.429
596.09	63.500
596.42	62.986
596.75	63.782
597.09	64.675
597.42	62.858
597.75	64.726
598.09	64.565
598.42	63.187
598.76	63.113
599.09	62.562
599.42	62.373
599.76	62.518
600.09	61.530
600.42	61.249
600.76	61.786
601.09	61.494
601.42	63.584
601.76	61.139
602.09	63.241
602.42	62.858
602.76	63.603
603.09	63.572
603.42	63.920
603.76	62.348
604.09	62.582
604.42	62.699
604.76	63.433
605.09	63.084
605.42	62.933
605.75	63.535
606.09	62.220
606.42	62.852
606.75	63.127
607.09	61.992
607.42	62.430
607.75	61.646
608.08	61.832
608.42	62.842
608.75	62.759
609.08	62.581
609.41	61.447
609.75	62.935
610.08	64.185
610.41	63.780
610.74	63.576
611.07	64.723
611.41	63.494
611.74	64.304
612.07	64.441
612.40	64.586
612.73	63.579
613.07	64.709
613.40	64.929
613.73	63.241
614.06	63.763
614.39	62.349
614.72	63.000
615.06	64.181
615.39	64.490
615.72	63.344
616.05	63.424
616.38	64.703
616.71	65.321
617.05	65.371
617.38	66.085
617.71	65.465
618.04	66.587
618.37	63.749
618.70	65.152
619.03	66.776
619.36	66.191
619.69	66.972
620.03	68.613
620.36	66.444
620.69	66.370
621.02	66.667
621.35	66.797
621.68	66.511
622.01	69.427
622.34	68.911
622.67	69.202
623.00	66.178
623.33	66.905
623.66	66.262
623.99	69.219
624.32	65.692
624.65	65.466
624.99	65.297
625.32	66.184
625.65	67.168
625.98	67.487
626.31	68.896
626.64	68.490
626.97	69.742
627.30	67.830
627.63	69.155
627.96	69.470
628.29	69.729
628.62	70.814
628.95	72.642
629.28	70.438
629.61	70.119
629.94	71.238
630.26	70.925
630.59	67.207
630.92	68.103
631.25	70.484
631.58	70.070
631.91	71.197
632.24	71.414
632.57	70.934
632.90	71.930
633.23	71.029
633.56	71.186
633.89	71.461
634.22	73.553
634.55	73.964
634.88	71.976
635.20	73.477
635.53	73.012
635.86	74.381
636.19	72.353
636.52	72.895
636.85	73.310
637.18	70.737
637.51	72.931
637.83	70.160
638.16	72.379
638.49	73.426
638.82	73.198
639.15	71.125
639.48	72.444
639.81	73.190
640.13	71.875
640.46	75.034
640.79	70.938
641.12	74.966
641.45	73.603
641.77	75.405
642.10	75.146
642.43	73.273
642.76	76.006
643.09	76.227
643.41	74.659
643.74	76.080
644.07	75.457
644.40	77.607
644.73	77.008
645.05	77.971
645.38	73.776
645.71	74.718
646.04	78.738
646.36	80.301
646.69	79.933
647.02	77.551
647.35	78.179
647.67	77.522
648.00	76.585
648.33	75.248
648.66	72.879
648.98	75.262
649.31	73.991
649.64	74.141
649.96	72.280
650.29	74.566
650.62	73.948
650.94	74.392
651.27	75.000
651.60	74.875
651.92	74.920
652.25	72.476
652.58	74.766
652.90	71.564
653.23	71.186
653.56	72.756
653.88	74.168
654.21	73.302
654.54	76.073
654.86	75.078
655.19	70.135
655.52	54.214
655.84	50.406
656.17	64.057
656.49	84.226
656.82	85.495
657.15	64.671
657.47	48.167
657.80	37.883
658.13	39.718
658.45	59.536
658.78	60.136
659.10	61.047
659.43	63.853
659.75	65.922
660.08	71.076
660.41	74.953
660.73	75.731
661.06	77.707
661.38	81.091
661.71	78.654
662.03	76.331
662.36	75.149
662.68	77.108
663.01	80.808
663.33	79.406
663.66	79.202
663.98	76.026
664.31	79.412
664.63	77.126
664.96	77.062
665.28	78.074
665.61	74.269
665.93	75.855
666.26	77.282
666.58	77.197
666.91	79.070
667.23	81.348
667.56	77.970
667.88	78.846
668.21	78.678
668.53	77.657
668.86	76.840
669.18	78.038
669.50	75.217
669.83	81.046
670.15	78.667
670.48	74.728
670.80	80.819
671.13	77.070
671.45	74.468
671.77	77.189
672.10	73.567
672.42	70.671
672.75	72.471
673.07	73.415
673.39	71.790
673.72	76.172
674.04	74.510
674.37	71.845
674.69	77.096
675.01	74.477
675.34	77.618
675.66	77.684
675.98	76.171
676.31	76.050
676.63	77.282
676.95	75.472
677.28	78.271
677.60	74.505
677.92	77.215
678.25	75.770
678.57	73.307
678.89	76.754
679.22	73.281
679.54	74.809
679.86	71.560
680.18	71.556
680.51	69.681
680.83	70.107
681.15	73.962
681.48	72.590
681.80	73.888
682.12	68.391
682.44	71.567
682.77	74.134
683.09	76.395
683.41	75.831
683.73	76.380
684.06	71.694
684.38	72.798
684.70	74.225
685.02	73.546
685.34	72.527
685.67	69.930
685.99	66.151
686.31	68.771
686.63	66.254
686.96	68.929
687.28	70.939
687.60	71.377
687.92	69.835
688.24	69.202
688.56	75.502
688.89	76.141
689.21	77.293
689.53	75.157
689.85	74.501
690.17	68.944
690.49	72.399
690.82	78.037
691.14	73.214
691.46	71.097
691.78	72.490
692.10	72.727
692.42	73.054
692.74	70.954
693.06	75.532
693.39	70.021
693.71	73.144
694.03	71.789
694.35	70.996
694.67	70.023
694.99	75.854
695.31	74.020
695.63	72.727
695.95	77.751
696.27	74.112
696.59	76.943
696.91	72.539
697.23	68.310
697.56	69.083
697.88	65.644
698.20	69.583
698.52	68.602
698.84	69.042
699.16	70.737
699.48	71.971
699.80	71.739
700.12	77.403
700.44	77.719
700.76	74.309
701.08	76.149
701.40	72.905
701.72	74.927
702.04	76.989
702.36	70.255
702.68	73.938
703.00	74.515
703.32	73.670
703.64	72.654
703.96	71.309
704.28	73.837
704.60	76.246
704.91	78.635
705.23	73.607
705.55	76.080
705.87	83.056
706.19	77.385
706.51	73.832
706.83	75.455
707.15	73.109
707.47	73.232
707.79	71.499
708.11	68.493
708.43	70.714
708.74	69.643
709.06	72.208
709.38	71.916
709.70	75.872
710.02	75.964
710.34	73.636
710.66	69.552
710.98	71.591
711.29	73.547
711.61	72.566
711.93	75.321
712.25	75.241
712.57	80.882
712.89	75.087
713.20	71.733
713.52	75.658
713.84	74.684
714.16	73.476
714.48	70.690
714.80	79.331
715.11	76.657
715.43	72.997
715.75	72.464
716.07	74.121
716.39	74.608
716.70	77.076
717.02	78.417
717.34	73.852
717.66	77.985
717.97	80.080
718.29	72.963
718.61	75.547
718.93	81.985
719.24	75.433
719.56	71.525
719.88	72.203
720.20	73.649
720.51	72.125
720.83	77.323
721.15	75.746
721.46	69.504
721.78	77.419
722.10	80.377
722.42	79.699
722.73	75.655
723.05	80.738
723.37	79.352
723.68	79.537
724.00	76.016
724.32	75.000
724.63	72.764
724.95	74.477
725.27	84.211
725.58	76.953
725.90	74.088
726.22	77.358
726.53	73.958
726.85	76.451
727.16	76.512
727.48	68.794
727.80	70.076
728.11	69.203
728.43	76.154
728.74	69.176
729.06	77.737
729.38	81.250
729.69	71.886
730.01	68.601
730.32	71.181
730.64	70.903
730.96	67.987
731.27	71.523
731.59	70.031
731.90	69.971
732.22	68.944
732.53	67.183
732.85	68.269
733.16	69.132
733.48	68.771
733.80	71.429
734.11	67.197
734.43	67.751
734.74	68.286
735.06	68.195
735.37	70.520
735.69	70.382
736.00	76.144
736.32	69.470
736.63	66.454
736.95	65.495
737.26	63.946
737.58	65.806
737.89	69.565
738.21	67.918
738.52	65.714
738.83	69.057
739.15	70.769
739.46	70.073
739.78	72.222
740.09	67.692
740.41	71.935
740.72	71.080
741.04	71.852
741.35	75.000
741.66	80.444
741.98	76.887
742.29	76.555
742.61	71.552
742.92	76.018
743.23	72.650
743.55	73.200
743.86	75.000
744.18	82.743
744.49	85.646
744.80	74.178
745.12	77.727
745.43	75.330
745.74	81.081
746.06	77.982
746.37	73.543
746.68	76.923
747.00	75.000
747.31	81.429
747.62	71.681
747.94	70.485
748.25	69.787
748.56	78.855
748.88	74.752
749.19	83.000
749.50	67.442
749.82	64.634
750.13	71.837
750.44	70.073
750.75	73.333
751.07	68.810
751.38	70.035
751.69	68.592
752.01	69.549
752.32	71.119
752.63	69.149
752.94	77.049
753.26	74.000
753.57	72.764
753.88	71.094
754.19	67.500
754.51	68.750
754.82	66.426
755.13	70.566
755.44	68.421
755.75	65.328
756.07	69.149
756.38	69.708
756.69	70.134
757.00	63.174
757.31	62.908
757.63	63.743
757.94	60.322
758.25	60.049
758.56	61.728
758.87	60.484
759.18	65.152
759.50	65.517
759.81	63.551
760.12	67.187
760.43	64.183
760.74	60.870
761.05	64.124
761.36	59.893
761.67	63.068
761.99	66.149
762.30	67.708
762.61	68.702
762.92	66.016
763.23	69.328
763.54	71.600
763.85	66.797
764.16	71.154
764.47	69.202
764.78	63.251
765.10	62.658
765.41	64.897
765.72	61.677
766.03	67.398
766.34	58.000
766.65	78.298
766.96	69.658
767.27	76.142
767.58	78.646
767.89	79.474
768.20	81.034
768.51	70.051
768.82	74.771
769.13	67.886
769.44	67.611
769.75	69.957
770.06	69.266
770.37	71.041
770.68	68.519
770.99	70.667
771.30	64.344
771.61	74.888
771.92	74.180
772.23	72.269
772.54	71.795
772.85	73.822
773.16	76.064
773.47	75.543
773.78	80.203
774.09	80.357
774.39	77.778
774.70	79.012
775.01	86.957
775.32	85.621
775.63	82.895
775.94	81.295
776.25	89.764
776.56	81.343
776.87	85.246
777.18	92.188
777.48	78.626
777.79	82.576
778.10	76.296
778.41	86.607
778.72	71.533
779.03	77.852
779.34	79.866
779.65	71.622
779.95	77.914
780.26	85.621
780.57	80.690
780.88	90.625
781.19	80.451
781.50	81.081
781.80	76.730
782.11	74.011
782.42	74.051
782.73	75.460
783.04	81.081
783.34	86.620
783.65	87.671
783.96	88.806
784.27	74.126
784.57	72.662
784.88	86.111
785.19	82.540
785.50	92.453
785.81	79.851
786.11	82.787
786.42	87.597
786.73	86.726
787.04	88.679
787.34	90.179
787.65	101.000
787.96	88.288
788.26	85.124
788.57	84.746
788.88	92.562
789.19	76.389
789.49	84.848
789.80	78.626
790.11	100.952
790.41	92.079
790.72	100.000
791.03	101.087
791.33	97.674
791.64	81.443
791.95	102.970
792.25	96.667
792.56	114.286
792.87	123.077
793.17	96.203
793.48	101.149
793.79	89.655
794.09	103.409
794.40	79.832
794.70	83.824
795.01	74.074
795.32	74.820
795.62	74.803
795.93	85.345
796.23	93.805
796.54	96.471
796.85	106.757
797.15	118.310
797.46	109.091
797.76	110.843
798.07	83.544
798.37	101.538
798.68	124.242
798.99	102.817
799.29	92.208
799.60	89.773
799.90	104.110
800.21	123.881
800.51	112.069
800.82	133.333
801.12	119.672
801.43	125.758
801.73	95.946
802.04	115.873
802.34	77.778
802.65	101.563
802.95	130.508
803.26	118.750
803.56	90.000
803.87	103.077
804.17	101.471
804.48	133.333
804.78	105.172
805.09	114.706
805.39	121.154
805.70	121.429
806.00	114.754
806.30	92.424
806.61	103.659
806.91	82.278
807.22	98.684
807.52	94.030
807.83	102.817
808.13	104.688
808.43	110.000
808.74	85.526
809.04	104.348
809.35	100.000
809.65	103.947
809.95	116.129
810.26	108.475
810.56	117.460
810.86	143.182
811.17	154.762
811.47	121.667
811.77	125.926
812.08	132.727
812.38	146.000
812.69	186.111
812.99	168.182
813.29	126.531
813.59	109.524
813.90	134.694
814.20	130.909
814.50	87.692
814.81	105.882
815.11	134.694
815.41	109.836
815.72	159.524
816.02	127.273
816.32	130.952
816.62	130.000
816.93	126.829
817.23	157.143
817.53	154.545
817.84	193.939
818.14	134.783
818.44	124.444
818.74	200.000
819.04	120.000
819.35	154.286
819.65	167.647
819.95	207.143
820.25	230.000
820.56	153.846
820.86	136.364
821.16	144.186
821.46	158.974
821.76	140.000
822.07	148.571
822.37	155.000
822.67	154.545
822.97	121.569
823.27	221.429
823.57	181.081
823.88	165.000
824.18	216.667
824.48	164.286
824.78	208.000
825.08	216.667
825.38	151.351
825.69	146.341
825.99	220.833
826.29	186.207
826.59	128.947
826.89	150.000
827.19	185.294
827.49	190.323
827.79	145.455
828.09	143.182
828.39	121.277
828.70	128.571
829.00	144.444
829.30	164.516
829.60	132.500
829.90	306.667
830.20	217.857
830.50	165.217
830.80	204.348
831.10	186.667
831.40	196.667
831.70	182.609
832.00	253.846
832.30	144.444
832.60	281.250
832.90	180.000
833.20	392.857
833.50	180.645
833.80	217.241
834.10	203.125
834.40	253.846
834.70	272.222
835.00	309.524
835.30	154.286
835.60	315.385
835.90	186.207
836.20	328.571
836.50	151.724
836.80	164.000
837.10	166.667
837.40	242.857
837.70	288.235
838.00	207.407
838.30	223.810
838.60	271.429
838.90	226.923
839.19	255.000
839.49	378.571
839.79	305.000
840.09	305.000
840.39	200.000
840.69	243.478
840.99	266.667
841.29	440.000
841.59	316.667
841.88	356.250
842.18	168.966
842.48	233.333
842.78	173.333
843.08	178.261
843.38	184.375
843.68	716.667
843.97	215.385
844.27	189.655
844.57	261.905
844.87	312.500
845.17	211.111
845.47	1266.667
845.76	466.667
846.06	264.706
846.36	437.500
846.66	357.143
846.96	275.000
847.25	381.818
847.55	390.909
847.85	239.130
848.15	400.000
848.44	321.429
848.74	211.111
849.04	205.882
849.34	420.000
849.63	205.263
849.93	372.727
850.23	820.000
850.53	371.429
850.82	1800.000
851.12	-3800.000
851.42	4900.000
851.71	230.000
852.01	-866.667
852.31	212.500
852.61	1633.333
852.90	190.476
853.20	168.000
853.50	282.353
853.79	247.619
854.09	208.333
854.39	362.500
854.68	170.270
854.98	190.323
855.28	176.667
855.57	213.793
855.87	188.889
856.17	200.000
856.46	200.000
856.76	276.471
857.05	179.310
857.35	216.667
857.65	300.000
857.94	247.826
858.24	176.923
858.53	205.000
858.83	227.273
859.13	340.000
859.42	0.000
859.72	600.000
860.01	345.455
860.31	236.364
860.60	247.368
860.90	226.087
861.20	466.667
861.49	508.333
861.79	-4200.000
862.08	550.000
862.38	200.000
862.67	300.000
862.97	323.529
863.26	455.556
863.56	227.778
863.85	341.667
864.15	512.500
864.44	360.000
864.74	833.333
865.03	512.500
865.33	289.474
865.62	390.909
865.92	400.000
866.21	300.000
866.51	0.000
866.80	345.455
867.10	820.000
867.39	430.769
867.69	309.091
867.98	200.000
868.27	445.455
868.57	247.368
868.86	-4700.000
869.16	281.250
869.45	1700.000
869.75	-3100.000
870.04	350.000
870.33	671.429
870.63	1100.000
870.92	2300.000
871.22	785.714
871.51	288.235
871.80	209.524
872.10	307.143
>>>>>End Processed Spectral Data<<<<<
