SpectraSuite Data File
++++++++++++++++++++++++++++++++++++
Date: Wed May 13 16:17:46 PDT 2015
User: schluterlab
Dark Spectrum Present: Yes
Reference Spectrum Present: Yes
Number of Sampled Component Spectra: 1
Spectrometers: USB2E3373
Integration Time (usec): 3000 (USB2E3373)
Spectra Averaged: 3 (USB2E3373)
Boxcar Smoothing: 0 (USB2E3373)
Correct for Electrical Dark: No (USB2E3373)
Strobe/Lamp Enabled: No (USB2E3373)
Correct for Detector Non-linearity: No (USB2E3373)
Correct for Stray Light: No (USB2E3373)
Number of Pixels in Processed Spectrum: 2048
>>>>>Begin Processed Spectral Data<<<<<
178.53	0.000
178.91	-1200.000
179.29	-1025.000
179.67	-183.333
180.04	-950.000
180.42	2250.000
180.80	780.000
181.18	-600.000
181.56	514.286
181.94	0.000
182.31	-457.143
182.69	1666.667
183.07	-325.000
183.45	-400.000
183.83	418.182
184.20	-350.000
184.58	1950.000
184.96	5300.000
185.34	-680.000
185.72	-575.000
186.09	-1650.000
186.47	2250.000
186.85	2350.000
187.23	3500.000
187.61	-1200.000
187.98	1275.000
188.36	418.182
188.74	363.636
189.12	-940.000
189.49	360.000
189.87	-3200.000
190.25	-825.000
190.63	307.143
191.00	315.385
191.38	766.667
191.76	-950.000
192.14	1100.000
192.51	537.500
192.89	750.000
193.27	525.000
193.65	-775.000
194.02	460.000
194.40	500.000
194.78	380.000
195.15	408.333
195.53	490.000
195.91	-1350.000
196.29	256.250
196.66	284.211
197.04	-290.000
197.42	0.000
197.79	480.000
198.17	-4200.000
198.55	500.000
198.92	700.000
199.30	740.000
199.68	0.000
200.05	300.000
200.43	671.429
200.81	4700.000
201.18	1500.000
201.56	-1133.333
201.94	422.222
202.31	544.444
202.69	350.000
203.07	450.000
203.44	0.000
203.82	975.000
204.19	614.286
204.57	314.286
204.95	587.500
205.32	1333.333
205.70	436.364
206.08	278.571
206.45	2200.000
206.83	306.250
207.20	783.333
207.58	560.000
207.96	316.667
208.33	587.500
208.71	-666.667
209.08	714.286
209.46	511.111
209.84	318.182
210.21	-1200.000
210.59	1175.000
210.96	-487.500
211.34	2300.000
211.71	550.000
212.09	583.333
212.46	0.000
212.84	1133.333
213.22	1300.000
213.59	-3800.000
213.97	733.333
214.34	700.000
214.72	490.909
215.09	860.000
215.47	-1700.000
215.84	-1950.000
216.22	1566.667
216.59	385.714
216.97	1075.000
217.34	354.545
217.72	-633.333
218.09	0.000
218.47	-4600.000
218.84	577.778
219.22	571.429
219.59	1666.667
219.97	-642.857
220.34	760.000
220.72	-1300.000
221.09	392.857
221.47	1400.000
221.84	-733.333
222.22	0.000
222.59	1250.000
222.97	-2450.000
223.34	840.000
223.72	392.308
224.09	880.000
224.46	2000.000
224.84	-4300.000
225.21	-780.000
225.59	-3400.000
225.96	470.000
226.34	275.000
226.71	2450.000
227.08	600.000
227.46	530.000
227.83	-900.000
228.21	-1900.000
228.58	477.778
228.95	-2100.000
229.33	-1850.000
229.70	1366.667
230.08	685.714
230.45	-600.000
230.82	300.000
231.20	700.000
231.57	328.571
231.95	408.333
232.32	181.818
232.69	327.273
233.07	585.714
233.44	315.385
233.81	-1433.333
234.19	305.263
234.56	441.667
234.93	300.000
235.31	445.455
235.68	361.538
236.05	321.429
236.43	154.545
236.80	236.842
237.17	3400.000
237.55	204.762
237.92	142.857
238.29	209.524
238.67	177.419
239.04	182.759
239.41	158.333
239.79	115.217
240.16	140.476
240.53	131.818
240.91	123.529
241.28	130.000
241.65	114.000
242.02	84.058
242.40	112.903
242.77	103.333
243.14	73.118
243.51	86.517
243.89	80.000
244.26	76.667
244.63	75.269
245.00	67.021
245.38	67.327
245.75	71.028
246.12	62.385
246.49	69.343
246.87	73.600
247.24	64.615
247.61	62.857
247.98	62.092
248.36	56.757
248.73	56.688
249.10	64.331
249.47	58.757
249.84	58.289
250.22	55.615
250.59	58.580
250.96	55.051
251.33	53.555
251.70	57.426
252.08	55.714
252.45	55.157
252.82	57.826
253.19	51.064
253.56	52.941
253.94	53.112
254.31	49.219
254.68	55.769
255.05	46.494
255.42	54.878
255.79	50.000
256.16	49.819
256.54	48.763
256.91	51.246
257.28	46.403
257.65	46.535
258.02	47.205
258.39	48.580
258.76	46.154
259.14	43.750
259.51	47.416
259.88	44.720
260.25	45.921
260.62	45.665
260.99	46.273
261.36	47.748
261.73	48.138
262.10	48.837
262.47	47.042
262.85	44.568
263.22	40.741
263.59	48.148
263.96	46.703
264.33	44.125
264.70	45.526
265.07	45.524
265.44	44.697
265.81	39.659
266.18	46.482
266.55	45.122
266.92	43.243
267.29	43.981
267.66	41.514
268.03	44.091
268.40	43.458
268.77	44.391
269.14	45.946
269.51	40.632
269.88	43.357
270.25	43.567
270.62	46.067
270.99	41.075
271.36	41.416
271.73	45.561
272.10	41.522
272.47	42.151
272.84	40.476
273.21	41.300
273.58	42.576
273.95	40.252
274.32	39.876
274.69	41.756
275.06	41.142
275.43	44.894
275.80	40.080
276.17	41.752
276.54	43.243
276.91	41.107
277.28	37.695
277.65	41.973
278.02	41.822
278.39	42.383
278.76	40.545
279.13	40.566
279.50	39.665
279.87	40.040
280.23	40.719
280.60	40.039
280.97	42.514
281.34	39.469
281.71	40.545
282.08	41.267
282.45	40.182
282.82	39.076
283.19	35.294
283.56	40.702
283.92	38.917
284.29	38.095
284.66	38.838
285.03	36.347
285.40	36.972
285.77	37.205
286.14	38.687
286.51	41.000
286.87	37.607
287.24	39.577
287.61	37.400
287.98	35.877
288.35	39.144
288.72	37.072
289.08	35.681
289.45	38.221
289.82	35.122
290.19	34.066
290.56	35.069
290.93	32.779
291.29	37.117
291.66	35.103
292.03	35.756
292.40	35.095
292.77	33.876
293.13	31.791
293.50	33.528
293.87	31.704
294.24	33.630
294.60	30.859
294.97	33.430
295.34	33.427
295.71	33.097
296.08	31.766
296.44	32.462
296.81	30.779
297.18	34.282
297.55	29.815
297.91	29.288
298.28	32.129
298.65	31.070
299.02	31.621
299.38	32.005
299.75	30.054
300.12	29.119
300.48	29.750
300.85	29.100
301.22	31.083
301.59	30.303
301.95	31.360
302.32	30.680
302.69	29.510
303.05	30.545
303.42	29.753
303.79	29.445
304.15	28.555
304.52	29.780
304.89	29.152
305.25	29.350
305.62	28.313
305.99	29.044
306.35	28.635
306.72	29.484
307.09	29.745
307.45	29.505
307.82	28.348
308.19	28.918
308.55	28.479
308.92	29.431
309.29	28.722
309.65	28.632
310.02	30.973
310.38	29.462
310.75	29.567
311.12	29.069
311.48	29.885
311.85	29.245
312.22	30.385
312.58	28.898
312.95	29.989
313.31	28.155
313.68	31.081
314.05	30.572
314.41	30.854
314.78	30.413
315.14	30.487
315.51	29.969
315.87	30.792
316.24	29.394
316.61	29.630
316.97	31.703
317.34	31.213
317.70	30.497
318.07	31.665
318.43	31.800
318.80	31.396
319.16	30.414
319.53	30.206
319.89	31.714
320.26	31.800
320.62	31.944
320.99	31.717
321.35	32.121
321.72	33.368
322.08	31.984
322.45	33.930
322.81	33.236
323.18	32.948
323.54	31.633
323.91	33.491
324.27	33.652
324.64	34.203
325.00	33.003
325.37	35.396
325.73	35.278
326.10	33.981
326.46	33.961
326.83	35.979
327.19	35.525
327.56	34.059
327.92	34.646
328.29	36.557
328.65	35.820
329.01	36.462
329.38	34.043
329.74	35.457
330.11	34.873
330.47	36.915
330.84	37.316
331.20	36.157
331.56	35.963
331.93	36.944
332.29	35.670
332.66	36.372
333.02	35.649
333.38	36.043
333.75	36.631
334.11	35.854
334.48	34.960
334.84	34.099
335.20	36.727
335.57	36.718
335.93	35.714
336.29	36.447
336.66	36.429
337.02	34.842
337.38	35.463
337.75	34.938
338.11	35.542
338.47	35.635
338.84	35.197
339.20	35.046
339.56	36.223
339.93	36.273
340.29	34.330
340.65	36.096
341.02	34.904
341.38	35.854
341.74	33.684
342.11	36.070
342.47	35.595
342.83	35.103
343.20	35.411
343.56	33.951
343.92	34.561
344.28	34.439
344.65	37.145
345.01	34.512
345.37	34.220
345.73	35.195
346.10	34.697
346.46	34.746
346.82	34.926
347.19	33.584
347.55	35.140
347.91	34.385
348.27	35.744
348.63	36.120
349.00	34.871
349.36	35.304
349.72	35.686
350.08	33.712
350.45	34.906
350.81	34.281
351.17	33.955
351.53	35.299
351.89	34.406
352.26	35.359
352.62	34.082
352.98	33.793
353.34	35.251
353.70	33.879
354.07	33.952
354.43	34.524
354.79	34.352
355.15	34.238
355.51	35.492
355.87	35.020
356.24	34.935
356.60	34.804
356.96	34.755
357.32	35.487
357.68	34.252
358.04	34.917
358.40	35.788
358.77	33.412
359.13	34.570
359.49	34.745
359.85	32.619
360.21	35.566
360.57	34.942
360.93	35.154
361.29	35.601
361.66	33.669
362.02	34.701
362.38	34.753
362.74	34.003
363.10	34.789
363.46	34.189
363.82	34.467
364.18	34.581
364.54	35.513
364.90	35.482
365.26	35.000
365.62	36.085
365.98	35.427
366.35	35.315
366.71	34.707
367.07	34.523
367.43	34.615
367.79	36.403
368.15	35.991
368.51	35.538
368.87	35.332
369.23	35.040
369.59	35.409
369.95	35.147
370.31	36.182
370.67	34.493
371.03	36.554
371.39	35.131
371.75	35.588
372.11	35.135
372.47	36.290
372.83	36.816
373.19	35.983
373.55	35.920
373.91	36.598
374.27	35.533
374.63	36.800
374.99	36.653
375.35	36.078
375.71	35.367
376.07	37.174
376.42	36.933
376.78	37.177
377.14	35.821
377.50	37.947
377.86	36.037
378.22	36.599
378.58	35.526
378.94	36.204
379.30	37.468
379.66	37.563
380.02	38.145
380.38	37.523
380.74	37.875
381.09	38.264
381.45	39.029
381.81	39.373
382.17	39.236
382.53	38.365
382.89	37.901
383.25	37.774
383.61	38.786
383.97	38.524
384.32	37.991
384.68	38.042
385.04	38.967
385.40	39.319
385.76	39.128
386.12	38.925
386.48	39.711
386.83	39.641
387.19	40.260
387.55	40.198
387.91	39.964
388.27	38.811
388.62	39.029
388.98	39.189
389.34	40.300
389.70	39.117
390.06	40.558
390.42	39.948
390.77	40.076
391.13	41.225
391.49	41.117
391.85	39.847
392.20	40.757
392.56	39.583
392.92	39.847
393.28	40.237
393.64	39.688
393.99	40.745
394.35	41.191
394.71	40.590
395.07	39.564
395.42	41.224
395.78	40.394
396.14	41.092
396.50	41.855
396.85	41.386
397.21	40.629
397.57	41.228
397.92	41.046
398.28	39.966
398.64	41.577
399.00	40.851
399.35	39.932
399.71	40.451
400.07	40.568
400.42	40.798
400.78	40.832
401.14	41.768
401.49	39.642
401.85	40.835
402.21	40.359
402.57	40.962
402.92	41.173
403.28	41.037
403.63	41.955
403.99	41.401
404.35	41.697
404.70	40.468
405.06	40.652
405.42	40.611
405.77	41.314
406.13	39.503
406.49	40.509
406.84	40.284
407.20	39.835
407.55	40.842
407.91	40.933
408.27	41.672
408.62	40.578
408.98	40.625
409.34	40.959
409.69	41.355
410.05	40.582
410.40	41.223
410.76	40.442
411.11	40.350
411.47	40.000
411.83	41.478
412.18	41.002
412.54	41.345
412.89	40.181
413.25	39.965
413.60	39.963
413.96	39.344
414.31	40.036
414.67	41.445
415.03	41.788
415.38	39.948
415.74	40.386
416.09	41.215
416.45	40.830
416.80	40.383
417.16	41.153
417.51	41.407
417.87	40.655
418.22	41.514
418.58	41.640
418.93	40.971
419.29	40.929
419.64	41.751
420.00	40.122
420.35	41.101
420.71	41.124
421.06	39.260
421.42	39.825
421.77	41.256
422.12	40.595
422.48	40.043
422.83	41.293
423.19	39.337
423.54	40.801
423.90	40.638
424.25	40.257
424.61	41.190
424.96	39.942
425.31	39.812
425.67	40.056
426.02	39.886
426.38	40.415
426.73	39.614
427.09	39.635
427.44	40.138
427.79	39.965
428.15	40.774
428.50	40.374
428.85	40.584
429.21	40.033
429.56	39.606
429.92	39.708
430.27	40.318
430.62	40.041
430.98	40.477
431.33	39.948
431.68	39.476
432.04	39.350
432.39	40.320
432.74	40.754
433.10	40.125
433.45	40.758
433.80	40.022
434.16	40.331
434.51	40.368
434.86	39.339
435.22	40.467
435.57	40.547
435.92	40.199
436.28	40.688
436.63	40.563
436.98	39.782
437.34	40.012
437.69	39.440
438.04	39.910
438.39	40.179
438.75	40.674
439.10	39.832
439.45	40.024
439.81	39.396
440.16	39.808
440.51	40.422
440.86	40.938
441.22	40.267
441.57	40.658
441.92	40.481
442.27	40.151
442.63	39.389
442.98	40.563
443.33	39.348
443.68	39.959
444.03	39.873
444.39	39.727
444.74	39.015
445.09	39.623
445.44	40.295
445.79	40.376
446.15	39.068
446.50	40.495
446.85	39.414
447.20	39.929
447.55	40.257
447.91	38.996
448.26	39.622
448.61	39.627
448.96	40.698
449.31	40.664
449.66	39.449
450.02	40.279
450.37	40.079
450.72	40.214
451.07	40.463
451.42	39.210
451.77	41.045
452.12	39.492
452.47	40.299
452.83	39.744
453.18	39.548
453.53	39.641
453.88	39.634
454.23	39.749
454.58	40.157
454.93	41.132
455.28	39.214
455.63	38.107
455.98	40.655
456.34	39.950
456.69	40.952
457.04	41.115
457.39	40.210
457.74	38.712
458.09	40.196
458.44	39.339
458.79	38.829
459.14	40.971
459.49	39.638
459.84	40.222
460.19	38.833
460.54	38.194
460.89	39.221
461.24	39.284
461.59	41.023
461.94	40.012
462.29	40.356
462.64	39.375
462.99	38.517
463.34	39.333
463.69	39.962
464.04	39.130
464.39	38.841
464.74	39.275
465.09	40.109
465.44	39.335
465.79	39.206
466.14	38.478
466.49	38.877
466.84	39.872
467.19	39.046
467.54	39.625
467.89	37.575
468.24	38.685
468.59	39.133
468.94	38.790
469.29	39.653
469.64	38.889
469.99	38.633
470.34	38.639
470.68	40.158
471.03	39.796
471.38	40.167
471.73	39.041
472.08	39.474
472.43	37.940
472.78	37.854
473.13	39.281
473.48	38.826
473.83	39.451
474.17	38.208
474.52	39.330
474.87	39.346
475.22	37.841
475.57	37.775
475.92	39.033
476.27	38.501
476.61	38.224
476.96	38.977
477.31	38.148
477.66	38.184
478.01	38.108
478.36	38.815
478.70	37.902
479.05	38.339
479.40	38.741
479.75	38.434
480.10	38.867
480.45	37.887
480.79	37.458
481.14	37.476
481.49	37.921
481.84	37.952
482.19	38.346
482.53	37.844
482.88	37.785
483.23	37.991
483.58	38.944
483.92	37.816
484.27	37.473
484.62	37.241
484.97	37.564
485.31	38.801
485.66	38.545
486.01	37.491
486.36	36.078
486.70	34.755
487.05	34.980
487.40	36.006
487.75	36.336
488.09	37.003
488.44	36.191
488.79	37.432
489.13	37.089
489.48	36.419
489.83	36.297
490.17	37.396
490.52	36.625
490.87	37.178
491.22	36.698
491.56	36.219
491.91	36.529
492.26	36.518
492.60	36.452
492.95	35.781
493.30	36.075
493.64	36.818
493.99	36.815
494.34	36.263
494.68	36.951
495.03	36.513
495.37	36.808
495.72	36.452
496.07	37.309
496.41	35.841
496.76	36.412
497.11	36.965
497.45	36.563
497.80	36.612
498.14	36.087
498.49	36.244
498.84	36.098
499.18	36.857
499.53	36.087
499.87	36.673
500.22	36.034
500.56	37.524
500.91	36.442
501.26	36.083
501.60	36.782
501.95	35.426
502.29	35.754
502.64	37.197
502.98	36.232
503.33	35.740
503.67	36.473
504.02	35.828
504.36	35.798
504.71	36.199
505.06	35.759
505.40	36.315
505.75	35.439
506.09	36.443
506.44	36.458
506.78	36.775
507.13	36.800
507.47	36.010
507.82	36.373
508.16	37.031
508.51	37.291
508.85	35.253
509.19	36.173
509.54	36.480
509.88	36.631
510.23	37.224
510.57	37.926
510.92	35.888
511.26	35.920
511.61	35.788
511.95	36.013
512.30	35.896
512.64	35.895
512.98	35.745
513.33	36.456
513.67	35.966
514.02	35.390
514.36	36.701
514.70	36.248
515.05	35.527
515.39	36.007
515.74	36.712
516.08	35.606
516.42	35.738
516.77	36.455
517.11	35.128
517.46	36.117
517.80	36.295
518.14	35.437
518.49	36.114
518.83	35.739
519.17	35.912
519.52	36.446
519.86	36.395
520.20	35.780
520.55	37.163
520.89	37.470
521.23	36.490
521.58	36.735
521.92	37.110
522.26	34.838
522.61	36.262
522.95	34.500
523.29	35.727
523.64	37.012
523.98	35.983
524.32	36.550
524.66	35.177
525.01	35.907
525.35	35.440
525.69	34.606
526.04	36.199
526.38	35.937
526.72	35.276
527.06	36.033
527.41	34.344
527.75	35.949
528.09	35.902
528.43	37.094
528.78	35.894
529.12	34.970
529.46	36.558
529.80	36.077
530.15	36.324
530.49	34.585
530.83	35.886
531.17	36.423
531.51	35.603
531.86	35.226
532.20	36.962
532.54	35.939
532.88	35.430
533.22	33.542
533.57	35.988
533.91	36.002
534.25	35.784
534.59	35.876
534.93	36.109
535.27	35.788
535.62	35.958
535.96	35.719
536.30	34.965
536.64	36.574
536.98	36.231
537.32	35.352
537.66	34.733
538.01	35.879
538.35	34.324
538.69	36.248
539.03	35.283
539.37	34.633
539.71	33.701
540.05	34.967
540.39	35.083
540.73	35.058
541.07	35.886
541.42	34.834
541.76	35.419
542.10	34.476
542.44	34.901
542.78	35.771
543.12	33.845
543.46	35.803
543.80	35.394
544.14	34.146
544.48	36.190
544.82	34.573
545.16	35.329
545.50	34.704
545.84	34.610
546.18	34.882
546.52	34.412
546.86	34.983
547.20	35.738
547.54	34.603
547.88	36.607
548.22	33.748
548.56	33.962
548.90	34.379
549.24	33.872
549.58	35.266
549.92	34.341
550.26	35.511
550.60	34.716
550.94	34.648
551.28	33.504
551.62	34.867
551.96	34.105
552.30	35.358
552.64	34.956
552.98	33.831
553.32	35.334
553.66	35.446
554.00	34.248
554.34	33.747
554.68	34.263
555.02	33.427
555.36	33.890
555.69	34.235
556.03	34.724
556.37	34.516
556.71	33.629
557.05	34.664
557.39	33.030
557.73	34.227
558.07	34.445
558.41	34.805
558.75	34.313
559.08	34.377
559.42	34.316
559.76	34.632
560.10	34.618
560.44	34.451
560.78	34.464
561.12	33.575
561.45	33.898
561.79	34.146
562.13	34.272
562.47	34.221
562.81	34.728
563.15	33.579
563.48	34.748
563.82	34.834
564.16	33.682
564.50	34.180
564.84	34.134
565.17	33.784
565.51	34.888
565.85	33.947
566.19	32.999
566.52	34.136
566.86	33.695
567.20	34.316
567.54	34.532
567.88	32.863
568.21	34.974
568.55	33.974
568.89	34.144
569.23	33.779
569.56	34.089
569.90	33.509
570.24	33.046
570.57	33.220
570.91	33.743
571.25	33.354
571.59	33.314
571.92	33.324
572.26	33.189
572.60	33.664
572.93	33.013
573.27	33.600
573.61	33.473
573.95	33.514
574.28	32.940
574.62	32.872
574.96	32.760
575.29	32.420
575.63	33.003
575.97	33.012
576.30	32.820
576.64	33.283
576.98	32.645
577.31	32.925
577.65	33.246
577.98	33.152
578.32	32.109
578.66	32.432
578.99	32.687
579.33	32.389
579.67	31.890
580.00	32.151
580.34	32.748
580.67	32.664
581.01	32.944
581.35	33.074
581.68	33.216
582.02	32.377
582.35	32.495
582.69	32.670
583.02	32.496
583.36	32.926
583.70	32.443
584.03	32.445
584.37	33.175
584.70	33.098
585.04	32.828
585.37	32.689
585.71	33.059
586.04	32.278
586.38	33.307
586.72	33.471
587.05	32.518
587.39	32.797
587.72	32.724
588.06	31.937
588.39	32.565
588.73	32.532
589.06	32.720
589.40	32.828
589.73	33.157
590.07	32.954
590.40	32.115
590.73	33.372
591.07	33.333
591.40	32.518
591.74	32.641
592.07	32.679
592.41	33.444
592.74	32.772
593.08	32.878
593.41	32.585
593.75	32.199
594.08	32.417
594.41	32.980
594.75	32.348
595.08	32.892
595.42	32.084
595.75	32.407
596.09	32.858
596.42	33.242
596.75	32.503
597.09	33.636
597.42	32.125
597.75	32.945
598.09	32.522
598.42	32.517
598.76	31.779
599.09	32.231
599.42	32.278
599.76	32.321
600.09	32.313
600.42	31.702
600.76	32.036
601.09	31.512
601.42	31.811
601.76	32.068
602.09	32.490
602.42	32.245
602.76	32.124
603.09	32.297
603.42	32.917
603.76	32.508
604.09	31.601
604.42	32.002
604.76	32.096
605.09	32.591
605.42	32.279
605.75	32.450
606.09	31.070
606.42	32.203
606.75	31.564
607.09	31.603
607.42	31.536
607.75	30.802
608.08	31.741
608.42	31.824
608.75	31.966
609.08	31.684
609.41	31.604
609.75	31.396
610.08	32.139
610.41	32.076
610.74	32.119
611.07	32.362
611.41	32.139
611.74	32.026
612.07	33.230
612.40	32.424
612.73	32.421
613.07	32.220
613.40	32.649
613.73	30.834
614.06	31.667
614.39	32.826
614.72	31.737
615.06	32.038
615.39	32.006
615.72	30.828
616.05	31.366
616.38	31.740
616.71	32.898
617.05	31.213
617.38	31.750
617.71	32.312
618.04	32.392
618.37	31.283
618.70	32.794
619.03	32.895
619.36	32.722
619.69	33.592
620.03	33.929
620.36	31.551
620.69	33.082
621.02	31.932
621.35	32.733
621.68	31.231
622.01	32.740
622.34	33.661
622.67	32.776
623.00	32.135
623.33	31.808
623.66	33.024
623.99	32.327
624.32	31.954
624.65	32.627
624.99	31.232
625.32	32.151
625.65	32.156
625.98	33.282
626.31	32.426
626.64	34.041
626.97	32.668
627.30	31.837
627.63	32.732
627.96	33.305
628.29	31.584
628.62	33.577
628.95	33.491
629.28	32.664
629.61	32.356
629.94	32.476
630.26	32.602
630.59	33.746
630.92	31.897
631.25	31.096
631.58	31.832
631.91	31.947
632.24	32.595
632.57	34.103
632.90	32.346
633.23	32.886
633.56	33.785
633.89	32.729
634.22	33.825
634.55	33.964
634.88	33.293
635.20	33.214
635.53	31.807
635.86	35.149
636.19	33.294
636.52	33.564
636.85	32.417
637.18	32.143
637.51	34.043
637.83	28.730
638.16	33.504
638.49	32.997
638.82	33.375
639.15	33.375
639.48	33.042
639.81	33.914
640.13	32.813
640.46	32.483
640.79	32.497
641.12	31.224
641.45	31.564
641.77	32.106
642.10	33.041
642.43	31.682
642.76	31.734
643.09	36.043
643.41	31.563
643.74	34.414
644.07	32.470
644.40	34.969
644.73	34.961
645.05	34.865
645.38	33.175
645.71	31.884
646.04	33.721
646.36	34.891
646.69	34.950
647.02	34.354
647.35	33.677
647.67	33.274
648.00	33.984
648.33	33.333
648.66	33.333
648.98	35.232
649.31	31.988
649.64	32.287
649.96	33.532
650.29	33.017
650.62	29.935
650.94	34.198
651.27	35.473
651.60	33.943
651.92	33.866
652.25	33.062
652.58	33.178
652.90	35.229
653.23	31.895
653.56	32.913
653.88	33.756
654.21	34.123
654.54	32.508
654.86	32.555
655.19	32.162
655.52	26.778
655.84	28.201
656.17	36.002
656.49	47.959
656.82	48.056
657.15	35.957
657.47	26.409
657.80	20.205
658.13	20.694
658.45	30.775
658.78	30.024
659.10	30.788
659.43	31.688
659.75	31.934
660.08	34.051
660.41	35.940
660.73	35.070
661.06	34.076
661.38	36.182
661.71	37.308
662.03	37.278
662.36	32.008
662.68	33.333
663.01	32.525
663.33	34.820
663.66	35.714
663.98	34.341
664.31	32.353
664.63	34.615
664.96	29.980
665.28	36.066
665.61	32.554
665.93	32.998
666.26	34.077
666.58	37.029
666.91	35.729
667.23	35.281
667.56	33.909
667.88	36.325
668.21	36.461
668.53	34.924
668.86	33.117
669.18	34.115
669.50	33.261
669.83	36.383
670.15	35.111
670.48	34.205
670.80	35.991
671.13	33.546
671.45	33.404
671.77	37.882
672.10	33.087
672.42	32.862
672.75	31.675
673.07	33.627
673.39	33.816
673.72	33.398
674.04	33.725
674.37	32.039
674.69	30.470
675.01	33.891
675.34	36.140
675.66	35.158
675.98	32.790
676.31	35.924
676.63	34.607
676.95	32.075
677.28	34.813
677.60	31.868
677.92	34.599
678.25	31.417
678.57	32.669
678.89	33.667
679.22	34.578
679.54	34.351
679.86	35.229
680.18	31.664
680.51	32.624
680.83	34.875
681.15	33.774
681.48	34.405
681.80	33.849
682.12	33.333
682.44	29.014
682.77	36.456
683.09	34.979
683.41	36.364
683.73	32.450
684.06	38.017
684.38	32.094
684.70	33.527
685.02	34.146
685.34	33.150
685.67	33.042
685.99	34.708
686.31	32.594
686.63	33.039
686.96	33.036
687.28	34.116
687.60	31.884
687.92	32.541
688.24	34.221
688.56	34.337
688.89	34.025
689.21	36.463
689.53	34.238
689.85	32.373
690.17	34.369
690.49	36.093
690.82	35.280
691.14	31.250
691.46	32.278
691.78	33.735
692.10	33.058
692.42	32.934
692.74	34.440
693.06	34.043
693.39	32.444
693.71	32.533
694.03	33.263
694.35	31.818
694.67	34.096
694.99	35.366
695.31	32.843
695.63	35.646
695.95	35.452
696.27	35.025
696.59	36.010
696.91	34.715
697.23	32.629
697.56	36.887
697.88	31.084
698.20	32.917
698.52	33.763
698.84	34.076
699.16	34.101
699.48	33.492
699.80	32.850
700.12	39.221
700.44	36.605
700.76	38.398
701.08	38.793
701.40	35.196
701.72	37.901
702.04	41.761
702.36	34.278
702.68	40.510
703.00	34.903
703.32	34.574
703.64	35.389
703.96	37.326
704.28	35.174
704.60	36.657
704.91	37.092
705.23	37.243
705.55	41.528
705.87	40.199
706.19	40.636
706.51	39.252
706.83	37.576
707.15	37.535
707.47	35.859
707.79	37.838
708.11	33.790
708.43	36.905
708.74	32.143
709.06	34.805
709.38	35.958
709.70	36.337
710.02	37.982
710.34	37.576
710.66	37.313
710.98	37.784
711.29	36.047
711.61	40.118
711.93	34.936
712.25	39.550
712.57	34.559
712.89	43.599
713.20	38.298
713.52	39.803
713.84	37.658
714.16	37.500
714.48	35.920
714.80	40.122
715.11	35.159
715.43	35.608
715.75	33.913
716.07	35.144
716.39	34.796
716.70	38.538
717.02	36.691
717.34	38.163
717.66	42.164
717.97	41.434
718.29	40.741
718.61	42.336
718.93	40.074
719.24	38.754
719.56	35.254
719.88	37.966
720.20	39.527
720.51	40.767
720.83	40.892
721.15	38.806
721.46	40.071
721.78	40.143
722.10	41.887
722.42	42.857
722.73	38.202
723.05	39.344
723.37	38.462
723.68	38.996
724.00	39.837
724.32	37.097
724.63	38.211
724.95	41.841
725.27	45.344
725.58	39.453
725.90	42.701
726.22	38.113
726.53	41.319
726.85	40.614
727.16	40.214
727.48	36.879
727.80	43.182
728.11	38.768
728.43	38.846
728.74	37.993
729.06	42.336
729.38	40.809
729.69	42.349
730.01	34.471
730.32	37.500
730.64	38.127
730.96	35.314
731.27	40.066
731.59	39.144
731.90	35.569
732.22	39.130
732.53	34.056
732.85	36.538
733.16	36.334
733.48	39.867
733.80	38.312
734.11	39.172
734.43	37.574
734.74	34.000
735.06	37.249
735.37	39.595
735.69	40.127
736.00	40.523
736.32	37.695
736.63	37.061
736.95	38.019
737.26	34.694
737.58	37.419
737.89	42.809
738.21	41.297
738.52	40.714
738.83	32.453
739.15	38.462
739.46	39.051
739.78	41.319
740.09	38.462
740.41	40.000
740.72	34.843
741.04	38.519
741.35	38.750
741.66	49.333
741.98	43.396
742.29	45.455
742.61	46.121
742.92	42.534
743.23	37.607
743.55	44.800
743.86	39.912
744.18	46.018
744.49	44.498
744.80	46.479
745.12	45.909
745.43	44.934
745.74	48.649
746.06	39.450
746.37	44.395
746.68	45.701
747.00	40.278
747.31	46.190
747.62	39.823
747.94	41.410
748.25	42.553
748.56	46.256
748.88	42.574
749.19	47.500
749.50	41.860
749.82	38.211
750.13	35.918
750.44	44.526
750.75	40.351
751.07	43.087
751.38	40.767
751.69	42.599
752.01	41.729
752.32	39.350
752.63	41.135
752.94	38.115
753.26	44.000
753.57	39.837
753.88	42.969
754.19	38.929
754.51	42.014
754.82	35.740
755.13	43.019
755.44	40.602
755.75	38.686
756.07	40.780
756.38	36.861
756.69	36.242
757.00	37.126
757.31	33.531
757.63	34.795
757.94	38.606
758.25	32.843
758.56	35.802
758.87	35.484
759.18	39.697
759.50	39.185
759.81	39.252
760.12	34.375
760.43	40.401
760.74	34.239
761.05	37.853
761.36	35.561
761.67	37.784
761.99	35.714
762.30	37.847
762.61	39.313
762.92	41.797
763.23	41.597
763.54	37.200
763.85	39.844
764.16	41.923
764.47	42.966
764.78	36.042
765.10	34.494
765.41	40.413
765.72	35.629
766.03	36.050
766.34	40.333
766.65	45.532
766.96	42.735
767.27	47.716
767.58	50.521
767.89	47.895
768.20	54.023
768.51	46.193
768.82	45.413
769.13	37.398
769.44	42.105
769.75	41.631
770.06	34.404
770.37	46.154
770.68	43.519
770.99	42.222
771.30	39.754
771.61	43.498
771.92	44.672
772.23	47.899
772.54	45.641
772.85	49.215
773.16	47.340
773.47	54.348
773.78	49.239
774.09	44.643
774.39	56.725
774.70	49.383
775.01	52.174
775.32	55.556
775.63	49.342
775.94	52.518
776.25	58.268
776.56	58.955
776.87	55.738
777.18	58.594
777.48	57.252
777.79	58.333
778.10	59.259
778.41	55.357
778.72	43.066
779.03	46.980
779.34	51.007
779.65	50.676
779.95	47.239
780.26	57.516
780.57	53.793
780.88	57.031
781.19	50.376
781.50	55.405
781.80	52.830
782.11	47.458
782.42	53.797
782.73	44.785
783.04	54.054
783.34	52.817
783.65	50.000
783.96	56.716
784.27	48.951
784.57	48.921
784.88	52.778
785.19	55.556
785.50	57.547
785.81	60.448
786.11	61.475
786.42	49.612
786.73	58.407
787.04	61.321
787.34	61.607
787.65	66.000
787.96	58.559
788.26	52.893
788.57	64.407
788.88	66.942
789.19	56.944
789.49	67.424
789.80	58.779
790.11	71.429
790.41	63.366
790.72	61.446
791.03	67.391
791.33	79.070
791.64	57.732
791.95	62.376
792.25	74.444
792.56	70.130
792.87	87.179
793.17	96.203
793.48	70.115
793.79	60.920
794.09	62.500
794.40	54.622
794.70	61.765
795.01	48.148
795.32	58.273
795.62	51.969
795.93	50.862
796.23	68.142
796.54	70.588
796.85	70.270
797.15	67.606
797.46	75.758
797.76	80.723
798.07	69.620
798.37	81.538
798.68	83.333
798.99	71.831
799.29	84.416
799.60	73.864
799.90	80.822
800.21	73.134
800.51	82.759
800.82	98.246
801.12	68.852
801.43	96.970
801.73	70.270
802.04	98.413
802.34	85.185
802.65	85.938
802.95	98.305
803.26	82.813
803.56	84.286
803.87	76.923
804.17	85.294
804.48	101.852
804.78	75.862
805.09	75.000
805.39	96.154
805.70	87.500
806.00	100.000
806.30	87.879
806.61	62.195
806.91	58.228
807.22	76.316
807.52	70.149
807.83	78.873
808.13	82.813
808.43	86.667
808.74	76.316
809.04	76.812
809.35	83.582
809.65	86.842
809.95	111.290
810.26	81.356
810.56	90.476
810.86	120.455
811.17	121.429
811.47	106.667
811.77	116.667
812.08	101.818
812.38	92.000
812.69	125.000
812.99	131.818
813.29	116.327
813.59	83.333
813.90	110.204
814.20	112.727
814.50	84.615
814.81	94.118
815.11	91.837
815.41	95.082
815.72	130.952
816.02	105.455
816.32	109.524
816.62	105.000
816.93	119.512
817.23	119.048
817.53	145.455
817.84	151.515
818.14	121.739
818.44	108.889
818.74	173.529
819.04	130.000
819.35	137.143
819.65	135.294
819.95	153.571
820.25	190.000
820.56	143.590
820.86	106.818
821.16	104.651
821.46	120.513
821.76	122.000
822.07	151.429
822.37	145.000
822.67	142.424
822.97	105.882
823.27	182.143
823.57	137.838
823.88	135.000
824.18	160.000
824.48	135.714
824.78	180.000
825.08	195.833
825.38	159.459
825.69	119.512
825.99	195.833
826.29	148.276
826.59	126.316
826.89	118.421
827.19	167.647
827.49	164.516
827.79	118.182
828.09	106.818
828.39	104.255
828.70	118.367
829.00	159.259
829.30	132.258
829.60	145.000
829.90	253.333
830.20	175.000
830.50	173.913
830.80	191.304
831.10	153.333
831.40	163.333
831.70	147.826
832.00	180.769
832.30	151.852
832.60	281.250
832.90	196.667
833.20	292.857
833.50	158.065
833.80	134.483
834.10	165.625
834.40	223.077
834.70	277.778
835.00	271.429
835.30	134.286
835.60	261.538
835.90	172.414
836.20	271.429
836.50	158.621
836.80	172.000
837.10	169.444
837.40	171.429
837.70	247.059
838.00	188.889
838.30	185.714
838.60	204.762
838.90	188.462
839.19	260.000
839.49	300.000
839.79	270.000
840.09	250.000
840.39	247.619
840.69	217.391
840.99	188.889
841.29	410.000
841.59	325.000
841.88	318.750
842.18	148.276
842.48	204.762
842.78	166.667
843.08	165.217
843.38	143.750
843.68	766.667
843.97	203.846
844.27	175.862
844.57	276.190
844.87	318.750
845.17	211.111
845.47	1100.000
845.76	422.222
846.06	252.941
846.36	400.000
846.66	357.143
846.96	212.500
847.25	327.273
847.55	336.364
847.85	204.348
848.15	420.000
848.44	328.571
848.74	194.444
849.04	270.588
849.34	270.000
849.63	200.000
849.93	418.182
850.23	780.000
850.53	371.429
850.82	1600.000
851.12	-3800.000
851.42	3800.000
851.71	235.000
852.01	-1166.667
852.31	170.833
852.61	1566.667
852.90	219.048
853.20	172.000
853.50	247.059
853.79	242.857
854.09	179.167
854.39	287.500
854.68	145.946
854.98	193.548
855.28	176.667
855.57	182.759
855.87	159.259
856.17	205.263
856.46	193.333
856.76	223.529
857.05	179.310
857.35	216.667
857.65	326.667
857.94	195.652
858.24	176.923
858.53	240.000
858.83	218.182
859.13	300.000
859.42	0.000
859.72	433.333
860.01	381.818
860.31	268.182
860.60	284.211
860.90	217.391
861.20	400.000
861.49	375.000
861.79	-2800.000
862.08	562.500
862.38	261.905
862.67	315.385
862.97	294.118
863.26	555.556
863.56	250.000
863.85	341.667
864.15	512.500
864.44	313.333
864.74	750.000
865.03	437.500
865.33	257.895
865.62	436.364
865.92	300.000
866.21	300.000
866.51	0.000
866.80	400.000
867.10	840.000
867.39	315.385
867.69	354.545
867.98	263.158
868.27	390.909
868.57	278.947
868.86	-4500.000
869.16	262.500
869.45	1250.000
869.75	-4100.000
870.04	341.667
870.33	642.857
870.63	875.000
870.92	2100.000
871.22	642.857
871.51	347.059
871.80	180.952
872.10	321.429
>>>>>End Processed Spectral Data<<<<<
