SpectraSuite Data File
++++++++++++++++++++++++++++++++++++
Date: Wed May 13 16:50:54 PDT 2015
User: schluterlab
Dark Spectrum Present: Yes
Reference Spectrum Present: Yes
Number of Sampled Component Spectra: 1
Spectrometers: USB2E3373
Integration Time (usec): 3000 (USB2E3373)
Spectra Averaged: 3 (USB2E3373)
Boxcar Smoothing: 0 (USB2E3373)
Correct for Electrical Dark: No (USB2E3373)
Strobe/Lamp Enabled: No (USB2E3373)
Correct for Detector Non-linearity: No (USB2E3373)
Correct for Stray Light: No (USB2E3373)
Number of Pixels in Processed Spectrum: 2048
>>>>>Begin Processed Spectral Data<<<<<
178.53	0.000
178.91	-1275.000
179.29	-1300.000
179.67	-216.667
180.04	-1350.000
180.42	2550.000
180.80	800.000
181.18	-850.000
181.56	671.429
181.94	0.000
182.31	-628.571
182.69	1500.000
183.07	-575.000
183.45	-544.444
183.83	554.545
184.20	-320.000
184.58	2400.000
184.96	4400.000
185.34	-900.000
185.72	-662.500
186.09	-2000.000
186.47	2400.000
186.85	2150.000
187.23	4700.000
187.61	-1600.000
187.98	1550.000
188.36	509.091
188.74	427.273
189.12	-760.000
189.49	460.000
189.87	-4800.000
190.25	-1350.000
190.63	435.714
191.00	430.769
191.38	783.333
191.76	-1200.000
192.14	1175.000
192.51	637.500
192.89	1000.000
193.27	600.000
193.65	-1125.000
194.02	560.000
194.40	1020.000
194.78	540.000
195.15	550.000
195.53	580.000
195.91	-1800.000
196.29	412.500
196.66	347.368
197.04	-380.000
197.42	0.000
197.79	560.000
198.17	-4100.000
198.55	642.857
198.92	650.000
199.30	840.000
199.68	0.000
200.05	300.000
200.43	742.857
200.81	4600.000
201.18	1466.667
201.56	-1766.667
201.94	500.000
202.31	566.667
202.69	483.333
203.07	610.000
203.44	0.000
203.82	1275.000
204.19	700.000
204.57	407.143
204.95	587.500
205.32	1566.667
205.70	454.545
206.08	321.429
206.45	2450.000
206.83	343.750
207.20	866.667
207.58	740.000
207.96	261.111
208.33	587.500
208.71	-833.333
209.08	685.714
209.46	477.778
209.84	372.727
210.21	-1433.333
210.59	1225.000
210.96	-600.000
211.34	2550.000
211.71	550.000
212.09	783.333
212.46	0.000
212.84	1733.333
213.22	1425.000
213.59	-3800.000
213.97	733.333
214.34	700.000
214.72	618.182
215.09	1040.000
215.47	-2400.000
215.84	-2250.000
216.22	1766.667
216.59	378.571
216.97	1200.000
217.34	400.000
217.72	-683.333
218.09	0.000
218.47	-4300.000
218.84	555.556
219.22	628.571
219.59	1700.000
219.97	-671.429
220.34	740.000
220.72	-1900.000
221.09	457.143
221.47	1325.000
221.84	-850.000
222.22	0.000
222.59	1475.000
222.97	-2450.000
223.34	1020.000
223.72	423.077
224.09	1140.000
224.46	2350.000
224.84	-4000.000
225.21	-980.000
225.59	-5000.000
225.96	580.000
226.34	285.000
226.71	2450.000
227.08	600.000
227.46	560.000
227.83	-1175.000
228.21	-2400.000
228.58	600.000
228.95	-2450.000
229.33	-1900.000
229.70	1366.667
230.08	728.571
230.45	-720.000
230.82	416.667
231.20	850.000
231.57	571.429
231.95	475.000
232.32	236.364
232.69	436.364
233.07	657.143
233.44	315.385
233.81	-1833.333
234.19	305.263
234.56	441.667
234.93	375.000
235.31	500.000
235.68	361.538
236.05	328.571
236.43	196.970
236.80	252.632
237.17	4900.000
237.55	238.095
237.92	203.571
238.29	257.143
238.67	206.452
239.04	251.724
239.41	169.444
239.79	119.565
240.16	147.619
240.53	156.818
240.91	103.922
241.28	118.000
241.65	120.000
242.02	104.348
242.40	104.839
242.77	101.667
243.14	83.871
243.51	93.258
243.89	85.882
244.26	85.556
244.63	66.667
245.00	79.787
245.38	64.356
245.75	77.570
246.12	62.385
246.49	72.993
246.87	78.400
247.24	71.538
247.61	59.286
247.98	52.941
248.36	51.351
248.73	64.968
249.10	63.694
249.47	57.627
249.84	55.615
250.22	55.615
250.59	57.988
250.96	52.525
251.33	56.872
251.70	52.475
252.08	53.810
252.45	48.879
252.82	47.391
253.19	47.660
253.56	45.882
253.94	49.793
254.31	52.344
254.68	46.538
255.05	48.339
255.42	46.341
255.79	46.324
256.16	48.375
256.54	44.523
256.91	48.399
257.28	40.647
257.65	44.224
258.02	45.963
258.39	41.325
258.76	42.475
259.14	42.560
259.51	40.122
259.88	42.857
260.25	45.921
260.62	41.329
260.99	43.789
261.36	44.144
261.73	42.407
262.10	42.151
262.47	42.817
262.85	38.162
263.22	36.467
263.59	40.456
263.96	39.011
264.33	38.642
264.70	42.632
265.07	38.363
265.44	37.374
265.81	36.740
266.18	41.206
266.55	38.537
266.92	39.803
267.29	42.824
267.66	37.385
268.03	37.727
268.40	39.019
268.77	38.663
269.14	38.288
269.51	37.020
269.88	38.695
270.25	36.569
270.62	37.079
270.99	38.065
271.36	36.910
271.73	40.421
272.10	38.043
272.47	36.989
272.84	37.446
273.21	35.849
273.58	33.843
273.95	34.172
274.32	34.091
274.69	40.471
275.06	34.843
275.43	36.170
275.80	36.874
276.17	34.420
276.54	38.462
276.91	35.968
277.28	36.719
277.65	35.590
278.02	34.783
278.39	35.742
278.76	35.273
279.13	36.981
279.50	32.961
279.87	35.857
280.23	35.529
280.60	31.721
280.97	36.044
281.34	35.752
281.71	33.455
282.08	35.509
282.45	34.000
282.82	34.281
283.19	34.046
283.56	33.684
283.92	35.195
284.29	32.804
284.66	33.031
285.03	34.177
285.40	32.570
285.77	32.155
286.14	33.851
286.51	33.833
286.87	34.359
287.24	34.853
287.61	31.140
287.98	32.468
288.35	29.794
288.72	32.087
289.08	30.986
289.45	31.796
289.82	32.033
290.19	31.240
290.56	29.403
290.93	27.492
291.29	30.521
291.66	29.646
292.03	30.814
292.40	32.452
292.77	28.994
293.13	29.104
293.50	27.697
293.87	29.185
294.24	28.000
294.60	27.948
294.97	28.052
295.34	28.491
295.71	26.278
296.08	25.356
296.44	27.923
296.81	26.684
297.18	26.694
297.55	26.517
297.91	25.066
298.28	28.246
298.65	26.762
299.02	27.273
299.38	26.428
299.75	24.933
300.12	25.160
300.48	24.750
300.85	26.141
301.22	24.331
301.59	25.379
301.95	27.078
302.32	25.160
302.69	22.581
303.05	25.818
303.42	24.568
303.79	25.595
304.15	22.494
304.52	23.523
304.89	23.693
305.25	24.130
305.62	24.349
305.99	24.793
306.35	24.049
306.72	23.991
307.09	24.639
307.45	24.212
307.82	22.321
308.19	24.393
308.55	24.164
308.92	23.845
309.29	22.492
309.65	23.012
310.02	23.150
310.38	23.978
310.75	22.809
311.12	22.313
311.48	22.989
311.85	24.738
312.22	22.268
312.58	22.973
312.95	23.126
313.31	21.068
313.68	24.116
314.05	24.063
314.41	23.216
314.78	22.759
315.14	22.939
315.51	22.554
315.87	22.178
316.24	22.741
316.61	21.345
316.97	22.701
317.34	20.646
317.70	22.753
318.07	22.329
318.43	21.918
318.80	22.962
319.16	21.846
319.53	21.857
319.89	23.238
320.26	22.900
320.62	22.817
320.99	21.414
321.35	23.636
321.72	22.074
322.08	22.606
322.45	23.483
322.81	22.578
323.18	21.291
323.54	21.892
323.91	21.887
324.27	21.893
324.64	21.622
325.00	20.559
325.37	22.657
325.73	22.980
326.10	20.918
326.46	21.147
326.83	22.433
327.19	20.751
327.56	21.690
327.92	21.697
328.29	22.094
328.65	21.179
329.01	20.397
329.38	21.554
329.74	21.884
330.11	22.149
330.47	20.478
330.84	21.875
331.20	20.947
331.56	20.917
331.93	19.815
332.29	21.118
332.66	22.478
333.02	20.841
333.38	20.867
333.75	21.123
334.11	20.907
334.48	19.876
334.84	21.232
335.20	21.182
335.57	19.130
335.93	20.268
336.29	20.330
336.66	21.190
337.02	19.819
337.38	19.259
337.75	19.964
338.11	20.680
338.47	20.258
338.84	21.082
339.20	19.908
339.56	21.624
339.93	20.091
340.29	20.743
340.65	19.430
341.02	19.983
341.38	20.463
341.74	20.439
342.11	20.524
342.47	19.736
342.83	20.462
343.20	20.952
343.56	20.219
343.92	19.123
344.28	19.388
344.65	20.808
345.01	20.034
345.37	18.611
345.73	19.712
346.10	19.182
346.46	19.661
346.82	18.616
347.19	18.463
347.55	18.719
347.91	20.065
348.27	20.214
348.63	19.732
349.00	19.417
349.36	19.869
349.72	19.888
350.08	18.963
350.45	19.854
350.81	19.253
351.17	19.692
351.53	18.673
351.89	18.977
352.26	20.442
352.62	19.166
352.98	20.097
353.34	19.885
353.70	17.512
354.07	19.435
354.43	19.365
354.79	17.619
355.15	18.356
355.51	19.185
355.87	19.673
356.24	18.241
356.60	18.765
356.96	17.940
357.32	18.806
357.68	19.134
358.04	18.844
358.40	20.269
358.77	18.858
359.13	17.364
359.49	18.902
359.85	17.857
360.21	17.544
360.57	18.521
360.93	18.769
361.29	19.350
361.66	17.802
362.02	18.507
362.38	18.175
362.74	18.601
363.10	17.395
363.46	17.755
363.82	18.141
364.18	18.796
364.54	18.053
364.90	18.768
365.26	17.941
365.62	18.919
365.98	18.408
366.35	17.479
366.71	18.438
367.07	16.897
367.43	17.925
367.79	18.844
368.15	18.750
368.51	17.951
368.87	18.487
369.23	16.606
369.59	18.610
369.95	17.868
370.31	17.806
370.67	16.812
371.03	19.326
371.39	18.149
371.75	17.574
372.11	18.208
372.47	18.402
372.83	18.732
373.19	17.413
373.55	18.034
373.91	18.189
374.27	17.732
374.63	18.109
374.99	18.503
375.35	16.399
375.71	17.272
376.07	17.833
376.42	18.501
376.78	18.158
377.14	18.114
377.50	18.344
377.86	17.354
378.22	17.446
378.58	17.293
378.94	17.348
379.30	18.193
379.66	17.703
380.02	18.366
380.38	16.758
380.74	17.227
381.09	17.665
381.45	17.947
381.81	17.015
382.17	17.516
382.53	17.610
382.89	17.840
383.25	17.699
383.61	17.720
383.97	18.074
384.32	16.968
384.68	17.782
385.04	17.148
385.40	17.337
385.76	17.076
386.12	17.811
386.48	18.754
386.83	18.089
387.19	18.986
387.55	17.749
387.91	17.715
388.27	18.516
388.62	18.746
388.98	16.155
389.34	18.335
389.70	17.903
390.06	18.251
390.42	17.964
390.77	18.321
391.13	17.805
391.49	18.274
391.85	16.996
392.20	17.161
392.56	18.119
392.92	18.011
393.28	17.041
393.64	18.225
393.99	18.021
394.35	17.928
394.71	17.001
395.07	17.819
395.42	18.356
395.78	17.812
396.14	17.753
396.50	19.424
396.85	18.055
397.21	18.126
397.57	18.227
397.92	17.969
398.28	16.648
398.64	18.459
399.00	17.627
399.35	16.582
399.71	17.535
400.07	18.273
400.42	18.160
400.78	18.697
401.14	17.378
401.49	17.970
401.85	17.544
402.21	17.126
402.57	18.014
402.92	18.411
403.28	17.926
403.63	17.760
403.99	17.834
404.35	18.061
404.70	18.465
405.06	17.123
405.42	17.654
405.77	17.086
406.13	17.946
406.49	18.510
406.84	18.193
407.20	17.494
407.55	17.932
407.91	18.133
408.27	17.549
408.62	17.760
408.98	17.463
409.34	18.081
409.69	18.065
410.05	17.720
410.40	17.187
410.76	17.563
411.11	17.732
411.47	17.316
411.83	18.021
412.18	16.883
412.54	17.808
412.89	17.711
413.25	17.355
413.60	17.603
413.96	17.243
414.31	17.193
414.67	17.871
415.03	16.755
415.38	18.428
415.74	17.299
416.09	17.570
416.45	17.738
416.80	17.317
417.16	18.499
417.51	17.784
417.87	16.313
418.22	17.666
418.58	17.883
418.93	16.892
419.29	16.868
419.64	18.262
420.00	17.378
420.35	17.565
420.71	18.171
421.06	17.005
421.42	17.895
421.77	17.152
422.12	16.508
422.48	17.053
422.83	16.948
423.19	17.348
423.54	17.876
423.90	17.217
424.25	17.588
424.61	17.321
424.96	17.726
425.31	18.217
425.67	16.404
426.02	17.086
426.38	17.460
426.73	16.910
427.09	17.143
427.44	17.711
427.79	17.021
428.15	17.500
428.50	17.086
428.85	18.474
429.21	16.842
429.56	17.418
429.92	16.507
430.27	17.180
430.62	16.436
430.98	17.436
431.33	16.546
431.68	17.120
432.04	16.720
432.39	17.019
432.74	17.415
433.10	17.261
433.45	17.259
433.80	17.018
434.16	17.094
434.51	17.316
434.86	17.389
435.22	17.009
435.57	17.325
435.92	16.676
436.28	18.031
436.63	17.274
436.98	17.001
437.34	18.545
437.69	17.270
438.04	17.088
438.39	17.552
438.75	17.432
439.10	17.095
439.45	17.473
439.81	17.160
440.16	17.448
440.51	18.571
440.86	17.197
441.22	16.963
441.57	17.144
441.92	16.735
442.27	16.900
442.63	17.588
442.98	17.746
443.33	17.446
443.68	18.018
444.03	16.740
444.39	16.212
444.74	17.587
445.09	17.736
445.44	16.621
445.79	16.625
446.15	17.840
446.50	17.717
446.85	17.318
447.20	17.899
447.55	18.146
447.91	17.044
448.26	17.474
448.61	17.637
448.96	17.442
449.31	17.492
449.66	17.839
450.02	16.267
450.37	17.007
450.72	16.526
451.07	17.185
451.42	17.021
451.77	17.440
452.12	17.667
452.47	17.724
452.83	17.657
453.18	17.298
453.53	17.254
453.88	17.425
454.23	17.812
454.58	17.929
454.93	18.182
455.28	16.771
455.63	17.233
455.98	18.571
456.34	18.090
456.69	18.034
457.04	17.771
457.39	17.592
457.74	17.121
458.09	17.366
458.44	17.731
458.79	16.757
459.14	17.551
459.49	17.455
459.84	17.452
460.19	16.441
460.54	17.245
460.89	17.060
461.24	18.579
461.59	18.536
461.94	17.509
462.29	17.923
462.64	17.996
462.99	17.827
463.34	18.800
463.69	17.448
464.04	17.913
464.39	17.333
464.74	18.122
465.09	16.948
465.44	17.230
465.79	16.219
466.14	16.913
466.49	16.852
466.84	18.039
467.19	18.226
467.54	16.875
467.89	17.347
468.24	17.452
468.59	18.315
468.94	17.227
469.29	17.159
469.64	18.072
469.99	17.727
470.34	18.230
470.68	18.391
471.03	17.891
471.38	17.929
471.73	18.188
472.08	18.289
472.43	16.771
472.78	18.236
473.13	18.164
473.48	18.290
473.83	18.049
474.17	17.610
474.52	17.990
474.87	18.389
475.22	17.644
475.57	17.894
475.92	16.835
476.27	17.136
476.61	18.036
476.96	16.712
477.31	17.739
477.66	17.998
478.01	17.355
478.36	17.927
478.70	16.874
479.05	17.572
479.40	17.707
479.75	17.234
480.10	17.396
480.45	17.135
480.79	17.057
481.14	17.221
481.49	17.133
481.84	17.010
482.19	16.674
482.53	16.972
482.88	17.636
483.23	16.822
483.58	17.561
483.92	17.432
484.27	16.558
484.62	17.414
484.97	16.752
485.31	17.295
485.66	16.126
486.01	15.181
486.36	14.502
486.70	14.239
487.05	14.998
487.40	15.475
487.75	15.444
488.09	16.045
488.44	16.144
488.79	17.179
489.13	17.227
489.48	16.762
489.83	17.048
490.17	17.142
490.52	16.873
490.87	17.413
491.22	16.780
491.56	16.128
491.91	17.124
492.26	16.812
492.60	17.650
492.95	16.978
493.30	16.776
493.64	17.079
493.99	17.038
494.34	17.206
494.68	17.903
495.03	17.434
495.37	16.612
495.72	17.008
496.07	18.097
496.41	16.460
496.76	17.062
497.11	16.704
497.45	16.674
497.80	17.370
498.14	16.908
498.49	17.317
498.84	17.785
499.18	17.000
499.53	16.762
499.87	17.241
500.22	17.193
500.56	18.010
500.91	16.971
501.26	16.501
501.60	18.130
501.95	17.324
502.29	17.807
502.64	17.365
502.98	17.111
503.33	17.413
503.67	17.216
504.02	17.820
504.36	17.735
504.71	17.538
505.06	17.880
505.40	17.210
505.75	17.068
506.09	17.541
506.44	17.711
506.78	16.512
507.13	18.274
507.47	17.374
507.82	17.984
508.16	18.237
508.51	18.417
508.85	17.776
509.19	17.449
509.54	17.602
509.88	17.414
510.23	17.481
510.57	18.989
510.92	18.074
511.26	17.009
511.61	18.672
511.95	17.432
512.30	17.815
512.64	18.431
512.98	17.899
513.33	18.469
513.67	17.930
514.02	17.316
514.36	18.624
514.70	18.207
515.05	17.680
515.39	18.957
515.74	18.018
516.08	18.334
516.42	19.256
516.77	18.562
517.11	17.703
517.46	18.567
517.80	19.164
518.14	18.413
518.49	18.553
518.83	18.636
519.17	17.552
519.52	18.732
519.86	18.768
520.20	18.786
520.55	19.689
520.89	19.647
521.23	19.059
521.58	18.908
521.92	18.922
522.26	18.487
522.61	19.128
522.95	18.785
523.29	19.172
523.64	19.512
523.98	19.532
524.32	19.361
524.66	18.581
525.01	18.566
525.35	19.083
525.69	18.534
526.04	19.626
526.38	19.463
526.72	18.528
527.06	18.707
527.41	18.564
527.75	19.550
528.09	19.204
528.43	19.057
528.78	18.931
529.12	18.424
529.46	19.351
529.80	19.493
530.15	19.502
530.49	18.892
530.83	18.987
531.17	18.930
531.51	20.558
531.86	19.226
532.20	19.817
532.54	20.564
532.88	19.448
533.22	18.488
533.57	18.333
533.91	18.784
534.25	18.773
534.59	19.097
534.93	19.810
535.27	18.709
535.62	18.559
535.96	18.958
536.30	17.928
536.64	19.639
536.98	19.973
537.32	19.421
537.66	19.467
538.01	19.618
538.35	19.974
538.69	19.911
539.03	19.233
539.37	17.955
539.71	18.341
540.05	19.150
540.39	19.070
540.73	17.594
541.07	18.559
541.42	18.917
541.76	19.484
542.10	19.470
542.44	18.411
542.78	19.499
543.12	18.490
543.46	18.820
543.80	18.868
544.14	18.421
544.48	19.556
544.82	18.922
545.16	19.388
545.50	18.766
545.84	18.884
546.18	18.788
546.52	18.995
546.86	18.351
547.20	19.150
547.54	18.838
547.88	19.388
548.22	19.489
548.56	19.245
548.90	18.182
549.24	18.653
549.58	20.191
549.92	19.093
550.26	20.241
550.60	19.364
550.94	20.352
551.28	18.215
551.62	19.986
551.96	19.228
552.30	19.659
552.64	20.149
552.98	19.322
553.32	19.488
553.66	20.382
554.00	19.423
554.34	18.772
554.68	20.029
555.02	19.535
555.36	18.928
555.69	18.065
556.03	19.987
556.37	18.486
556.71	18.008
557.05	18.417
557.39	19.664
557.73	20.254
558.07	19.362
558.41	19.682
558.75	19.471
559.08	20.134
559.42	19.577
559.76	19.926
560.10	18.986
560.44	19.008
560.78	18.363
561.12	19.855
561.45	19.296
561.79	19.117
562.13	18.310
562.47	19.604
562.81	19.317
563.15	18.127
563.48	19.164
563.82	18.982
564.16	18.770
564.50	18.555
564.84	19.595
565.17	18.082
565.51	19.105
565.85	18.718
566.19	18.222
566.52	18.999
566.86	17.963
567.20	19.045
567.54	18.379
567.88	17.762
568.21	18.360
568.55	17.947
568.89	17.218
569.23	17.380
569.56	16.964
569.90	16.792
570.24	16.756
570.57	16.355
570.91	16.160
571.25	15.874
571.59	16.348
571.92	16.187
572.26	16.002
572.60	16.306
572.93	16.102
573.27	16.090
573.61	16.667
573.95	16.150
574.28	15.578
574.62	15.695
574.96	15.842
575.29	15.373
575.63	16.286
575.97	15.621
576.30	16.038
576.64	15.618
576.98	15.678
577.31	16.058
577.65	15.635
577.98	15.119
578.32	15.210
578.66	15.493
578.99	15.499
579.33	15.686
579.67	15.130
580.00	15.368
580.34	15.733
580.67	15.670
581.01	16.056
581.35	15.688
581.68	15.343
582.02	15.025
582.35	15.226
582.69	15.444
583.02	15.568
583.36	15.541
583.70	15.909
584.03	16.275
584.37	15.968
584.70	16.092
585.04	16.145
585.37	16.216
585.71	15.625
586.04	16.091
586.38	16.066
586.72	16.377
587.05	15.838
587.39	15.831
587.72	16.001
588.06	15.795
588.39	16.708
588.73	15.840
589.06	16.578
589.40	16.700
589.73	16.403
590.07	16.619
590.40	16.770
590.73	16.745
591.07	17.257
591.40	17.166
591.74	17.792
592.07	17.539
592.41	17.321
592.74	16.030
593.08	16.189
593.41	16.577
593.75	15.959
594.08	16.192
594.41	16.543
594.75	16.895
595.08	16.464
595.42	16.848
595.75	15.812
596.09	16.898
596.42	17.721
596.75	17.856
597.09	17.229
597.42	16.863
597.75	17.249
598.09	17.609
598.42	17.139
598.76	16.619
599.09	16.762
599.42	15.866
599.76	16.252
600.09	16.321
600.42	16.180
600.76	15.714
601.09	15.883
601.42	16.514
601.76	16.850
602.09	17.352
602.42	16.799
602.76	17.130
603.09	17.270
603.42	16.751
603.76	16.616
604.09	16.828
604.42	16.062
604.76	17.461
605.09	17.038
605.42	16.417
605.75	16.846
606.09	16.063
606.42	16.469
606.75	16.466
607.09	17.162
607.42	16.260
607.75	16.920
608.08	16.544
608.42	17.302
608.75	17.538
609.08	17.160
609.41	16.992
609.75	17.485
610.08	17.484
610.41	17.272
610.74	17.029
611.07	17.688
611.41	17.566
611.74	18.250
612.07	17.650
612.40	18.048
612.73	17.316
613.07	18.211
613.40	18.115
613.73	16.466
614.06	17.634
614.39	17.777
614.72	17.421
615.06	18.540
615.39	16.295
615.72	17.178
616.05	16.800
616.38	17.176
616.71	17.874
617.05	18.021
617.38	18.581
617.71	17.718
618.04	17.849
618.37	18.214
618.70	18.419
619.03	18.487
619.36	18.262
619.69	17.817
620.03	19.162
620.36	18.449
620.69	19.041
621.02	19.395
621.35	19.499
621.68	19.081
622.01	18.963
622.34	18.835
622.67	19.163
623.00	18.635
623.33	18.513
623.66	19.299
623.99	18.630
624.32	19.116
624.65	18.220
624.99	17.210
625.32	18.610
625.65	18.257
625.98	19.216
626.31	19.362
626.64	19.510
626.97	19.534
627.30	19.534
627.63	21.657
627.96	19.933
628.29	19.248
628.62	20.311
628.95	20.755
629.28	21.077
629.61	20.715
629.94	20.952
630.26	19.733
630.59	20.114
630.92	19.732
631.25	19.645
631.58	20.821
631.91	19.675
632.24	19.620
632.57	21.301
632.90	21.382
633.23	21.812
633.56	21.243
633.89	21.178
634.22	21.339
634.55	21.893
634.88	21.437
635.20	22.342
635.53	21.446
635.86	21.287
636.19	20.706
636.52	21.799
636.85	20.160
637.18	20.853
637.51	22.459
637.83	19.112
638.16	21.867
638.49	20.655
638.82	21.997
639.15	21.500
639.48	22.569
639.81	20.912
640.13	21.875
640.46	22.282
640.79	23.646
641.12	20.908
641.45	21.508
641.77	21.649
642.10	23.246
642.43	23.123
642.76	22.910
643.09	23.620
643.41	21.093
643.74	24.228
644.07	23.628
644.40	24.540
644.73	24.094
645.05	25.832
645.38	22.433
645.71	24.155
646.04	24.751
646.36	26.377
646.69	24.080
647.02	22.959
647.35	22.680
647.67	24.071
648.00	23.252
648.33	23.102
648.66	22.727
648.98	23.088
649.31	22.870
649.64	21.226
649.96	21.311
650.29	24.013
650.62	22.816
650.94	22.528
651.27	25.169
651.60	23.461
651.92	24.281
652.25	20.847
652.58	23.520
652.90	25.276
653.23	22.804
653.56	23.307
653.88	23.296
654.21	23.855
654.54	23.267
654.86	22.274
655.19	20.946
655.52	14.883
655.84	12.237
656.17	15.590
656.49	21.375
656.82	21.847
657.15	16.689
657.47	12.602
657.80	9.992
658.13	10.423
658.45	16.090
658.78	16.495
659.10	17.891
659.43	19.027
659.75	20.009
660.08	22.089
660.41	24.209
660.73	26.302
661.06	24.045
661.38	26.545
661.71	25.577
662.03	26.824
662.36	23.658
662.68	26.506
663.01	26.061
663.33	25.478
663.66	27.941
663.98	25.054
664.31	24.370
664.63	23.887
664.96	23.541
665.28	26.025
665.61	23.782
665.93	23.742
666.26	23.935
666.58	26.151
666.91	29.175
667.23	25.169
667.56	22.462
667.88	25.641
668.21	26.226
668.53	24.946
668.86	24.675
669.18	27.719
669.50	26.522
669.83	30.065
670.15	26.222
670.48	24.183
670.80	28.664
671.13	26.115
671.45	26.596
671.77	24.236
672.10	22.551
672.42	24.028
672.75	23.715
673.07	23.768
673.39	22.604
673.72	23.242
674.04	26.471
674.37	22.330
674.69	25.562
675.01	24.268
675.34	27.105
675.66	30.526
675.98	26.069
676.31	27.731
676.63	25.265
676.95	25.367
677.28	25.701
677.60	25.934
677.92	27.215
678.25	25.462
678.57	26.693
678.89	25.251
679.22	23.183
679.54	25.763
679.86	23.853
680.18	23.614
680.51	23.582
680.83	24.021
681.15	24.528
681.48	26.087
681.80	24.565
682.12	24.330
682.44	22.050
682.77	27.291
683.09	27.682
683.41	26.829
683.73	25.386
684.06	24.793
684.38	22.701
684.70	24.612
685.02	25.141
685.34	24.176
685.67	22.203
685.99	21.821
686.31	23.038
686.63	24.028
686.96	23.214
687.28	21.119
687.60	23.913
687.92	24.132
688.24	24.335
688.56	24.498
688.89	27.801
689.21	28.821
689.53	24.843
689.85	26.386
690.17	24.845
690.49	26.327
690.82	26.869
691.14	24.777
691.46	23.418
691.78	26.707
692.10	25.000
692.42	25.749
692.74	24.066
693.06	24.681
693.39	27.926
693.71	23.799
694.03	26.316
694.35	22.078
694.67	24.943
694.99	28.049
695.31	27.206
695.63	27.990
695.95	26.895
696.27	23.604
696.59	29.275
696.91	29.793
697.23	23.474
697.56	26.013
697.88	23.722
698.20	26.250
698.52	24.731
698.84	26.949
699.16	23.733
699.48	25.891
699.80	26.812
700.12	27.532
700.44	28.382
700.76	30.663
701.08	29.023
701.40	25.978
701.72	30.904
702.04	32.670
702.36	26.346
702.68	27.479
703.00	26.593
703.32	26.330
703.64	27.882
703.96	29.526
704.28	29.651
704.60	26.686
704.91	28.487
705.23	32.551
705.55	31.561
705.87	35.548
706.19	31.802
706.51	28.972
706.83	29.394
707.15	30.812
707.47	26.515
707.79	27.273
708.11	27.854
708.43	23.333
708.74	27.551
709.06	27.792
709.38	30.446
709.70	28.488
710.02	31.157
710.34	29.697
710.66	32.537
710.98	33.239
711.29	29.651
711.61	28.909
711.93	26.282
712.25	31.833
712.57	27.941
712.89	33.218
713.20	30.699
713.52	29.934
713.84	30.380
714.16	30.183
714.48	31.034
714.80	31.611
715.11	28.818
715.43	29.377
715.75	28.986
716.07	26.837
716.39	28.840
716.70	30.233
717.02	34.892
717.34	28.975
717.66	36.194
717.97	38.645
718.29	26.667
718.61	32.482
718.93	32.353
719.24	34.256
719.56	29.153
719.88	30.169
720.20	30.405
720.51	35.192
720.83	34.572
721.15	33.209
721.46	29.787
721.78	33.692
722.10	32.830
722.42	34.586
722.73	35.206
723.05	31.967
723.37	34.818
723.68	32.046
724.00	36.585
724.32	32.258
724.63	32.114
724.95	38.494
725.27	38.057
725.58	32.422
725.90	36.496
726.22	33.585
726.53	29.514
726.85	34.471
727.16	30.961
727.48	29.433
727.80	28.409
728.11	30.435
728.43	31.154
728.74	32.975
729.06	31.752
729.38	35.662
729.69	35.943
730.01	31.741
730.32	32.292
730.64	30.769
730.96	26.733
731.27	31.457
731.59	30.581
731.90	28.571
732.22	28.882
732.53	27.864
732.85	29.167
733.16	29.260
733.48	27.907
733.80	31.818
734.11	30.892
734.43	27.219
734.74	26.857
735.06	28.367
735.37	28.613
735.69	29.618
736.00	29.085
736.32	30.530
736.63	27.157
736.95	30.990
737.26	26.190
737.58	30.645
737.89	30.100
738.21	31.058
738.52	33.929
738.83	31.321
739.15	34.231
739.46	34.672
739.78	32.986
740.09	31.077
740.41	29.355
740.72	32.753
741.04	33.333
741.35	32.500
741.66	40.444
741.98	34.906
742.29	40.670
742.61	39.655
742.92	32.579
743.23	36.325
743.55	35.600
743.86	32.456
744.18	38.938
744.49	39.234
744.80	38.498
745.12	38.182
745.43	37.004
745.74	40.541
746.06	38.073
746.37	35.426
746.68	40.271
747.00	36.574
747.31	36.190
747.62	25.221
747.94	37.885
748.25	32.340
748.56	39.207
748.88	31.683
749.19	44.500
749.50	37.209
749.82	31.707
750.13	28.163
750.44	28.832
750.75	31.579
751.07	33.441
751.38	34.495
751.69	31.047
752.01	35.338
752.32	31.047
752.63	29.078
752.94	36.066
753.26	34.400
753.57	32.114
753.88	34.375
754.19	30.000
754.51	34.375
754.82	29.964
755.13	32.453
755.44	35.338
755.75	34.672
756.07	31.206
756.38	31.752
756.69	28.859
757.00	28.743
757.31	29.970
757.63	23.099
757.94	28.418
758.25	26.225
758.56	23.951
758.87	27.151
759.18	29.697
759.50	27.586
759.81	28.349
760.12	27.500
760.43	27.794
760.74	27.989
761.05	27.119
761.36	27.807
761.67	27.841
761.99	32.609
762.30	30.556
762.61	32.824
762.92	37.500
763.23	35.714
763.54	40.400
763.85	33.594
764.16	35.385
764.47	34.601
764.78	26.502
765.10	28.481
765.41	30.088
765.72	32.335
766.03	29.781
766.34	29.333
766.65	34.043
766.96	36.325
767.27	44.162
767.58	42.708
767.89	40.526
768.20	41.954
768.51	34.518
768.82	38.532
769.13	30.081
769.44	32.794
769.75	38.197
770.06	33.486
770.37	40.724
770.68	36.111
770.99	39.556
771.30	27.049
771.61	39.910
771.92	34.016
772.23	35.714
772.54	42.051
772.85	37.696
773.16	40.957
773.47	44.022
773.78	42.132
774.09	40.476
774.39	43.275
774.70	43.827
775.01	42.029
775.32	50.980
775.63	47.368
775.94	52.518
776.25	58.268
776.56	55.970
776.87	51.639
777.18	53.125
777.48	48.092
777.79	50.758
778.10	45.185
778.41	50.893
778.72	46.715
779.03	53.691
779.34	44.295
779.65	36.486
779.95	42.945
780.26	47.059
780.57	42.759
780.88	56.250
781.19	43.609
781.50	47.973
781.80	51.572
782.11	41.808
782.42	41.772
782.73	44.172
783.04	51.351
783.34	54.930
783.65	56.849
783.96	49.254
784.27	41.958
784.57	37.410
784.88	49.074
785.19	58.730
785.50	65.094
785.81	61.194
786.11	55.738
786.42	56.589
786.73	58.407
787.04	52.830
787.34	57.143
787.65	64.000
787.96	56.757
788.26	53.719
788.57	58.475
788.88	57.851
789.19	54.861
789.49	59.848
789.80	43.511
790.11	68.571
790.41	54.455
790.72	61.446
791.03	69.565
791.33	76.744
791.64	64.948
791.95	69.307
792.25	61.111
792.56	76.623
792.87	88.462
793.17	73.418
793.48	75.862
793.79	71.264
794.09	59.091
794.40	52.101
794.70	61.765
795.01	49.630
795.32	52.518
795.62	47.244
795.93	56.034
796.23	54.867
796.54	67.059
796.85	85.135
797.15	94.366
797.46	81.818
797.76	71.084
798.07	70.886
798.37	89.231
798.68	90.909
798.99	70.423
799.29	75.325
799.60	67.045
799.90	87.671
800.21	108.955
800.51	87.931
800.82	94.737
801.12	96.721
801.43	92.424
801.73	78.378
802.04	107.937
802.34	77.778
802.65	90.625
802.95	100.000
803.26	98.438
803.56	74.286
803.87	86.154
804.17	92.647
804.48	100.000
804.78	79.310
805.09	85.294
805.39	98.077
805.70	108.929
806.00	103.279
806.30	83.333
806.61	76.829
806.91	70.886
807.22	84.211
807.52	67.164
807.83	95.775
808.13	81.250
808.43	100.000
808.74	52.632
809.04	97.101
809.35	77.612
809.65	78.947
809.95	91.935
810.26	98.305
810.56	90.476
810.86	147.727
811.17	130.952
811.47	116.667
811.77	101.852
812.08	96.364
812.38	96.000
812.69	136.111
812.99	134.091
813.29	132.653
813.59	109.524
813.90	126.531
814.20	94.545
814.50	87.692
814.81	91.176
815.11	114.286
815.41	104.918
815.72	147.619
816.02	105.455
816.32	130.952
816.62	117.500
816.93	124.390
817.23	123.810
817.53	125.000
817.84	166.667
818.14	136.957
818.44	115.556
818.74	147.059
819.04	127.500
819.35	145.714
819.65	158.824
819.95	171.429
820.25	205.000
820.56	120.513
820.86	140.909
821.16	139.535
821.46	158.974
821.76	132.000
822.07	145.714
822.37	125.000
822.67	151.515
822.97	115.686
823.27	200.000
823.57	164.865
823.88	135.000
824.18	160.000
824.48	152.381
824.78	224.000
825.08	200.000
825.38	140.541
825.69	131.707
825.99	237.500
826.29	182.759
826.59	157.895
826.89	152.632
827.19	135.294
827.49	187.097
827.79	129.545
828.09	147.727
828.39	123.404
828.70	128.571
829.00	174.074
829.30	135.484
829.60	122.500
829.90	306.667
830.20	189.286
830.50	208.696
830.80	221.739
831.10	186.667
831.40	210.000
831.70	191.304
832.00	219.231
832.30	185.185
832.60	256.250
832.90	166.667
833.20	392.857
833.50	190.323
833.80	196.552
834.10	203.125
834.40	176.923
834.70	266.667
835.00	290.476
835.30	160.000
835.60	353.846
835.90	203.448
836.20	385.714
836.50	179.310
836.80	176.000
837.10	144.444
837.40	266.667
837.70	288.235
838.00	211.111
838.30	242.857
838.60	252.381
838.90	215.385
839.19	240.000
839.49	392.857
839.79	320.000
840.09	255.000
840.39	247.619
840.69	226.087
840.99	266.667
841.29	350.000
841.59	341.667
841.88	325.000
842.18	175.862
842.48	276.190
842.78	176.667
843.08	243.478
843.38	165.625
843.68	850.000
843.97	196.154
844.27	210.345
844.57	233.333
844.87	387.500
845.17	155.556
845.47	1466.667
845.76	455.556
846.06	282.353
846.36	500.000
846.66	364.286
846.96	281.250
847.25	363.636
847.55	445.455
847.85	243.478
848.15	460.000
848.44	371.429
848.74	244.444
849.04	317.647
849.34	500.000
849.63	226.316
849.93	427.273
850.23	920.000
850.53	435.714
850.82	2100.000
851.12	-4400.000
851.42	4000.000
851.71	270.000
852.01	-1366.667
852.31	204.167
852.61	1666.667
852.90	252.381
853.20	184.000
853.50	347.059
853.79	223.810
854.09	183.333
854.39	293.750
854.68	154.054
854.98	183.871
855.28	176.667
855.57	220.690
855.87	225.926
856.17	215.789
856.46	253.333
856.76	341.176
857.05	200.000
857.35	200.000
857.65	393.333
857.94	247.826
858.24	242.308
858.53	290.000
858.83	245.455
859.13	346.667
859.42	0.000
859.72	511.111
860.01	381.818
860.31	259.091
860.60	273.684
860.90	200.000
861.20	544.444
861.49	458.333
861.79	-4400.000
862.08	650.000
862.38	319.048
862.67	315.385
862.97	217.647
863.26	477.778
863.56	277.778
863.85	416.667
864.15	512.500
864.44	400.000
864.74	933.333
865.03	625.000
865.33	300.000
865.62	472.727
865.92	415.385
866.21	391.667
866.51	0.000
866.80	372.727
867.10	1000.000
867.39	484.615
867.69	463.636
867.98	263.158
868.27	409.091
868.57	263.158
868.86	-4200.000
869.16	312.500
869.45	2100.000
869.75	-3600.000
870.04	508.333
870.33	642.857
870.63	875.000
870.92	2350.000
871.22	657.143
871.51	335.294
871.80	204.762
872.10	357.143
>>>>>End Processed Spectral Data<<<<<
