SpectraSuite Data File
++++++++++++++++++++++++++++++++++++
Date: Wed May 13 16:08:18 PDT 2015
User: schluterlab
Dark Spectrum Present: Yes
Reference Spectrum Present: Yes
Number of Sampled Component Spectra: 1
Spectrometers: USB2E3373
Integration Time (usec): 3000 (USB2E3373)
Spectra Averaged: 3 (USB2E3373)
Boxcar Smoothing: 0 (USB2E3373)
Correct for Electrical Dark: No (USB2E3373)
Strobe/Lamp Enabled: No (USB2E3373)
Correct for Detector Non-linearity: No (USB2E3373)
Correct for Stray Light: No (USB2E3373)
Number of Pixels in Processed Spectrum: 2048
>>>>>Begin Processed Spectral Data<<<<<
178.53	0.000
178.91	-825.000
179.29	-875.000
179.67	-166.667
180.04	-900.000
180.42	2200.000
180.80	860.000
181.18	-650.000
181.56	442.857
181.94	0.000
182.31	-557.143
182.69	1366.667
183.07	-425.000
183.45	-377.778
183.83	490.909
184.20	-270.000
184.58	1550.000
184.96	4200.000
185.34	-560.000
185.72	-387.500
186.09	-1700.000
186.47	1850.000
186.85	1950.000
187.23	3200.000
187.61	-900.000
187.98	925.000
188.36	400.000
188.74	354.545
189.12	-580.000
189.49	430.000
189.87	-2800.000
190.25	-875.000
190.63	328.571
191.00	338.462
191.38	650.000
191.76	-550.000
192.14	875.000
192.51	425.000
192.89	750.000
193.27	325.000
193.65	-575.000
194.02	270.000
194.40	560.000
194.78	370.000
195.15	391.667
195.53	500.000
195.91	-1700.000
196.29	250.000
196.66	215.789
197.04	-290.000
197.42	0.000
197.79	390.000
198.17	-3100.000
198.55	371.429
198.92	362.500
199.30	640.000
199.68	0.000
200.05	277.778
200.43	542.857
200.81	3100.000
201.18	1500.000
201.56	-733.333
201.94	355.556
202.31	400.000
202.69	350.000
203.07	360.000
203.44	0.000
203.82	800.000
204.19	557.143
204.57	335.714
204.95	450.000
205.32	1000.000
205.70	318.182
206.08	278.571
206.45	2200.000
206.83	287.500
207.20	650.000
207.58	380.000
207.96	194.444
208.33	525.000
208.71	-483.333
209.08	514.286
209.46	377.778
209.84	390.909
210.21	-1033.333
210.59	1075.000
210.96	-225.000
211.34	2000.000
211.71	380.000
212.09	516.667
212.46	0.000
212.84	866.667
213.22	825.000
213.59	-3100.000
213.97	633.333
214.34	457.143
214.72	390.909
215.09	680.000
215.47	-1600.000
215.84	-1650.000
216.22	1100.000
216.59	328.571
216.97	675.000
217.34	281.818
217.72	-483.333
218.09	0.000
218.47	-3700.000
218.84	500.000
219.22	557.143
219.59	1066.667
219.97	-457.143
220.34	780.000
220.72	-1333.333
221.09	192.857
221.47	925.000
221.84	-716.667
222.22	0.000
222.59	850.000
222.97	-1150.000
223.34	840.000
223.72	238.462
224.09	720.000
224.46	1200.000
224.84	-2900.000
225.21	-760.000
225.59	-3000.000
225.96	490.000
226.34	200.000
226.71	1850.000
227.08	475.000
227.46	430.000
227.83	-650.000
228.21	-1750.000
228.58	500.000
228.95	-1550.000
229.33	-1550.000
229.70	833.333
230.08	542.857
230.45	-460.000
230.82	275.000
231.20	650.000
231.57	357.143
231.95	358.333
232.32	163.636
232.69	290.909
233.07	414.286
233.44	184.615
233.81	-966.667
234.19	210.526
234.56	325.000
234.93	266.667
235.31	272.727
235.68	284.615
236.05	192.857
236.43	112.121
236.80	178.947
237.17	2800.000
237.55	138.095
237.92	121.429
238.29	109.524
238.67	119.355
239.04	155.172
239.41	58.333
239.79	73.913
240.16	78.571
240.53	86.364
240.91	64.706
241.28	68.000
241.65	60.000
242.02	66.667
242.40	51.613
242.77	46.667
243.14	44.086
243.51	49.438
243.89	48.235
244.26	33.333
244.63	38.710
245.00	32.979
245.38	39.604
245.75	28.037
246.12	30.275
246.49	35.036
246.87	40.000
247.24	26.923
247.61	24.286
247.98	20.915
248.36	22.297
248.73	24.204
249.10	25.478
249.47	25.989
249.84	26.203
250.22	22.460
250.59	18.935
250.96	24.242
251.33	25.118
251.70	22.277
252.08	20.952
252.45	19.283
252.82	16.957
253.19	18.723
253.56	16.863
253.94	19.087
254.31	18.750
254.68	19.231
255.05	18.081
255.42	17.073
255.79	13.971
256.16	17.329
256.54	16.961
256.91	15.302
257.28	10.072
257.65	16.502
258.02	19.565
258.39	15.773
258.76	13.712
259.14	13.393
259.51	14.590
259.88	14.907
260.25	15.710
260.62	13.295
260.99	12.733
261.36	14.114
261.73	12.607
262.10	13.081
262.47	12.676
262.85	13.649
263.22	10.256
263.59	12.821
263.96	11.538
264.33	14.099
264.70	13.684
265.07	12.788
265.44	11.869
265.81	9.976
266.18	10.804
266.55	10.488
266.92	8.600
267.29	10.648
267.66	11.009
268.03	11.591
268.40	11.215
268.77	8.831
269.14	11.261
269.51	11.738
269.88	11.189
270.25	9.255
270.62	9.888
270.99	13.978
271.36	13.090
271.73	8.178
272.10	10.870
272.47	12.473
272.84	10.606
273.21	11.950
273.58	7.205
273.95	9.853
274.32	9.711
274.69	9.636
275.06	11.024
275.43	10.426
275.80	11.623
276.17	9.369
276.54	8.524
276.91	11.265
277.28	9.180
277.65	11.025
278.02	9.317
278.39	10.742
278.76	11.091
279.13	10.755
279.50	10.615
279.87	9.761
280.23	7.585
280.60	8.317
280.97	7.763
281.34	9.204
281.71	10.000
282.08	9.213
282.45	10.182
282.82	11.190
283.19	9.626
283.56	10.000
283.92	9.645
284.29	8.289
284.66	8.167
285.03	8.499
285.40	7.394
285.77	8.249
286.14	9.326
286.51	8.833
286.87	9.915
287.24	9.935
287.61	8.186
287.98	10.065
288.35	9.509
288.72	8.255
289.08	9.233
289.45	8.402
289.82	8.943
290.19	7.064
290.56	9.188
290.93	6.495
291.29	8.282
291.66	7.375
292.03	9.593
292.40	8.370
292.77	8.136
293.13	9.851
293.50	8.455
293.87	9.185
294.24	7.407
294.60	6.405
294.97	6.977
295.34	8.604
295.71	8.949
296.08	7.692
296.44	8.941
296.81	5.152
297.18	9.214
297.55	6.069
297.91	7.256
298.28	8.166
298.65	8.877
299.02	8.037
299.38	8.499
299.75	6.199
300.12	6.130
300.48	7.125
300.85	8.261
301.22	7.389
301.59	5.934
301.95	6.801
302.32	6.418
302.69	8.124
303.05	7.636
303.42	5.556
303.79	7.814
304.15	6.527
304.52	5.794
304.89	6.388
305.25	6.613
305.62	8.381
305.99	7.084
306.35	8.277
306.72	7.063
307.09	6.548
307.45	8.559
307.82	5.246
308.19	7.726
308.55	7.983
308.92	8.056
309.29	7.075
309.65	6.681
310.02	7.505
310.38	5.914
310.75	6.653
311.12	7.472
311.48	8.777
311.85	7.547
312.22	6.348
312.58	8.108
312.95	8.131
313.31	6.408
313.68	7.380
314.05	7.692
314.41	7.839
314.78	7.351
315.14	7.150
315.51	7.724
315.87	7.822
316.24	6.554
316.61	6.725
316.97	7.241
317.34	7.143
317.70	7.075
318.07	8.181
318.43	8.317
318.80	7.685
319.16	7.721
319.53	7.692
319.89	8.571
320.26	8.400
320.62	8.135
320.99	7.677
321.35	7.374
321.72	8.008
322.08	8.193
322.45	7.960
322.81	8.624
323.18	9.056
323.54	8.071
323.91	7.830
324.27	6.979
324.64	7.829
325.00	6.763
325.37	8.553
325.73	8.707
326.10	8.120
326.46	7.616
326.83	8.283
327.19	7.771
327.56	8.014
327.92	6.999
328.29	8.696
328.65	7.366
329.01	8.574
329.38	7.123
329.74	6.925
330.11	7.634
330.47	7.346
330.84	8.456
331.20	7.741
331.56	8.349
331.93	6.296
332.29	7.720
332.66	7.788
333.02	7.678
333.38	8.220
333.75	8.200
334.11	7.473
334.48	8.163
334.84	6.893
335.20	7.273
335.57	7.253
335.93	6.607
336.29	6.868
336.66	7.214
337.02	6.878
337.38	8.056
337.75	6.328
338.11	6.983
338.47	6.262
338.84	6.966
339.20	6.055
339.56	7.664
339.93	5.818
340.29	7.156
340.65	6.506
341.02	7.504
341.38	6.940
341.74	6.404
342.11	6.550
342.47	6.608
342.83	7.106
343.20	7.619
343.56	7.329
343.92	6.579
344.28	7.398
344.65	7.567
345.01	6.818
345.37	5.832
345.73	7.022
346.10	6.479
346.46	6.102
346.82	7.414
347.19	6.600
347.55	6.814
347.91	7.039
348.27	8.299
348.63	6.605
349.00	6.392
349.36	6.322
349.72	7.057
350.08	6.807
350.45	7.242
350.81	7.230
351.17	7.455
351.53	6.143
351.89	6.436
352.26	7.893
352.62	6.977
352.98	6.807
353.34	7.231
353.70	6.137
354.07	7.258
354.43	7.381
354.79	7.160
355.15	7.662
355.51	7.754
355.87	7.347
356.24	7.329
356.60	6.576
356.96	6.356
357.32	6.705
357.68	7.087
358.04	6.255
358.40	7.918
358.77	6.729
359.13	6.630
359.49	7.451
359.85	5.635
360.21	5.582
360.57	7.315
360.93	6.385
361.29	7.256
361.66	6.424
362.02	6.866
362.38	6.692
362.74	7.068
363.10	5.996
363.46	6.090
363.82	6.349
364.18	7.048
364.54	6.909
364.90	7.365
365.26	6.176
365.62	6.939
365.98	6.793
366.35	6.734
366.71	6.869
367.07	6.919
367.43	6.459
367.79	7.495
368.15	7.040
368.51	7.340
368.87	6.995
369.23	6.584
369.59	7.024
369.95	6.544
370.31	6.909
370.67	6.739
371.03	6.742
371.39	6.560
371.75	7.132
372.11	6.686
372.47	7.038
372.83	7.349
373.19	6.936
373.55	7.243
373.91	8.027
374.27	7.285
374.63	6.764
374.99	7.768
375.35	7.118
375.71	7.197
376.07	7.545
376.42	7.634
376.78	7.621
377.14	7.870
377.50	7.219
377.86	7.380
378.22	8.028
378.58	6.830
378.94	7.102
379.30	6.361
379.66	7.297
380.02	7.924
380.38	6.982
380.74	7.443
381.09	7.824
381.45	7.621
381.81	8.231
382.17	8.344
382.53	7.358
382.89	7.963
383.25	7.755
383.61	7.993
383.97	8.193
384.32	7.673
384.68	7.249
385.04	7.929
385.40	7.492
385.76	7.924
386.12	8.225
386.48	8.748
386.83	7.120
387.19	9.091
387.55	8.472
387.91	8.041
388.27	7.725
388.62	8.666
388.98	8.538
389.34	9.074
389.70	8.338
390.06	9.062
390.42	8.755
390.77	8.651
391.13	8.807
391.49	8.883
391.85	8.020
392.20	7.445
392.56	8.902
392.92	8.711
393.28	7.988
393.64	8.993
393.99	9.469
394.35	9.181
394.71	8.469
395.07	8.349
395.42	8.838
395.78	9.033
396.14	8.814
396.50	9.336
396.85	8.964
397.21	8.323
397.57	8.989
397.92	8.474
398.28	8.352
398.64	9.080
399.00	8.506
399.35	8.573
399.71	8.912
400.07	8.930
400.42	8.834
400.78	9.590
401.14	7.866
401.49	8.179
401.85	8.832
402.21	8.024
402.57	8.513
402.92	8.260
403.28	9.244
403.63	8.230
403.99	8.344
404.35	9.333
404.70	8.094
405.06	8.445
405.42	8.734
405.77	8.514
406.13	8.409
406.49	8.870
406.84	9.214
407.20	7.979
407.55	7.786
407.91	8.933
408.27	8.296
408.62	8.128
408.98	8.578
409.34	8.733
409.69	7.742
410.05	8.674
410.40	8.807
410.76	8.244
411.11	8.866
411.47	8.051
411.83	8.674
412.18	8.658
412.54	8.904
412.89	9.337
413.25	8.087
413.60	8.647
413.96	8.440
414.31	8.566
414.67	9.062
415.03	8.675
415.38	9.214
415.74	8.296
416.09	8.752
416.45	8.233
416.80	8.196
417.16	9.316
417.51	8.759
417.87	8.606
418.22	9.085
418.58	8.393
418.93	8.845
419.29	7.766
419.64	9.068
420.00	8.476
420.35	8.290
420.71	8.787
421.06	8.234
421.42	8.655
421.77	9.137
422.12	7.692
422.48	7.825
422.83	8.853
423.19	8.343
423.54	8.706
423.90	9.507
424.25	8.264
424.61	8.155
424.96	7.988
425.31	8.804
425.67	7.360
426.02	8.229
426.38	9.158
426.73	8.426
427.09	7.781
427.44	7.878
427.79	7.591
428.15	8.512
428.50	8.075
428.85	8.880
429.21	7.786
429.56	7.361
429.92	7.801
430.27	8.044
430.62	7.322
430.98	8.303
431.33	8.608
431.68	8.377
432.04	8.360
432.39	8.395
432.74	7.899
433.10	8.376
433.45	8.338
433.80	7.539
434.16	8.387
434.51	8.368
434.86	8.609
435.22	8.394
435.57	8.328
435.92	8.133
436.28	8.600
436.63	8.775
436.98	7.613
437.34	8.229
437.69	8.926
438.04	8.038
438.39	8.119
438.75	9.006
439.10	8.156
439.45	8.028
439.81	7.734
440.16	7.962
440.51	7.674
440.86	8.801
441.22	8.509
441.57	7.856
441.92	8.393
442.27	8.558
442.63	7.846
442.98	9.070
443.33	8.913
443.68	8.312
444.03	8.053
444.39	7.984
444.74	8.117
445.09	8.841
445.44	8.311
445.79	8.016
446.15	8.311
446.50	8.239
446.85	8.119
447.20	7.904
447.55	8.822
447.91	8.163
448.26	8.180
448.61	8.479
448.96	8.749
449.31	8.268
449.66	9.060
450.02	8.357
450.37	8.673
450.72	7.953
451.07	7.861
451.42	7.538
451.77	8.691
452.12	8.199
452.47	8.396
452.83	8.333
453.18	7.946
453.53	7.792
453.88	8.506
454.23	8.607
454.58	9.146
454.93	8.837
455.28	8.541
455.63	8.556
455.98	9.107
456.34	8.543
456.69	8.391
457.04	8.545
457.39	8.416
457.74	8.358
458.09	9.028
458.44	8.780
458.79	7.375
459.14	8.465
459.49	8.581
459.84	8.255
460.19	8.780
460.54	7.812
460.89	8.502
461.24	8.622
461.59	9.471
461.94	8.693
462.29	8.902
462.64	8.232
462.99	8.718
463.34	8.600
463.69	9.193
464.04	8.522
464.39	8.696
464.74	8.853
465.09	8.022
465.44	8.199
465.79	7.718
466.14	8.539
466.49	7.675
466.84	8.173
467.19	8.630
467.54	9.188
467.89	7.983
468.24	8.959
468.59	8.791
468.94	8.186
469.29	8.740
469.64	9.772
469.99	8.119
470.34	8.388
470.68	8.333
471.03	8.707
471.38	9.521
471.73	9.061
472.08	8.816
472.43	8.794
472.78	8.756
473.13	9.243
473.48	8.427
473.83	9.085
474.17	7.903
474.52	8.375
474.87	8.932
475.22	8.822
475.57	8.114
475.92	8.072
476.27	8.117
476.61	9.211
476.96	8.301
477.31	8.425
477.66	7.932
478.01	8.677
478.36	8.514
478.70	8.359
479.05	8.307
479.40	8.188
479.75	8.083
480.10	8.350
480.45	7.853
480.79	7.645
481.14	7.975
481.49	8.448
481.84	7.773
482.19	7.951
482.53	8.349
482.88	7.771
483.23	8.692
483.58	8.053
483.92	7.966
484.27	7.843
484.62	7.888
484.97	7.647
485.31	7.774
485.66	7.252
486.01	6.448
486.36	6.542
486.70	6.277
487.05	6.653
487.40	6.742
487.75	6.982
488.09	7.340
488.44	6.604
488.79	7.342
489.13	7.601
489.48	7.423
489.83	7.510
490.17	7.847
490.52	7.706
490.87	7.463
491.22	7.731
491.56	7.654
491.91	7.771
492.26	7.533
492.60	7.880
492.95	7.717
493.30	7.710
493.64	7.746
493.99	7.196
494.34	8.094
494.68	8.104
495.03	7.895
495.37	8.050
495.72	7.164
496.07	7.796
496.41	7.655
496.76	7.960
497.11	8.285
497.45	8.151
497.80	8.301
498.14	8.068
498.49	7.561
498.84	8.293
499.18	8.095
499.53	7.407
499.87	7.549
500.22	7.254
500.56	7.767
500.91	7.356
501.26	7.729
501.60	8.401
501.95	7.608
502.29	7.826
502.64	7.775
502.98	7.620
503.33	8.272
503.67	7.239
504.02	7.343
504.36	7.815
504.71	7.719
505.06	8.193
505.40	7.438
505.75	7.570
506.09	7.629
506.44	7.647
506.78	8.281
507.13	7.622
507.47	8.081
507.82	8.967
508.16	8.055
508.51	8.270
508.85	7.498
509.19	8.163
509.54	8.061
509.88	7.779
510.23	7.815
510.57	8.462
510.92	7.923
511.26	8.016
511.61	8.247
511.95	7.620
512.30	8.059
512.64	7.577
512.98	8.467
513.33	8.351
513.67	8.218
514.02	7.900
514.36	8.684
514.70	8.578
515.05	8.310
515.39	9.086
515.74	8.840
516.08	8.217
516.42	9.323
516.77	8.974
517.11	8.380
517.46	9.142
517.80	8.711
518.14	7.759
518.49	8.868
518.83	8.807
519.17	8.314
519.52	8.942
519.86	9.355
520.20	8.902
520.55	8.797
520.89	9.307
521.23	8.926
521.58	8.884
521.92	8.879
522.26	8.542
522.61	8.349
522.95	8.656
523.29	8.886
523.64	8.415
523.98	9.427
524.32	8.625
524.66	9.321
525.01	9.069
525.35	8.736
525.69	8.128
526.04	8.847
526.38	8.969
526.72	9.080
527.06	8.914
527.41	8.106
527.75	8.553
528.09	9.056
528.43	8.477
528.78	8.666
529.12	8.727
529.46	9.859
529.80	8.106
530.15	9.408
530.49	7.877
530.83	8.734
531.17	9.530
531.51	9.339
531.86	8.968
532.20	9.518
532.54	9.994
532.88	8.986
533.22	8.495
533.57	8.704
533.91	9.031
534.25	9.235
534.59	8.847
534.93	9.102
535.27	8.871
535.62	8.730
535.96	8.663
536.30	8.646
536.64	8.628
536.98	10.086
537.32	8.295
537.66	9.467
538.01	9.085
538.35	9.308
538.69	9.892
539.03	8.967
539.37	8.115
539.71	7.842
540.05	8.693
540.39	8.904
540.73	8.732
541.07	9.409
541.42	9.198
541.76	9.484
542.10	8.991
542.44	8.940
542.78	9.289
543.12	7.997
543.46	8.984
543.80	9.109
544.14	8.023
544.48	9.206
544.82	8.595
545.16	8.523
545.50	8.676
545.84	9.207
546.18	8.552
546.52	9.291
546.86	8.591
547.20	9.373
547.54	8.818
547.88	9.056
548.22	7.846
548.56	8.113
548.90	8.707
549.24	8.013
549.58	8.322
549.92	9.272
550.26	8.736
550.60	9.405
550.94	9.085
551.28	8.193
551.62	8.339
551.96	8.281
552.30	9.693
552.64	9.466
552.98	8.271
553.32	9.171
553.66	9.680
554.00	9.334
554.34	9.593
554.68	9.800
555.02	9.027
555.36	8.490
555.69	9.269
556.03	8.479
556.37	9.004
556.71	8.458
557.05	8.613
557.39	9.377
557.73	9.174
558.07	8.847
558.41	8.683
558.75	9.478
559.08	9.694
559.42	9.221
559.76	8.676
560.10	9.208
560.44	8.735
560.78	7.984
561.12	9.367
561.45	10.169
561.79	7.779
562.13	8.115
562.47	8.470
562.81	8.438
563.15	8.763
563.48	8.621
563.82	8.937
564.16	8.502
564.50	8.073
564.84	8.091
565.17	9.138
565.51	8.435
565.85	9.327
566.19	7.639
566.52	8.423
566.86	8.077
567.20	9.021
567.54	8.219
567.88	7.550
568.21	8.519
568.55	7.735
568.89	7.733
569.23	8.244
569.56	8.259
569.90	7.472
570.24	7.176
570.57	7.378
570.91	7.143
571.25	6.455
571.59	6.951
571.92	6.999
572.26	7.019
572.60	7.447
572.93	7.286
573.27	7.246
573.61	7.063
573.95	7.494
574.28	6.658
574.62	6.851
574.96	6.571
575.29	6.790
575.63	6.682
575.97	6.769
576.30	7.196
576.64	6.697
576.98	6.879
577.31	6.793
577.65	6.558
577.98	6.514
578.32	6.374
578.66	6.268
578.99	6.551
579.33	6.778
579.67	6.154
580.00	6.809
580.34	6.858
580.67	6.476
581.01	7.016
581.35	6.607
581.68	6.918
582.02	6.332
582.35	6.383
582.69	6.443
583.02	6.445
583.36	6.641
583.70	6.369
584.03	6.975
584.37	6.930
584.70	6.975
585.04	7.094
585.37	6.873
585.71	6.673
586.04	6.837
586.38	6.818
586.72	7.401
587.05	6.764
587.39	6.623
587.72	7.060
588.06	6.483
588.39	6.968
588.73	7.099
589.06	7.136
589.40	6.835
589.73	7.321
590.07	6.868
590.40	6.650
590.73	7.026
591.07	7.407
591.40	7.507
591.74	7.706
592.07	7.548
592.41	7.772
592.74	7.416
593.08	7.362
593.41	7.181
593.75	6.808
594.08	7.308
594.41	7.282
594.75	7.209
595.08	7.087
595.42	7.706
595.75	7.479
596.09	7.773
596.42	7.544
596.75	7.345
597.09	8.528
597.42	7.336
597.75	7.805
598.09	7.783
598.42	7.775
598.76	7.377
599.09	7.526
599.42	7.278
599.76	7.760
600.09	7.104
600.42	7.049
600.76	7.179
601.09	7.577
601.42	6.963
601.76	7.173
602.09	6.917
602.42	7.922
602.76	7.054
603.09	7.671
603.42	7.575
603.76	7.203
604.09	7.057
604.42	7.338
604.76	8.435
605.09	7.471
605.42	6.883
605.75	7.202
606.09	6.710
606.42	7.111
606.75	7.590
607.09	7.828
607.42	7.274
607.75	6.456
608.08	7.512
608.42	8.068
608.75	7.529
609.08	7.724
609.41	7.949
609.75	7.575
610.08	8.200
610.41	7.588
610.74	6.954
611.07	7.955
611.41	7.556
611.74	8.145
612.07	7.816
612.40	7.817
612.73	7.737
613.07	8.351
613.40	7.846
613.73	7.027
614.06	7.742
614.39	8.390
614.72	7.895
615.06	8.193
615.39	7.378
615.72	8.078
616.05	7.390
616.38	7.838
616.71	8.848
617.05	8.422
617.38	7.937
617.71	8.348
618.04	8.233
618.37	8.220
618.70	8.401
619.03	8.224
619.36	7.943
619.69	8.944
620.03	8.860
620.36	9.225
620.69	8.836
621.02	9.882
621.35	8.692
621.68	8.801
622.01	8.824
622.34	9.153
622.67	8.897
623.00	8.291
623.33	8.578
623.66	8.363
623.99	8.984
624.32	8.345
624.65	8.828
624.99	7.932
625.32	8.689
625.65	8.640
625.98	9.301
626.31	9.331
626.64	9.551
626.97	8.229
627.30	8.645
627.63	9.680
627.96	9.756
628.29	10.324
628.62	10.613
628.95	11.698
629.28	10.128
629.61	11.641
629.94	10.095
630.26	9.056
630.59	9.819
630.92	8.333
631.25	8.983
631.58	10.410
631.91	8.519
632.24	9.916
632.57	9.864
632.90	9.649
633.23	10.291
633.56	10.847
633.89	10.193
634.22	10.102
634.55	11.716
634.88	10.060
635.20	11.350
635.53	11.084
635.86	9.901
636.19	11.176
636.52	10.496
636.85	10.538
637.18	9.217
637.51	11.702
637.83	8.015
638.16	10.614
638.49	10.705
638.82	11.757
639.15	10.750
639.48	12.219
639.81	9.786
640.13	10.547
640.46	11.678
640.79	11.229
641.12	8.528
641.45	10.335
641.77	10.015
642.10	10.088
642.43	11.261
642.76	13.932
643.09	12.270
643.41	10.470
643.74	11.574
644.07	10.366
644.40	12.730
644.73	14.016
645.05	10.777
645.38	9.163
645.71	13.043
646.04	11.628
646.36	13.189
646.69	12.375
647.02	10.544
647.35	13.230
647.67	12.743
648.00	12.358
648.33	11.716
648.66	10.909
648.98	12.144
649.31	10.613
649.64	10.015
649.96	10.432
650.29	11.058
650.62	10.194
650.94	13.776
651.27	11.824
651.60	12.146
651.92	11.661
652.25	11.075
652.58	10.592
652.90	13.112
653.23	11.248
653.56	10.394
653.88	11.410
654.21	13.270
654.54	11.716
654.86	12.305
655.19	10.000
655.52	6.455
655.84	5.403
656.17	6.683
656.49	8.994
656.82	9.005
657.15	6.861
657.47	4.956
657.80	4.046
658.13	4.128
658.45	6.459
658.78	6.699
659.10	7.188
659.43	7.318
659.75	7.950
660.08	8.291
660.41	10.242
660.73	11.563
661.06	10.987
661.38	12.182
661.71	12.115
662.03	12.821
662.36	11.133
662.68	14.056
663.01	15.354
663.33	14.225
663.66	13.655
663.98	11.231
664.31	11.555
664.63	12.348
664.96	10.664
665.28	13.320
665.61	11.306
665.93	10.060
666.26	11.968
666.58	12.134
666.91	15.433
667.23	14.382
667.56	12.527
667.88	12.393
668.21	14.925
668.53	12.581
668.86	14.286
669.18	12.154
669.50	12.609
669.83	17.647
670.15	13.778
670.48	13.943
670.80	12.716
671.13	15.287
671.45	12.979
671.77	12.220
672.10	14.787
672.42	11.837
672.75	10.945
673.07	10.211
673.39	11.392
673.72	10.742
674.04	12.745
674.37	11.650
674.69	12.270
675.01	11.925
675.34	16.427
675.66	14.526
675.98	12.220
676.31	14.706
676.63	14.437
676.95	14.256
677.28	14.019
677.60	15.824
677.92	14.768
678.25	15.606
678.57	14.741
678.89	12.625
679.22	12.967
679.54	12.977
679.86	14.862
680.18	12.165
680.51	13.652
680.83	11.744
681.15	10.189
681.48	14.367
681.80	13.346
682.12	12.069
682.44	11.412
682.77	12.831
683.09	16.309
683.41	11.086
683.73	14.790
684.06	14.463
684.38	14.481
684.70	13.372
685.02	15.009
685.34	12.454
685.67	10.664
685.99	11.340
686.31	12.116
686.63	10.424
686.96	12.321
687.28	13.357
687.60	12.681
687.92	14.077
688.24	12.167
688.56	12.651
688.89	13.278
689.21	15.284
689.53	15.031
689.85	14.412
690.17	11.801
690.49	13.376
690.82	13.785
691.14	11.607
691.46	12.658
691.78	13.855
692.10	13.430
692.42	14.571
692.74	11.411
693.06	13.404
693.39	14.579
693.71	12.009
694.03	13.684
694.35	11.472
694.67	12.357
694.99	15.366
695.31	11.275
695.63	14.354
695.95	15.648
696.27	11.168
696.59	12.176
696.91	15.026
697.23	12.207
697.56	14.072
697.88	12.065
698.20	11.042
698.52	13.978
698.84	14.477
699.16	11.060
699.48	14.014
699.80	16.184
700.12	17.662
700.44	13.793
700.76	18.232
701.08	16.954
701.40	14.246
701.72	17.784
702.04	21.591
702.36	15.297
702.68	15.581
703.00	17.452
703.32	12.766
703.64	13.941
703.96	16.156
704.28	17.442
704.60	18.475
704.91	15.727
705.23	17.595
705.55	16.279
705.87	18.605
706.19	12.721
706.51	20.561
706.83	17.879
707.15	19.328
707.47	14.394
707.79	15.479
708.11	14.840
708.43	16.429
708.74	12.245
709.06	12.727
709.38	16.535
709.70	16.860
710.02	16.320
710.34	14.242
710.66	14.328
710.98	18.750
711.29	19.186
711.61	20.059
711.93	14.423
712.25	18.650
712.57	13.603
712.89	16.263
713.20	17.933
713.52	20.066
713.84	18.354
714.16	15.244
714.48	15.230
714.80	20.973
715.11	17.003
715.43	12.760
715.75	12.464
716.07	15.974
716.39	19.436
716.70	14.950
717.02	18.705
717.34	18.728
717.66	17.164
717.97	19.920
718.29	17.407
718.61	17.153
718.93	18.015
719.24	19.031
719.56	17.288
719.88	17.966
720.20	19.932
720.51	19.861
720.83	19.703
721.15	16.045
721.46	20.922
721.78	18.638
722.10	18.491
722.42	19.173
722.73	18.352
723.05	21.311
723.37	18.623
723.68	18.919
724.00	19.919
724.32	19.355
724.63	19.106
724.95	23.013
725.27	21.457
725.58	20.703
725.90	20.073
726.22	21.887
726.53	18.403
726.85	20.819
727.16	19.217
727.48	16.667
727.80	17.424
728.11	17.391
728.43	21.923
728.74	20.430
729.06	18.978
729.38	22.794
729.69	16.014
730.01	15.017
730.32	15.972
730.64	18.060
730.96	14.521
731.27	16.225
731.59	15.902
731.90	15.160
732.22	16.770
732.53	14.861
732.85	19.231
733.16	15.434
733.48	17.608
733.80	16.234
734.11	18.471
734.43	15.680
734.74	15.143
735.06	12.894
735.37	18.208
735.69	14.013
736.00	15.359
736.32	18.069
736.63	15.016
736.95	16.613
737.26	12.245
737.58	14.194
737.89	18.060
738.21	20.137
738.52	15.714
738.83	18.868
739.15	16.923
739.46	17.883
739.78	17.361
740.09	18.154
740.41	18.710
740.72	14.634
741.04	17.778
741.35	20.417
741.66	25.333
741.98	22.170
742.29	21.531
742.61	26.293
742.92	17.647
743.23	20.940
743.55	25.200
743.86	22.807
744.18	18.584
744.49	21.053
744.80	24.883
745.12	15.455
745.43	21.586
745.74	19.369
746.06	22.477
746.37	19.283
746.68	23.982
747.00	30.093
747.31	28.095
747.62	18.584
747.94	21.145
748.25	20.000
748.56	24.229
748.88	21.782
749.19	23.000
749.50	20.930
749.82	22.358
750.13	18.776
750.44	15.693
750.75	20.351
751.07	21.543
751.38	17.422
751.69	20.939
752.01	18.797
752.32	19.495
752.63	22.340
752.94	18.033
753.26	24.000
753.57	19.106
753.88	18.359
754.19	18.214
754.51	21.181
754.82	13.718
755.13	19.623
755.44	19.925
755.75	19.343
756.07	15.957
756.38	14.234
756.69	19.799
757.00	18.263
757.31	16.914
757.63	15.497
757.94	13.941
758.25	14.951
758.56	14.815
758.87	13.710
759.18	18.182
759.50	16.928
759.81	15.576
760.12	15.625
760.43	15.759
760.74	13.587
761.05	16.949
761.36	15.508
761.67	16.193
761.99	14.907
762.30	17.361
762.61	19.847
762.92	19.141
763.23	22.689
763.54	25.600
763.85	17.578
764.16	23.846
764.47	26.996
764.78	15.901
765.10	15.506
765.41	19.174
765.72	15.569
766.03	17.241
766.34	17.333
766.65	18.723
766.96	18.376
767.27	23.350
767.58	27.083
767.89	30.526
768.20	25.287
768.51	19.289
768.82	25.688
769.13	17.073
769.44	17.814
769.75	21.030
770.06	13.761
770.37	22.172
770.68	24.074
770.99	20.444
771.30	15.984
771.61	22.870
771.92	23.770
772.23	26.891
772.54	19.487
772.85	28.272
773.16	25.532
773.47	26.087
773.78	31.980
774.09	27.976
774.39	22.807
774.70	25.309
775.01	33.333
775.32	30.719
775.63	29.605
775.94	26.619
776.25	32.283
776.56	29.104
776.87	34.426
777.18	31.250
777.48	35.878
777.79	32.576
778.10	34.074
778.41	34.821
778.72	29.197
779.03	30.201
779.34	28.859
779.65	29.730
779.95	25.767
780.26	28.758
780.57	31.724
780.88	42.187
781.19	25.564
781.50	34.459
781.80	25.157
782.11	29.944
782.42	22.152
782.73	27.607
783.04	29.054
783.34	29.577
783.65	37.671
783.96	35.075
784.27	27.273
784.57	28.777
784.88	22.222
785.19	34.127
785.50	39.623
785.81	43.284
786.11	40.984
786.42	37.209
786.73	36.283
787.04	37.736
787.34	40.179
787.65	30.000
787.96	46.847
788.26	28.926
788.57	34.746
788.88	39.669
789.19	35.417
789.49	38.636
789.80	31.298
790.11	50.476
790.41	43.564
790.72	34.940
791.03	45.652
791.33	39.535
791.64	41.237
791.95	40.594
792.25	46.667
792.56	41.558
792.87	58.974
793.17	69.620
793.48	57.471
793.79	39.080
794.09	45.455
794.40	32.773
794.70	38.235
795.01	31.852
795.32	23.022
795.62	37.795
795.93	37.931
796.23	41.593
796.54	30.588
796.85	47.297
797.15	70.423
797.46	57.576
797.76	50.602
798.07	55.696
798.37	52.308
798.68	53.030
798.99	40.845
799.29	48.052
799.60	45.455
799.90	57.534
800.21	59.701
800.51	68.966
800.82	68.421
801.12	62.295
801.43	53.030
801.73	43.243
802.04	68.254
802.34	61.728
802.65	51.562
802.95	76.271
803.26	79.688
803.56	45.714
803.87	56.923
804.17	57.353
804.48	59.259
804.78	75.862
805.09	54.412
805.39	75.000
805.70	51.786
806.00	81.967
806.30	51.515
806.61	40.244
806.91	50.633
807.22	46.053
807.52	58.209
807.83	56.338
808.13	64.063
808.43	70.000
808.74	43.421
809.04	57.971
809.35	61.194
809.65	61.842
809.95	80.645
810.26	52.542
810.56	61.905
810.86	68.182
811.17	85.714
811.47	80.000
811.77	81.481
812.08	67.273
812.38	88.000
812.69	100.000
812.99	97.727
813.29	91.837
813.59	64.286
813.90	95.918
814.20	63.636
814.50	67.692
814.81	80.882
815.11	77.551
815.41	67.213
815.72	85.714
816.02	94.545
816.32	88.095
816.62	82.500
816.93	92.683
817.23	85.714
817.53	95.455
817.84	93.939
818.14	104.348
818.44	86.667
818.74	114.706
819.04	82.500
819.35	105.714
819.65	111.765
819.95	121.429
820.25	95.000
820.56	100.000
820.86	93.182
821.16	106.977
821.46	89.744
821.76	90.000
822.07	108.571
822.37	115.000
822.67	90.909
822.97	70.588
823.27	110.714
823.57	75.676
823.88	105.000
824.18	126.667
824.48	104.762
824.78	156.000
825.08	141.667
825.38	105.405
825.69	100.000
825.99	145.833
826.29	103.448
826.59	113.158
826.89	89.474
827.19	126.471
827.49	119.355
827.79	109.091
828.09	97.727
828.39	82.979
828.70	67.347
829.00	88.889
829.30	93.548
829.60	105.000
829.90	193.333
830.20	132.143
830.50	139.130
830.80	134.783
831.10	143.333
831.40	130.000
831.70	117.391
832.00	123.077
832.30	114.815
832.60	187.500
832.90	136.667
833.20	278.571
833.50	141.935
833.80	134.483
834.10	131.250
834.40	142.308
834.70	166.667
835.00	209.524
835.30	108.571
835.60	153.846
835.90	162.069
836.20	114.286
836.50	93.103
836.80	100.000
837.10	111.111
837.40	142.857
837.70	176.471
838.00	177.778
838.30	152.381
838.60	252.381
838.90	176.923
839.19	170.000
839.49	178.571
839.79	260.000
840.09	155.000
840.39	214.286
840.69	173.913
840.99	177.778
841.29	220.000
841.59	183.333
841.88	281.250
842.18	141.379
842.48	228.571
842.78	130.000
843.08	143.478
843.38	106.250
843.68	583.333
843.97	130.769
844.27	155.172
844.57	171.429
844.87	268.750
845.17	144.444
845.47	933.333
845.76	277.778
846.06	223.529
846.36	362.500
846.66	200.000
846.96	225.000
847.25	318.182
847.55	254.545
847.85	134.783
848.15	350.000
848.44	228.571
848.74	200.000
849.04	194.118
849.34	380.000
849.63	168.421
849.93	272.727
850.23	660.000
850.53	300.000
850.82	1300.000
851.12	-3100.000
851.42	2500.000
851.71	190.000
852.01	-566.667
852.31	175.000
852.61	1133.333
852.90	190.476
853.20	168.000
853.50	211.765
853.79	161.905
854.09	129.167
854.39	250.000
854.68	140.541
854.98	129.032
855.28	123.333
855.57	168.966
855.87	170.370
856.17	152.632
856.46	166.667
856.76	152.941
857.05	134.483
857.35	170.833
857.65	240.000
857.94	143.478
858.24	134.615
858.53	180.000
858.83	145.455
859.13	240.000
859.42	0.000
859.72	466.667
860.01	309.091
860.31	168.182
860.60	184.211
860.90	147.826
861.20	322.222
861.49	358.333
861.79	-2300.000
862.08	425.000
862.38	185.714
862.67	269.231
862.97	270.588
863.26	366.667
863.56	211.111
863.85	225.000
864.15	275.000
864.44	313.333
864.74	416.667
865.03	462.500
865.33	221.053
865.62	272.727
865.92	384.615
866.21	225.000
866.51	0.000
866.80	327.273
867.10	920.000
867.39	292.308
867.69	245.455
867.98	200.000
868.27	327.273
868.57	173.684
868.86	-2800.000
869.16	225.000
869.45	1550.000
869.75	-3000.000
870.04	283.333
870.33	457.143
870.63	575.000
870.92	1550.000
871.22	571.429
871.51	276.471
871.80	104.762
872.10	300.000
>>>>>End Processed Spectral Data<<<<<
