SpectraSuite Data File
++++++++++++++++++++++++++++++++++++
Date: Wed May 13 16:13:29 PDT 2015
User: schluterlab
Dark Spectrum Present: Yes
Reference Spectrum Present: Yes
Number of Sampled Component Spectra: 1
Spectrometers: USB2E3373
Integration Time (usec): 3000 (USB2E3373)
Spectra Averaged: 3 (USB2E3373)
Boxcar Smoothing: 0 (USB2E3373)
Correct for Electrical Dark: No (USB2E3373)
Strobe/Lamp Enabled: No (USB2E3373)
Correct for Detector Non-linearity: No (USB2E3373)
Correct for Stray Light: No (USB2E3373)
Number of Pixels in Processed Spectrum: 2048
>>>>>Begin Processed Spectral Data<<<<<
178.53	0.000
178.91	-1000.000
179.29	-1125.000
179.67	-177.778
180.04	-950.000
180.42	2000.000
180.80	760.000
181.18	-875.000
181.56	557.143
181.94	0.000
182.31	-385.714
182.69	1233.333
183.07	-450.000
183.45	-311.111
183.83	500.000
184.20	-160.000
184.58	1600.000
184.96	4500.000
185.34	-580.000
185.72	-500.000
186.09	-2000.000
186.47	1350.000
186.85	2050.000
187.23	3400.000
187.61	-1200.000
187.98	1025.000
188.36	454.545
188.74	409.091
189.12	-600.000
189.49	450.000
189.87	-4300.000
190.25	-975.000
190.63	342.857
191.00	323.077
191.38	716.667
191.76	-850.000
192.14	1300.000
192.51	550.000
192.89	983.333
193.27	525.000
193.65	-875.000
194.02	330.000
194.40	720.000
194.78	430.000
195.15	416.667
195.53	530.000
195.91	-1700.000
196.29	262.500
196.66	257.895
197.04	-250.000
197.42	0.000
197.79	460.000
198.17	-3900.000
198.55	500.000
198.92	612.500
199.30	560.000
199.68	0.000
200.05	238.889
200.43	557.143
200.81	2600.000
201.18	1233.333
201.56	-1266.667
201.94	366.667
202.31	466.667
202.69	391.667
203.07	440.000
203.44	0.000
203.82	700.000
204.19	657.143
204.57	328.571
204.95	462.500
205.32	1333.333
205.70	363.636
206.08	285.714
206.45	2100.000
206.83	281.250
207.20	783.333
207.58	660.000
207.96	311.111
208.33	587.500
208.71	-666.667
209.08	585.714
209.46	444.444
209.84	354.545
210.21	-1133.333
210.59	1050.000
210.96	-362.500
211.34	2100.000
211.71	560.000
212.09	633.333
212.46	0.000
212.84	1366.667
213.22	1100.000
213.59	-3800.000
213.97	650.000
214.34	514.286
214.72	436.364
215.09	780.000
215.47	-2000.000
215.84	-1550.000
216.22	1033.333
216.59	314.286
216.97	925.000
217.34	345.455
217.72	-566.667
218.09	0.000
218.47	-3500.000
218.84	466.667
219.22	585.714
219.59	1466.667
219.97	-285.714
220.34	920.000
220.72	-1300.000
221.09	328.571
221.47	1125.000
221.84	-833.333
222.22	0.000
222.59	1100.000
222.97	-2300.000
223.34	1060.000
223.72	307.692
224.09	800.000
224.46	1850.000
224.84	-3800.000
225.21	-740.000
225.59	-3900.000
225.96	440.000
226.34	265.000
226.71	2050.000
227.08	487.500
227.46	380.000
227.83	-675.000
228.21	-1750.000
228.58	455.556
228.95	-1850.000
229.33	-2150.000
229.70	1533.333
230.08	600.000
230.45	-780.000
230.82	391.667
231.20	566.667
231.57	571.429
231.95	333.333
232.32	209.091
232.69	345.455
233.07	471.429
233.44	246.154
233.81	-1333.333
234.19	247.368
234.56	441.667
234.93	325.000
235.31	381.818
235.68	230.769
236.05	292.857
236.43	154.545
236.80	310.526
237.17	3000.000
237.55	233.333
237.92	171.429
238.29	180.952
238.67	167.742
239.04	213.793
239.41	152.778
239.79	126.087
240.16	126.190
240.53	140.909
240.91	101.961
241.28	110.000
241.65	102.000
242.02	115.942
242.40	106.452
242.77	105.000
243.14	87.097
243.51	83.146
243.89	92.941
244.26	83.333
244.63	83.871
245.00	86.170
245.38	94.059
245.75	80.374
246.12	75.229
246.49	81.022
246.87	88.800
247.24	73.077
247.61	70.714
247.98	67.320
248.36	68.919
248.73	67.516
249.10	72.611
249.47	63.842
249.84	70.053
250.22	63.636
250.59	66.864
250.96	65.657
251.33	68.720
251.70	62.871
252.08	64.286
252.45	59.193
252.82	56.522
253.19	61.702
253.56	61.569
253.94	63.485
254.31	58.984
254.68	60.769
255.05	61.993
255.42	58.130
255.79	63.603
256.16	54.152
256.54	60.424
256.91	62.989
257.28	60.072
257.65	57.426
258.02	56.522
258.39	54.890
258.76	57.525
259.14	53.869
259.51	57.751
259.88	59.006
260.25	61.934
260.62	52.312
260.99	54.348
261.36	56.156
261.73	53.295
262.10	54.070
262.47	56.620
262.85	54.596
263.22	52.422
263.59	54.701
263.96	54.396
264.33	52.480
264.70	56.579
265.07	54.731
265.44	54.798
265.81	50.365
266.18	57.035
266.55	53.902
266.92	56.020
267.29	53.472
267.66	52.523
268.03	51.364
268.40	54.206
268.77	50.597
269.14	51.577
269.51	51.693
269.88	55.711
270.25	52.596
270.62	54.157
270.99	51.398
271.36	56.009
271.73	52.336
272.10	50.870
272.47	53.978
272.84	48.485
273.21	53.249
273.58	49.345
273.95	51.992
274.32	48.140
274.69	51.178
275.06	48.425
275.43	54.255
275.80	49.900
276.17	52.138
276.54	52.599
276.91	49.407
277.28	48.242
277.65	52.031
278.02	51.553
278.39	46.875
278.76	47.455
279.13	48.868
279.50	48.790
279.87	50.398
280.23	49.501
280.60	49.903
280.97	48.799
281.34	47.965
281.71	48.545
282.08	52.399
282.45	48.727
282.82	49.734
283.19	46.702
283.56	46.316
283.92	49.239
284.29	47.443
284.66	46.824
285.03	45.931
285.40	46.127
285.77	47.306
286.14	46.459
286.51	47.000
286.87	45.641
287.24	48.371
287.61	45.907
287.98	46.429
288.35	44.532
288.72	43.458
289.08	43.818
289.45	44.646
289.82	43.902
290.19	43.014
290.56	43.492
290.93	39.275
291.29	44.939
291.66	41.740
292.03	43.169
292.40	43.319
292.77	41.716
293.13	41.343
293.50	41.691
293.87	41.630
294.24	40.148
294.60	39.592
294.97	39.826
295.34	42.454
295.71	40.483
296.08	39.174
296.44	39.615
296.81	36.856
297.18	39.295
297.55	36.807
297.91	38.391
298.28	37.885
298.65	38.512
299.02	38.208
299.38	37.317
299.75	35.040
300.12	36.526
300.48	38.125
300.85	36.005
301.22	35.924
301.59	34.848
301.95	35.013
302.32	38.126
302.69	36.320
303.05	36.242
303.42	35.185
303.79	35.561
304.15	34.615
304.52	36.501
304.89	34.959
305.25	34.223
305.62	34.994
305.99	34.711
306.35	35.011
306.72	34.641
307.09	33.296
307.45	36.036
307.82	33.036
308.19	34.547
308.55	33.981
308.92	33.727
309.29	33.052
309.65	34.252
310.02	32.875
310.38	34.839
310.75	34.952
311.12	33.777
311.48	33.647
311.85	34.486
312.22	34.964
312.58	34.096
312.95	34.319
313.31	33.689
313.68	34.511
314.05	35.306
314.41	33.970
314.78	34.945
315.14	34.260
315.51	34.706
315.87	32.772
316.24	34.757
316.61	34.308
316.97	34.834
317.34	33.562
317.70	35.277
318.07	34.937
318.43	35.812
318.80	35.989
319.16	35.593
319.53	35.178
319.89	34.952
320.26	37.200
320.62	35.317
320.99	35.051
321.35	36.061
321.72	36.756
322.08	38.203
322.45	38.706
322.81	37.984
323.18	37.572
323.54	37.941
323.91	36.887
324.27	36.711
324.64	36.719
325.00	36.700
325.37	38.126
325.73	38.959
326.10	37.864
326.46	37.545
326.83	38.395
327.19	36.806
327.56	38.415
327.92	39.545
328.29	39.574
328.65	39.411
329.01	39.170
329.38	40.703
329.74	39.520
330.11	39.491
330.47	39.394
330.84	39.798
331.20	38.434
331.56	40.183
331.93	39.352
332.29	38.598
332.66	39.823
333.02	40.676
333.38	40.289
333.75	39.216
334.11	39.947
334.48	38.953
334.84	40.257
335.20	39.545
335.57	40.526
335.93	38.304
336.29	39.286
336.66	39.495
337.02	40.090
337.38	39.815
337.75	39.037
338.11	40.286
338.47	38.490
338.84	40.238
339.20	40.367
339.56	40.967
339.93	40.545
340.29	39.130
340.65	39.037
341.02	39.354
341.38	40.125
341.74	40.439
342.11	41.223
342.47	38.062
342.83	41.096
343.20	39.654
343.56	39.596
343.92	39.561
344.28	40.816
344.65	39.639
345.01	38.805
345.37	39.708
345.73	38.663
346.10	39.557
346.46	40.254
346.82	39.621
347.19	38.680
347.55	37.767
347.91	41.424
348.27	40.592
348.63	39.548
349.00	39.401
349.36	39.080
349.72	38.893
350.08	39.060
350.45	39.300
350.81	38.587
351.17	39.465
351.53	38.984
351.89	39.769
352.26	39.384
352.62	38.653
352.98	39.627
353.34	40.838
353.70	38.543
354.07	38.871
354.43	38.889
354.79	38.053
355.15	39.106
355.51	41.167
355.87	39.837
356.24	39.577
356.60	38.573
356.96	40.869
357.32	39.248
357.68	39.370
358.04	38.084
358.40	39.905
358.77	40.767
359.13	39.227
359.49	39.059
359.85	39.048
360.21	38.038
360.57	39.922
360.93	40.308
361.29	39.305
361.66	39.164
362.02	39.328
362.38	40.456
362.74	38.244
363.10	39.082
363.46	38.811
363.82	39.607
364.18	39.354
364.54	40.788
364.90	39.943
365.26	40.221
365.62	39.080
365.98	39.591
366.35	38.825
366.71	40.275
367.07	40.204
367.43	41.364
367.79	40.542
368.15	41.307
368.51	38.953
368.87	40.971
369.23	40.015
369.59	40.478
369.95	40.074
370.31	39.245
370.67	40.362
371.03	41.423
371.39	40.671
371.75	40.588
372.11	39.829
372.47	42.449
372.83	43.156
373.19	40.173
373.55	41.168
373.91	42.636
374.27	41.100
374.63	41.673
374.99	41.102
375.35	40.684
375.71	41.261
376.07	41.427
376.42	41.816
376.78	42.412
377.14	42.198
377.50	43.377
377.86	41.090
378.22	41.656
378.58	41.729
378.94	42.363
379.30	42.875
379.66	41.878
380.02	42.690
380.38	42.198
380.74	43.998
381.09	43.582
381.45	43.208
381.81	43.489
382.17	44.395
382.53	43.522
382.89	43.642
383.25	44.590
383.61	43.990
383.97	43.340
384.32	44.105
384.68	44.362
385.04	44.438
385.40	44.149
385.76	44.717
386.12	44.430
386.48	44.997
386.83	46.248
387.19	45.764
387.55	45.578
387.91	45.647
388.27	46.352
388.62	46.343
388.98	45.332
389.34	46.433
389.70	45.616
390.06	46.768
390.42	45.266
390.77	46.310
391.13	46.841
391.49	46.637
391.85	45.321
392.20	46.309
392.56	45.833
392.92	46.439
393.28	44.911
393.64	46.463
393.99	45.816
394.35	46.526
394.71	45.420
395.07	47.103
395.42	47.466
395.78	46.247
396.14	47.052
396.50	47.494
396.85	47.362
397.21	46.732
397.57	47.241
397.92	47.296
398.28	46.076
398.64	46.177
399.00	46.670
399.35	46.588
399.71	46.586
400.07	46.777
400.42	47.853
400.78	47.467
401.14	47.866
401.49	47.284
401.85	46.461
402.21	47.665
402.57	47.131
402.92	47.982
403.28	48.657
403.63	48.515
403.99	48.535
404.35	47.879
404.70	48.022
405.06	47.525
405.42	48.160
405.77	47.371
406.13	47.122
406.49	48.847
406.84	48.139
407.20	47.754
407.55	48.756
407.91	49.533
408.27	48.373
408.62	48.465
408.98	48.897
409.34	48.216
409.69	48.129
410.05	47.522
410.40	48.440
410.76	47.312
411.11	48.130
411.47	48.307
411.83	49.236
412.18	48.299
412.54	48.194
412.89	48.614
413.25	47.698
413.60	49.599
413.96	47.905
414.31	49.089
414.67	49.620
415.03	49.007
415.38	49.613
415.74	49.968
416.09	49.837
416.45	49.465
416.80	48.976
417.16	51.072
417.51	49.900
417.87	48.812
418.22	49.968
418.58	50.549
418.93	49.140
419.29	50.159
419.64	50.000
420.00	50.915
420.35	50.029
420.71	50.090
421.06	49.761
421.42	49.942
421.77	50.841
422.12	48.961
422.48	49.487
422.83	49.913
423.19	50.718
423.54	51.364
423.90	50.319
424.25	51.089
424.61	50.179
424.96	50.904
425.31	50.332
425.67	48.708
426.02	50.686
426.38	50.549
426.73	51.785
427.09	51.003
427.44	51.064
427.79	51.121
428.15	52.024
428.50	51.609
428.85	52.205
429.21	51.905
429.56	51.477
429.92	51.384
430.27	50.199
430.62	50.230
430.98	51.064
431.33	50.412
431.68	51.623
432.04	51.118
432.39	53.113
432.74	52.962
433.10	52.518
433.45	52.012
433.80	52.716
434.16	52.137
434.51	52.842
434.86	52.737
435.22	52.418
435.57	51.915
435.92	52.487
436.28	54.211
436.63	53.256
436.98	52.948
437.34	54.383
437.69	53.209
438.04	53.064
438.39	52.836
438.75	53.864
439.10	53.017
439.45	53.070
439.81	53.958
440.16	52.964
440.51	53.661
440.86	54.893
441.22	53.949
441.57	52.972
441.92	54.248
442.27	53.767
442.63	53.976
442.98	54.930
443.33	53.478
443.68	53.743
444.03	52.953
444.39	53.116
444.74	54.113
445.09	54.447
445.44	53.581
445.79	54.231
446.15	53.944
446.50	54.873
446.85	55.190
447.20	54.309
447.55	55.500
447.91	55.323
448.26	54.869
448.61	54.777
448.96	55.150
449.31	54.781
449.66	54.924
450.02	54.652
450.37	54.875
450.72	55.274
451.07	54.540
451.42	53.617
451.77	56.078
452.12	54.388
452.47	55.162
452.83	55.828
453.18	55.318
453.53	56.277
453.88	56.054
454.23	56.127
454.58	55.663
454.93	57.279
455.28	56.421
455.63	56.129
455.98	56.905
456.34	55.905
456.69	57.483
457.04	57.276
457.39	56.517
457.74	56.297
458.09	56.757
458.44	55.815
458.79	55.152
459.14	56.038
459.49	56.626
459.84	55.457
460.19	56.924
460.54	54.803
460.89	55.842
461.24	56.527
461.59	57.060
461.94	56.843
462.29	57.804
462.64	56.796
462.99	57.124
463.34	57.867
463.69	57.473
464.04	56.638
464.39	55.536
464.74	55.199
465.09	56.755
465.44	56.122
465.79	56.879
466.14	55.993
466.49	56.897
466.84	57.501
467.19	56.488
467.54	57.063
467.89	55.402
468.24	56.545
468.59	57.631
468.94	56.567
469.29	57.262
469.64	58.701
469.99	58.796
470.34	58.520
470.68	58.980
471.03	57.619
471.38	58.860
471.73	58.494
472.08	59.934
472.43	58.166
472.78	58.328
473.13	58.986
473.48	57.366
473.83	57.866
474.17	57.436
474.52	58.623
474.87	59.661
475.22	56.878
475.57	56.475
475.92	56.665
476.27	57.103
476.61	57.639
476.96	57.394
477.31	57.300
477.66	57.768
478.01	56.090
478.36	58.805
478.70	57.321
479.05	57.614
479.40	58.649
479.75	58.465
480.10	57.604
480.45	56.782
480.79	55.948
481.14	58.219
481.49	58.282
481.84	57.430
482.19	57.383
482.53	57.294
482.88	57.096
483.23	57.897
483.58	57.143
483.92	58.716
484.27	56.383
484.62	57.500
484.97	57.312
485.31	57.877
485.66	55.457
486.01	53.371
486.36	51.515
486.70	51.263
487.05	52.571
487.40	54.137
487.75	55.312
488.09	57.386
488.44	57.772
488.79	58.517
489.13	58.976
489.48	58.524
489.83	59.128
490.17	58.395
490.52	58.060
490.87	59.249
491.22	57.935
491.56	57.540
491.91	58.120
492.26	58.337
492.60	57.373
492.95	57.250
493.30	58.832
493.64	58.609
493.99	58.728
494.34	58.927
494.68	58.425
495.03	58.600
495.37	56.584
495.72	59.308
496.07	58.469
496.41	56.814
496.76	57.432
497.11	57.317
497.45	59.152
497.80	58.733
498.14	59.324
498.49	59.902
498.84	59.300
499.18	59.143
499.53	58.500
499.87	59.366
500.22	57.183
500.56	59.272
500.91	58.462
501.26	59.128
501.60	60.133
501.95	58.066
502.29	59.419
502.64	59.870
502.98	58.579
503.33	58.867
503.67	59.768
504.02	58.606
504.36	58.119
504.71	58.769
505.06	59.663
505.40	58.921
505.75	58.968
506.09	58.892
506.44	60.385
506.78	59.717
507.13	60.222
507.47	60.303
507.82	60.892
508.16	60.385
508.51	60.020
508.85	60.328
509.19	61.582
509.54	60.000
509.88	58.990
510.23	60.668
510.57	61.507
510.92	60.383
511.26	59.866
511.61	60.529
511.95	59.551
512.30	60.498
512.64	61.956
512.98	61.254
513.33	61.724
513.67	60.085
514.02	60.660
514.36	62.534
514.70	62.147
515.05	61.573
515.39	61.862
515.74	60.923
516.08	62.549
516.42	61.598
516.77	63.378
517.11	61.709
517.46	62.246
517.80	63.879
518.14	61.146
518.49	63.536
518.83	61.989
519.17	63.741
519.52	62.649
519.86	62.864
520.20	62.832
520.55	63.495
520.89	63.929
521.23	64.897
521.58	62.725
521.92	63.931
522.26	62.050
522.61	64.424
522.95	63.045
523.29	63.421
523.64	64.390
523.98	64.449
524.32	63.028
524.66	62.718
525.01	62.623
525.35	62.887
525.69	63.300
526.04	63.302
526.38	63.148
526.72	64.724
527.06	64.846
527.41	62.191
527.75	65.852
528.09	64.676
528.43	64.436
528.78	64.782
529.12	62.364
529.46	63.686
529.80	62.748
530.15	62.555
530.49	61.477
530.83	63.797
531.17	65.209
531.51	65.240
531.86	64.968
532.20	65.515
532.54	65.343
532.88	63.736
533.22	64.210
533.57	63.889
533.91	63.817
534.25	62.454
534.59	63.392
534.93	62.879
535.27	62.221
535.62	63.370
535.96	64.721
536.30	62.873
536.64	64.327
536.98	64.433
537.32	63.726
537.66	64.133
538.01	64.911
538.35	63.413
538.69	64.582
539.03	62.508
539.37	63.387
539.71	63.124
540.05	64.314
540.39	64.850
540.73	61.837
541.07	63.595
541.42	64.644
541.76	62.710
542.10	64.360
542.44	63.974
542.78	64.032
543.12	61.868
543.46	63.541
543.80	64.606
544.14	61.874
544.48	63.238
544.82	64.400
545.16	62.785
545.50	63.817
545.84	64.247
546.18	63.704
546.52	64.831
546.86	64.674
547.20	64.396
547.54	64.462
547.88	64.923
548.22	63.076
548.56	63.145
548.90	62.676
549.24	63.973
549.58	64.802
549.92	64.835
550.26	64.276
550.60	63.347
550.94	64.366
551.28	62.911
551.62	64.270
551.96	64.351
552.30	63.891
552.64	62.880
552.98	64.678
553.32	62.711
553.66	65.235
554.00	65.271
554.34	62.802
554.68	64.950
555.02	64.457
555.36	63.814
555.69	62.449
556.03	63.863
556.37	63.847
556.71	63.506
557.05	63.375
557.39	64.171
557.73	63.656
558.07	65.555
558.41	63.531
558.75	65.246
559.08	65.623
559.42	65.533
559.76	64.338
560.10	63.954
560.44	63.592
560.78	63.540
561.12	64.050
561.45	62.060
561.79	63.546
562.13	63.716
562.47	64.139
562.81	65.272
563.15	62.943
563.48	62.732
563.82	65.036
564.16	63.833
564.50	61.849
564.84	62.326
565.17	63.256
565.51	63.578
565.85	63.008
566.19	61.741
566.52	63.395
566.86	61.483
567.20	62.854
567.54	62.329
567.88	60.511
568.21	60.476
568.55	60.566
568.89	59.922
569.23	58.779
569.56	57.611
569.90	57.321
570.24	56.943
570.57	56.137
570.91	55.915
571.25	56.053
571.59	56.112
571.92	55.328
572.26	55.806
572.60	56.727
572.93	55.712
573.27	56.403
573.61	56.588
573.95	55.581
574.28	55.025
574.62	55.102
574.96	54.695
575.29	54.559
575.63	55.081
575.97	55.246
576.30	56.160
576.64	54.814
576.98	55.177
577.31	55.499
577.65	54.571
577.98	54.704
578.32	53.237
578.66	53.312
578.99	55.102
579.33	54.950
579.67	55.266
580.00	54.927
580.34	55.387
580.67	54.857
581.01	54.464
581.35	54.674
581.68	53.952
582.02	52.755
582.35	53.906
582.69	53.515
583.02	54.049
583.36	55.315
583.70	56.269
584.03	56.740
584.37	56.522
584.70	56.113
585.04	54.477
585.37	54.986
585.71	54.370
586.04	54.313
586.38	55.512
586.72	56.034
587.05	55.284
587.39	54.697
587.72	55.398
588.06	55.069
588.39	55.336
588.73	55.676
589.06	56.684
589.40	57.205
589.73	57.409
590.07	57.544
590.40	57.070
590.73	57.650
591.07	58.445
591.40	57.571
591.74	59.177
592.07	58.333
592.41	57.296
592.74	55.993
593.08	55.496
593.41	54.856
593.75	54.154
594.08	55.347
594.41	55.072
594.75	56.377
595.08	55.941
595.42	57.373
595.75	56.197
596.09	58.280
596.42	57.721
596.75	57.704
597.09	58.571
597.42	56.998
597.75	56.749
598.09	56.957
598.42	56.916
598.76	55.736
599.09	55.910
599.42	55.167
599.76	55.088
600.09	55.046
600.42	54.638
600.76	55.179
601.09	55.592
601.42	56.279
601.76	56.926
602.09	56.917
602.42	56.927
602.76	57.275
603.09	57.042
603.42	56.697
603.76	55.755
604.09	55.719
604.42	56.747
604.76	56.601
605.09	56.575
605.42	55.964
605.75	57.202
606.09	56.283
606.42	55.415
606.75	55.869
607.09	55.672
607.42	56.782
607.75	53.924
608.08	55.319
608.42	57.284
608.75	56.808
609.08	56.059
609.41	57.306
609.75	57.361
610.08	57.823
610.41	56.099
610.74	56.764
611.07	57.856
611.41	56.919
611.74	57.315
612.07	57.971
612.40	58.447
612.73	57.105
613.07	57.974
613.40	58.241
613.73	57.210
614.06	57.366
614.39	57.315
614.72	56.474
615.06	57.405
615.39	56.741
615.72	56.237
616.05	56.885
616.38	58.644
616.71	58.492
617.05	58.893
617.38	58.268
617.71	58.859
618.04	60.156
618.37	57.126
618.70	58.183
619.03	60.395
619.36	59.470
619.69	59.155
620.03	58.860
620.36	58.757
620.69	60.000
621.02	60.177
621.35	60.141
621.68	60.280
622.01	60.372
622.34	60.741
622.67	59.620
623.00	59.501
623.33	58.184
623.66	59.042
623.99	59.720
624.32	58.345
624.65	58.192
624.99	59.561
625.32	58.508
625.65	59.128
625.98	63.182
626.31	60.498
626.64	61.878
626.97	61.430
627.30	60.848
627.63	60.870
627.96	61.228
628.29	61.942
628.62	60.842
628.95	63.491
629.28	62.774
629.61	63.428
629.94	62.476
630.26	62.917
630.59	61.392
630.92	61.111
631.25	61.698
631.58	63.163
631.91	62.880
632.24	63.713
632.57	63.799
632.90	63.158
633.23	64.653
633.56	65.989
633.89	63.760
634.22	65.153
634.55	67.456
634.88	64.192
635.20	64.755
635.53	65.663
635.86	65.347
636.19	62.706
636.52	63.437
636.85	63.345
637.18	63.134
637.51	64.066
637.83	63.255
638.16	65.090
638.49	65.113
638.82	66.625
639.15	65.625
639.48	64.464
639.81	65.818
640.13	63.672
640.46	65.369
640.79	65.786
641.12	62.861
641.45	67.318
641.77	69.219
642.10	66.667
642.43	67.718
642.76	67.647
643.09	67.638
643.41	63.581
643.74	68.673
644.07	66.159
644.40	66.411
644.73	67.717
645.05	69.414
645.38	69.036
645.71	68.277
646.04	70.764
646.36	69.115
646.69	68.060
647.02	68.537
647.35	67.010
647.67	71.681
648.00	66.016
648.33	65.842
648.66	65.152
648.98	66.717
649.31	64.574
649.64	63.827
649.96	63.785
650.29	65.561
650.62	65.534
650.94	67.423
651.27	70.101
651.60	68.220
651.92	64.217
652.25	63.844
652.58	64.953
652.90	66.667
653.23	65.639
653.56	64.882
653.88	65.927
654.21	64.455
654.54	68.152
654.86	63.707
655.19	60.811
655.52	46.444
655.84	40.812
656.17	50.921
656.49	69.690
656.82	71.669
657.15	55.410
657.47	41.938
657.80	33.158
658.13	35.352
658.45	53.514
658.78	55.678
659.10	57.532
659.43	60.994
659.75	64.359
660.08	68.165
660.41	70.950
660.73	71.283
661.06	68.790
661.38	69.273
661.71	71.346
662.03	69.822
662.36	67.793
662.68	65.663
663.01	69.495
663.33	68.153
663.66	66.176
663.98	69.762
664.31	68.277
664.63	64.777
664.96	63.984
665.28	68.033
665.61	65.497
665.93	64.990
666.26	65.517
666.58	68.410
666.91	69.556
667.23	68.764
667.56	68.035
667.88	69.444
668.21	69.296
668.53	69.197
668.86	65.152
669.18	68.657
669.50	67.609
669.83	69.063
670.15	71.556
670.48	65.795
670.80	68.966
671.13	65.817
671.45	63.617
671.77	65.173
672.10	64.880
672.42	61.661
672.75	62.852
673.07	64.261
673.39	63.291
673.72	67.383
674.04	65.686
674.37	64.466
674.69	62.986
675.01	65.690
675.34	66.940
675.66	69.263
675.98	67.413
676.31	68.697
676.63	66.030
676.95	62.893
677.28	69.159
677.60	65.055
677.92	65.823
678.25	66.735
678.57	63.745
678.89	63.727
679.22	63.851
679.54	62.595
679.86	63.119
680.18	62.612
680.51	62.057
680.83	59.964
681.15	59.811
681.48	64.083
681.80	60.735
682.12	66.092
682.44	61.122
682.77	63.340
683.09	69.528
683.41	64.967
683.73	66.446
684.06	63.430
684.38	62.231
684.70	62.984
685.02	63.602
685.34	60.806
685.67	59.615
685.99	59.278
686.31	57.679
686.63	58.834
686.96	57.679
687.28	59.567
687.60	58.152
687.92	60.512
688.24	59.886
688.56	63.052
688.89	65.145
689.21	67.467
689.53	64.301
689.85	61.863
690.17	59.627
690.49	63.057
690.82	65.421
691.14	60.268
691.46	61.392
691.78	58.835
692.10	63.430
692.42	60.878
692.74	61.411
693.06	62.340
693.39	61.602
693.71	63.755
694.03	60.421
694.35	61.905
694.67	62.700
694.99	64.146
695.31	63.235
695.63	62.919
695.95	62.103
696.27	61.929
696.59	64.508
696.91	62.176
697.23	55.164
697.56	58.422
697.88	56.851
698.20	54.792
698.52	61.290
698.84	62.806
699.16	59.447
699.48	63.420
699.80	64.734
700.12	67.532
700.44	66.313
700.76	65.193
701.08	63.218
701.40	62.849
701.72	68.222
702.04	69.886
702.36	59.490
702.68	65.439
703.00	65.928
703.32	61.170
703.64	63.539
703.96	66.017
704.28	64.535
704.60	65.982
704.91	67.359
705.23	64.516
705.55	73.090
705.87	73.090
706.19	66.784
706.51	62.928
706.83	66.364
707.15	63.025
707.47	57.323
707.79	58.968
708.11	57.306
708.43	57.619
708.74	56.378
709.06	64.156
709.38	61.680
709.70	62.500
710.02	64.095
710.34	62.121
710.66	61.194
710.98	65.057
711.29	62.791
711.61	62.242
711.93	64.744
712.25	69.132
712.57	69.118
712.89	71.280
713.20	61.094
713.52	59.868
713.84	61.392
714.16	61.280
714.48	64.368
714.80	66.869
715.11	58.213
715.43	61.424
715.75	60.580
716.07	63.259
716.39	60.188
716.70	67.442
717.02	62.230
717.34	61.484
717.66	64.925
717.97	72.112
718.29	62.593
718.61	56.569
718.93	65.809
719.24	62.630
719.56	58.305
719.88	60.339
720.20	66.554
720.51	64.460
720.83	66.171
721.15	61.194
721.46	60.638
721.78	64.158
722.10	70.943
722.42	69.173
722.73	63.670
723.05	65.164
723.37	67.206
723.68	66.795
724.00	64.634
724.32	66.532
724.63	70.325
724.95	61.088
725.27	66.397
725.58	64.062
725.90	61.679
726.22	67.925
726.53	59.028
726.85	60.410
727.16	62.633
727.48	67.021
727.80	64.394
728.11	58.333
728.43	60.769
728.74	64.158
729.06	62.774
729.38	66.176
729.69	64.769
730.01	56.314
730.32	63.542
730.64	58.194
730.96	56.106
731.27	63.907
731.59	59.021
731.90	56.268
732.22	56.832
732.53	57.585
732.85	57.692
733.16	56.913
733.48	59.136
733.80	59.740
734.11	57.643
734.43	55.325
734.74	57.714
735.06	54.155
735.37	56.936
735.69	56.051
736.00	62.092
736.32	61.682
736.63	56.869
736.95	58.147
737.26	54.422
737.58	57.419
737.89	59.866
738.21	57.679
738.52	53.571
738.83	57.358
739.15	55.000
739.46	59.489
739.78	61.111
740.09	51.385
740.41	58.387
740.72	60.627
741.04	61.852
741.35	60.000
741.66	64.000
741.98	61.321
742.29	61.244
742.61	62.931
742.92	65.611
743.23	61.966
743.55	57.200
743.86	65.789
744.18	61.947
744.49	67.464
744.80	65.258
745.12	63.636
745.43	65.198
745.74	67.568
746.06	63.303
746.37	63.229
746.68	59.276
747.00	65.278
747.31	67.143
747.62	57.522
747.94	57.269
748.25	57.021
748.56	63.877
748.88	67.327
749.19	77.000
749.50	63.256
749.82	55.691
750.13	53.061
750.44	58.394
750.75	58.947
751.07	60.450
751.38	58.188
751.69	58.484
752.01	58.271
752.32	56.679
752.63	56.738
752.94	61.885
753.26	61.200
753.57	58.943
753.88	62.891
754.19	58.929
754.51	56.597
754.82	57.762
755.13	60.755
755.44	56.767
755.75	55.474
756.07	55.674
756.38	58.759
756.69	54.698
757.00	48.503
757.31	52.819
757.63	51.462
757.94	49.598
758.25	47.794
758.56	51.111
758.87	52.419
759.18	50.909
759.50	51.411
759.81	52.336
760.12	51.875
760.43	49.284
760.74	51.087
761.05	54.802
761.36	52.139
761.67	53.977
761.99	54.037
762.30	53.125
762.61	58.779
762.92	59.766
763.23	60.504
763.54	58.000
763.85	53.125
764.16	57.308
764.47	59.316
764.78	51.590
765.10	51.899
765.41	53.982
765.72	50.299
766.03	52.665
766.34	51.667
766.65	62.979
766.96	57.265
767.27	65.482
767.58	64.583
767.89	65.263
768.20	64.368
768.51	59.391
768.82	58.716
769.13	54.878
769.44	53.846
769.75	56.223
770.06	51.835
770.37	61.991
770.68	58.796
770.99	56.000
771.30	51.639
771.61	60.090
771.92	57.377
772.23	60.084
772.54	54.872
772.85	59.162
773.16	58.511
773.47	64.130
773.78	62.944
774.09	62.500
774.39	66.082
774.70	58.642
775.01	76.812
775.32	74.510
775.63	67.763
775.94	65.468
776.25	72.441
776.56	79.851
776.87	75.410
777.18	75.781
777.48	76.336
777.79	68.182
778.10	67.407
778.41	73.214
778.72	63.504
779.03	73.826
779.34	60.403
779.65	66.216
779.95	66.871
780.26	69.935
780.57	74.483
780.88	80.469
781.19	70.677
781.50	72.297
781.80	60.377
782.11	66.667
782.42	60.759
782.73	63.804
783.04	67.568
783.34	69.014
783.65	73.973
783.96	71.642
784.27	66.434
784.57	59.712
784.88	65.741
785.19	80.952
785.50	83.019
785.81	67.910
786.11	86.066
786.42	68.217
786.73	60.177
787.04	73.585
787.34	77.679
787.65	80.000
787.96	76.577
788.26	68.595
788.57	81.356
788.88	72.727
789.19	64.583
789.49	71.970
789.80	67.939
790.11	90.476
790.41	95.050
790.72	75.904
791.03	90.217
791.33	84.884
791.64	73.196
791.95	84.158
792.25	76.667
792.56	100.000
792.87	100.000
793.17	91.139
793.48	85.057
793.79	82.759
794.09	95.455
794.40	64.706
794.70	71.324
795.01	58.519
795.32	61.871
795.62	68.504
795.93	74.138
796.23	67.257
796.54	85.882
796.85	89.189
797.15	118.310
797.46	84.848
797.76	96.386
798.07	92.405
798.37	83.077
798.68	101.515
798.99	87.324
799.29	84.416
799.60	72.727
799.90	97.260
800.21	101.493
800.51	105.172
800.82	117.544
801.12	98.361
801.43	95.455
801.73	89.189
802.04	109.524
802.34	81.481
802.65	104.688
802.95	103.390
803.26	112.500
803.56	77.143
803.87	87.692
804.17	86.765
804.48	105.556
804.78	108.621
805.09	98.529
805.39	130.769
805.70	91.071
806.00	111.475
806.30	75.758
806.61	85.366
806.91	78.481
807.22	85.526
807.52	85.075
807.83	100.000
808.13	103.125
808.43	100.000
808.74	85.526
809.04	100.000
809.35	92.537
809.65	98.684
809.95	117.742
810.26	108.475
810.56	98.413
810.86	125.000
811.17	123.810
811.47	111.667
811.77	114.815
812.08	110.909
812.38	120.000
812.69	125.000
812.99	145.455
813.29	130.612
813.59	90.476
813.90	116.327
814.20	98.182
814.50	93.846
814.81	104.412
815.11	114.286
815.41	103.279
815.72	159.524
816.02	98.182
816.32	130.952
816.62	117.500
816.93	136.585
817.23	152.381
817.53	115.909
817.84	145.455
818.14	121.739
818.44	131.111
818.74	152.941
819.04	120.000
819.35	151.429
819.65	147.059
819.95	160.714
820.25	190.000
820.56	158.974
820.86	120.455
821.16	146.512
821.46	130.769
821.76	126.000
822.07	128.571
822.37	122.500
822.67	169.697
822.97	94.118
823.27	214.286
823.57	137.838
823.88	152.500
824.18	190.000
824.48	173.810
824.78	228.000
825.08	195.833
825.38	143.243
825.69	121.951
825.99	204.167
826.29	151.724
826.59	123.684
826.89	128.947
827.19	129.412
827.49	174.194
827.79	159.091
828.09	140.909
828.39	119.149
828.70	112.245
829.00	159.259
829.30	164.516
829.60	110.000
829.90	260.000
830.20	175.000
830.50	221.739
830.80	195.652
831.10	183.333
831.40	146.667
831.70	156.522
832.00	180.769
832.30	151.852
832.60	262.500
832.90	190.000
833.20	307.143
833.50	167.742
833.80	179.310
834.10	162.500
834.40	238.462
834.70	311.111
835.00	295.238
835.30	120.000
835.60	261.538
835.90	175.862
836.20	250.000
836.50	144.828
836.80	172.000
837.10	152.778
837.40	185.714
837.70	229.412
838.00	174.074
838.30	223.810
838.60	271.429
838.90	180.769
839.19	240.000
839.49	385.714
839.79	300.000
840.09	220.000
840.39	200.000
840.69	191.304
840.99	283.333
841.29	380.000
841.59	266.667
841.88	300.000
842.18	141.379
842.48	223.810
842.78	166.667
843.08	204.348
843.38	153.125
843.68	683.333
843.97	180.769
844.27	162.069
844.57	276.190
844.87	287.500
845.17	177.778
845.47	1033.333
845.76	311.111
846.06	229.412
846.36	350.000
846.66	321.429
846.96	262.500
847.25	336.364
847.55	400.000
847.85	182.609
848.15	360.000
848.44	314.286
848.74	166.667
849.04	247.059
849.34	450.000
849.63	194.737
849.93	427.273
850.23	720.000
850.53	350.000
850.82	1900.000
851.12	-3000.000
851.42	3900.000
851.71	230.000
852.01	-633.333
852.31	233.333
852.61	1500.000
852.90	242.857
853.20	184.000
853.50	294.118
853.79	242.857
854.09	175.000
854.39	268.750
854.68	143.243
854.98	154.839
855.28	163.333
855.57	203.448
855.87	177.778
856.17	178.947
856.46	206.667
856.76	170.588
857.05	148.276
857.35	191.667
857.65	253.333
857.94	156.522
858.24	211.538
858.53	220.000
858.83	236.364
859.13	313.333
859.42	0.000
859.72	455.556
860.01	300.000
860.31	231.818
860.60	252.632
860.90	217.391
861.20	477.778
861.49	433.333
861.79	-4800.000
862.08	512.500
862.38	247.619
862.67	284.615
862.97	323.529
863.26	600.000
863.56	205.556
863.85	325.000
864.15	475.000
864.44	293.333
864.74	700.000
865.03	537.500
865.33	221.053
865.62	318.182
865.92	392.308
866.21	350.000
866.51	0.000
866.80	354.545
867.10	780.000
867.39	369.231
867.69	400.000
867.98	273.684
868.27	363.636
868.57	189.474
868.86	-3300.000
869.16	312.500
869.45	2050.000
869.75	-2000.000
870.04	333.333
870.33	542.857
870.63	900.000
870.92	2350.000
871.22	542.857
871.51	270.588
871.80	204.762
872.10	271.429
>>>>>End Processed Spectral Data<<<<<
