SpectraSuite Data File
++++++++++++++++++++++++++++++++++++
Date: Wed May 13 16:29:08 PDT 2015
User: schluterlab
Dark Spectrum Present: Yes
Reference Spectrum Present: Yes
Number of Sampled Component Spectra: 1
Spectrometers: USB2E3373
Integration Time (usec): 3000 (USB2E3373)
Spectra Averaged: 3 (USB2E3373)
Boxcar Smoothing: 0 (USB2E3373)
Correct for Electrical Dark: No (USB2E3373)
Strobe/Lamp Enabled: No (USB2E3373)
Correct for Detector Non-linearity: No (USB2E3373)
Correct for Stray Light: No (USB2E3373)
Number of Pixels in Processed Spectrum: 2048
>>>>>Begin Processed Spectral Data<<<<<
178.53	0.000
178.91	-1400.000
179.29	-1050.000
179.67	-250.000
180.04	-1200.000
180.42	2400.000
180.80	720.000
181.18	-975.000
181.56	514.286
181.94	0.000
182.31	-642.857
182.69	1400.000
183.07	-412.500
183.45	-544.444
183.83	536.364
184.20	-400.000
184.58	2400.000
184.96	4100.000
185.34	-880.000
185.72	-525.000
186.09	-1800.000
186.47	2150.000
186.85	1900.000
187.23	4500.000
187.61	-1333.333
187.98	1275.000
188.36	463.636
188.74	545.455
189.12	-840.000
189.49	570.000
189.87	-3800.000
190.25	-1100.000
190.63	335.714
191.00	423.077
191.38	850.000
191.76	-1125.000
192.14	1175.000
192.51	637.500
192.89	800.000
193.27	562.500
193.65	-1200.000
194.02	440.000
194.40	800.000
194.78	440.000
195.15	516.667
195.53	550.000
195.91	-2000.000
196.29	300.000
196.66	257.895
197.04	-320.000
197.42	0.000
197.79	560.000
198.17	-4400.000
198.55	557.143
198.92	612.500
199.30	780.000
199.68	0.000
200.05	322.222
200.43	757.143
200.81	3200.000
201.18	1366.667
201.56	-1633.333
201.94	566.667
202.31	544.444
202.69	433.333
203.07	580.000
203.44	0.000
203.82	1075.000
204.19	700.000
204.57	407.143
204.95	675.000
205.32	1566.667
205.70	509.091
206.08	392.857
206.45	2000.000
206.83	281.250
207.20	733.333
207.58	740.000
207.96	311.111
208.33	600.000
208.71	-616.667
209.08	728.571
209.46	588.889
209.84	409.091
210.21	-1433.333
210.59	1375.000
210.96	-562.500
211.34	2500.000
211.71	510.000
212.09	766.667
212.46	0.000
212.84	1833.333
213.22	1175.000
213.59	-3100.000
213.97	666.667
214.34	871.429
214.72	518.182
215.09	1160.000
215.47	-1650.000
215.84	-3150.000
216.22	1700.000
216.59	342.857
216.97	1075.000
217.34	490.909
217.72	-733.333
218.09	0.000
218.47	-4700.000
218.84	611.111
219.22	842.857
219.59	1500.000
219.97	-471.429
220.34	1000.000
220.72	-1266.667
221.09	450.000
221.47	1250.000
221.84	-866.667
222.22	0.000
222.59	1200.000
222.97	-1850.000
223.34	1020.000
223.72	338.462
224.09	940.000
224.46	1900.000
224.84	-4600.000
225.21	-780.000
225.59	-4800.000
225.96	530.000
226.34	275.000
226.71	2200.000
227.08	687.500
227.46	500.000
227.83	-950.000
228.21	-2100.000
228.58	566.667
228.95	-2300.000
229.33	-1850.000
229.70	1633.333
230.08	714.286
230.45	-640.000
230.82	400.000
231.20	733.333
231.57	642.857
231.95	500.000
232.32	254.545
232.69	409.091
233.07	600.000
233.44	292.308
233.81	-1333.333
234.19	252.632
234.56	383.333
234.93	341.667
235.31	472.727
235.68	307.692
236.05	300.000
236.43	142.424
236.80	242.105
237.17	3600.000
237.55	219.048
237.92	182.143
238.29	223.810
238.67	151.613
239.04	168.966
239.41	130.556
239.79	106.522
240.16	121.429
240.53	100.000
240.91	100.000
241.28	102.000
241.65	76.000
242.02	75.362
242.40	70.968
242.77	88.333
243.14	66.667
243.51	71.910
243.89	63.529
244.26	57.778
244.63	53.763
245.00	44.681
245.38	52.475
245.75	45.794
246.12	37.615
246.49	50.365
246.87	48.000
247.24	43.077
247.61	41.429
247.98	33.333
248.36	36.486
248.73	33.758
249.10	45.223
249.47	33.333
249.84	33.155
250.22	34.759
250.59	29.586
250.96	33.333
251.33	36.019
251.70	35.149
252.08	36.190
252.45	27.803
252.82	27.826
253.19	32.340
253.56	26.667
253.94	28.631
254.31	26.953
254.68	24.231
255.05	28.044
255.42	26.829
255.79	27.941
256.16	27.798
256.54	23.322
256.91	24.555
257.28	18.705
257.65	23.102
258.02	26.398
258.39	22.713
258.76	19.398
259.14	24.405
259.51	24.012
259.88	18.323
260.25	22.054
260.62	22.543
260.99	18.944
261.36	21.922
261.73	23.209
262.10	21.221
262.47	21.690
262.85	19.499
263.22	18.234
263.59	22.222
263.96	20.604
264.33	21.671
264.70	21.579
265.07	18.926
265.44	19.949
265.81	16.058
266.18	18.593
266.55	16.829
266.92	18.919
267.29	20.833
267.66	19.725
268.03	20.682
268.40	18.224
268.77	17.900
269.14	18.243
269.51	19.639
269.88	18.182
270.25	20.767
270.62	17.528
270.99	20.215
271.36	17.167
271.73	18.458
272.10	17.609
272.47	20.645
272.84	17.100
273.21	19.497
273.58	14.629
273.95	17.191
274.32	18.182
274.69	17.345
275.06	13.583
275.43	17.447
275.80	15.631
276.17	14.868
276.54	16.008
276.91	15.217
277.28	17.969
277.65	17.602
278.02	16.563
278.39	19.336
278.76	16.000
279.13	15.849
279.50	16.201
279.87	18.127
280.23	16.367
280.60	14.313
280.97	15.896
281.34	16.460
281.71	18.000
282.08	16.315
282.45	14.000
282.82	14.032
283.19	13.369
283.56	16.491
283.92	15.059
284.29	15.520
284.66	15.426
285.03	13.562
285.40	14.437
285.77	15.488
286.14	13.644
286.51	14.000
286.87	17.265
287.24	13.681
287.61	14.125
287.98	12.987
288.35	13.946
288.72	13.863
289.08	15.180
289.45	12.685
289.82	15.772
290.19	13.501
290.56	14.242
290.93	11.480
291.29	13.650
291.66	11.357
292.03	16.279
292.40	14.244
292.77	12.426
293.13	14.627
293.50	14.140
293.87	12.593
294.24	13.926
294.60	10.480
294.97	12.645
295.34	13.117
295.71	12.216
296.08	13.105
296.44	11.692
296.81	11.493
297.18	14.363
297.55	9.894
297.91	13.061
298.28	12.450
298.65	13.316
299.02	11.858
299.38	11.819
299.75	8.356
300.12	9.195
300.48	11.250
300.85	11.221
301.22	10.318
301.59	11.111
301.95	11.965
302.32	11.682
302.69	12.425
303.05	11.030
303.42	10.370
303.79	10.306
304.15	9.674
304.52	9.154
304.89	9.640
305.25	10.557
305.62	10.985
305.99	11.098
306.35	10.515
306.72	10.314
307.09	10.433
307.45	11.261
307.82	9.487
308.19	10.486
308.55	10.572
308.92	9.560
309.29	9.293
309.65	10.392
310.02	10.359
310.38	10.430
310.75	9.081
311.12	10.440
311.48	10.031
311.85	10.901
312.22	10.406
312.58	9.875
312.95	11.193
313.31	10.680
313.68	9.356
314.05	12.327
314.41	10.151
314.78	9.567
315.14	10.328
315.51	10.814
315.87	11.485
316.24	9.434
316.61	11.111
316.97	9.785
317.34	9.393
317.70	10.038
318.07	10.876
318.43	10.763
318.80	11.434
319.16	10.640
319.53	10.038
319.89	10.952
320.26	10.900
320.62	12.401
320.99	10.606
321.35	11.515
321.72	11.807
322.08	12.043
322.45	13.234
322.81	12.306
323.18	12.524
323.54	12.987
323.91	12.547
324.27	12.141
324.64	10.718
325.00	12.083
325.37	12.921
325.73	13.285
326.10	11.915
326.46	12.276
326.83	13.546
327.19	14.347
327.56	13.328
327.92	13.911
328.29	13.931
328.65	14.088
329.01	13.628
329.38	13.876
329.74	14.866
330.11	13.289
330.47	14.141
330.84	15.809
331.20	13.479
331.56	14.862
331.93	13.981
332.29	13.842
332.66	15.752
333.02	15.356
333.38	14.815
333.75	15.241
334.11	15.125
334.48	15.173
334.84	15.257
335.20	15.364
335.57	13.327
335.93	13.750
336.29	13.370
336.66	14.337
337.02	14.118
337.38	14.815
337.75	14.260
338.11	14.861
338.47	14.365
338.84	14.849
339.20	13.670
339.56	16.606
339.93	14.727
340.29	14.402
340.65	14.082
341.02	15.794
341.38	15.836
341.74	14.561
342.11	14.760
342.47	13.744
342.83	14.555
343.20	16.017
343.56	15.333
343.92	14.474
344.28	15.306
344.65	15.047
345.01	14.815
345.37	13.722
345.73	15.144
346.10	15.516
346.46	15.678
346.82	14.086
347.19	14.871
347.55	15.025
347.91	15.129
348.27	15.859
348.63	15.468
349.00	14.482
349.36	14.450
349.72	15.798
350.08	14.263
350.45	15.541
350.81	14.541
351.17	15.073
351.53	14.988
351.89	14.934
352.26	15.785
352.62	15.477
352.98	14.749
353.34	15.776
353.70	15.057
354.07	15.081
354.43	15.635
354.79	15.044
355.15	15.323
355.51	15.188
355.87	16.408
356.24	15.309
356.60	15.557
356.96	15.366
357.32	15.617
357.68	14.961
358.04	15.123
358.40	15.123
358.77	14.789
359.13	15.233
359.49	15.529
359.85	14.206
360.21	14.912
360.57	17.043
360.93	15.462
361.29	15.268
361.66	15.325
362.02	15.896
362.38	15.513
362.74	15.997
363.10	15.914
363.46	15.187
363.82	15.420
364.18	15.712
364.54	16.122
364.90	16.147
365.26	15.221
365.62	16.070
365.98	15.413
366.35	14.828
366.71	16.197
367.07	15.295
367.43	16.401
367.79	16.131
368.15	17.385
368.51	15.625
368.87	16.203
369.23	16.971
369.59	16.655
369.95	16.250
370.31	16.880
370.67	16.884
371.03	17.603
371.39	17.493
371.75	16.544
372.11	16.358
372.47	16.935
372.83	17.651
373.19	16.835
373.55	17.517
373.91	17.599
374.27	16.151
374.63	17.164
374.99	17.302
375.35	17.516
375.71	17.478
376.07	18.381
376.42	17.469
376.78	18.224
377.14	18.182
377.50	17.947
377.86	17.952
378.22	18.142
378.58	18.108
378.94	17.662
379.30	17.239
379.66	17.766
380.02	18.182
380.38	17.486
380.74	18.908
381.09	19.132
381.45	20.098
381.81	18.980
382.17	19.108
382.53	18.931
382.89	19.259
383.25	19.637
383.61	20.446
383.97	19.637
384.32	18.902
384.68	19.393
385.04	19.914
385.40	19.195
385.76	20.147
386.12	19.689
386.48	21.145
386.83	20.654
387.19	20.841
387.55	20.965
387.91	20.012
388.27	20.233
388.62	21.205
388.98	20.270
389.34	21.777
389.70	20.723
390.06	21.483
390.42	21.336
390.77	22.010
391.13	21.506
391.49	21.637
391.85	21.833
392.20	20.946
392.56	21.717
392.92	21.307
393.28	21.183
393.64	22.422
393.99	21.686
394.35	22.333
394.71	21.644
395.07	22.368
395.42	21.941
395.78	22.964
396.14	22.843
396.50	22.682
396.85	22.123
397.21	21.702
397.57	22.071
397.92	22.115
398.28	22.085
398.64	22.760
399.00	22.384
399.35	21.940
399.71	21.991
400.07	21.821
400.42	23.313
400.78	22.497
401.14	22.744
401.49	22.448
401.85	22.989
402.21	22.216
402.57	22.825
402.92	23.014
403.28	23.423
403.63	23.144
403.99	22.420
404.35	23.939
404.70	22.302
405.06	23.296
405.42	23.518
405.77	22.171
406.13	23.025
406.49	22.708
406.84	23.213
407.20	22.281
407.55	23.803
407.91	23.067
408.27	23.293
408.62	24.202
408.98	22.794
409.34	23.555
409.69	24.387
410.05	22.862
410.40	23.547
410.76	23.297
411.11	23.100
411.47	23.450
411.83	23.763
412.18	23.377
412.54	24.097
412.89	23.795
413.25	23.318
413.60	23.718
413.96	22.951
414.31	24.058
414.67	23.194
415.03	23.576
415.38	23.969
415.74	24.244
416.09	24.820
416.45	23.494
416.80	23.992
417.16	24.196
417.51	24.287
417.87	23.443
418.22	24.038
418.58	23.822
418.93	24.754
419.29	23.997
419.64	24.181
420.00	24.207
420.35	24.522
420.71	24.806
421.06	23.449
421.42	23.918
421.77	24.103
422.12	23.189
422.48	22.828
422.83	24.403
423.19	23.370
423.54	23.738
423.90	23.942
424.25	23.395
424.61	23.631
424.96	24.490
425.31	23.810
425.67	23.315
426.02	23.600
426.38	24.237
426.73	24.517
427.09	24.863
427.44	23.577
427.79	23.577
428.15	24.345
428.50	24.108
428.85	24.434
429.21	23.412
429.56	23.795
429.92	23.704
430.27	23.138
430.62	22.785
430.98	23.508
431.33	22.680
431.68	23.665
432.04	23.642
432.39	23.986
432.74	24.596
433.10	24.278
433.45	24.140
433.80	23.337
434.16	23.825
434.51	24.000
434.86	24.002
435.22	23.235
435.57	23.769
435.92	23.932
436.28	24.496
436.63	25.055
436.98	24.041
437.34	24.150
437.69	24.096
438.04	23.946
438.39	24.358
438.75	24.637
439.10	23.464
439.45	24.085
439.81	23.927
440.16	23.998
440.51	23.609
440.86	24.088
441.22	24.027
441.57	24.628
441.92	24.411
442.27	24.327
442.63	23.381
442.98	24.620
443.33	23.587
443.68	24.058
444.03	23.963
444.39	23.369
444.74	24.188
445.09	24.097
445.44	23.948
445.79	24.592
446.15	24.193
446.50	23.640
446.85	24.152
447.20	24.171
447.55	25.293
447.91	24.986
448.26	23.929
448.61	24.421
448.96	24.695
449.31	24.691
449.66	24.311
450.02	23.788
450.37	24.376
450.72	24.478
451.07	23.705
451.42	23.830
451.77	24.839
452.12	25.000
452.47	24.627
452.83	24.592
453.18	25.061
453.53	25.170
453.88	24.572
454.23	24.567
454.58	25.500
454.93	26.001
455.28	24.190
455.63	25.182
455.98	25.000
456.34	25.440
456.69	25.548
457.04	25.697
457.39	24.781
457.74	23.912
458.09	24.267
458.44	24.686
458.79	23.753
459.14	24.831
459.49	24.985
459.84	23.601
460.19	24.632
460.54	24.653
460.89	24.246
461.24	23.983
461.59	26.264
461.94	23.921
462.29	24.332
462.64	24.888
462.99	24.723
463.34	25.600
463.69	25.516
464.04	25.043
464.39	24.116
464.74	24.718
465.09	24.608
465.44	23.934
465.79	23.881
466.14	23.645
466.49	23.026
466.84	24.577
467.19	24.683
467.54	24.875
467.89	24.610
468.24	23.909
468.59	25.458
468.94	24.191
469.29	25.257
469.64	25.368
469.99	24.493
470.34	24.967
470.68	26.221
471.03	25.918
471.38	24.948
471.73	25.316
472.08	25.592
472.43	25.251
472.78	25.214
473.13	24.005
473.48	24.345
473.83	25.305
474.17	24.767
474.52	25.062
474.87	25.161
475.22	24.318
475.57	24.557
475.92	24.270
476.27	24.126
476.61	24.655
476.96	24.464
477.31	24.333
477.66	25.438
478.01	24.151
478.36	25.225
478.70	24.299
479.05	24.494
479.40	24.514
479.75	24.047
480.10	24.354
480.45	24.465
480.79	23.602
481.14	24.413
481.49	24.822
481.84	24.188
482.19	23.944
482.53	24.358
482.88	24.570
483.23	25.047
483.58	24.477
483.92	23.946
484.27	23.181
484.62	24.009
484.97	23.650
485.31	23.596
485.66	22.984
486.01	21.555
486.36	21.076
486.70	20.626
487.05	21.155
487.40	21.808
487.75	22.125
488.09	22.991
488.44	22.715
488.79	23.255
489.13	23.720
489.48	23.613
489.83	23.953
490.17	24.375
490.52	24.314
490.87	24.830
491.22	24.056
491.56	23.827
491.91	23.732
492.26	23.427
492.60	23.963
492.95	24.041
493.30	24.252
493.64	24.265
493.99	23.723
494.34	24.191
494.68	24.359
495.03	24.577
495.37	23.779
495.72	23.782
496.07	24.594
496.41	23.673
496.76	24.626
497.11	24.223
497.45	24.080
497.80	23.896
498.14	24.348
498.49	24.000
498.84	24.305
499.18	23.571
499.53	24.406
499.87	24.278
500.22	23.693
500.56	24.515
500.91	23.894
501.26	24.419
501.60	25.107
501.95	23.648
502.29	23.993
502.64	24.069
502.98	23.562
503.33	23.995
503.67	23.898
504.02	23.807
504.36	24.427
504.71	24.768
505.06	24.723
505.40	24.453
505.75	24.060
506.09	23.810
506.44	24.174
506.78	23.770
507.13	24.634
507.47	24.545
507.82	24.671
508.16	24.721
508.51	25.774
508.85	24.578
509.19	24.235
509.54	24.745
509.88	24.833
510.23	24.987
510.57	25.748
510.92	24.806
511.26	24.974
511.61	25.415
511.95	24.739
512.30	24.973
512.64	25.040
512.98	25.295
513.33	26.338
513.67	25.720
514.02	25.271
514.36	25.287
514.70	26.342
515.05	24.763
515.39	25.967
515.74	25.507
516.08	26.383
516.42	26.027
516.77	25.530
517.11	26.138
517.46	25.790
517.80	25.900
518.14	25.651
518.49	26.663
518.83	26.250
519.17	25.808
519.52	25.863
519.86	25.956
520.20	26.590
520.55	26.810
520.89	27.007
521.23	27.081
521.58	26.110
521.92	26.454
522.26	25.320
522.61	27.477
522.95	25.967
523.29	26.354
523.64	26.524
523.98	26.494
524.32	26.478
524.66	26.578
525.01	26.654
525.35	26.518
525.69	26.416
526.04	26.168
526.38	26.724
526.72	26.871
527.06	26.742
527.41	25.495
527.75	27.331
528.09	26.846
528.43	27.087
528.78	27.904
529.12	26.061
529.46	27.312
529.80	26.856
530.15	26.854
530.49	25.969
530.83	26.266
531.17	28.003
531.51	27.173
531.86	26.581
532.20	27.445
532.54	27.034
532.88	26.380
533.22	26.733
533.57	26.667
533.91	25.888
534.25	25.759
534.59	26.602
534.93	26.294
535.27	26.433
535.62	26.313
535.96	27.244
536.30	26.128
536.64	26.916
536.98	27.405
537.32	26.794
537.66	27.600
538.01	27.584
538.35	26.503
538.69	27.441
539.03	26.511
539.37	26.326
539.71	25.924
540.05	27.647
540.39	26.777
540.73	25.873
541.07	27.579
541.42	26.027
541.76	27.677
542.10	26.973
542.44	26.821
542.78	26.877
543.12	26.104
543.46	26.033
543.80	26.545
544.14	25.738
544.48	27.619
544.82	26.299
545.16	27.066
545.50	25.964
545.84	26.075
546.18	26.532
546.52	26.841
546.86	25.773
547.20	27.242
547.54	26.987
547.88	28.189
548.22	26.899
548.56	26.918
548.90	26.184
549.24	26.061
549.58	27.422
549.92	26.236
550.26	27.770
550.60	26.902
550.94	26.620
551.28	25.677
551.62	27.534
551.96	26.035
552.30	27.440
552.64	27.586
552.98	27.051
553.32	26.231
553.66	27.403
554.00	27.934
554.34	26.087
554.68	27.754
555.02	26.728
555.36	26.583
555.69	26.319
556.03	26.851
556.37	26.057
556.71	26.467
557.05	27.381
557.39	27.992
557.73	26.394
558.07	27.049
558.41	26.845
558.75	27.039
559.08	28.113
559.42	26.606
559.76	27.132
560.10	26.767
560.44	26.625
560.78	26.214
561.12	25.726
561.45	26.597
561.79	26.170
562.13	26.157
562.47	26.298
562.81	26.778
563.15	26.288
563.48	26.923
563.82	26.093
564.16	25.899
564.50	24.935
564.84	26.233
565.17	25.933
565.51	26.390
565.85	25.888
566.19	25.360
566.52	26.472
566.86	25.799
567.20	25.531
567.54	26.084
567.88	24.280
568.21	25.291
568.55	23.964
568.89	24.514
569.23	23.752
569.56	23.522
569.90	22.528
570.24	22.928
570.57	22.339
570.91	22.624
571.25	21.927
571.59	21.944
571.92	21.573
572.26	22.241
572.60	21.772
572.93	21.289
573.27	22.124
573.61	22.194
573.95	22.041
574.28	21.256
574.62	21.477
574.96	21.004
575.29	20.999
575.63	21.468
575.97	20.828
576.30	21.588
576.64	21.228
576.98	21.439
577.31	20.749
577.65	20.608
577.98	20.969
578.32	20.254
578.66	20.545
578.99	20.840
579.33	20.939
579.67	20.725
580.00	20.930
580.34	20.622
580.67	20.775
581.01	20.846
581.35	21.129
581.68	20.513
582.02	20.308
582.35	20.741
582.69	20.845
583.02	20.611
583.36	20.498
583.70	21.528
584.03	21.343
584.37	21.238
584.70	21.552
585.04	21.257
585.37	20.806
585.71	20.559
586.04	20.971
586.38	21.604
586.72	21.210
587.05	20.538
587.39	20.818
587.72	20.948
588.06	21.211
588.39	21.097
588.73	20.857
589.06	22.156
589.40	22.222
589.73	22.034
590.07	21.388
590.40	21.666
590.73	22.443
591.07	23.158
591.40	22.185
591.74	22.987
592.07	22.469
592.41	22.406
592.74	22.022
593.08	21.952
593.41	21.164
593.75	21.112
594.08	21.220
594.41	21.562
594.75	22.329
595.08	21.510
595.42	21.716
595.75	21.617
596.09	22.005
596.42	22.593
596.75	21.866
597.09	23.203
597.42	21.290
597.75	22.380
598.09	21.913
598.42	21.993
598.76	22.456
599.09	21.627
599.42	21.761
599.76	21.376
600.09	21.275
600.42	21.439
600.76	21.321
601.09	20.984
601.42	21.271
601.76	21.366
602.09	21.897
602.42	21.338
602.76	22.007
603.09	22.187
603.42	21.788
603.76	21.570
604.09	21.365
604.42	21.810
604.76	22.817
605.09	21.581
605.42	21.505
605.75	21.689
606.09	21.919
606.42	21.659
606.75	21.402
607.09	22.101
607.42	21.908
607.75	20.886
608.08	21.928
608.42	22.008
608.75	21.776
609.08	21.832
609.41	21.609
609.75	22.106
610.08	22.196
610.41	21.974
610.74	22.422
611.07	22.974
611.41	22.228
611.74	22.524
612.07	22.619
612.40	21.878
612.73	22.263
613.07	22.845
613.40	22.959
613.73	21.762
614.06	22.151
614.39	22.391
614.72	22.000
615.06	22.847
615.39	22.293
615.72	22.495
616.05	22.169
616.38	22.624
616.71	22.743
617.05	23.793
617.38	23.331
617.71	23.243
618.04	23.077
618.37	22.531
618.70	23.211
619.03	23.618
619.36	23.082
619.69	23.521
620.03	24.931
620.36	23.463
620.69	22.877
621.02	24.336
621.35	23.336
621.68	24.221
622.01	25.387
622.34	24.811
622.67	23.802
623.00	23.331
623.33	23.731
623.66	24.089
623.99	24.742
624.32	23.324
624.65	24.082
624.99	23.584
625.32	23.027
625.65	24.042
625.98	24.827
626.31	25.117
626.64	24.408
626.97	24.938
627.30	24.688
627.63	24.856
627.96	25.820
628.29	25.197
628.62	25.709
628.95	26.509
629.28	26.004
629.61	26.398
629.94	26.381
630.26	25.167
630.59	24.976
630.92	25.670
631.25	25.962
631.58	26.126
631.91	26.166
632.24	24.578
632.57	27.072
632.90	27.193
633.23	26.398
633.56	27.910
633.89	25.708
634.22	26.334
634.55	28.284
634.88	27.665
635.20	28.076
635.53	27.952
635.86	26.980
636.19	27.647
636.52	26.182
636.85	26.804
637.18	25.461
637.51	26.714
637.83	25.401
638.16	29.284
638.49	27.708
638.82	27.939
639.15	27.250
639.48	28.304
639.81	27.346
640.13	28.516
640.46	28.188
640.79	27.873
641.12	26.135
641.45	27.095
641.77	29.308
642.10	30.263
642.43	26.877
642.76	28.173
643.09	30.368
643.41	29.135
643.74	30.401
644.07	30.183
644.40	30.521
644.73	31.654
645.05	31.220
645.38	28.436
645.71	30.596
646.04	28.904
646.36	32.053
646.69	30.268
647.02	29.592
647.35	29.381
647.67	28.673
648.00	29.431
648.33	29.538
648.66	28.030
648.98	28.486
649.31	27.055
649.64	29.447
649.96	27.720
650.29	27.804
650.62	26.214
650.94	29.660
651.27	30.574
651.60	29.617
651.92	30.192
652.25	29.153
652.58	29.128
652.90	28.120
653.23	29.276
653.56	28.189
653.88	29.160
654.21	30.332
654.54	29.538
654.86	25.857
655.19	26.757
655.52	18.231
655.84	15.474
656.17	19.377
656.49	26.296
656.82	26.456
657.15	19.869
657.47	14.766
657.80	11.417
658.13	12.190
658.45	18.370
658.78	18.515
659.10	19.265
659.43	20.218
659.75	21.393
660.08	23.608
660.41	26.164
660.73	26.811
661.06	27.866
661.38	31.273
661.71	29.615
662.03	31.164
662.36	28.429
662.68	31.325
663.01	32.929
663.33	33.121
663.66	31.933
663.98	29.374
664.31	28.992
664.63	31.377
664.96	27.565
665.28	30.328
665.61	29.045
665.93	30.181
666.26	29.615
666.58	32.427
666.91	31.924
667.23	33.483
667.56	31.317
667.88	31.624
668.21	31.130
668.53	29.284
668.86	31.385
669.18	36.034
669.50	32.391
669.83	31.808
670.15	33.778
670.48	31.155
670.80	31.034
671.13	29.936
671.45	31.489
671.77	30.957
672.10	30.129
672.42	28.975
672.75	27.197
673.07	26.761
673.39	27.486
673.72	27.148
674.04	27.451
674.37	29.126
674.69	29.448
675.01	28.870
675.34	33.470
675.66	32.842
675.98	29.939
676.31	32.773
676.63	30.361
676.95	30.818
677.28	31.308
677.60	30.549
677.92	33.966
678.25	29.979
678.57	28.088
678.89	29.860
679.22	28.094
679.54	28.053
679.86	27.706
680.18	29.159
680.51	28.546
680.83	26.512
681.15	29.434
681.48	28.166
681.80	25.532
682.12	26.820
682.44	25.338
682.77	28.513
683.09	33.262
683.41	29.933
683.73	28.035
684.06	29.132
684.38	28.571
684.70	28.101
685.02	28.893
685.34	28.571
685.67	25.524
685.99	24.742
686.31	24.744
686.63	25.088
686.96	26.250
687.28	27.978
687.60	26.449
687.92	27.971
688.24	28.517
688.56	28.514
688.89	29.876
689.21	29.039
689.53	29.228
689.85	29.712
690.17	28.364
690.49	29.299
690.82	28.972
691.14	28.348
691.46	27.426
691.78	29.116
692.10	27.479
692.42	29.940
692.74	25.519
693.06	28.936
693.39	31.006
693.71	26.856
694.03	29.053
694.35	30.087
694.67	28.604
694.99	34.390
695.31	29.167
695.63	29.426
695.95	30.318
696.27	28.426
696.59	28.238
696.91	29.793
697.23	29.343
697.56	27.719
697.88	28.016
698.20	25.417
698.52	29.677
698.84	28.508
699.16	28.111
699.48	29.929
699.80	32.126
700.12	32.208
700.44	29.973
700.76	31.768
701.08	33.621
701.40	27.374
701.72	31.487
702.04	34.943
702.36	27.762
702.68	31.728
703.00	30.748
703.32	29.521
703.64	30.295
703.96	30.919
704.28	28.779
704.60	32.845
704.91	37.389
705.23	30.499
705.55	33.223
705.87	36.545
706.19	36.396
706.51	33.956
706.83	34.242
707.15	32.493
707.47	29.293
707.79	29.730
708.11	27.854
708.43	28.095
708.74	28.061
709.06	32.987
709.38	28.084
709.70	33.140
710.02	33.531
710.34	30.606
710.66	31.940
710.98	34.375
711.29	30.814
711.61	35.988
711.93	29.808
712.25	35.370
712.57	38.603
712.89	33.564
713.20	33.739
713.52	34.868
713.84	33.228
714.16	30.183
714.48	31.897
714.80	38.602
715.11	34.582
715.43	31.454
715.75	33.333
716.07	30.032
716.39	29.781
716.70	35.216
717.02	35.612
717.34	38.516
717.66	35.821
717.97	38.645
718.29	34.444
718.61	36.861
718.93	36.397
719.24	34.948
719.56	33.559
719.88	34.576
720.20	36.149
720.51	33.101
720.83	34.944
721.15	33.955
721.46	33.688
721.78	38.710
722.10	38.113
722.42	35.338
722.73	35.955
723.05	32.377
723.37	34.413
723.68	37.838
724.00	34.146
724.32	35.484
724.63	38.211
724.95	35.983
725.27	37.247
725.58	34.375
725.90	34.672
726.22	32.830
726.53	32.986
726.85	31.741
727.16	34.520
727.48	35.106
727.80	34.470
728.11	31.884
728.43	35.769
728.74	30.466
729.06	35.766
729.38	34.559
729.69	33.096
730.01	29.352
730.32	33.681
730.64	33.779
730.96	31.353
731.27	33.113
731.59	29.969
731.90	32.653
732.22	31.677
732.53	32.198
732.85	28.205
733.16	32.476
733.48	31.561
733.80	29.221
734.11	35.032
734.43	28.698
734.74	30.857
735.06	29.226
735.37	33.237
735.69	30.573
736.00	34.314
736.32	32.710
736.63	32.907
736.95	32.588
737.26	26.531
737.58	29.355
737.89	33.110
738.21	31.741
738.52	32.143
738.83	34.340
739.15	35.385
739.46	37.591
739.78	32.292
740.09	33.231
740.41	31.290
740.72	29.617
741.04	34.074
741.35	33.750
741.66	41.778
741.98	31.604
742.29	42.584
742.61	46.121
742.92	36.652
743.23	38.462
743.55	36.000
743.86	37.719
744.18	41.593
744.49	38.278
744.80	42.723
745.12	37.727
745.43	36.564
745.74	45.045
746.06	33.945
746.37	38.565
746.68	38.462
747.00	40.278
747.31	39.524
747.62	35.398
747.94	39.648
748.25	30.213
748.56	38.767
748.88	39.604
749.19	42.000
749.50	37.209
749.82	34.146
750.13	25.714
750.44	32.117
750.75	29.123
751.07	33.441
751.38	36.237
751.69	29.603
752.01	31.579
752.32	33.213
752.63	35.816
752.94	34.836
753.26	38.800
753.57	34.553
753.88	35.156
754.19	32.143
754.51	34.375
754.82	28.520
755.13	33.208
755.44	32.331
755.75	31.387
756.07	29.433
756.38	30.292
756.69	30.872
757.00	25.150
757.31	30.861
757.63	30.117
757.94	28.686
758.25	28.676
758.56	25.432
758.87	28.226
759.18	32.727
759.50	28.213
759.81	28.660
760.12	26.563
760.43	31.519
760.74	27.717
761.05	31.356
761.36	26.471
761.67	27.557
761.99	27.329
762.30	31.597
762.61	33.588
762.92	34.766
763.23	35.294
763.54	35.200
763.85	32.813
764.16	36.923
764.47	33.840
764.78	28.269
765.10	27.532
765.41	27.434
765.72	30.838
766.03	30.408
766.34	28.333
766.65	34.043
766.96	37.607
767.27	40.102
767.58	42.708
767.89	44.211
768.20	47.126
768.51	38.579
768.82	37.156
769.13	31.707
769.44	34.008
769.75	38.197
770.06	28.440
770.37	38.462
770.68	35.185
770.99	39.111
771.30	29.918
771.61	33.632
771.92	34.016
772.23	40.336
772.54	37.949
772.85	44.503
773.16	45.745
773.47	41.848
773.78	44.162
774.09	36.905
774.39	39.766
774.70	41.358
775.01	46.377
775.32	51.634
775.63	46.053
775.94	46.043
776.25	56.693
776.56	46.269
776.87	52.459
777.18	50.000
777.48	52.672
777.79	47.727
778.10	52.593
778.41	58.929
778.72	50.365
779.03	42.282
779.34	51.007
779.65	33.784
779.95	44.172
780.26	43.137
780.57	44.138
780.88	60.937
781.19	45.865
781.50	48.649
781.80	45.912
782.11	40.113
782.42	41.139
782.73	44.785
783.04	42.568
783.34	47.183
783.65	56.849
783.96	56.716
784.27	41.958
784.57	51.079
784.88	49.074
785.19	63.492
785.50	48.113
785.81	50.000
786.11	62.295
786.42	54.264
786.73	48.673
787.04	49.057
787.34	57.143
787.65	60.000
787.96	46.847
788.26	52.066
788.57	55.932
788.88	56.198
789.19	54.861
789.49	56.818
789.80	50.382
790.11	67.619
790.41	69.307
790.72	69.880
791.03	59.783
791.33	66.279
791.64	65.979
791.95	62.376
792.25	68.889
792.56	72.727
792.87	92.308
793.17	70.886
793.48	71.264
793.79	71.264
794.09	73.864
794.40	48.739
794.70	54.412
795.01	51.111
795.32	41.727
795.62	49.606
795.93	56.034
796.23	51.327
796.54	65.882
796.85	60.811
797.15	85.915
797.46	84.848
797.76	71.084
798.07	65.823
798.37	73.846
798.68	78.788
798.99	76.056
799.29	68.831
799.60	76.136
799.90	94.521
800.21	83.582
800.51	74.138
800.82	96.491
801.12	88.525
801.43	80.303
801.73	75.676
802.04	90.476
802.34	85.185
802.65	84.375
802.95	94.915
803.26	96.875
803.56	72.857
803.87	83.077
804.17	97.059
804.48	109.259
804.78	86.207
805.09	70.588
805.39	80.769
805.70	92.857
806.00	90.164
806.30	66.667
806.61	65.854
806.91	68.354
807.22	78.947
807.52	56.716
807.83	77.465
808.13	85.938
808.43	91.667
808.74	68.421
809.04	89.855
809.35	77.612
809.65	67.105
809.95	106.452
810.26	84.746
810.56	77.778
810.86	106.818
811.17	107.143
811.47	101.667
811.77	90.741
812.08	100.000
812.38	118.000
812.69	136.111
812.99	140.909
813.29	122.449
813.59	90.476
813.90	112.245
814.20	85.455
814.50	72.308
814.81	98.529
815.11	100.000
815.41	83.607
815.72	130.952
816.02	109.091
816.32	111.905
816.62	107.500
816.93	121.951
817.23	135.714
817.53	113.636
817.84	166.667
818.14	113.043
818.44	113.333
818.74	155.882
819.04	135.000
819.35	134.286
819.65	144.118
819.95	189.286
820.25	180.000
820.56	138.462
820.86	113.636
821.16	123.256
821.46	120.513
821.76	130.000
822.07	154.286
822.37	127.500
822.67	151.515
822.97	107.843
823.27	192.857
823.57	145.946
823.88	157.500
824.18	186.667
824.48	119.048
824.78	208.000
825.08	175.000
825.38	143.243
825.69	134.146
825.99	220.833
826.29	151.724
826.59	128.947
826.89	168.421
827.19	155.882
827.49	167.742
827.79	136.364
828.09	127.273
828.39	110.638
828.70	132.653
829.00	162.963
829.30	154.839
829.60	122.500
829.90	326.667
830.20	171.429
830.50	156.522
830.80	204.348
831.10	166.667
831.40	196.667
831.70	217.391
832.00	180.769
832.30	200.000
832.60	268.750
832.90	216.667
833.20	371.429
833.50	193.548
833.80	148.276
834.10	190.625
834.40	226.923
834.70	244.444
835.00	238.095
835.30	160.000
835.60	338.462
835.90	193.103
836.20	271.429
836.50	175.862
836.80	168.000
837.10	194.444
837.40	228.571
837.70	300.000
838.00	177.778
838.30	247.619
838.60	280.952
838.90	207.692
839.19	265.000
839.49	385.714
839.79	300.000
840.09	220.000
840.39	252.381
840.69	221.739
840.99	233.333
841.29	410.000
841.59	225.000
841.88	256.250
842.18	141.379
842.48	204.762
842.78	203.333
843.08	230.435
843.38	143.750
843.68	683.333
843.97	169.231
844.27	206.897
844.57	280.952
844.87	281.250
845.17	181.481
845.47	1100.000
845.76	477.778
846.06	270.588
846.36	475.000
846.66	321.429
846.96	293.750
847.25	400.000
847.55	390.909
847.85	234.783
848.15	470.000
848.44	314.286
848.74	233.333
849.04	294.118
849.34	440.000
849.63	236.842
849.93	345.455
850.23	960.000
850.53	385.714
850.82	1600.000
851.12	-4100.000
851.42	2800.000
851.71	245.000
852.01	-1100.000
852.31	216.667
852.61	1500.000
852.90	261.905
853.20	212.000
853.50	294.118
853.79	285.714
854.09	225.000
854.39	275.000
854.68	140.541
854.98	161.290
855.28	160.000
855.57	186.207
855.87	174.074
856.17	231.579
856.46	266.667
856.76	305.882
857.05	151.724
857.35	191.667
857.65	320.000
857.94	195.652
858.24	192.308
858.53	240.000
858.83	250.000
859.13	300.000
859.42	0.000
859.72	544.444
860.01	309.091
860.31	218.182
860.60	252.632
860.90	243.478
861.20	522.222
861.49	466.667
861.79	-4000.000
862.08	575.000
862.38	304.762
862.67	323.077
862.97	347.059
863.26	544.444
863.56	283.333
863.85	375.000
864.15	437.500
864.44	400.000
864.74	700.000
865.03	675.000
865.33	252.632
865.62	390.909
865.92	384.615
866.21	416.667
866.51	0.000
866.80	409.091
867.10	900.000
867.39	469.231
867.69	381.818
867.98	236.842
868.27	472.727
868.57	273.684
868.86	-3900.000
869.16	350.000
869.45	2550.000
869.75	-4400.000
870.04	416.667
870.33	542.857
870.63	1025.000
870.92	2000.000
871.22	642.857
871.51	323.529
871.80	209.524
872.10	328.571
>>>>>End Processed Spectral Data<<<<<
