SpectraSuite Data File
++++++++++++++++++++++++++++++++++++
Date: Wed May 13 16:51:17 PDT 2015
User: schluterlab
Dark Spectrum Present: Yes
Reference Spectrum Present: Yes
Number of Sampled Component Spectra: 1
Spectrometers: USB2E3373
Integration Time (usec): 3000 (USB2E3373)
Spectra Averaged: 3 (USB2E3373)
Boxcar Smoothing: 0 (USB2E3373)
Correct for Electrical Dark: No (USB2E3373)
Strobe/Lamp Enabled: No (USB2E3373)
Correct for Detector Non-linearity: No (USB2E3373)
Correct for Stray Light: No (USB2E3373)
Number of Pixels in Processed Spectrum: 2048
>>>>>Begin Processed Spectral Data<<<<<
178.53	0.000
178.91	-1125.000
179.29	-1375.000
179.67	-227.778
180.04	-1350.000
180.42	2250.000
180.80	980.000
181.18	-975.000
181.56	614.286
181.94	0.000
182.31	-714.286
182.69	1800.000
183.07	-512.500
183.45	-444.444
183.83	518.182
184.20	-470.000
184.58	2000.000
184.96	5300.000
185.34	-840.000
185.72	-700.000
186.09	-1750.000
186.47	2550.000
186.85	2250.000
187.23	5600.000
187.61	-1633.333
187.98	1325.000
188.36	554.545
188.74	427.273
189.12	-880.000
189.49	520.000
189.87	-4800.000
190.25	-1250.000
190.63	385.714
191.00	407.692
191.38	883.333
191.76	-1300.000
192.14	1350.000
192.51	525.000
192.89	816.667
193.27	500.000
193.65	-1075.000
194.02	530.000
194.40	860.000
194.78	550.000
195.15	500.000
195.53	530.000
195.91	-1700.000
196.29	331.250
196.66	331.579
197.04	-370.000
197.42	0.000
197.79	600.000
198.17	-4700.000
198.55	771.429
198.92	675.000
199.30	840.000
199.68	0.000
200.05	333.333
200.43	728.571
200.81	4300.000
201.18	1466.667
201.56	-1566.667
201.94	511.111
202.31	600.000
202.69	466.667
203.07	520.000
203.44	0.000
203.82	1300.000
204.19	985.714
204.57	357.143
204.95	562.500
205.32	1500.000
205.70	509.091
206.08	371.429
206.45	2600.000
206.83	368.750
207.20	933.333
207.58	1080.000
207.96	322.222
208.33	750.000
208.71	-850.000
209.08	700.000
209.46	633.333
209.84	381.818
210.21	-1366.667
210.59	1400.000
210.96	-525.000
211.34	2750.000
211.71	600.000
212.09	833.333
212.46	0.000
212.84	1466.667
213.22	1325.000
213.59	-3400.000
213.97	783.333
214.34	685.714
214.72	654.545
215.09	1140.000
215.47	-2200.000
215.84	-2500.000
216.22	1600.000
216.59	392.857
216.97	1250.000
217.34	381.818
217.72	-700.000
218.09	0.000
218.47	-4900.000
218.84	688.889
219.22	771.429
219.59	1366.667
219.97	-600.000
220.34	860.000
220.72	-1766.667
221.09	421.429
221.47	1375.000
221.84	-966.667
222.22	0.000
222.59	1150.000
222.97	-2500.000
223.34	1240.000
223.72	392.308
224.09	1020.000
224.46	2150.000
224.84	-3900.000
225.21	-900.000
225.59	-3900.000
225.96	590.000
226.34	290.000
226.71	2600.000
227.08	687.500
227.46	500.000
227.83	-1050.000
228.21	-2650.000
228.58	533.333
228.95	-2000.000
229.33	-2100.000
229.70	1666.667
230.08	757.143
230.45	-820.000
230.82	458.333
231.20	850.000
231.57	657.143
231.95	475.000
232.32	222.727
232.69	309.091
233.07	600.000
233.44	361.538
233.81	-1666.667
234.19	315.789
234.56	425.000
234.93	375.000
235.31	427.273
235.68	315.385
236.05	335.714
236.43	187.879
236.80	273.684
237.17	3700.000
237.55	219.048
237.92	185.714
238.29	228.571
238.67	129.032
239.04	175.862
239.41	133.333
239.79	108.696
240.16	116.667
240.53	97.727
240.91	90.196
241.28	88.000
241.65	96.000
242.02	88.406
242.40	67.742
242.77	75.000
243.14	59.140
243.51	66.292
243.89	50.588
244.26	45.556
244.63	48.387
245.00	54.255
245.38	43.564
245.75	44.860
246.12	41.284
246.49	48.175
246.87	42.400
247.24	41.538
247.61	43.571
247.98	32.680
248.36	29.054
248.73	29.936
249.10	34.395
249.47	28.814
249.84	34.225
250.22	28.342
250.59	28.994
250.96	26.263
251.33	25.118
251.70	26.238
252.08	22.381
252.45	21.076
252.82	21.739
253.19	19.149
253.56	27.059
253.94	26.556
254.31	20.313
254.68	23.077
255.05	22.140
255.42	21.138
255.79	23.162
256.16	22.383
256.54	16.961
256.91	19.217
257.28	15.827
257.65	21.122
258.02	17.081
258.39	21.451
258.76	16.054
259.14	19.940
259.51	17.021
259.88	15.528
260.25	18.127
260.62	15.607
260.99	18.012
261.36	20.721
261.73	14.900
262.10	14.826
262.47	17.183
262.85	15.320
263.22	11.396
263.59	18.519
263.96	15.659
264.33	15.927
264.70	14.737
265.07	14.834
265.44	16.162
265.81	13.869
266.18	15.829
266.55	14.634
266.92	13.759
267.29	12.500
267.66	14.908
268.03	12.273
268.40	12.617
268.77	11.695
269.14	11.712
269.51	14.898
269.88	13.520
270.25	11.964
270.62	14.157
270.99	14.624
271.36	14.592
271.73	13.785
272.10	11.739
272.47	13.118
272.84	12.554
273.21	12.369
273.58	10.480
273.95	10.482
274.32	11.570
274.69	12.420
275.06	12.205
275.43	15.745
275.80	11.824
276.17	12.831
276.54	12.474
276.91	12.055
277.28	13.086
277.65	13.153
278.02	10.766
278.39	13.477
278.76	13.455
279.13	11.509
279.50	12.477
279.87	10.159
280.23	10.978
280.60	10.638
280.97	11.830
281.34	10.796
281.71	14.545
282.08	12.092
282.45	10.364
282.82	12.433
283.19	9.982
283.56	12.281
283.92	12.183
284.29	8.995
284.66	10.345
285.03	8.680
285.40	9.507
285.77	10.606
286.14	9.326
286.51	9.833
286.87	8.718
287.24	11.889
287.61	9.631
287.98	10.714
288.35	10.143
288.72	10.436
289.08	11.581
289.45	10.049
289.82	10.081
290.19	9.262
290.56	10.720
290.93	8.308
291.29	10.276
291.66	9.440
292.03	12.064
292.40	9.838
292.77	8.876
293.13	8.955
293.50	11.516
293.87	10.370
294.24	9.037
294.60	8.297
294.97	9.448
295.34	10.014
295.71	10.085
296.08	9.544
296.44	8.391
296.81	8.719
297.18	11.518
297.55	5.937
297.91	9.103
298.28	10.442
298.65	7.963
299.02	10.277
299.38	8.101
299.75	6.334
300.12	7.024
300.48	8.250
300.85	8.755
301.22	8.408
301.59	8.333
301.95	9.194
302.32	7.959
302.69	8.841
303.05	8.242
303.42	7.160
303.79	7.928
304.15	7.459
304.52	7.532
304.89	8.362
305.25	8.353
305.62	9.740
305.99	8.501
306.35	8.613
306.72	7.960
307.09	8.102
307.45	7.883
307.82	6.696
308.19	8.609
308.55	8.091
308.92	7.197
309.29	6.230
309.65	6.999
310.02	7.294
310.38	7.742
310.75	7.497
311.12	8.291
311.48	6.688
311.85	7.757
312.22	8.429
312.58	8.524
312.95	7.920
313.31	7.476
313.68	7.277
314.05	9.862
314.41	8.744
314.78	7.049
315.14	9.037
315.51	7.724
315.87	8.416
316.24	8.242
316.61	7.895
316.97	7.143
317.34	6.751
317.70	8.700
318.07	9.047
318.43	8.611
318.80	8.529
319.16	8.945
319.53	9.006
319.89	9.429
320.26	9.400
320.62	9.921
320.99	8.182
321.35	8.485
321.72	9.343
322.08	10.267
322.45	11.244
322.81	10.465
323.18	10.308
323.54	10.853
323.91	10.472
324.27	11.281
324.64	10.065
325.00	9.739
325.37	12.193
325.73	11.939
326.10	11.297
326.46	11.738
326.83	12.338
327.19	11.102
327.56	12.108
327.92	13.036
328.29	13.132
328.65	13.076
329.01	14.531
329.38	12.858
329.74	13.389
330.11	13.478
330.47	13.774
330.84	13.971
331.20	14.390
331.56	15.596
331.93	14.259
332.29	15.084
332.66	15.398
333.02	15.174
333.38	14.544
333.75	16.756
334.11	15.747
334.48	14.374
334.84	15.257
335.20	16.000
335.57	13.871
335.93	14.643
336.29	14.744
336.66	14.518
337.02	15.475
337.38	15.556
337.75	14.884
338.11	15.667
338.47	15.470
338.84	15.399
339.20	15.138
339.56	16.880
339.93	15.727
340.29	15.036
340.65	15.062
341.02	15.009
341.38	16.014
341.74	15.263
342.11	16.070
342.47	16.211
342.83	15.497
343.20	17.229
343.56	15.501
343.92	14.912
344.28	16.412
344.65	16.165
345.01	15.825
345.37	14.666
345.73	15.736
346.10	15.345
346.46	15.763
346.82	15.239
347.19	15.372
347.55	14.532
347.91	16.262
348.27	16.927
348.63	16.555
349.00	15.858
349.36	16.256
349.72	15.237
350.08	15.559
350.45	16.192
350.81	15.841
351.17	15.802
351.53	15.561
351.89	15.099
352.26	16.259
352.62	15.798
352.98	16.532
353.34	15.694
353.70	14.975
354.07	15.887
354.43	16.032
354.79	15.849
355.15	16.281
355.51	16.867
355.87	16.163
356.24	17.264
356.60	15.557
356.96	16.814
357.32	15.781
357.68	15.984
358.04	16.073
358.40	16.310
358.77	16.432
359.13	15.706
359.49	15.216
359.85	15.397
360.21	15.391
360.57	16.654
360.93	17.077
361.29	16.024
361.66	15.635
362.02	16.866
362.38	15.970
362.74	15.997
363.10	15.988
363.46	15.040
363.82	16.780
364.18	15.565
364.54	16.270
364.90	16.572
365.26	16.471
365.62	16.654
365.98	15.486
366.35	16.189
366.71	16.920
367.07	17.407
367.43	17.925
367.79	16.988
368.15	17.098
368.51	16.206
368.87	17.345
369.23	16.606
369.59	16.872
369.95	16.618
370.31	16.311
370.67	17.464
371.03	17.228
371.39	18.003
371.75	17.132
372.11	16.003
372.47	18.328
372.83	18.444
373.19	17.486
373.55	17.073
373.91	17.452
374.27	18.007
374.63	17.018
374.99	17.797
375.35	17.516
375.71	18.163
376.07	18.176
376.42	16.713
376.78	18.158
377.14	17.232
377.50	19.404
377.86	17.686
378.22	18.584
378.58	17.732
378.94	17.725
379.30	17.430
379.66	18.147
380.02	18.366
380.38	17.911
380.74	19.268
381.09	17.971
381.45	18.623
381.81	18.919
382.17	18.471
382.53	18.176
382.89	19.568
383.25	18.261
383.61	19.269
383.97	18.637
384.32	18.715
384.68	18.959
385.04	18.623
385.40	18.576
385.76	18.428
386.12	19.106
386.48	19.257
386.83	20.269
387.19	20.099
387.55	19.481
387.91	19.891
388.27	19.252
388.62	19.545
388.98	19.103
389.34	20.651
389.70	19.129
390.06	19.962
390.42	19.326
390.77	19.720
391.13	19.272
391.49	20.178
391.85	19.542
392.20	19.621
392.56	19.886
392.92	19.835
393.28	18.521
393.64	20.144
393.99	19.914
394.35	19.727
394.71	19.887
395.07	19.190
395.42	19.468
395.78	19.402
396.14	20.795
396.50	20.050
396.85	20.216
397.21	19.914
397.57	19.281
397.92	20.913
398.28	18.946
398.64	20.131
399.00	19.474
399.35	18.443
399.71	18.866
400.07	19.811
400.42	20.368
400.78	20.326
401.14	19.085
401.49	19.940
401.85	18.693
402.21	18.503
402.57	19.556
402.92	18.979
403.28	19.238
403.63	20.359
403.99	19.363
404.35	19.212
404.70	19.245
405.06	19.103
405.42	19.588
405.77	19.257
406.13	18.454
406.49	19.870
406.84	18.842
407.20	18.913
407.55	19.400
407.91	20.000
408.27	19.017
408.62	19.386
408.98	19.240
409.34	18.512
409.69	18.903
410.05	19.083
410.40	19.388
410.76	18.578
411.11	19.361
411.47	18.275
411.83	19.487
412.18	18.120
412.54	18.929
412.89	19.217
413.25	18.890
413.60	19.148
413.96	18.944
414.31	18.408
414.67	20.152
415.03	20.000
415.38	19.652
415.74	19.678
416.09	19.203
416.45	19.009
416.80	19.564
417.16	19.839
417.51	19.708
417.87	19.268
418.22	20.189
418.58	19.819
418.93	20.025
419.29	19.924
419.64	20.592
420.00	19.634
420.35	19.536
420.71	19.725
421.06	19.869
421.42	19.766
421.77	20.123
422.12	19.090
422.48	19.266
422.83	19.336
423.19	20.221
423.54	19.617
423.90	19.362
424.25	20.268
424.61	20.357
424.96	20.000
425.31	20.653
425.67	19.494
426.02	19.829
426.38	20.696
426.73	19.778
427.09	20.790
427.44	20.414
427.79	19.724
428.15	20.774
428.50	20.363
428.85	21.216
429.21	20.320
429.56	19.855
429.92	20.382
430.27	19.662
430.62	19.355
430.98	19.875
431.33	20.619
431.68	20.628
432.04	19.862
432.39	21.017
432.74	21.125
433.10	20.939
433.45	20.991
433.80	20.843
434.16	20.566
434.51	21.000
434.86	21.836
435.22	21.123
435.57	20.243
435.92	21.475
436.28	21.590
436.63	21.909
436.98	21.408
437.34	21.765
437.69	22.812
438.04	21.922
438.39	21.433
438.75	21.092
439.10	21.117
439.45	21.960
439.81	21.269
440.16	21.909
440.51	21.734
440.86	21.714
441.22	21.468
441.57	22.134
441.92	21.801
442.27	22.121
442.63	21.696
442.98	22.592
443.33	22.065
443.68	21.683
444.03	22.255
444.39	20.935
444.74	21.753
445.09	21.941
445.44	22.034
445.79	21.277
446.15	22.499
446.50	22.725
446.85	21.994
447.20	22.285
447.55	22.390
447.91	22.008
448.26	22.371
448.61	22.555
448.96	23.200
449.31	23.791
449.66	22.566
450.02	21.727
450.37	22.846
450.72	22.786
451.07	22.121
451.42	22.614
451.77	23.018
452.12	22.806
452.47	23.010
452.83	22.145
453.18	23.350
453.53	22.944
453.88	22.268
454.23	23.072
454.58	23.259
454.93	24.094
455.28	23.067
455.63	23.362
455.98	23.631
456.34	23.178
456.69	23.607
457.04	22.415
457.39	22.852
457.74	23.215
458.09	23.462
458.44	23.147
458.79	21.475
459.14	23.081
459.49	23.234
459.84	22.493
460.19	22.687
460.54	22.569
460.89	23.313
461.24	23.558
461.59	23.998
461.94	23.305
462.29	23.145
462.64	23.676
462.99	23.032
463.34	23.400
463.69	22.952
464.04	23.130
464.39	23.072
464.74	23.113
465.09	22.376
465.44	22.770
465.79	22.987
466.14	22.715
466.49	22.859
466.84	23.001
467.19	23.597
467.54	23.312
467.89	22.509
468.24	23.735
468.59	23.504
468.94	22.419
469.29	23.779
469.64	24.431
469.99	24.087
470.34	23.844
470.68	23.779
471.03	24.286
471.38	24.114
471.73	24.717
472.08	25.461
472.43	23.492
472.78	23.963
473.13	24.005
473.48	24.594
473.83	23.232
474.17	22.838
474.52	24.628
474.87	23.759
475.22	23.738
475.57	22.569
475.92	23.048
476.27	23.450
476.61	23.552
476.96	23.529
477.31	23.391
477.66	24.070
478.01	23.680
478.36	23.638
478.70	22.638
479.05	23.269
479.40	23.797
479.75	23.081
480.10	23.459
480.45	22.275
480.79	23.029
481.14	23.141
481.49	23.019
481.84	23.914
482.19	23.398
482.53	22.569
482.88	23.220
483.23	22.944
483.58	23.794
483.92	23.336
484.27	22.048
484.62	22.284
484.97	21.797
485.31	22.740
485.66	21.829
486.01	20.081
486.36	19.529
486.70	19.198
487.05	20.410
487.40	20.889
487.75	20.893
488.09	21.444
488.44	21.848
488.79	23.183
489.13	23.911
489.48	22.512
489.83	22.702
490.17	23.674
490.52	22.276
490.87	23.021
491.22	22.374
491.56	22.688
491.91	22.662
492.26	22.508
492.60	22.350
492.95	22.591
493.30	22.103
493.64	22.305
493.99	22.331
494.34	22.988
494.68	23.489
495.03	23.026
495.37	22.383
495.72	23.099
496.07	23.341
496.41	21.681
496.76	22.383
497.11	22.783
497.45	23.055
497.80	23.417
498.14	22.560
498.49	23.220
498.84	23.011
499.18	22.810
499.53	22.887
499.87	22.507
500.22	22.939
500.56	23.204
500.91	23.125
501.26	22.760
501.60	23.493
501.95	22.777
502.29	22.962
502.64	23.277
502.98	23.796
503.33	22.623
503.67	22.181
504.02	22.825
504.36	22.742
504.71	22.814
505.06	23.084
505.40	22.946
505.75	22.806
506.09	23.178
506.44	23.286
506.78	22.698
507.13	23.423
507.47	23.131
507.82	22.847
508.16	24.164
508.51	23.744
508.85	22.691
509.19	23.367
509.54	22.500
509.88	23.390
510.23	23.239
510.57	23.787
510.92	23.097
511.26	23.535
511.61	23.807
511.95	23.643
512.30	23.065
512.64	23.858
512.98	23.955
513.33	22.912
513.67	23.586
514.02	23.160
514.36	23.430
514.70	23.464
515.05	23.592
515.39	24.061
515.74	22.917
516.08	23.868
516.42	24.584
516.77	23.913
517.11	23.474
517.46	23.928
517.80	24.390
518.14	23.567
518.49	23.687
518.83	23.864
519.17	23.788
519.52	23.486
519.86	24.073
520.20	24.277
520.55	24.835
520.89	24.270
521.23	25.151
521.58	24.490
521.92	24.372
522.26	23.673
522.61	24.922
522.95	24.432
523.29	24.407
523.64	23.902
523.98	24.522
524.32	24.306
524.66	24.654
525.01	24.142
525.35	23.792
525.69	23.953
526.04	24.299
526.38	24.100
526.72	24.110
527.06	23.478
527.41	23.515
527.75	24.244
528.09	23.828
528.43	24.665
528.78	23.663
529.12	23.758
529.46	23.882
529.80	24.814
530.15	25.171
530.49	23.385
530.83	24.557
531.17	26.044
531.51	25.097
531.86	24.839
532.20	24.446
532.54	24.664
532.88	24.583
533.22	24.360
533.57	24.136
533.91	23.721
534.25	23.269
534.59	24.710
534.93	23.795
535.27	23.838
535.62	23.565
535.96	24.419
536.30	24.730
536.64	23.696
536.98	24.950
537.32	25.214
537.66	24.733
538.01	24.556
538.35	24.758
538.69	24.761
539.03	25.211
539.37	23.450
539.71	22.878
540.05	24.510
540.39	24.385
540.73	23.221
541.07	24.335
541.42	23.744
541.76	24.903
542.10	24.321
542.44	23.775
542.78	24.440
543.12	24.504
543.46	23.934
543.80	24.008
544.14	23.363
544.48	24.063
544.82	23.926
545.16	24.268
545.50	22.365
545.84	24.194
546.18	23.502
546.52	24.639
546.86	24.742
547.20	25.017
547.54	23.580
547.88	24.681
548.22	22.914
548.56	23.774
548.90	23.047
549.24	23.704
549.58	24.625
549.92	23.626
550.26	24.858
550.60	24.758
550.94	23.732
551.28	23.189
551.62	24.083
551.96	23.860
552.30	24.505
552.64	25.152
552.98	24.542
553.32	24.275
553.66	25.562
554.00	23.953
554.34	23.464
554.68	25.250
555.02	24.401
555.36	24.774
555.69	23.207
556.03	24.428
556.37	24.693
556.71	24.216
557.05	24.020
557.39	24.563
557.73	24.982
558.07	24.656
558.41	23.372
558.75	24.614
559.08	24.758
559.42	24.943
559.76	25.515
560.10	24.411
560.44	23.620
560.78	23.952
561.12	23.879
561.45	24.576
561.79	23.863
562.13	24.681
562.47	24.522
562.81	22.664
563.15	23.278
563.48	24.072
563.82	23.810
564.16	23.545
564.50	23.112
564.84	24.273
565.17	24.131
565.51	23.834
565.85	23.604
566.19	22.981
566.52	23.369
566.86	22.785
567.20	23.998
567.54	22.831
567.88	23.031
568.21	23.598
568.55	22.245
568.89	22.276
569.23	22.103
569.56	21.741
569.90	21.245
570.24	21.708
570.57	20.605
570.91	20.459
571.25	20.846
571.59	20.501
571.92	20.824
572.26	20.133
572.60	20.511
572.93	20.420
573.27	20.201
573.61	20.408
573.95	19.948
574.28	19.824
574.62	19.995
574.96	19.522
575.29	19.762
575.63	19.868
575.97	20.515
576.30	20.473
576.64	19.965
576.98	19.908
577.31	19.616
577.65	20.065
577.98	19.401
578.32	19.063
578.66	19.413
578.99	19.585
579.33	19.753
579.67	19.363
580.00	19.731
580.34	19.767
580.67	19.948
581.01	20.058
581.35	19.554
581.68	19.174
582.02	18.681
582.35	19.259
582.69	19.481
583.02	19.523
583.36	19.783
583.70	20.480
584.03	20.376
584.37	20.659
584.70	20.141
585.04	20.230
585.37	20.107
585.71	19.925
586.04	19.497
586.38	20.533
586.72	20.492
587.05	20.239
587.39	19.683
587.72	19.918
588.06	19.477
588.39	20.055
588.73	20.329
589.06	21.377
589.40	20.673
589.73	21.190
590.07	20.534
590.40	20.643
590.73	21.116
591.07	21.775
591.40	21.468
591.74	21.818
592.07	21.204
592.41	21.538
592.74	20.599
593.08	20.819
593.41	20.405
593.75	19.925
594.08	20.416
594.41	20.749
594.75	20.776
595.08	20.401
595.42	20.876
595.75	20.726
596.09	20.466
596.42	21.729
596.75	21.739
597.09	22.468
597.42	20.658
597.75	21.475
598.09	21.043
598.42	20.790
598.76	20.470
599.09	20.372
599.42	19.723
599.76	20.644
600.09	20.474
600.42	20.343
600.76	19.929
601.09	20.546
601.42	21.081
601.76	20.987
602.09	20.791
602.42	21.019
602.76	21.322
603.09	20.535
603.42	20.890
603.76	20.503
604.09	20.977
604.42	21.402
604.76	21.383
605.09	21.057
605.42	20.949
605.75	21.440
606.09	20.537
606.42	20.801
606.75	20.780
607.09	21.180
607.42	20.496
607.75	20.717
608.08	20.842
608.42	21.425
608.75	22.002
609.08	21.138
609.41	21.371
609.75	20.962
610.08	21.395
610.41	21.136
610.74	20.861
611.07	22.085
611.41	21.688
611.74	21.921
612.07	21.894
612.40	21.931
612.73	22.263
613.07	23.330
613.40	22.012
613.73	21.814
614.06	21.720
614.39	22.444
614.72	22.158
615.06	22.584
615.39	21.550
615.72	21.370
616.05	21.478
616.38	21.123
616.71	21.734
617.05	21.967
617.38	22.008
617.71	22.102
618.04	23.197
618.37	22.413
618.70	22.340
619.03	23.224
619.36	23.286
619.69	23.169
620.03	23.283
620.36	23.262
620.69	22.808
621.02	24.041
621.35	22.944
621.68	22.975
622.01	23.375
622.34	23.147
622.67	23.498
623.00	23.698
623.33	22.945
623.66	23.016
623.99	22.901
624.32	22.397
624.65	22.458
624.99	22.309
625.32	23.389
625.65	23.967
625.98	23.520
626.31	24.106
626.64	24.163
626.97	23.525
627.30	23.691
627.63	24.610
627.96	25.231
628.29	24.847
628.62	24.977
628.95	25.566
629.28	25.000
629.61	26.489
629.94	25.524
630.26	24.595
630.59	25.834
630.92	25.192
631.25	25.864
631.58	25.726
631.91	26.065
632.24	23.840
632.57	25.289
632.90	25.000
633.23	26.398
633.56	27.345
633.89	27.180
634.22	26.788
634.55	25.799
634.88	25.988
635.20	28.554
635.53	27.229
635.86	26.856
636.19	27.294
636.52	26.298
636.85	26.919
637.18	25.461
637.51	26.359
637.83	25.771
638.16	25.192
638.49	27.582
638.82	28.319
639.15	26.125
639.48	26.185
639.81	28.820
640.13	26.953
640.46	27.114
640.79	27.477
641.12	26.547
641.45	28.771
641.77	29.161
642.10	27.778
642.43	26.126
642.76	27.554
643.09	30.215
643.41	26.859
643.74	30.401
644.07	27.896
644.40	29.755
644.73	30.866
645.05	29.952
645.38	28.436
645.71	29.308
646.04	31.561
646.36	31.386
646.69	30.769
647.02	31.463
647.35	27.491
647.67	28.850
648.00	31.707
648.33	28.713
648.66	28.182
648.98	28.036
649.31	26.308
649.64	28.251
649.96	28.614
650.29	28.436
650.62	28.317
650.94	31.118
651.27	29.730
651.60	28.619
651.92	27.796
652.25	25.896
652.58	30.997
652.90	30.490
653.23	26.040
653.56	27.087
653.88	29.002
654.21	30.332
654.54	28.218
654.86	28.505
655.19	25.811
655.52	17.753
655.84	15.010
656.17	19.071
656.49	25.957
656.82	26.897
657.15	20.607
657.47	15.182
657.80	12.003
658.13	12.923
658.45	19.719
658.78	19.548
659.10	21.353
659.43	22.668
659.75	24.609
660.08	26.835
660.41	28.585
660.73	31.766
661.06	28.503
661.38	32.909
661.71	30.962
662.03	30.966
662.36	27.237
662.68	31.928
663.01	31.313
663.33	31.423
663.66	32.353
663.98	31.749
664.31	31.092
664.63	29.150
664.96	27.364
665.28	32.172
665.61	30.604
665.93	31.187
666.26	29.615
666.58	31.172
666.91	33.192
667.23	33.034
667.56	27.646
667.88	31.197
668.21	32.623
668.53	30.803
668.86	32.035
669.18	31.770
669.50	31.957
669.83	34.423
670.15	31.778
670.48	28.322
670.80	31.681
671.13	30.786
671.45	31.064
671.77	32.587
672.10	29.575
672.42	28.269
672.75	28.690
673.07	26.232
673.39	29.114
673.72	27.539
674.04	28.627
674.37	30.485
674.69	27.403
675.01	30.544
675.34	31.828
675.66	34.947
675.98	31.365
676.31	28.782
676.63	30.149
676.95	29.350
677.28	32.243
677.60	30.549
677.92	33.544
678.25	32.238
678.57	30.080
678.89	28.257
679.22	27.701
679.54	29.962
679.86	29.541
680.18	27.907
680.51	28.191
680.83	29.181
681.15	29.623
681.48	30.435
681.80	26.499
682.12	27.203
682.44	26.692
682.77	30.346
683.09	34.764
683.41	31.707
683.73	31.347
684.06	32.851
684.38	30.920
684.70	30.620
685.02	29.831
685.34	25.275
685.67	27.098
685.99	26.289
686.31	26.792
686.63	25.618
686.96	26.250
687.28	28.159
687.60	27.536
687.92	29.250
688.24	27.567
688.56	29.920
688.89	29.461
689.21	31.004
689.53	30.689
689.85	30.820
690.17	26.915
690.49	32.909
690.82	34.346
691.14	29.687
691.46	29.747
691.78	28.514
692.10	28.512
692.42	32.735
692.74	29.876
693.06	30.000
693.39	28.747
693.71	29.913
694.03	31.158
694.35	29.004
694.67	30.435
694.99	34.634
695.31	29.412
695.63	29.426
695.95	33.496
696.27	30.711
696.59	30.052
696.91	30.570
697.23	29.343
697.56	30.490
697.88	27.403
698.20	27.292
698.52	29.892
698.84	30.512
699.16	30.645
699.48	30.641
699.80	31.159
700.12	34.286
700.44	35.544
700.76	34.807
701.08	31.609
701.40	32.682
701.72	32.653
702.04	37.784
702.36	30.595
702.68	33.428
703.00	34.349
703.32	31.915
703.64	30.563
703.96	34.819
704.28	34.302
704.60	35.191
704.91	34.421
705.23	32.845
705.55	38.206
705.87	36.877
706.19	38.516
706.51	34.891
706.83	36.970
707.15	33.613
707.47	28.535
707.79	31.450
708.11	28.767
708.43	29.048
708.74	31.378
709.06	31.429
709.38	33.596
709.70	34.302
710.02	34.421
710.34	33.939
710.66	34.328
710.98	37.216
711.29	35.174
711.61	36.873
711.93	35.577
712.25	36.656
712.57	38.971
712.89	34.602
713.20	34.954
713.52	40.461
713.84	30.696
714.16	32.622
714.48	35.345
714.80	35.562
715.11	31.700
715.43	34.125
715.75	31.014
716.07	33.227
716.39	31.348
716.70	38.538
717.02	36.691
717.34	37.102
717.66	39.552
717.97	41.833
718.29	32.222
718.61	38.321
718.93	40.809
719.24	32.872
719.56	35.932
719.88	34.915
720.20	38.176
720.51	40.070
720.83	37.546
721.15	31.716
721.46	37.234
721.78	38.351
722.10	32.830
722.42	35.714
722.73	38.202
723.05	37.295
723.37	39.676
723.68	37.838
724.00	34.959
724.32	39.919
724.63	39.431
724.95	38.912
725.27	36.032
725.58	39.062
725.90	36.861
726.22	33.962
726.53	35.764
726.85	33.788
727.16	37.011
727.48	34.043
727.80	37.879
728.11	38.406
728.43	32.692
728.74	34.050
729.06	38.686
729.38	36.397
729.69	37.011
730.01	34.471
730.32	33.333
730.64	32.776
730.96	33.663
731.27	34.437
731.59	35.474
731.90	32.945
732.22	32.919
732.53	29.102
732.85	32.051
733.16	36.013
733.48	32.890
733.80	35.714
734.11	35.032
734.43	33.728
734.74	31.714
735.06	29.226
735.37	36.416
735.69	32.484
736.00	36.275
736.32	34.579
736.63	30.990
736.95	32.907
737.26	27.211
737.58	30.968
737.89	33.110
738.21	34.812
738.52	36.071
738.83	35.472
739.15	34.231
739.46	37.591
739.78	39.583
740.09	33.538
740.41	35.806
740.72	35.192
741.04	41.481
741.35	33.333
741.66	41.333
741.98	38.679
742.29	41.627
742.61	41.379
742.92	33.937
743.23	41.453
743.55	36.000
743.86	38.596
744.18	43.363
744.49	44.498
744.80	43.662
745.12	38.182
745.43	40.088
745.74	41.892
746.06	36.697
746.37	39.462
746.68	35.294
747.00	44.907
747.31	37.619
747.62	37.168
747.94	34.361
748.25	40.000
748.56	43.172
748.88	33.663
749.19	50.500
749.50	38.605
749.82	34.146
750.13	33.878
750.44	37.226
750.75	35.439
751.07	34.727
751.38	34.495
751.69	33.935
752.01	34.962
752.32	33.935
752.63	34.043
752.94	33.607
753.26	43.600
753.57	35.772
753.88	35.156
754.19	35.000
754.51	35.764
754.82	31.408
755.13	34.340
755.44	35.338
755.75	34.672
756.07	28.723
756.38	28.467
756.69	36.242
757.00	29.940
757.31	27.300
757.63	28.947
757.94	29.759
758.25	25.980
758.56	28.642
758.87	24.731
759.18	31.515
759.50	30.408
759.81	32.710
760.12	29.062
760.43	30.659
760.74	30.707
761.05	29.661
761.36	26.203
761.67	32.955
761.99	28.882
762.30	31.944
762.61	36.641
762.92	33.594
763.23	35.294
763.54	39.200
763.85	35.937
764.16	34.615
764.47	38.023
764.78	30.742
765.10	30.063
765.41	28.909
765.72	29.641
766.03	33.229
766.34	29.333
766.65	38.723
766.96	31.624
767.27	43.655
767.58	48.958
767.89	44.737
768.20	45.977
768.51	44.162
768.82	40.367
769.13	34.553
769.44	34.413
769.75	40.343
770.06	35.780
770.37	38.462
770.68	38.889
770.99	37.333
771.30	31.967
771.61	36.323
771.92	36.885
772.23	36.134
772.54	37.436
772.85	46.073
773.16	41.489
773.47	46.196
773.78	44.670
774.09	49.405
774.39	49.123
774.70	46.296
775.01	49.275
775.32	51.634
775.63	53.289
775.94	48.921
776.25	58.268
776.56	50.746
776.87	56.557
777.18	52.344
777.48	54.198
777.79	45.455
778.10	53.333
778.41	44.643
778.72	45.255
779.03	44.295
779.34	49.664
779.65	44.595
779.95	47.853
780.26	53.595
780.57	52.414
780.88	61.719
781.19	57.895
781.50	51.351
781.80	47.799
782.11	42.373
782.42	47.468
782.73	46.626
783.04	50.676
783.34	50.704
783.65	58.219
783.96	58.955
784.27	51.748
784.57	41.007
784.88	51.852
785.19	65.079
785.50	58.491
785.81	62.687
786.11	62.295
786.42	57.364
786.73	58.407
787.04	61.321
787.34	52.679
787.65	67.000
787.96	62.162
788.26	52.066
788.57	51.695
788.88	53.719
789.19	52.778
789.49	60.606
789.80	60.305
790.11	60.952
790.41	69.307
790.72	65.060
791.03	70.652
791.33	70.930
791.64	63.918
791.95	73.267
792.25	71.111
792.56	79.221
792.87	88.462
793.17	84.810
793.48	78.161
793.79	77.011
794.09	69.318
794.40	54.622
794.70	63.235
795.01	52.593
795.32	43.885
795.62	49.606
795.93	54.310
796.23	57.522
796.54	72.941
796.85	70.270
797.15	87.324
797.46	90.909
797.76	80.723
798.07	73.418
798.37	86.154
798.68	84.848
798.99	73.239
799.29	76.623
799.60	68.182
799.90	101.370
800.21	92.537
800.51	100.000
800.82	114.035
801.12	100.000
801.43	87.879
801.73	81.081
802.04	98.413
802.34	83.951
802.65	98.437
802.95	105.085
803.26	85.937
803.56	74.286
803.87	78.462
804.17	89.706
804.48	120.370
804.78	89.655
805.09	97.059
805.39	84.615
805.70	116.071
806.00	113.115
806.30	81.818
806.61	76.829
806.91	69.620
807.22	72.368
807.52	70.149
807.83	74.648
808.13	93.750
808.43	98.333
808.74	77.632
809.04	78.261
809.35	98.507
809.65	86.842
809.95	109.677
810.26	93.220
810.56	88.889
810.86	127.273
811.17	133.333
811.47	108.333
811.77	105.556
812.08	112.727
812.38	132.000
812.69	147.222
812.99	140.909
813.29	120.408
813.59	102.381
813.90	89.796
814.20	96.364
814.50	81.538
814.81	88.235
815.11	126.531
815.41	96.721
815.72	157.143
816.02	101.818
816.32	107.143
816.62	122.500
816.93	117.073
817.23	135.714
817.53	150.000
817.84	200.000
818.14	126.087
818.44	88.889
818.74	158.824
819.04	115.000
819.35	160.000
819.65	167.647
819.95	175.000
820.25	180.000
820.56	166.667
820.86	127.273
821.16	148.837
821.46	133.333
821.76	122.000
822.07	140.000
822.37	152.500
822.67	166.667
822.97	101.961
823.27	200.000
823.57	145.946
823.88	160.000
824.18	170.000
824.48	133.333
824.78	196.000
825.08	166.667
825.38	129.730
825.69	146.341
825.99	220.833
826.29	134.483
826.59	147.368
826.89	147.368
827.19	152.941
827.49	193.548
827.79	163.636
828.09	115.909
828.39	119.149
828.70	140.816
829.00	122.222
829.30	170.968
829.60	130.000
829.90	260.000
830.20	167.857
830.50	182.609
830.80	226.087
831.10	166.667
831.40	170.000
831.70	200.000
832.00	200.000
832.30	170.370
832.60	300.000
832.90	200.000
833.20	385.714
833.50	193.548
833.80	189.655
834.10	193.750
834.40	211.538
834.70	261.111
835.00	314.286
835.30	145.714
835.60	376.923
835.90	206.897
836.20	392.857
836.50	210.345
836.80	208.000
837.10	180.556
837.40	295.238
837.70	276.471
838.00	203.704
838.30	233.333
838.60	300.000
838.90	211.538
839.19	260.000
839.49	321.429
839.79	270.000
840.09	315.000
840.39	271.429
840.69	234.783
840.99	250.000
841.29	390.000
841.59	275.000
841.88	406.250
842.18	196.552
842.48	257.143
842.78	163.333
843.08	213.043
843.38	175.000
843.68	783.333
843.97	223.077
844.27	175.862
844.57	204.762
844.87	412.500
845.17	222.222
845.47	1466.667
845.76	511.111
846.06	270.588
846.36	487.500
846.66	378.571
846.96	287.500
847.25	309.091
847.55	454.545
847.85	273.913
848.15	520.000
848.44	414.286
848.74	311.111
849.04	282.353
849.34	490.000
849.63	278.947
849.93	463.636
850.23	780.000
850.53	364.286
850.82	1450.000
851.12	-4400.000
851.42	3800.000
851.71	245.000
852.01	-1433.333
852.31	208.333
852.61	1500.000
852.90	276.190
853.20	216.000
853.50	347.059
853.79	261.905
854.09	216.667
854.39	293.750
854.68	140.541
854.98	161.290
855.28	156.667
855.57	186.207
855.87	203.704
856.17	215.789
856.46	306.667
856.76	329.412
857.05	189.655
857.35	250.000
857.65	326.667
857.94	278.261
858.24	176.923
858.53	305.000
858.83	263.636
859.13	326.667
859.42	0.000
859.72	555.556
860.01	509.091
860.31	231.818
860.60	257.895
860.90	221.739
861.20	577.778
861.49	416.667
861.79	-4100.000
862.08	562.500
862.38	290.476
862.67	323.077
862.97	305.882
863.26	522.222
863.56	294.444
863.85	358.333
864.15	587.500
864.44	360.000
864.74	900.000
865.03	637.500
865.33	289.474
865.62	418.182
865.92	476.923
866.21	358.333
866.51	0.000
866.80	400.000
867.10	1040.000
867.39	423.077
867.69	372.727
867.98	268.421
868.27	336.364
868.57	247.368
868.86	-5700.000
869.16	356.250
869.45	2200.000
869.75	-3600.000
870.04	383.333
870.33	685.714
870.63	1225.000
870.92	2650.000
871.22	842.857
871.51	305.882
871.80	219.048
872.10	328.571
>>>>>End Processed Spectral Data<<<<<
