SpectraSuite Data File
++++++++++++++++++++++++++++++++++++
Date: Wed May 13 16:49:13 PDT 2015
User: schluterlab
Dark Spectrum Present: Yes
Reference Spectrum Present: Yes
Number of Sampled Component Spectra: 1
Spectrometers: USB2E3373
Integration Time (usec): 3000 (USB2E3373)
Spectra Averaged: 3 (USB2E3373)
Boxcar Smoothing: 0 (USB2E3373)
Correct for Electrical Dark: No (USB2E3373)
Strobe/Lamp Enabled: No (USB2E3373)
Correct for Detector Non-linearity: No (USB2E3373)
Correct for Stray Light: No (USB2E3373)
Number of Pixels in Processed Spectrum: 2048
>>>>>Begin Processed Spectral Data<<<<<
178.53	0.000
178.91	-1375.000
179.29	-1250.000
179.67	-150.000
180.04	-1250.000
180.42	2450.000
180.80	900.000
181.18	-675.000
181.56	642.857
181.94	0.000
182.31	-600.000
182.69	1700.000
183.07	-450.000
183.45	-500.000
183.83	572.727
184.20	-400.000
184.58	2150.000
184.96	5600.000
185.34	-920.000
185.72	-625.000
186.09	-2350.000
186.47	2600.000
186.85	2400.000
187.23	4900.000
187.61	-1433.333
187.98	1275.000
188.36	490.909
188.74	563.636
189.12	-740.000
189.49	630.000
189.87	-4800.000
190.25	-1200.000
190.63	428.571
191.00	446.154
191.38	716.667
191.76	-1000.000
192.14	1175.000
192.51	525.000
192.89	766.667
193.27	337.500
193.65	-1000.000
194.02	520.000
194.40	840.000
194.78	630.000
195.15	550.000
195.53	640.000
195.91	-1650.000
196.29	381.250
196.66	310.526
197.04	-390.000
197.42	0.000
197.79	550.000
198.17	-5200.000
198.55	642.857
198.92	662.500
199.30	940.000
199.68	0.000
200.05	350.000
200.43	757.143
200.81	4400.000
201.18	1600.000
201.56	-1466.667
201.94	577.778
202.31	500.000
202.69	408.333
203.07	400.000
203.44	0.000
203.82	1000.000
204.19	757.143
204.57	400.000
204.95	637.500
205.32	1833.333
205.70	472.727
206.08	407.143
206.45	2850.000
206.83	381.250
207.20	866.667
207.58	760.000
207.96	294.444
208.33	700.000
208.71	-683.333
209.08	914.286
209.46	622.222
209.84	390.909
210.21	-1266.667
210.59	1575.000
210.96	-450.000
211.34	1850.000
211.71	520.000
212.09	733.333
212.46	0.000
212.84	1766.667
213.22	1325.000
213.59	-3500.000
213.97	900.000
214.34	800.000
214.72	509.091
215.09	1080.000
215.47	-1850.000
215.84	-2300.000
216.22	1733.333
216.59	350.000
216.97	1250.000
217.34	427.273
217.72	-750.000
218.09	0.000
218.47	-4400.000
218.84	666.667
219.22	642.857
219.59	1666.667
219.97	-585.714
220.34	980.000
220.72	-1466.667
221.09	364.286
221.47	1425.000
221.84	-883.333
222.22	0.000
222.59	1375.000
222.97	-2200.000
223.34	1080.000
223.72	407.692
224.09	900.000
224.46	1800.000
224.84	-5100.000
225.21	-860.000
225.59	-3000.000
225.96	600.000
226.34	285.000
226.71	2550.000
227.08	550.000
227.46	530.000
227.83	-1125.000
228.21	-1850.000
228.58	555.556
228.95	-2100.000
229.33	-2700.000
229.70	1466.667
230.08	757.143
230.45	-720.000
230.82	375.000
231.20	650.000
231.57	700.000
231.95	450.000
232.32	240.909
232.69	390.909
233.07	614.286
233.44	346.154
233.81	-1400.000
234.19	326.316
234.56	408.333
234.93	391.667
235.31	463.636
235.68	253.846
236.05	271.429
236.43	172.727
236.80	226.316
237.17	3700.000
237.55	219.048
237.92	189.286
238.29	219.048
238.67	158.065
239.04	172.414
239.41	150.000
239.79	86.957
240.16	126.190
240.53	122.727
240.91	84.314
241.28	78.000
241.65	74.000
242.02	75.362
242.40	82.258
242.77	76.667
243.14	58.065
243.51	64.045
243.89	55.294
244.26	44.444
244.63	51.613
245.00	52.128
245.38	46.535
245.75	41.121
246.12	35.780
246.49	54.745
246.87	50.400
247.24	43.846
247.61	42.143
247.98	39.216
248.36	33.108
248.73	30.573
249.10	40.764
249.47	34.463
249.84	35.829
250.22	29.947
250.59	23.669
250.96	32.323
251.33	27.962
251.70	28.713
252.08	26.667
252.45	30.493
252.82	23.478
253.19	31.064
253.56	24.706
253.94	23.651
254.31	24.609
254.68	25.385
255.05	23.247
255.42	21.545
255.79	23.162
256.16	24.188
256.54	19.081
256.91	21.352
257.28	16.906
257.65	20.132
258.02	22.671
258.39	16.404
258.76	17.391
259.14	21.131
259.51	19.149
259.88	17.081
260.25	20.846
260.62	17.630
260.99	18.634
261.36	15.916
261.73	18.338
262.10	16.860
262.47	14.085
262.85	16.992
263.22	13.105
263.59	22.222
263.96	15.934
264.33	15.927
264.70	16.316
265.07	17.903
265.44	15.657
265.81	15.085
266.18	12.312
266.55	14.390
266.92	13.268
267.29	14.352
267.66	16.514
268.03	14.773
268.40	13.551
268.77	12.411
269.14	14.189
269.51	15.124
269.88	14.452
270.25	13.995
270.62	14.157
270.99	15.484
271.36	15.451
271.73	14.720
272.10	11.739
272.47	13.978
272.84	13.203
273.21	14.885
273.58	13.319
273.95	10.273
274.32	12.810
274.69	12.420
275.06	12.205
275.43	16.383
275.80	13.627
276.17	13.238
276.54	13.514
276.91	13.241
277.28	10.352
277.65	14.700
278.02	10.559
278.39	12.305
278.76	11.091
279.13	11.509
279.50	13.222
279.87	12.948
280.23	10.978
280.60	10.832
280.97	12.200
281.34	11.327
281.71	13.636
282.08	12.668
282.45	10.364
282.82	10.657
283.19	9.626
283.56	10.175
283.92	12.860
284.29	10.935
284.66	11.434
285.03	10.850
285.40	9.507
285.77	10.438
286.14	10.708
286.51	12.500
286.87	10.256
287.24	12.215
287.61	10.433
287.98	13.149
288.35	9.350
288.72	10.903
289.08	10.485
289.45	7.908
289.82	11.870
290.19	9.733
290.56	10.567
290.93	10.725
291.29	9.816
291.66	9.882
292.03	12.936
292.40	10.720
292.77	9.467
293.13	9.552
293.50	10.058
293.87	9.778
294.24	9.481
294.60	7.569
294.97	11.483
295.34	10.155
295.71	9.659
296.08	9.544
296.44	9.766
296.81	9.908
297.18	9.485
297.55	8.179
297.91	10.422
298.28	9.906
298.65	9.922
299.02	9.223
299.38	7.304
299.75	6.604
300.12	8.429
300.48	8.625
300.85	8.631
301.22	7.643
301.59	7.955
301.95	8.690
302.32	7.831
302.69	8.005
303.05	9.455
303.42	7.531
303.79	8.947
304.15	7.809
304.52	7.416
304.89	6.620
305.25	7.889
305.62	9.400
305.99	7.320
306.35	6.935
306.72	8.408
307.09	9.434
307.45	7.883
307.82	6.585
308.19	8.720
308.55	7.983
308.92	7.841
309.29	7.497
309.65	7.317
310.02	8.774
310.38	6.989
310.75	7.075
311.12	8.598
311.48	8.046
311.85	8.386
312.22	7.388
312.58	7.380
312.95	6.864
313.31	7.184
313.68	7.796
314.05	9.862
314.41	7.940
314.78	8.258
315.14	7.249
315.51	7.930
315.87	6.931
316.24	7.349
316.61	6.725
316.97	7.632
317.34	6.458
317.70	7.266
318.07	8.277
318.43	6.556
318.80	7.591
319.16	6.874
319.53	6.004
319.89	7.714
320.26	7.500
320.62	7.540
320.99	7.677
321.35	7.778
321.72	7.392
322.08	7.009
322.45	9.751
322.81	7.461
323.18	8.960
323.54	7.978
323.91	8.113
324.27	7.170
324.64	7.549
325.00	6.943
325.37	7.552
325.73	8.079
326.10	7.502
326.46	6.362
326.83	7.161
327.19	7.600
327.56	7.143
327.92	6.474
328.29	7.808
328.65	7.827
329.01	7.762
329.38	6.383
329.74	8.126
330.11	6.598
330.47	6.979
330.84	8.640
331.20	7.286
331.56	6.422
331.93	6.204
332.29	7.276
332.66	7.345
333.02	7.130
333.38	8.130
333.75	8.824
334.11	7.829
334.48	6.832
334.84	7.353
335.20	8.273
335.57	7.253
335.93	5.982
336.29	7.051
336.66	7.394
337.02	6.878
337.38	7.407
337.75	6.506
338.11	6.714
338.47	5.709
338.84	7.333
339.20	6.055
339.56	7.391
339.93	5.909
340.29	7.156
340.65	6.684
341.02	7.330
341.38	7.295
341.74	6.228
342.11	6.812
342.47	6.432
342.83	5.993
343.20	7.186
343.56	6.571
343.92	5.965
344.28	7.058
344.65	6.449
345.01	5.892
345.37	6.003
345.73	6.599
346.10	6.138
346.46	6.017
346.82	7.825
347.19	5.597
347.55	6.979
347.91	7.929
348.27	6.327
348.63	6.020
349.00	6.311
349.36	5.747
349.72	6.576
350.08	6.159
350.45	6.916
350.81	6.336
351.17	6.888
351.53	5.897
351.89	5.611
352.26	7.261
352.62	7.057
352.98	6.645
353.34	5.423
353.70	4.828
354.07	5.968
354.43	6.349
354.79	5.712
355.15	5.906
355.51	6.875
355.87	5.959
356.24	5.619
356.60	5.934
356.96	5.551
357.32	6.541
357.68	6.299
358.04	5.463
358.40	7.047
358.77	6.729
359.13	5.604
359.49	6.431
359.85	4.683
360.21	5.423
360.57	6.693
360.93	6.308
361.29	6.122
361.66	4.799
362.02	6.642
362.38	6.388
362.74	6.250
363.10	5.477
363.46	5.429
363.82	6.198
364.18	6.461
364.54	6.835
364.90	6.941
365.26	5.882
365.62	5.844
365.98	5.332
366.35	4.943
366.71	6.725
367.07	5.390
367.43	5.515
367.79	6.424
368.15	6.322
368.51	5.814
368.87	6.495
369.23	5.706
369.59	6.589
369.95	5.441
370.31	6.838
370.67	5.362
371.03	5.843
371.39	6.122
371.75	6.397
372.11	6.543
372.47	6.085
372.83	5.476
373.19	5.997
373.55	6.356
373.91	6.627
374.27	5.979
374.63	6.255
374.99	6.285
375.35	5.443
375.71	5.757
376.07	6.653
376.42	5.502
376.78	6.826
377.14	5.224
377.50	5.960
377.86	4.987
378.22	6.131
378.58	5.827
378.94	5.028
379.30	5.216
379.66	5.774
380.02	5.897
380.38	5.889
380.74	5.582
381.09	5.318
381.45	6.269
381.81	5.405
382.17	6.115
382.53	5.220
382.89	6.296
383.25	5.629
383.61	5.948
383.97	5.941
384.32	5.739
384.68	5.204
385.04	5.655
385.40	5.077
385.76	5.651
386.12	5.246
386.48	6.356
386.83	5.773
387.19	6.122
387.55	5.813
387.91	5.441
388.27	6.070
388.62	6.822
388.98	5.405
389.34	6.946
389.70	5.947
390.06	5.577
390.42	6.161
390.77	6.107
391.13	6.126
391.49	6.155
391.85	5.411
392.20	5.237
392.56	5.997
392.92	5.768
393.28	5.207
393.64	6.055
393.99	6.414
394.35	5.397
394.71	5.897
395.07	5.358
395.42	5.686
395.78	5.852
396.14	5.897
396.50	6.830
396.85	6.802
397.21	5.425
397.57	6.076
397.92	6.010
398.28	5.381
398.64	6.272
399.00	5.372
399.35	5.979
399.71	5.903
400.07	6.564
400.42	5.215
400.78	5.911
401.14	4.451
401.49	6.149
401.85	5.868
402.21	5.749
402.57	6.046
402.92	5.990
403.28	5.996
403.63	5.569
403.99	5.924
404.35	6.364
404.70	5.216
405.06	5.533
405.42	6.238
405.77	5.371
406.13	5.643
406.49	5.973
406.84	5.552
407.20	5.260
407.55	5.807
407.91	5.933
408.27	4.850
408.62	5.719
408.98	5.453
409.34	5.904
409.69	5.613
410.05	5.638
410.40	5.443
410.76	5.317
411.11	6.273
411.47	5.815
411.83	5.803
412.18	5.442
412.54	5.230
412.89	6.627
413.25	4.782
413.60	5.559
413.96	6.072
414.31	5.711
414.67	6.084
415.03	5.894
415.38	5.541
415.74	5.788
416.09	6.074
416.45	5.756
416.80	5.618
417.16	5.965
417.51	6.038
417.87	5.652
418.22	6.562
418.58	6.004
418.93	5.958
419.29	5.792
419.64	6.360
420.00	6.524
420.35	6.029
420.71	6.097
421.06	5.310
421.42	5.614
421.77	6.334
422.12	5.109
422.48	4.803
422.83	5.941
423.19	5.856
423.54	5.340
423.90	5.797
424.25	6.030
424.61	5.298
424.96	5.656
425.31	5.592
425.67	5.337
426.02	5.543
426.38	5.128
426.73	5.442
427.09	5.410
427.44	5.865
427.79	5.405
428.15	6.190
428.50	6.612
428.85	5.662
429.21	5.356
429.56	4.821
429.92	5.586
430.27	4.916
430.62	4.762
430.98	5.449
431.33	5.670
431.68	5.654
432.04	5.325
432.39	5.368
432.74	6.344
433.10	5.886
433.45	5.831
433.80	5.100
434.16	5.182
434.51	5.421
434.86	5.473
435.22	4.836
435.57	5.046
435.92	5.325
436.28	6.168
436.63	5.960
436.98	5.495
437.34	5.844
437.69	6.009
438.04	5.340
438.39	5.433
438.75	6.101
439.10	5.754
439.45	5.549
439.81	6.042
440.16	5.251
440.51	5.038
440.86	6.369
441.22	5.506
441.57	5.573
441.92	4.811
442.27	5.813
442.63	5.213
442.98	6.085
443.33	5.924
443.68	5.576
444.03	5.808
444.39	4.625
444.74	5.141
445.09	5.714
445.44	5.249
445.79	5.690
446.15	5.823
446.50	5.331
446.85	5.139
447.20	5.252
447.55	5.974
447.91	5.626
448.26	6.066
448.61	5.427
448.96	6.257
449.31	5.568
449.66	6.134
450.02	4.847
450.37	5.896
450.72	5.415
451.07	5.363
451.42	5.593
451.77	6.107
452.12	6.236
452.47	5.597
452.83	4.779
453.18	6.296
453.53	6.370
453.88	5.789
454.23	5.858
454.58	6.239
454.93	6.866
455.28	5.860
455.63	5.765
455.98	6.786
456.34	5.967
456.69	5.761
457.04	5.387
457.39	5.260
457.74	5.862
458.09	5.980
458.44	5.929
458.79	5.315
459.14	5.474
459.49	5.079
459.84	6.150
460.19	5.775
460.54	5.382
460.89	5.650
461.24	6.072
461.59	5.927
461.94	6.597
462.29	6.291
462.64	5.424
462.99	5.791
463.34	6.267
463.69	5.316
464.04	6.435
464.39	6.551
464.74	5.882
465.09	5.609
465.44	6.537
465.79	5.928
466.14	5.857
466.49	6.174
466.84	6.480
467.19	5.914
467.54	6.375
467.89	5.702
468.24	6.341
468.59	6.471
468.94	5.437
469.29	5.720
469.64	7.229
469.99	6.563
470.34	5.812
470.68	5.963
471.03	6.054
471.38	6.671
471.73	5.996
472.08	6.382
472.43	6.470
472.78	6.254
473.13	6.354
473.48	6.617
473.83	6.037
474.17	5.352
474.52	5.955
474.87	6.305
475.22	6.384
475.57	5.803
475.92	5.629
476.27	6.201
476.61	5.792
476.96	5.058
477.31	5.338
477.66	5.635
478.01	6.116
478.36	5.976
478.70	5.244
479.05	5.751
479.40	5.834
479.75	5.135
480.10	4.920
480.45	5.378
480.79	4.969
481.14	5.822
481.49	5.505
481.84	5.304
482.19	5.270
482.53	5.092
482.88	5.631
483.23	5.140
483.58	5.732
483.92	5.483
484.27	4.967
484.62	5.043
484.97	4.809
485.31	4.897
485.66	4.105
486.01	3.924
486.36	3.626
486.70	3.734
487.05	3.969
487.40	4.035
487.75	3.998
488.09	4.428
488.44	4.503
488.79	5.063
489.13	4.813
489.48	4.772
489.83	5.179
490.17	4.822
490.52	5.182
490.87	5.156
491.22	5.048
491.56	4.419
491.91	4.607
492.26	4.593
492.60	5.346
492.95	5.098
493.30	4.907
493.64	4.853
493.99	4.735
494.34	5.412
494.68	5.952
495.03	5.639
495.37	5.305
495.72	5.507
496.07	5.568
496.41	5.310
496.76	5.057
497.11	4.953
497.45	5.496
497.80	5.182
498.14	5.169
498.49	5.073
498.84	5.657
499.18	5.143
499.53	5.318
499.87	4.846
500.22	5.228
500.56	5.631
500.91	5.385
501.26	5.453
501.60	5.695
501.95	5.087
502.29	5.295
502.64	5.168
502.98	5.330
503.33	5.073
503.67	5.244
504.02	5.379
504.36	5.335
504.71	5.667
505.06	5.494
505.40	5.105
505.75	5.014
506.09	5.248
506.44	5.180
506.78	5.407
507.13	4.997
507.47	5.960
507.82	5.775
508.16	6.079
508.51	5.429
508.85	5.611
509.19	5.612
509.54	5.816
509.88	5.719
510.23	5.656
510.57	6.450
510.92	5.955
511.26	6.064
511.61	5.861
511.95	5.480
512.30	5.302
512.64	5.911
512.98	6.002
513.33	6.210
513.67	5.283
514.02	5.465
514.36	5.789
514.70	6.032
515.05	5.243
515.39	6.898
515.74	6.250
516.08	6.540
516.42	6.659
516.77	6.355
517.11	5.993
517.46	6.377
517.80	6.098
518.14	5.385
518.49	5.834
518.83	6.705
519.17	6.178
519.52	5.999
519.86	6.845
520.20	6.821
520.55	6.762
520.89	6.509
521.23	6.514
521.58	6.303
521.92	7.532
522.26	6.284
522.61	6.729
522.95	6.139
523.29	5.904
523.64	6.829
523.98	6.901
524.32	6.514
524.66	7.035
525.01	6.495
525.35	5.824
525.69	6.096
526.04	6.729
526.38	6.772
526.72	6.380
527.06	7.094
527.41	5.879
527.75	6.624
528.09	6.487
528.43	6.756
528.78	7.068
529.12	6.364
529.46	7.042
529.80	6.869
530.15	6.542
530.49	5.662
530.83	7.342
531.17	6.723
531.51	7.652
531.86	6.903
532.20	7.562
532.54	7.047
532.88	6.868
533.22	6.746
533.57	7.099
533.91	6.803
534.25	6.987
534.59	6.101
534.93	6.484
535.27	6.820
535.62	6.593
535.96	6.968
536.30	6.167
536.64	7.019
536.98	6.569
537.32	6.715
537.66	6.533
538.01	6.781
538.35	6.852
538.69	6.828
539.03	6.368
539.37	5.879
539.71	5.638
540.05	6.340
540.39	7.110
540.73	5.886
541.07	6.814
541.42	6.849
541.76	7.161
542.10	7.050
542.44	6.954
542.78	7.510
543.12	6.910
543.46	7.344
543.80	6.441
544.14	6.290
544.48	6.730
544.82	6.671
545.16	6.701
545.50	6.812
545.84	6.519
546.18	6.667
546.52	7.089
546.86	6.186
547.20	7.215
547.54	7.148
547.88	7.781
548.22	6.663
548.56	6.541
548.90	6.594
549.24	6.128
549.58	7.026
549.92	8.448
550.26	7.102
550.60	7.054
550.94	7.535
551.28	6.803
551.62	6.902
551.96	6.526
552.30	7.782
552.64	7.776
552.98	7.322
553.32	7.215
553.66	7.566
554.00	7.412
554.34	6.280
554.68	6.795
555.02	7.052
555.36	6.611
555.69	7.442
556.03	7.335
556.37	6.753
556.71	6.344
557.05	7.143
557.39	6.788
557.73	7.057
558.07	6.454
558.41	6.729
558.75	7.494
559.08	7.606
559.42	7.029
559.76	7.353
560.10	6.638
560.44	6.848
560.78	7.053
561.12	6.926
561.45	7.888
561.79	6.394
562.13	6.103
562.47	7.650
562.81	6.416
563.15	7.559
563.48	6.963
563.82	6.262
564.16	6.344
564.50	5.794
564.84	7.080
565.17	6.435
565.51	6.390
565.85	6.345
566.19	5.698
566.52	7.093
566.86	6.389
567.20	6.545
567.54	6.279
567.88	5.649
568.21	6.772
568.55	5.865
568.89	5.399
569.23	5.392
569.56	5.749
569.90	4.981
570.24	5.131
570.57	5.032
570.91	4.848
571.25	4.663
571.59	4.860
571.92	4.637
572.26	4.824
572.60	4.655
572.93	4.888
573.27	4.969
573.61	4.774
573.95	4.755
574.28	4.497
574.62	4.397
574.96	4.444
575.29	4.559
575.63	4.421
575.97	4.582
576.30	4.886
576.64	4.423
576.98	4.375
577.31	4.413
577.65	4.430
577.98	4.282
578.32	4.091
578.66	4.235
578.99	4.360
579.33	4.478
579.67	4.427
580.00	4.843
580.34	4.295
580.67	4.538
581.01	4.767
581.35	4.357
581.68	4.166
582.02	4.215
582.35	4.105
582.69	4.321
583.02	4.269
583.36	4.427
583.70	4.870
584.03	4.624
584.37	4.769
584.70	4.284
585.04	4.746
585.37	4.613
585.71	4.817
586.04	4.566
586.38	4.781
586.72	5.109
587.05	4.482
587.39	4.169
587.72	4.818
588.06	4.376
588.39	4.527
588.73	5.192
589.06	5.204
589.40	4.949
589.73	5.139
590.07	5.160
590.40	5.005
590.73	5.464
591.07	5.739
591.40	5.399
591.74	5.541
592.07	5.803
592.41	5.581
592.74	5.206
593.08	5.530
593.41	5.220
593.75	4.809
594.08	5.028
594.41	5.373
594.75	5.250
595.08	5.440
595.42	5.499
595.75	5.342
596.09	5.483
596.42	5.894
596.75	5.699
597.09	6.147
597.42	5.354
597.75	5.347
598.09	5.565
598.42	6.014
598.76	5.270
599.09	4.675
599.42	5.167
599.76	5.527
600.09	5.100
600.42	4.931
600.76	5.107
601.09	5.282
601.42	5.327
601.76	5.844
602.09	5.375
602.42	5.812
602.76	5.683
603.09	5.862
603.42	5.662
603.76	5.450
604.09	5.312
604.42	5.463
604.76	6.242
605.09	5.941
605.42	5.772
605.75	5.546
606.09	5.287
606.42	5.558
606.75	5.516
607.09	5.735
607.42	5.434
607.75	5.021
608.08	5.818
608.42	6.499
608.75	5.951
609.08	5.967
609.41	5.712
609.75	6.146
610.08	6.315
610.41	5.819
610.74	5.676
611.07	5.583
611.41	5.986
611.74	6.234
612.07	5.745
612.40	5.981
612.73	5.842
613.07	6.304
613.40	7.162
613.73	5.506
614.06	6.452
614.39	6.397
614.72	6.579
615.06	6.723
615.39	6.316
615.72	6.288
616.05	5.901
616.38	6.226
616.71	6.057
617.05	6.537
617.38	5.532
617.71	6.547
618.04	6.310
618.37	6.446
618.70	6.970
619.03	7.829
619.36	7.196
619.69	6.690
620.03	6.799
620.36	7.019
620.69	7.534
621.02	7.301
621.35	6.969
621.68	7.321
622.01	7.430
622.34	7.413
622.67	7.605
623.00	5.869
623.33	7.076
623.66	6.934
623.99	6.775
624.32	7.133
624.65	6.638
624.99	6.657
625.32	7.096
625.65	7.213
625.98	6.841
626.31	7.854
626.64	8.163
626.97	6.899
627.30	7.648
627.63	8.121
627.96	8.074
628.29	8.486
628.62	9.149
628.95	8.396
629.28	7.573
629.61	8.799
629.94	7.429
630.26	8.198
630.59	8.294
630.92	8.621
631.25	8.885
631.58	7.307
631.91	9.026
632.24	8.228
632.57	9.654
632.90	8.004
633.23	8.837
633.56	9.605
633.89	8.947
634.22	10.216
634.55	9.586
634.88	7.665
635.20	9.319
635.53	9.518
635.86	8.045
636.19	9.294
636.52	9.689
636.85	9.049
637.18	8.641
637.51	9.574
637.83	7.522
638.16	8.951
638.49	11.713
638.82	10.114
639.15	9.750
639.48	10.224
639.81	10.456
640.13	11.328
640.46	10.470
640.79	10.568
641.12	9.766
641.45	9.358
641.77	10.309
642.10	8.918
642.43	11.111
642.76	10.217
643.09	11.810
643.41	10.470
643.74	14.043
644.07	9.451
644.40	11.503
644.73	12.126
645.05	12.520
645.38	12.322
645.71	12.238
646.04	12.126
646.36	14.524
646.69	12.542
647.02	11.224
647.35	11.856
647.67	9.912
648.00	12.033
648.33	9.736
648.66	10.000
648.98	11.394
649.31	10.164
649.64	11.360
649.96	10.432
650.29	11.374
650.62	10.680
650.94	12.156
651.27	13.007
651.60	12.978
651.92	12.141
652.25	10.423
652.58	10.280
652.90	11.374
653.23	10.478
653.56	11.024
653.88	12.044
654.21	12.006
654.54	8.746
654.86	12.305
655.19	9.324
655.52	5.738
655.84	3.662
656.17	4.118
656.49	5.473
656.82	5.542
657.15	4.401
657.47	3.259
657.80	2.604
658.13	2.781
658.45	4.331
658.78	4.612
659.10	4.942
659.43	5.242
659.75	6.253
660.08	6.456
660.41	8.566
660.73	11.309
661.06	11.146
661.38	11.818
661.71	13.269
662.03	15.385
662.36	8.151
662.68	13.454
663.01	13.333
663.33	11.890
663.66	13.866
663.98	13.607
664.31	12.185
664.63	13.765
664.96	10.664
665.28	12.705
665.61	13.060
665.93	11.469
666.26	14.604
666.58	13.389
666.91	14.376
667.23	12.809
667.56	13.607
667.88	13.889
668.21	13.859
668.53	14.534
668.86	13.420
669.18	16.205
669.50	13.913
669.83	14.161
670.15	15.778
670.48	13.072
670.80	15.302
671.13	15.074
671.45	12.979
671.77	15.071
672.10	10.721
672.42	12.721
672.75	11.277
673.07	11.796
673.39	10.307
673.72	12.500
674.04	11.765
674.37	12.427
674.69	12.883
675.01	10.879
675.34	15.195
675.66	15.368
675.98	15.071
676.31	14.076
676.63	14.225
676.95	12.998
677.28	12.150
677.60	12.088
677.92	15.190
678.25	12.526
678.57	9.960
678.89	11.423
679.22	11.591
679.54	12.977
679.86	13.945
680.18	13.238
680.51	12.057
680.83	12.989
681.15	12.075
681.48	11.909
681.80	11.992
682.12	12.835
682.44	11.025
682.77	14.460
683.09	13.519
683.41	12.860
683.73	13.024
684.06	13.843
684.38	13.699
684.70	15.116
685.02	13.508
685.34	14.469
685.67	11.189
685.99	10.309
686.31	11.433
686.63	10.954
686.96	11.786
687.28	13.538
687.60	12.862
687.92	13.346
688.24	11.597
688.56	13.052
688.89	13.693
689.21	16.812
689.53	12.735
689.85	14.412
690.17	11.180
690.49	15.074
690.82	13.084
691.14	12.946
691.46	12.869
691.78	13.253
692.10	14.256
692.42	11.976
692.74	14.315
693.06	12.766
693.39	14.990
693.71	12.445
694.03	14.526
694.35	12.771
694.67	12.128
694.99	14.878
695.31	15.196
695.63	14.115
695.95	14.670
696.27	13.706
696.59	16.321
696.91	17.876
697.23	10.563
697.56	13.859
697.88	11.247
698.20	13.958
698.52	15.484
698.84	12.695
699.16	13.594
699.48	13.539
699.80	14.493
700.12	18.701
700.44	16.976
700.76	17.127
701.08	14.943
701.40	14.525
701.72	18.659
702.04	19.886
702.36	12.181
702.68	15.014
703.00	15.235
703.32	16.755
703.64	17.694
703.96	18.384
704.28	18.314
704.60	23.167
704.91	16.320
705.23	20.528
705.55	18.272
705.87	21.927
706.19	18.728
706.51	18.069
706.83	16.667
707.15	17.367
707.47	16.919
707.79	14.742
708.11	15.753
708.43	15.714
708.74	12.500
709.06	16.883
709.38	14.698
709.70	20.930
710.02	16.617
710.34	13.939
710.66	18.507
710.98	15.625
711.29	17.151
711.61	21.534
711.93	15.705
712.25	18.328
712.57	18.015
712.89	18.685
713.20	21.581
713.52	21.053
713.84	19.620
714.16	16.463
714.48	16.954
714.80	20.061
715.11	16.427
715.43	16.914
715.75	18.261
716.07	19.489
716.39	17.241
716.70	19.269
717.02	18.705
717.34	19.788
717.66	21.269
717.97	26.295
718.29	20.741
718.61	20.073
718.93	18.382
719.24	17.647
719.56	19.322
719.88	19.322
720.20	24.662
720.51	18.467
720.83	20.818
721.15	18.284
721.46	19.149
721.78	19.355
722.10	22.264
722.42	21.805
722.73	22.472
723.05	24.180
723.37	21.053
723.68	23.166
724.00	19.512
724.32	23.387
724.63	22.358
724.95	22.594
725.27	26.316
725.58	25.781
725.90	23.723
726.22	20.000
726.53	17.708
726.85	19.795
727.16	19.929
727.48	19.858
727.80	19.697
728.11	21.377
728.43	16.923
728.74	20.072
729.06	24.088
729.38	25.368
729.69	23.843
730.01	21.160
730.32	19.444
730.64	18.729
730.96	14.851
731.27	18.212
731.59	19.878
731.90	19.534
732.22	15.839
732.53	14.861
732.85	18.590
733.16	16.720
733.48	23.256
733.80	18.506
734.11	20.701
734.43	16.272
734.74	14.857
735.06	14.900
735.37	17.919
735.69	18.153
736.00	17.647
736.32	21.495
736.63	18.211
736.95	18.530
737.26	11.565
737.58	20.645
737.89	18.060
738.21	16.724
738.52	20.714
738.83	16.981
739.15	21.154
739.46	18.613
739.78	18.056
740.09	19.692
740.41	19.355
740.72	17.770
741.04	22.963
741.35	20.833
741.66	31.111
741.98	18.868
742.29	21.053
742.61	30.172
742.92	24.434
743.23	23.504
743.55	22.000
743.86	23.246
744.18	24.336
744.49	28.230
744.80	29.108
745.12	30.000
745.43	24.670
745.74	28.829
746.06	24.771
746.37	22.422
746.68	17.647
747.00	24.537
747.31	29.048
747.62	23.451
747.94	22.907
748.25	20.851
748.56	28.634
748.88	22.772
749.19	24.000
749.50	22.791
749.82	21.545
750.13	15.102
750.44	19.708
750.75	20.702
751.07	22.830
751.38	20.209
751.69	21.300
752.01	19.173
752.32	12.996
752.63	15.248
752.94	19.262
753.26	24.000
753.57	17.480
753.88	20.703
754.19	23.571
754.51	25.694
754.82	13.718
755.13	20.000
755.44	20.677
755.75	20.438
756.07	19.504
756.38	15.693
756.69	17.450
757.00	17.964
757.31	19.585
757.63	15.789
757.94	15.013
758.25	15.931
758.56	16.049
758.87	13.172
759.18	19.394
759.50	17.868
759.81	16.199
760.12	16.562
760.43	17.479
760.74	15.761
761.05	14.124
761.36	13.636
761.67	16.193
761.99	16.770
762.30	20.833
762.61	18.702
762.92	20.703
763.23	25.630
763.54	25.600
763.85	15.625
764.16	24.231
764.47	21.673
764.78	18.375
765.10	15.506
765.41	20.059
765.72	19.162
766.03	19.749
766.34	18.667
766.65	20.426
766.96	22.650
767.27	27.919
767.58	29.688
767.89	34.737
768.20	32.759
768.51	25.381
768.82	22.477
769.13	21.545
769.44	17.004
769.75	23.605
770.06	18.349
770.37	26.244
770.68	23.611
770.99	20.889
771.30	20.902
771.61	21.525
771.92	25.820
772.23	27.311
772.54	27.179
772.85	25.654
773.16	31.383
773.47	34.783
773.78	30.964
774.09	29.167
774.39	35.088
774.70	32.716
775.01	34.783
775.32	40.523
775.63	36.184
775.94	33.094
776.25	37.008
776.56	39.552
776.87	38.525
777.18	36.719
777.48	51.145
777.79	41.667
778.10	37.778
778.41	38.393
778.72	35.766
779.03	38.926
779.34	30.201
779.65	36.486
779.95	31.902
780.26	35.294
780.57	39.310
780.88	42.969
781.19	41.353
781.50	40.541
781.80	38.365
782.11	28.814
782.42	26.582
782.73	30.061
783.04	36.486
783.34	35.211
783.65	36.986
783.96	41.791
784.27	35.664
784.57	26.619
784.88	37.963
785.19	42.857
785.50	37.736
785.81	44.030
786.11	43.443
786.42	41.860
786.73	39.823
787.04	44.340
787.34	43.750
787.65	49.000
787.96	45.946
788.26	43.802
788.57	45.763
788.88	46.281
789.19	37.500
789.49	43.939
789.80	40.458
790.11	54.286
790.41	49.505
790.72	56.627
791.03	44.565
791.33	44.186
791.64	58.763
791.95	59.406
792.25	65.556
792.56	59.740
792.87	85.897
793.17	82.278
793.48	62.069
793.79	59.770
794.09	55.682
794.40	36.975
794.70	48.529
795.01	40.741
795.32	35.971
795.62	37.795
795.93	42.241
796.23	42.478
796.54	60.000
796.85	48.649
797.15	83.099
797.46	62.121
797.76	60.241
798.07	65.823
798.37	52.308
798.68	43.939
798.99	60.563
799.29	57.143
799.60	53.409
799.90	71.233
800.21	86.567
800.51	74.138
800.82	82.456
801.12	83.607
801.43	78.788
801.73	59.459
802.04	84.127
802.34	76.543
802.65	79.687
802.95	93.220
803.26	92.188
803.56	87.143
803.87	86.154
804.17	63.235
804.48	96.296
804.78	84.483
805.09	76.471
805.39	80.769
805.70	82.143
806.00	103.279
806.30	75.758
806.61	57.317
806.91	60.759
807.22	59.211
807.52	62.687
807.83	69.014
808.13	71.875
808.43	63.333
808.74	57.895
809.04	75.362
809.35	79.104
809.65	71.053
809.95	82.258
810.26	81.356
810.56	73.016
810.86	125.000
811.17	116.667
811.47	90.000
811.77	109.259
812.08	109.091
812.38	102.000
812.69	102.778
812.99	120.455
813.29	102.041
813.59	85.714
813.90	102.041
814.20	81.818
814.50	84.615
814.81	98.529
815.11	116.327
815.41	80.328
815.72	111.905
816.02	107.273
816.32	121.429
816.62	97.500
816.93	117.073
817.23	140.476
817.53	100.000
817.84	130.303
818.14	123.913
818.44	97.778
818.74	158.824
819.04	127.500
819.35	145.714
819.65	123.529
819.95	150.000
820.25	170.000
820.56	143.590
820.86	100.000
821.16	113.953
821.46	102.564
821.76	118.000
822.07	154.286
822.37	135.000
822.67	157.576
822.97	103.922
823.27	178.571
823.57	148.649
823.88	162.500
824.18	163.333
824.48	152.381
824.78	188.000
825.08	187.500
825.38	143.243
825.69	126.829
825.99	237.500
826.29	162.069
826.59	168.421
826.89	134.211
827.19	141.176
827.49	135.484
827.79	134.091
828.09	120.455
828.39	89.362
828.70	102.041
829.00	148.148
829.30	148.387
829.60	137.500
829.90	273.333
830.20	160.714
830.50	169.565
830.80	213.043
831.10	183.333
831.40	166.667
831.70	208.696
832.00	203.846
832.30	181.481
832.60	350.000
832.90	200.000
833.20	357.143
833.50	164.516
833.80	175.862
834.10	187.500
834.40	226.923
834.70	294.444
835.00	233.333
835.30	140.000
835.60	300.000
835.90	189.655
836.20	185.714
836.50	179.310
836.80	136.000
837.10	141.667
837.40	219.048
837.70	352.941
838.00	200.000
838.30	252.381
838.60	252.381
838.90	184.615
839.19	265.000
839.49	371.429
839.79	260.000
840.09	265.000
840.39	228.571
840.69	243.478
840.99	244.444
841.29	400.000
841.59	325.000
841.88	287.500
842.18	172.414
842.48	228.571
842.78	163.333
843.08	243.478
843.38	209.375
843.68	733.333
843.97	188.462
844.27	182.759
844.57	257.143
844.87	325.000
845.17	200.000
845.47	1200.000
845.76	488.889
846.06	282.353
846.36	400.000
846.66	357.143
846.96	300.000
847.25	345.455
847.55	409.091
847.85	226.087
848.15	430.000
848.44	364.286
848.74	255.556
849.04	329.412
849.34	440.000
849.63	200.000
849.93	472.727
850.23	1100.000
850.53	435.714
850.82	2000.000
851.12	-4300.000
851.42	3800.000
851.71	255.000
852.01	-1300.000
852.31	241.667
852.61	1133.333
852.90	247.619
853.20	208.000
853.50	341.176
853.79	209.524
854.09	175.000
854.39	275.000
854.68	132.432
854.98	200.000
855.28	156.667
855.57	224.138
855.87	196.296
856.17	200.000
856.46	206.667
856.76	264.706
857.05	158.621
857.35	216.667
857.65	300.000
857.94	239.130
858.24	188.462
858.53	255.000
858.83	254.545
859.13	333.333
859.42	0.000
859.72	411.111
860.01	436.364
860.31	240.909
860.60	321.053
860.90	182.609
861.20	555.556
861.49	450.000
861.79	-4100.000
862.08	512.500
862.38	295.238
862.67	300.000
862.97	364.706
863.26	644.444
863.56	272.222
863.85	383.333
864.15	600.000
864.44	360.000
864.74	766.667
865.03	575.000
865.33	289.474
865.62	409.091
865.92	407.692
866.21	366.667
866.51	0.000
866.80	418.182
867.10	880.000
867.39	415.385
867.69	454.545
867.98	315.789
868.27	390.909
868.57	300.000
868.86	-4300.000
869.16	306.250
869.45	2200.000
869.75	-3300.000
870.04	391.667
870.33	614.286
870.63	1125.000
870.92	2150.000
871.22	700.000
871.51	335.294
871.80	238.095
872.10	314.286
>>>>>End Processed Spectral Data<<<<<
