SpectraSuite Data File
++++++++++++++++++++++++++++++++++++
Date: Wed May 13 16:42:24 PDT 2015
User: schluterlab
Dark Spectrum Present: Yes
Reference Spectrum Present: Yes
Number of Sampled Component Spectra: 1
Spectrometers: USB2E3373
Integration Time (usec): 3000 (USB2E3373)
Spectra Averaged: 3 (USB2E3373)
Boxcar Smoothing: 0 (USB2E3373)
Correct for Electrical Dark: No (USB2E3373)
Strobe/Lamp Enabled: No (USB2E3373)
Correct for Detector Non-linearity: No (USB2E3373)
Correct for Stray Light: No (USB2E3373)
Number of Pixels in Processed Spectrum: 2048
>>>>>Begin Processed Spectral Data<<<<<
178.53	0.000
178.91	-1525.000
179.29	-1125.000
179.67	-194.444
180.04	-1250.000
180.42	3050.000
180.80	940.000
181.18	-1275.000
181.56	771.429
181.94	0.000
182.31	-700.000
182.69	1833.333
183.07	-612.500
183.45	-533.333
183.83	518.182
184.20	-450.000
184.58	2400.000
184.96	5000.000
185.34	-940.000
185.72	-637.500
186.09	-2150.000
186.47	2900.000
186.85	2850.000
187.23	4000.000
187.61	-1633.333
187.98	1400.000
188.36	554.545
188.74	454.545
189.12	-880.000
189.49	500.000
189.87	-3900.000
190.25	-1275.000
190.63	428.571
191.00	423.077
191.38	950.000
191.76	-875.000
192.14	1500.000
192.51	650.000
192.89	1016.667
193.27	512.500
193.65	-1075.000
194.02	570.000
194.40	900.000
194.78	570.000
195.15	458.333
195.53	560.000
195.91	-2000.000
196.29	331.250
196.66	326.316
197.04	-330.000
197.42	0.000
197.79	640.000
198.17	-4200.000
198.55	728.571
198.92	712.500
199.30	1040.000
199.68	0.000
200.05	344.444
200.43	714.286
200.81	4600.000
201.18	1966.667
201.56	-1666.667
201.94	533.333
202.31	577.778
202.69	475.000
203.07	490.000
203.44	0.000
203.82	1200.000
204.19	814.286
204.57	435.714
204.95	625.000
205.32	1600.000
205.70	572.727
206.08	385.714
206.45	2500.000
206.83	325.000
207.20	900.000
207.58	600.000
207.96	294.444
208.33	712.500
208.71	-850.000
209.08	842.857
209.46	644.444
209.84	372.727
210.21	-1566.667
210.59	1450.000
210.96	-650.000
211.34	2550.000
211.71	540.000
212.09	700.000
212.46	0.000
212.84	1700.000
213.22	1525.000
213.59	-4300.000
213.97	783.333
214.34	785.714
214.72	609.091
215.09	940.000
215.47	-2700.000
215.84	-2300.000
216.22	1966.667
216.59	435.714
216.97	1000.000
217.34	472.727
217.72	-950.000
218.09	0.000
218.47	-5000.000
218.84	611.111
219.22	600.000
219.59	1800.000
219.97	-814.286
220.34	880.000
220.72	-1200.000
221.09	392.857
221.47	1425.000
221.84	-950.000
222.22	0.000
222.59	1425.000
222.97	-2300.000
223.34	1040.000
223.72	484.615
224.09	1080.000
224.46	1950.000
224.84	-4900.000
225.21	-960.000
225.59	-4300.000
225.96	590.000
226.34	300.000
226.71	2800.000
227.08	587.500
227.46	540.000
227.83	-975.000
228.21	-2400.000
228.58	677.778
228.95	-2150.000
229.33	-2050.000
229.70	1866.667
230.08	771.429
230.45	-880.000
230.82	400.000
231.20	800.000
231.57	571.429
231.95	433.333
232.32	254.545
232.69	436.364
233.07	642.857
233.44	369.231
233.81	-1266.667
234.19	321.053
234.56	475.000
234.93	366.667
235.31	372.727
235.68	315.385
236.05	307.143
236.43	190.909
236.80	273.684
237.17	4400.000
237.55	252.381
237.92	207.143
238.29	204.762
238.67	119.355
239.04	168.966
239.41	141.667
239.79	97.826
240.16	109.524
240.53	106.818
240.91	88.235
241.28	98.000
241.65	100.000
242.02	75.362
242.40	67.742
242.77	66.667
243.14	67.742
243.51	58.427
243.89	50.588
244.26	56.667
244.63	50.538
245.00	52.128
245.38	41.584
245.75	39.252
246.12	42.202
246.49	43.796
246.87	41.600
247.24	40.769
247.61	34.286
247.98	31.373
248.36	24.324
248.73	36.306
249.10	31.210
249.47	27.119
249.84	31.551
250.22	26.738
250.59	25.444
250.96	27.273
251.33	27.488
251.70	31.188
252.08	22.381
252.45	24.664
252.82	22.609
253.19	20.851
253.56	21.961
253.94	25.726
254.31	21.484
254.68	23.077
255.05	19.926
255.42	17.480
255.79	19.485
256.16	23.827
256.54	18.375
256.91	18.149
257.28	14.388
257.65	15.182
258.02	16.460
258.39	16.719
258.76	16.388
259.14	19.643
259.51	18.845
259.88	11.801
260.25	16.918
260.62	15.029
260.99	14.286
261.36	16.216
261.73	14.613
262.10	14.826
262.47	15.211
262.85	13.092
263.22	15.670
263.59	16.239
263.96	14.011
264.33	16.710
264.70	11.316
265.07	13.555
265.44	11.616
265.81	12.895
266.18	14.322
266.55	12.927
266.92	13.268
267.29	13.426
267.66	13.991
268.03	11.818
268.40	12.150
268.77	10.024
269.14	10.135
269.51	15.124
269.88	13.054
270.25	13.093
270.62	11.685
270.99	12.473
271.36	11.588
271.73	9.346
272.10	11.087
272.47	11.828
272.84	12.554
273.21	14.675
273.58	10.262
273.95	9.644
274.32	10.124
274.69	10.064
275.06	10.630
275.43	12.979
275.80	10.421
276.17	7.332
276.54	11.227
276.91	11.462
277.28	10.742
277.65	10.058
278.02	9.524
278.39	11.523
278.76	9.636
279.13	12.642
279.50	10.242
279.87	8.765
280.23	10.778
280.60	10.058
280.97	8.688
281.34	11.150
281.71	10.909
282.08	9.981
282.45	8.182
282.82	10.480
283.19	7.843
283.56	11.053
283.92	9.306
284.29	8.113
284.66	9.256
285.03	8.499
285.40	7.570
285.77	8.754
286.14	8.808
286.51	11.167
286.87	10.427
287.24	10.586
287.61	8.026
287.98	9.578
288.35	9.350
288.72	9.034
289.08	9.546
289.45	8.072
289.82	9.431
290.19	8.634
290.56	9.495
290.93	9.063
291.29	8.129
291.66	8.260
292.03	11.919
292.40	11.013
292.77	8.728
293.13	9.403
293.50	8.892
293.87	9.037
294.24	7.259
294.60	7.569
294.97	7.558
295.34	8.039
295.71	8.239
296.08	6.980
296.44	7.565
296.81	7.133
297.18	9.214
297.55	6.201
297.91	7.784
298.28	8.969
298.65	8.877
299.02	8.037
299.38	6.906
299.75	6.065
300.12	7.280
300.48	7.000
300.85	7.398
301.22	7.134
301.59	7.828
301.95	8.690
302.32	9.114
302.69	7.168
303.05	7.515
303.42	7.160
303.79	8.267
304.15	5.828
304.52	5.330
304.89	6.504
305.25	6.148
305.62	8.834
305.99	7.556
306.35	7.383
306.72	6.502
307.09	8.435
307.45	8.671
307.82	6.808
308.19	7.616
308.55	7.551
308.92	7.197
309.29	6.969
309.65	6.363
310.02	6.237
310.38	6.989
310.75	7.286
311.12	7.165
311.48	7.732
311.85	7.652
312.22	7.492
312.58	7.484
312.95	7.497
313.31	6.117
313.68	6.653
314.05	9.369
314.41	7.638
314.78	6.747
315.14	7.746
315.51	5.973
315.87	8.218
316.24	7.051
316.61	6.628
316.97	6.360
317.34	6.654
317.70	6.692
318.07	7.411
318.43	7.436
318.80	7.216
319.16	7.533
319.53	6.285
319.89	7.524
320.26	8.100
320.62	6.845
320.99	6.667
321.35	7.576
321.72	7.084
322.08	8.490
322.45	8.458
322.81	8.236
323.18	7.707
323.54	7.792
323.91	7.075
324.27	7.553
324.64	7.083
325.00	6.763
325.37	7.461
325.73	7.720
326.10	6.708
326.46	7.079
326.83	6.903
327.19	7.088
327.56	6.359
327.92	7.437
328.29	6.832
328.65	6.169
329.01	6.859
329.38	7.123
329.74	6.833
330.11	6.598
330.47	8.081
330.84	9.007
331.20	6.648
331.56	8.165
331.93	6.852
332.29	7.098
332.66	7.522
333.02	7.495
333.38	7.136
333.75	7.932
334.11	7.295
334.48	6.921
334.84	7.813
335.20	7.091
335.57	6.528
335.93	6.607
336.29	6.868
336.66	6.312
337.02	5.701
337.38	7.037
337.75	7.219
338.11	6.983
338.47	6.722
338.84	6.874
339.20	6.697
339.56	8.850
339.93	6.182
340.29	6.703
340.65	7.308
341.02	6.283
341.38	6.495
341.74	6.316
342.11	6.987
342.47	7.137
342.83	6.592
343.20	7.965
343.56	6.824
343.92	7.368
344.28	7.398
344.65	6.879
345.01	6.397
345.37	5.660
345.73	7.107
346.10	6.479
346.46	7.034
346.82	6.919
347.19	6.349
347.55	6.650
347.91	7.039
348.27	6.984
348.63	6.940
349.00	5.825
349.36	6.650
349.72	6.897
350.08	5.267
350.45	5.858
350.81	6.986
351.17	6.321
351.53	5.651
351.89	5.858
352.26	6.946
352.62	7.298
352.98	6.321
353.34	6.902
353.70	5.646
354.07	6.452
354.43	6.429
354.79	6.356
355.15	6.065
355.51	6.235
355.87	6.694
356.24	5.863
356.60	5.694
356.96	5.149
357.32	6.541
357.68	6.220
358.04	5.938
358.40	7.047
358.77	6.495
359.13	6.156
359.49	6.275
359.85	4.286
360.21	5.423
360.57	6.848
360.93	6.385
361.29	5.896
361.66	5.263
362.02	6.567
362.38	5.779
362.74	6.176
363.10	5.625
363.46	5.649
363.82	6.122
364.18	5.580
364.54	6.686
364.90	5.453
365.26	5.515
365.62	5.917
365.98	5.551
366.35	5.158
366.71	6.074
367.07	5.681
367.43	5.733
367.79	5.996
368.15	7.040
368.51	5.451
368.87	5.639
369.23	5.925
369.59	6.662
369.95	6.029
370.31	6.410
370.67	5.797
371.03	7.491
371.39	6.414
371.75	6.029
372.11	5.974
372.47	6.745
372.83	6.556
373.19	5.925
373.55	5.322
373.91	6.259
374.27	5.704
374.63	5.745
374.99	6.568
375.35	5.373
375.71	5.415
376.07	6.447
376.42	5.640
376.78	6.229
377.14	5.427
377.50	6.026
377.86	5.652
378.22	6.700
378.58	4.825
378.94	5.280
379.30	5.280
379.66	5.774
380.02	4.975
380.38	5.707
380.74	6.062
381.09	5.318
381.45	6.515
381.81	6.388
382.17	6.178
382.53	6.164
382.89	6.111
383.25	5.003
383.61	5.948
383.97	6.004
384.32	6.176
384.68	5.824
385.04	5.716
385.40	6.006
385.76	6.757
386.12	5.376
386.48	6.167
386.83	6.158
387.19	6.741
387.55	6.494
387.91	5.139
388.27	6.438
388.62	6.331
388.98	5.774
389.34	6.946
389.70	5.579
390.06	6.464
390.42	6.031
390.77	6.489
391.13	5.616
391.49	7.043
391.85	5.220
392.20	5.741
392.56	6.313
392.92	5.886
393.28	4.615
393.64	5.875
393.99	6.597
394.35	5.831
394.71	6.336
395.07	5.857
395.42	5.624
395.78	6.298
396.14	5.835
396.50	6.391
396.85	6.612
397.21	5.919
397.57	6.200
397.92	5.649
398.28	5.717
398.64	6.272
399.00	5.204
399.35	5.133
399.71	5.903
400.07	5.973
400.42	6.564
400.78	6.152
401.14	5.854
401.49	5.851
401.85	5.445
402.21	5.509
402.57	5.120
402.92	6.683
403.28	5.996
403.63	5.012
403.99	5.350
404.35	5.758
404.70	6.295
405.06	5.183
405.42	5.427
405.77	5.314
406.13	5.361
406.49	5.381
406.84	6.084
407.20	4.965
407.55	5.999
407.91	6.267
408.27	5.169
408.62	6.020
408.98	5.147
409.34	5.289
409.69	5.548
410.05	5.328
410.40	5.382
410.76	5.556
411.11	6.273
411.47	5.240
411.83	5.803
412.18	4.762
412.54	5.293
412.89	5.904
413.25	5.667
413.60	5.188
413.96	5.282
414.31	5.346
414.67	5.513
415.03	5.033
415.38	6.057
415.74	5.531
416.09	5.421
416.45	5.221
416.80	5.354
417.16	6.769
417.51	6.503
417.87	5.138
418.22	5.931
418.58	5.875
418.93	6.204
419.29	6.047
419.64	6.423
420.00	5.549
420.35	6.203
420.71	5.559
421.06	5.489
421.42	5.380
421.77	6.110
422.12	5.053
422.48	4.479
422.83	5.300
423.19	5.691
423.54	5.804
423.90	5.391
424.25	5.751
424.61	5.238
424.96	5.073
425.31	5.205
425.67	5.112
426.02	5.543
426.38	5.678
426.73	5.910
427.09	4.681
427.44	6.038
427.79	5.520
428.15	5.357
428.50	5.851
428.85	6.019
429.21	5.080
429.56	5.029
429.92	4.781
430.27	5.263
430.62	5.479
430.98	5.501
431.33	5.361
431.68	5.340
432.04	5.644
432.39	4.854
432.74	5.506
433.10	5.207
433.45	5.539
433.80	4.823
434.16	5.182
434.51	5.105
434.86	5.701
435.22	5.170
435.57	6.079
435.92	4.447
436.28	5.813
436.63	6.623
436.98	5.094
437.34	5.784
437.69	5.601
438.04	5.677
438.39	5.075
438.75	5.811
439.10	5.140
439.45	6.139
439.81	5.136
440.16	5.647
440.51	4.862
440.86	5.906
441.22	4.950
441.57	5.892
441.92	5.681
442.27	5.544
442.63	5.477
442.98	6.197
443.33	5.761
443.68	5.421
444.03	5.612
444.39	4.820
444.74	5.519
445.09	5.175
445.44	4.921
445.79	5.492
446.15	5.664
446.50	5.493
446.85	5.653
447.20	5.099
447.55	5.025
447.91	5.681
448.26	5.843
448.61	5.370
448.96	6.091
449.31	5.568
449.66	5.853
450.02	4.680
450.37	5.669
450.72	5.527
451.07	5.606
451.42	5.350
451.77	6.166
452.12	5.600
452.47	6.343
452.83	4.779
453.18	5.807
453.53	5.999
453.88	5.848
454.23	5.559
454.58	5.875
454.93	6.167
455.28	5.237
455.63	5.643
455.98	6.369
456.34	5.088
456.69	5.636
457.04	5.697
457.39	5.494
457.74	5.398
458.09	5.463
458.44	5.815
458.79	4.881
459.14	5.756
459.49	5.779
459.84	5.042
460.19	4.891
460.54	5.266
460.89	5.266
461.24	5.586
461.59	7.379
461.94	5.425
462.29	5.875
462.64	6.382
462.99	5.725
463.34	6.733
463.69	5.754
464.04	5.855
464.39	6.551
464.74	6.120
465.09	5.428
465.44	5.152
465.79	4.922
466.14	5.255
466.49	5.061
466.84	6.130
467.19	6.156
467.54	6.375
467.89	5.882
468.24	6.341
468.59	5.800
468.94	5.559
469.29	6.170
469.64	6.024
469.99	6.901
470.34	5.218
470.68	5.819
471.03	5.714
471.38	5.212
471.73	6.596
472.08	6.316
472.43	5.465
472.78	5.530
473.13	6.675
473.48	5.743
473.83	6.037
474.17	5.600
474.52	6.141
474.87	6.130
475.22	5.514
475.57	5.266
475.92	5.629
476.27	5.468
476.61	5.792
476.96	4.783
477.31	5.024
477.66	5.689
478.01	4.548
478.36	5.553
478.70	5.296
479.05	5.112
479.40	5.732
479.75	4.931
480.10	5.119
480.45	4.902
480.79	4.873
481.14	4.941
481.49	5.411
481.84	4.390
482.19	5.043
482.53	5.183
482.88	5.165
483.23	4.860
483.58	5.232
483.92	5.295
484.27	4.488
484.62	4.784
484.97	4.415
485.31	4.555
485.66	3.736
486.01	3.279
486.36	3.190
486.70	3.459
487.05	3.428
487.40	3.754
487.75	3.888
488.09	4.186
488.44	4.036
488.79	4.991
489.13	4.622
489.48	4.690
489.83	4.489
490.17	4.735
490.52	4.384
490.87	4.613
491.22	4.047
491.56	4.237
491.91	5.444
492.26	4.823
492.60	4.931
492.95	4.537
493.30	4.346
493.64	4.713
493.99	5.014
494.34	4.764
494.68	5.357
495.03	4.605
495.37	5.072
495.72	4.825
496.07	4.919
496.41	5.000
496.76	4.881
497.11	4.502
497.45	4.797
497.80	5.134
498.14	4.589
498.49	4.878
498.84	5.177
499.18	4.429
499.53	5.413
499.87	4.986
500.22	5.228
500.56	5.243
500.91	4.327
501.26	4.647
501.60	5.553
501.95	4.812
502.29	5.530
502.64	4.749
502.98	4.862
503.33	4.936
503.67	5.290
504.02	5.051
504.36	5.147
504.71	4.690
505.06	5.012
505.40	4.861
505.75	4.725
506.09	4.859
506.44	4.933
506.78	5.407
507.13	5.149
507.47	5.808
507.82	5.167
508.16	5.268
508.51	4.718
508.85	4.667
509.19	5.306
509.54	4.847
509.88	4.791
510.23	5.707
510.57	5.418
510.92	5.127
511.26	5.293
511.61	5.342
511.95	5.167
512.30	4.242
512.64	5.212
512.98	5.895
513.33	5.246
513.67	5.123
514.02	4.275
514.36	5.407
514.70	5.147
515.05	5.131
515.39	5.777
515.74	5.068
516.08	5.925
516.42	6.271
516.77	5.518
517.11	4.994
517.46	6.095
517.80	5.575
518.14	4.690
518.49	5.426
518.83	6.193
519.17	6.005
519.52	5.999
519.86	5.248
520.20	6.358
520.55	6.344
520.89	5.900
521.23	6.755
521.58	5.822
521.92	6.001
522.26	5.796
522.61	5.732
522.95	5.709
523.29	5.052
523.64	6.037
523.98	6.100
524.32	5.971
524.66	6.795
525.01	5.882
525.35	5.143
525.69	6.096
526.04	6.293
526.38	6.162
526.72	6.319
527.06	6.403
527.41	5.446
527.75	5.788
528.09	6.166
528.43	5.991
528.78	6.822
529.12	6.000
529.46	5.389
529.80	5.569
530.15	6.480
530.49	5.723
530.83	6.013
531.17	6.723
531.51	6.874
531.86	6.839
532.20	6.454
532.54	6.791
532.88	6.354
533.22	6.996
533.57	5.802
533.91	6.382
534.25	5.711
534.59	5.979
534.93	6.484
535.27	6.216
535.62	6.471
535.96	5.775
536.30	5.340
536.64	6.310
536.98	5.972
537.32	6.122
537.66	5.800
538.01	6.386
538.35	6.141
538.69	6.701
539.03	5.263
539.37	5.176
539.71	4.796
540.05	6.013
540.39	5.050
540.73	5.951
541.07	6.295
541.42	6.132
541.76	7.355
542.10	5.886
542.44	5.960
542.78	6.917
543.12	5.310
543.46	6.361
543.80	6.571
544.14	5.263
544.48	6.540
544.82	5.388
545.16	5.986
545.50	5.913
545.84	5.780
546.18	6.061
546.52	6.125
546.86	5.498
547.20	6.473
547.54	5.277
547.88	7.079
548.22	6.040
548.56	5.975
548.90	6.082
549.24	5.926
549.58	6.412
549.92	6.387
550.26	7.031
550.60	5.947
550.94	6.056
551.28	4.901
551.62	6.398
551.96	5.754
552.30	6.553
552.64	5.950
552.98	6.169
553.32	6.271
553.66	6.748
554.00	6.452
554.34	6.280
554.68	6.652
555.02	6.417
555.36	6.124
555.69	5.616
556.03	6.326
556.37	5.525
556.71	5.252
557.05	6.513
557.39	5.878
557.73	6.140
558.07	6.236
558.41	5.499
558.75	6.172
559.08	5.667
559.42	5.896
559.76	6.544
560.10	6.495
560.44	6.359
560.78	4.857
561.12	5.607
561.45	5.867
561.79	5.999
562.13	5.634
562.47	6.079
562.81	5.230
563.15	5.753
563.48	6.366
563.82	6.197
564.16	5.625
564.50	6.120
564.84	5.626
565.17	4.826
565.51	5.495
565.85	5.838
566.19	5.322
566.52	6.016
566.86	5.666
567.20	5.483
567.54	4.795
567.88	4.780
568.21	5.503
568.55	5.359
568.89	4.864
569.23	4.768
569.56	4.332
569.90	4.264
570.24	4.162
570.57	4.080
570.91	4.040
571.25	4.077
571.59	3.859
571.92	3.773
572.26	3.928
572.60	4.024
572.93	3.898
573.27	3.904
573.61	4.243
573.95	3.850
574.28	3.492
574.62	3.571
574.96	3.799
575.29	3.540
575.63	3.582
575.97	3.619
576.30	3.850
576.64	3.589
576.98	3.379
577.31	3.558
577.65	3.366
577.98	3.418
578.32	3.276
578.66	3.480
578.99	3.470
579.33	3.510
579.67	3.333
580.00	3.668
580.34	3.560
580.67	3.451
581.01	3.755
581.35	3.518
581.68	3.217
582.02	3.166
582.35	3.237
582.69	3.089
583.02	3.181
583.36	3.620
583.70	3.546
584.03	3.710
584.37	3.715
584.70	3.370
585.04	3.987
585.37	3.588
585.71	3.618
586.04	3.672
586.38	3.814
586.72	3.866
587.05	3.396
587.39	3.562
587.72	3.685
588.06	3.629
588.39	3.786
588.73	3.755
589.06	3.802
589.40	3.771
589.73	4.013
590.07	3.808
590.40	4.311
590.73	4.215
591.07	4.599
591.40	4.471
591.74	4.719
592.07	4.930
592.41	4.713
592.74	4.195
593.08	4.297
593.41	3.765
593.75	3.966
594.08	4.291
594.41	4.171
594.75	4.067
595.08	4.295
595.42	4.308
595.75	4.238
596.09	4.544
596.42	4.715
596.75	4.432
597.09	4.805
597.42	4.047
597.75	4.700
598.09	4.435
598.42	4.854
598.76	3.851
599.09	4.409
599.42	4.221
599.76	4.209
600.09	4.007
600.42	4.054
600.76	4.500
601.09	3.934
601.42	3.805
601.76	4.630
602.09	4.585
602.42	4.618
602.76	4.837
603.09	4.288
603.42	4.295
603.76	3.963
604.09	4.071
604.42	4.199
604.76	5.230
605.09	4.587
605.42	4.233
605.75	4.677
606.09	4.270
606.42	3.841
606.75	4.479
607.09	4.604
607.42	4.193
607.75	3.966
608.08	4.082
608.42	5.334
608.75	4.509
609.08	4.810
609.41	4.569
609.75	4.621
610.08	4.713
610.41	3.771
610.74	4.541
611.07	5.237
611.41	4.563
611.74	4.977
612.07	4.710
612.40	5.142
612.73	4.895
613.07	5.119
613.40	4.897
613.73	4.248
614.06	5.108
614.39	5.716
614.72	5.474
615.06	4.674
615.39	4.936
615.72	4.806
616.05	4.944
616.38	4.725
616.71	5.048
617.05	5.124
617.38	4.811
617.71	4.384
618.04	5.288
618.37	5.381
618.70	4.854
619.03	6.447
619.36	5.703
619.69	5.634
620.03	6.113
620.36	5.749
620.69	6.370
621.02	6.932
621.35	5.951
621.68	5.452
622.01	6.192
622.34	5.976
622.67	5.475
623.00	5.503
623.33	5.218
623.66	5.790
623.99	5.302
624.32	5.421
624.65	5.720
624.99	5.099
625.32	4.634
625.65	5.860
625.98	5.688
626.31	6.687
626.64	6.857
626.97	6.318
627.30	5.736
627.63	7.629
627.96	7.317
628.29	6.649
628.62	7.685
628.95	8.113
629.28	7.391
629.61	6.874
629.94	6.667
630.26	5.720
630.59	7.340
630.92	6.992
631.25	7.009
631.58	9.910
631.91	7.302
632.24	7.595
632.57	8.185
632.90	7.895
633.23	7.047
633.56	8.136
633.89	7.701
634.22	7.491
634.55	8.284
634.88	6.946
635.20	9.080
635.53	7.590
635.86	8.045
636.19	8.118
636.52	7.843
636.85	7.102
637.18	7.834
637.51	9.574
637.83	6.042
638.16	8.312
638.49	8.690
638.82	9.735
639.15	8.875
639.48	8.105
639.81	9.383
640.13	9.635
640.46	9.799
640.79	9.511
641.12	7.428
641.45	8.939
641.77	7.069
642.10	9.064
642.43	9.309
642.76	8.359
643.09	9.356
643.41	9.256
643.74	10.494
644.07	10.061
644.40	10.890
644.73	10.866
645.05	11.727
645.38	9.479
645.71	9.984
646.04	9.635
646.36	10.351
646.69	12.709
647.02	9.864
647.35	10.481
647.67	10.973
648.00	11.382
648.33	9.901
648.66	9.545
648.98	9.745
649.31	8.221
649.64	10.463
649.96	10.879
650.29	10.427
650.62	8.414
650.94	11.345
651.27	10.980
651.60	10.316
651.92	10.543
652.25	9.283
652.58	10.280
652.90	8.689
653.23	8.475
653.56	9.606
653.88	12.361
654.21	11.374
654.54	9.406
654.86	9.657
655.19	8.784
655.52	4.005
655.84	2.373
656.17	2.530
656.49	3.309
656.82	3.344
657.15	2.697
657.47	1.960
657.80	1.671
658.13	1.735
658.45	2.755
658.78	2.921
659.10	3.356
659.43	3.880
659.75	4.198
660.08	4.810
660.41	7.263
660.73	8.895
661.06	9.713
661.38	12.545
661.71	11.923
662.03	12.229
662.36	9.742
662.68	13.052
663.01	12.727
663.33	11.040
663.66	11.345
663.98	10.583
664.31	11.345
664.63	9.312
664.96	11.871
665.28	13.115
665.61	12.086
665.93	9.457
666.26	11.968
666.58	11.925
666.91	12.474
667.23	11.236
667.56	12.959
667.88	12.393
668.21	13.433
668.53	11.063
668.86	11.039
669.18	14.925
669.50	11.522
669.83	16.993
670.15	11.556
670.48	11.111
670.80	14.009
671.13	12.102
671.45	11.064
671.77	13.646
672.10	12.015
672.42	12.544
672.75	11.277
673.07	9.859
673.39	9.222
673.72	9.375
674.04	10.196
674.37	12.039
674.69	10.225
675.01	11.925
675.34	14.168
675.66	14.526
675.98	13.849
676.31	13.235
676.63	14.013
676.95	12.788
677.28	10.047
677.60	11.209
677.92	12.869
678.25	12.320
678.57	10.359
678.89	11.423
679.22	11.198
679.54	12.405
679.86	12.477
680.18	11.091
680.51	9.220
680.83	10.854
681.15	11.887
681.48	11.153
681.80	11.412
682.12	10.728
682.44	11.799
682.77	11.202
683.09	16.309
683.41	12.860
683.73	12.141
684.06	11.777
684.38	11.742
684.70	13.566
685.02	12.758
685.34	10.440
685.67	8.217
685.99	10.309
686.31	9.044
686.63	8.834
686.96	10.357
687.28	9.386
687.60	10.145
687.92	13.163
688.24	11.597
688.56	10.843
688.89	13.071
689.21	12.664
689.53	14.196
689.85	13.525
690.17	11.180
690.49	15.074
690.82	12.383
691.14	13.170
691.46	9.916
691.78	14.458
692.10	13.636
692.42	14.571
692.74	10.166
693.06	12.340
693.39	11.910
693.71	12.227
694.03	13.895
694.35	11.039
694.67	13.272
694.99	12.683
695.31	13.725
695.63	13.397
695.95	15.403
696.27	11.675
696.59	11.140
696.91	14.508
697.23	13.380
697.56	14.072
697.88	9.407
698.20	10.833
698.52	12.258
698.84	14.254
699.16	13.134
699.48	11.639
699.80	12.802
700.12	16.104
700.44	13.263
700.76	13.812
701.08	14.080
701.40	14.246
701.72	16.618
702.04	17.898
702.36	14.164
702.68	15.297
703.00	14.404
703.32	14.628
703.64	15.818
703.96	15.042
704.28	15.116
704.60	16.716
704.91	18.101
705.23	19.062
705.55	14.618
705.87	20.598
706.19	16.254
706.51	15.265
706.83	16.970
707.15	14.286
707.47	14.394
707.79	15.479
708.11	15.982
708.43	14.048
708.74	11.224
709.06	16.623
709.38	15.748
709.70	18.023
710.02	16.617
710.34	16.970
710.66	15.224
710.98	18.750
711.29	16.860
711.61	18.584
711.93	12.179
712.25	19.936
712.57	13.603
712.89	17.647
713.20	18.845
713.52	21.053
713.84	14.241
714.16	14.939
714.48	17.241
714.80	19.757
715.11	15.274
715.43	15.134
715.75	18.841
716.07	15.974
716.39	14.734
716.70	17.940
717.02	19.784
717.34	16.961
717.66	20.896
717.97	19.522
718.29	17.778
718.61	17.883
718.93	18.382
719.24	19.723
719.56	15.254
719.88	20.678
720.20	20.946
720.51	18.815
720.83	19.331
721.15	13.806
721.46	16.312
721.78	22.222
722.10	22.642
722.42	18.421
722.73	20.225
723.05	20.082
723.37	20.648
723.68	22.008
724.00	17.480
724.32	20.968
724.63	18.699
724.95	19.665
725.27	19.838
725.58	22.656
725.90	19.343
726.22	19.623
726.53	15.625
726.85	19.113
727.16	22.776
727.48	22.695
727.80	22.348
728.11	21.377
728.43	19.615
728.74	18.638
729.06	22.628
729.38	22.426
729.69	20.285
730.01	13.993
730.32	17.014
730.64	20.067
730.96	19.472
731.27	18.543
731.59	16.514
731.90	16.035
732.22	19.565
732.53	14.551
732.85	19.231
733.16	17.685
733.48	19.269
733.80	17.532
734.11	18.790
734.43	20.118
734.74	14.857
735.06	16.905
735.37	18.786
735.69	17.516
736.00	18.627
736.32	17.757
736.63	16.933
736.95	18.211
737.26	12.585
737.58	16.452
737.89	18.729
738.21	18.771
738.52	19.643
738.83	20.000
739.15	20.385
739.46	18.978
739.78	17.361
740.09	18.769
740.41	18.065
740.72	16.028
741.04	20.000
741.35	22.917
741.66	21.778
741.98	21.698
742.29	25.359
742.61	30.172
742.92	22.624
743.23	20.940
743.55	20.400
743.86	22.368
744.18	28.761
744.49	29.187
744.80	28.169
745.12	26.818
745.43	20.264
745.74	31.081
746.06	25.229
746.37	22.870
746.68	28.507
747.00	24.537
747.31	28.095
747.62	15.487
747.94	19.383
748.25	20.000
748.56	29.956
748.88	22.277
749.19	27.000
749.50	21.860
749.82	21.951
750.13	20.816
750.44	20.438
750.75	18.596
751.07	21.865
751.38	22.648
751.69	19.856
752.01	19.549
752.32	19.134
752.63	20.922
752.94	16.393
753.26	23.600
753.57	19.919
753.88	24.609
754.19	20.000
754.51	22.917
754.82	14.440
755.13	23.774
755.44	23.684
755.75	19.343
756.07	20.213
756.38	13.139
756.69	21.477
757.00	16.766
757.31	17.507
757.63	14.912
757.94	16.890
758.25	15.686
758.56	15.309
758.87	14.785
759.18	16.970
759.50	17.555
759.81	18.069
760.12	13.125
760.43	14.900
760.74	16.576
761.05	14.689
761.36	16.578
761.67	17.898
761.99	18.323
762.30	20.139
762.61	17.176
762.92	22.656
763.23	24.790
763.54	24.000
763.85	17.187
764.16	20.769
764.47	23.194
764.78	19.081
765.10	15.506
765.41	19.174
765.72	19.760
766.03	20.376
766.34	18.667
766.65	24.681
766.96	23.932
767.27	28.426
767.58	28.646
767.89	33.684
768.20	29.310
768.51	22.843
768.82	27.523
769.13	19.512
769.44	19.838
769.75	24.034
770.06	19.725
770.37	25.339
770.68	26.852
770.99	23.556
771.30	22.541
771.61	25.112
771.92	24.180
772.23	26.891
772.54	26.154
772.85	28.796
773.16	36.170
773.47	31.522
773.78	36.041
774.09	26.190
774.39	34.503
774.70	32.099
775.01	34.058
775.32	35.294
775.63	35.526
775.94	33.813
776.25	44.094
776.56	35.075
776.87	41.803
777.18	33.594
777.48	45.038
777.79	35.606
778.10	40.741
778.41	34.821
778.72	30.657
779.03	34.228
779.34	37.584
779.65	28.378
779.95	35.583
780.26	43.137
780.57	42.069
780.88	46.094
781.19	36.090
781.50	36.486
781.80	34.591
782.11	25.989
782.42	34.810
782.73	26.994
783.04	39.865
783.34	38.732
783.65	41.096
783.96	50.000
784.27	37.063
784.57	35.971
784.88	34.259
785.19	42.857
785.50	43.396
785.81	48.507
786.11	45.082
786.42	46.512
786.73	45.133
787.04	49.057
787.34	51.786
787.65	47.000
787.96	44.144
788.26	42.975
788.57	48.305
788.88	47.107
789.19	43.750
789.49	39.394
789.80	49.618
790.11	53.333
790.41	56.436
790.72	61.446
791.03	53.261
791.33	53.488
791.64	55.670
791.95	55.446
792.25	54.444
792.56	58.442
792.87	71.795
793.17	74.684
793.48	70.115
793.79	60.920
794.09	70.455
794.40	49.580
794.70	46.324
795.01	38.519
795.32	41.007
795.62	44.094
795.93	42.241
796.23	44.248
796.54	54.118
796.85	60.811
797.15	92.958
797.46	68.182
797.76	69.880
798.07	59.494
798.37	66.154
798.68	77.273
798.99	56.338
799.29	66.234
799.60	55.682
799.90	72.603
800.21	82.090
800.51	89.655
800.82	89.474
801.12	77.049
801.43	86.364
801.73	63.514
802.04	92.063
802.34	75.309
802.65	76.563
802.95	84.746
803.26	93.750
803.56	60.000
803.87	66.154
804.17	82.353
804.48	112.963
804.78	81.034
805.09	79.412
805.39	86.538
805.70	75.000
806.00	75.410
806.30	63.636
806.61	70.732
806.91	68.354
807.22	61.842
807.52	47.761
807.83	81.690
808.13	84.375
808.43	93.333
808.74	67.105
809.04	91.304
809.35	71.642
809.65	71.053
809.95	101.613
810.26	79.661
810.56	100.000
810.86	104.545
811.17	123.810
811.47	90.000
811.77	96.296
812.08	100.000
812.38	100.000
812.69	144.444
812.99	118.182
813.29	93.878
813.59	95.238
813.90	112.245
814.20	92.727
814.50	76.923
814.81	76.471
815.11	100.000
815.41	90.164
815.72	121.429
816.02	121.818
816.32	126.190
816.62	130.000
816.93	124.390
817.23	130.952
817.53	104.545
817.84	139.394
818.14	113.043
818.44	131.111
818.74	129.412
819.04	105.000
819.35	125.714
819.65	161.765
819.95	153.571
820.25	200.000
820.56	166.667
820.86	115.909
821.16	144.186
821.46	115.385
821.76	110.000
822.07	145.714
822.37	140.000
822.67	139.394
822.97	98.039
823.27	150.000
823.57	140.541
823.88	167.500
824.18	206.667
824.48	142.857
824.78	176.000
825.08	145.833
825.38	159.459
825.69	117.073
825.99	200.000
826.29	151.724
826.59	128.947
826.89	97.368
827.19	152.941
827.49	154.839
827.79	106.818
828.09	138.636
828.39	91.489
828.70	132.653
829.00	137.037
829.30	164.516
829.60	112.500
829.90	273.333
830.20	153.571
830.50	204.348
830.80	221.739
831.10	180.000
831.40	173.333
831.70	160.870
832.00	246.154
832.30	166.667
832.60	293.750
832.90	216.667
833.20	371.429
833.50	196.774
833.80	186.207
834.10	184.375
834.40	234.615
834.70	316.667
835.00	276.190
835.30	160.000
835.60	276.923
835.90	186.207
836.20	314.286
836.50	175.862
836.80	200.000
837.10	163.889
837.40	276.190
837.70	241.176
838.00	207.407
838.30	204.762
838.60	276.190
838.90	223.077
839.19	255.000
839.49	350.000
839.79	320.000
840.09	295.000
840.39	252.381
840.69	230.435
840.99	283.333
841.29	380.000
841.59	266.667
841.88	312.500
842.18	158.621
842.48	242.857
842.78	196.667
843.08	230.435
843.38	171.875
843.68	716.667
843.97	226.923
844.27	193.103
844.57	252.381
844.87	337.500
845.17	248.148
845.47	1266.667
845.76	500.000
846.06	276.471
846.36	537.500
846.66	357.143
846.96	281.250
847.25	409.091
847.55	390.909
847.85	256.522
848.15	490.000
848.44	285.714
848.74	238.889
849.04	311.765
849.34	550.000
849.63	268.421
849.93	409.091
850.23	940.000
850.53	364.286
850.82	2600.000
851.12	-3600.000
851.42	4000.000
851.71	220.000
852.01	-1400.000
852.31	220.833
852.61	1800.000
852.90	266.667
853.20	224.000
853.50	305.882
853.79	238.095
854.09	208.333
854.39	300.000
854.68	156.757
854.98	135.484
855.28	156.667
855.57	196.552
855.87	196.296
856.17	226.316
856.46	266.667
856.76	200.000
857.05	179.310
857.35	195.833
857.65	306.667
857.94	256.522
858.24	242.308
858.53	315.000
858.83	263.636
859.13	420.000
859.42	0.000
859.72	533.333
860.01	390.909
860.31	200.000
860.60	242.105
860.90	217.391
861.20	533.333
861.49	458.333
861.79	-3800.000
862.08	575.000
862.38	247.619
862.67	300.000
862.97	376.471
863.26	555.556
863.56	277.778
863.85	316.667
864.15	600.000
864.44	360.000
864.74	850.000
865.03	650.000
865.33	294.737
865.62	527.273
865.92	400.000
866.21	300.000
866.51	0.000
866.80	381.818
867.10	1060.000
867.39	446.154
867.69	490.909
867.98	300.000
868.27	500.000
868.57	310.526
868.86	-4400.000
869.16	312.500
869.45	2650.000
869.75	-3100.000
870.04	425.000
870.33	500.000
870.63	950.000
870.92	2450.000
871.22	742.857
871.51	276.471
871.80	219.048
872.10	385.714
>>>>>End Processed Spectral Data<<<<<
