SpectraSuite Data File
++++++++++++++++++++++++++++++++++++
Date: Wed May 13 16:05:27 PDT 2015
User: schluterlab
Dark Spectrum Present: Yes
Reference Spectrum Present: Yes
Number of Sampled Component Spectra: 1
Spectrometers: USB2E3373
Integration Time (usec): 3000 (USB2E3373)
Spectra Averaged: 3 (USB2E3373)
Boxcar Smoothing: 0 (USB2E3373)
Correct for Electrical Dark: No (USB2E3373)
Strobe/Lamp Enabled: No (USB2E3373)
Correct for Detector Non-linearity: No (USB2E3373)
Correct for Stray Light: No (USB2E3373)
Number of Pixels in Processed Spectrum: 2048
>>>>>Begin Processed Spectral Data<<<<<
178.53	0.000
178.91	-575.000
179.29	-725.000
179.67	-111.111
180.04	-575.000
180.42	1350.000
180.80	640.000
181.18	-650.000
181.56	400.000
181.94	0.000
182.31	-342.857
182.69	833.333
183.07	-225.000
183.45	-322.222
183.83	354.545
184.20	-190.000
184.58	1300.000
184.96	2900.000
185.34	-460.000
185.72	-250.000
186.09	-900.000
186.47	1600.000
186.85	1450.000
187.23	2900.000
187.61	-633.333
187.98	850.000
188.36	309.091
188.74	281.818
189.12	-460.000
189.49	440.000
189.87	-2300.000
190.25	-675.000
190.63	250.000
191.00	223.077
191.38	533.333
191.76	-325.000
192.14	900.000
192.51	312.500
192.89	616.667
193.27	300.000
193.65	-500.000
194.02	230.000
194.40	400.000
194.78	290.000
195.15	366.667
195.53	370.000
195.91	-700.000
196.29	243.750
196.66	147.368
197.04	-100.000
197.42	0.000
197.79	360.000
198.17	-2900.000
198.55	371.429
198.92	387.500
199.30	600.000
199.68	0.000
200.05	216.667
200.43	400.000
200.81	2100.000
201.18	600.000
201.56	-733.333
201.94	266.667
202.31	188.889
202.69	258.333
203.07	360.000
203.44	0.000
203.82	800.000
204.19	428.571
204.57	285.714
204.95	375.000
205.32	600.000
205.70	254.545
206.08	307.143
206.45	850.000
206.83	218.750
207.20	466.667
207.58	320.000
207.96	183.333
208.33	350.000
208.71	-500.000
209.08	500.000
209.46	366.667
209.84	263.636
210.21	-800.000
210.59	750.000
210.96	-200.000
211.34	1350.000
211.71	350.000
212.09	283.333
212.46	0.000
212.84	1266.667
213.22	775.000
213.59	-1900.000
213.97	483.333
214.34	528.571
214.72	381.818
215.09	460.000
215.47	-1150.000
215.84	-1550.000
216.22	700.000
216.59	278.571
216.97	875.000
217.34	281.818
217.72	-366.667
218.09	0.000
218.47	-2100.000
218.84	422.222
219.22	385.714
219.59	933.333
219.97	-342.857
220.34	680.000
220.72	-1233.333
221.09	257.143
221.47	850.000
221.84	-616.667
222.22	0.000
222.59	775.000
222.97	-1300.000
223.34	640.000
223.72	146.154
224.09	620.000
224.46	1250.000
224.84	-2500.000
225.21	-480.000
225.59	-2700.000
225.96	370.000
226.34	215.000
226.71	1450.000
227.08	362.500
227.46	390.000
227.83	-500.000
228.21	-1100.000
228.58	322.222
228.95	-1450.000
229.33	-1300.000
229.70	800.000
230.08	442.857
230.45	-420.000
230.82	233.333
231.20	533.333
231.57	242.857
231.95	300.000
232.32	131.818
232.69	127.273
233.07	185.714
233.44	192.308
233.81	-566.667
234.19	163.158
234.56	191.667
234.93	208.333
235.31	227.273
235.68	200.000
236.05	150.000
236.43	57.576
236.80	136.842
237.17	1700.000
237.55	85.714
237.92	96.429
238.29	147.619
238.67	67.742
239.04	113.793
239.41	63.889
239.79	43.478
240.16	59.524
240.53	70.455
240.91	31.373
241.28	38.000
241.65	44.000
242.02	43.478
242.40	35.484
242.77	33.333
243.14	35.484
243.51	40.449
243.89	36.471
244.26	18.889
244.63	22.581
245.00	27.660
245.38	23.762
245.75	17.757
246.12	13.761
246.49	27.007
246.87	27.200
247.24	28.462
247.61	19.286
247.98	15.686
248.36	10.811
248.73	19.108
249.10	22.930
249.47	12.994
249.84	17.647
250.22	16.043
250.59	13.018
250.96	12.626
251.33	15.640
251.70	16.832
252.08	12.381
252.45	11.659
252.82	17.391
253.19	12.340
253.56	12.157
253.94	11.618
254.31	11.328
254.68	12.308
255.05	9.594
255.42	7.317
255.79	9.926
256.16	12.996
256.54	9.541
256.91	11.388
257.28	8.273
257.65	9.571
258.02	10.248
258.39	13.565
258.76	9.699
259.14	8.631
259.51	9.119
259.88	7.764
260.25	10.876
260.62	6.647
260.99	6.522
261.36	8.408
261.73	7.450
262.10	5.814
262.47	8.451
262.85	8.357
263.22	4.843
263.59	9.972
263.96	6.868
264.33	6.005
264.70	7.632
265.07	8.440
265.44	6.061
265.81	7.056
266.18	10.302
266.55	4.878
266.92	6.634
267.29	10.648
267.66	6.422
268.03	8.182
268.40	6.308
268.77	3.341
269.14	6.306
269.51	7.223
269.88	4.895
270.25	5.869
270.62	7.865
270.99	9.247
271.36	6.867
271.73	2.570
272.10	5.000
272.47	8.602
272.84	3.247
273.21	8.595
273.58	1.310
273.95	5.241
274.32	5.785
274.69	7.066
275.06	5.512
275.43	6.383
275.80	5.010
276.17	4.277
276.54	7.069
276.91	7.708
277.28	6.445
277.65	6.576
278.02	3.934
278.39	5.469
278.76	6.000
279.13	5.849
279.50	4.283
279.87	4.781
280.23	5.190
280.60	4.449
280.97	6.100
281.34	5.664
281.71	6.000
282.08	5.566
282.45	4.909
282.82	4.440
283.19	3.030
283.56	4.035
283.92	5.076
284.29	4.762
284.66	4.174
285.03	2.712
285.40	3.521
285.77	4.882
286.14	3.627
286.51	4.500
286.87	3.761
287.24	4.397
287.61	3.852
287.98	6.006
288.35	4.754
288.72	4.829
289.08	4.382
289.45	4.613
289.82	3.740
290.19	2.355
290.56	3.982
290.93	2.568
291.29	3.834
291.66	4.425
292.03	7.122
292.40	6.021
292.77	4.734
293.13	5.075
293.50	4.519
293.87	3.259
294.24	4.000
294.60	1.892
294.97	4.651
295.34	6.770
295.71	5.256
296.08	2.707
296.44	3.301
296.81	3.831
297.18	4.878
297.55	2.375
297.91	3.430
298.28	5.221
298.65	3.394
299.02	4.348
299.38	2.258
299.75	3.235
300.12	3.065
300.48	2.875
300.85	3.822
301.22	3.822
301.59	1.894
301.95	3.275
302.32	4.750
302.69	3.704
303.05	3.758
303.42	3.210
303.79	3.511
304.15	3.030
304.52	4.287
304.89	3.252
305.25	3.364
305.62	4.077
305.99	3.424
306.35	4.251
306.72	3.475
307.09	4.218
307.45	3.829
307.82	1.674
308.19	3.091
308.55	3.883
308.92	3.008
309.29	2.534
309.65	1.591
310.02	3.488
310.38	3.011
310.75	2.957
311.12	3.071
311.48	3.448
311.85	2.516
312.22	3.330
312.58	2.807
312.95	3.168
313.31	3.204
313.68	2.079
314.05	4.339
314.41	4.020
314.78	2.920
315.14	2.681
315.51	2.472
315.87	2.970
316.24	2.781
316.61	2.534
316.97	2.348
317.34	2.250
317.70	2.868
318.07	2.502
318.43	2.544
318.80	3.468
319.16	1.977
319.53	2.627
319.89	2.190
320.26	2.400
320.62	3.671
320.99	2.929
321.35	2.929
321.72	2.772
322.08	3.356
322.45	3.284
322.81	2.713
323.18	2.505
323.54	3.340
323.91	3.113
324.27	2.008
324.64	2.237
325.00	2.344
325.37	3.549
325.73	3.321
326.10	2.560
326.46	2.330
326.83	2.761
327.19	3.074
327.56	2.613
327.92	3.150
328.29	2.839
328.65	3.867
329.01	3.430
329.38	1.665
329.74	2.770
330.11	2.639
330.47	3.489
330.84	3.217
331.20	2.186
331.56	2.752
331.93	0.926
332.29	2.751
332.66	3.097
333.02	3.016
333.38	2.891
333.75	3.030
334.11	2.758
334.48	3.283
334.84	2.574
335.20	3.091
335.57	2.357
335.93	2.411
336.29	1.832
336.66	2.525
337.02	1.629
337.38	2.315
337.75	2.496
338.11	2.686
338.47	1.934
338.84	2.841
339.20	1.468
339.56	3.832
339.93	2.364
340.29	2.899
340.65	1.783
341.02	2.880
341.38	2.847
341.74	2.368
342.11	2.795
342.47	2.291
342.83	2.568
343.20	3.030
343.56	2.359
343.92	2.193
344.28	3.316
344.65	2.064
345.01	2.441
345.37	1.029
345.73	3.469
346.10	2.558
346.46	2.203
346.82	3.624
347.19	1.003
347.55	2.217
347.91	2.832
348.27	2.465
348.63	2.508
349.00	2.104
349.36	2.627
349.72	3.128
350.08	2.836
350.45	2.441
350.81	2.275
351.17	2.350
351.53	2.129
351.89	1.403
352.26	3.157
352.62	2.005
352.98	3.079
353.34	2.219
353.70	1.555
354.07	2.500
354.43	1.825
354.79	2.172
355.15	0.718
355.51	3.597
355.87	2.041
356.24	2.280
356.60	1.925
356.96	2.735
357.32	2.044
357.68	1.811
358.04	2.771
358.40	3.246
358.77	1.878
359.13	1.342
359.49	1.725
359.85	0.873
360.21	1.834
360.57	2.490
360.93	1.615
361.29	2.646
361.66	1.935
362.02	2.612
362.38	1.749
362.74	2.679
363.10	1.184
363.46	2.054
363.82	1.663
364.18	2.203
364.54	2.377
364.90	2.691
365.26	1.618
365.62	1.826
365.98	1.242
366.35	1.862
366.71	2.458
367.07	1.238
367.43	1.597
367.79	2.284
368.15	1.868
368.51	2.180
368.87	1.927
369.23	1.390
369.59	1.593
369.95	1.103
370.31	2.350
370.67	2.029
371.03	2.322
371.39	1.968
371.75	2.353
372.11	1.849
372.47	1.906
372.83	2.161
373.19	0.939
373.55	1.700
373.91	2.651
374.27	1.649
374.63	1.964
374.99	2.613
375.35	1.605
375.71	2.330
376.07	3.018
376.42	2.270
376.78	2.386
377.14	1.493
377.50	1.656
377.86	1.396
378.22	2.023
378.58	1.190
378.94	1.886
379.30	1.018
379.66	2.157
380.02	1.536
380.38	1.518
380.74	2.341
381.09	2.384
381.45	1.844
381.81	2.334
382.17	1.911
382.53	1.447
382.89	2.407
383.25	1.501
383.61	1.859
383.97	1.814
384.32	1.809
384.68	1.301
385.04	2.151
385.40	1.610
385.76	2.088
386.12	1.749
386.48	1.447
386.83	1.539
387.19	2.721
387.55	2.041
387.91	1.572
388.27	1.533
388.62	2.581
388.98	1.044
389.34	2.190
389.70	2.269
390.06	2.028
390.42	1.167
390.77	1.845
391.13	2.170
391.49	2.157
391.85	1.337
392.20	0.694
392.56	1.768
392.92	1.589
393.28	0.592
393.64	2.218
393.99	2.382
394.35	1.613
394.71	1.631
395.07	1.495
395.42	1.298
395.78	1.972
396.14	1.862
396.50	1.566
396.85	1.653
397.21	2.404
397.57	1.674
397.92	1.923
398.28	1.009
398.64	2.270
399.00	2.350
399.35	1.692
399.71	2.315
400.07	2.720
400.42	1.840
400.78	2.593
401.14	1.951
401.49	2.448
401.85	1.633
402.21	1.377
402.57	1.851
402.92	1.955
403.28	2.311
403.63	1.361
403.99	1.656
404.35	2.182
404.70	2.038
405.06	2.097
405.42	1.372
405.77	1.429
406.13	1.975
406.49	1.419
406.84	1.890
407.20	1.241
407.55	1.213
407.91	1.067
408.27	1.085
408.62	1.626
408.98	1.900
409.34	1.599
409.69	1.355
410.05	1.673
410.40	1.896
410.76	1.673
411.11	2.593
411.47	1.981
411.83	2.382
412.18	1.113
412.54	1.308
412.89	1.807
413.25	1.771
413.60	1.544
413.96	2.064
414.31	1.701
414.67	1.458
415.03	1.060
415.38	2.255
415.74	1.672
416.09	1.894
416.45	1.272
416.80	1.190
417.16	2.078
417.51	2.190
417.87	1.927
418.22	1.262
418.58	2.130
418.93	1.843
419.29	1.846
419.64	2.078
420.00	2.744
420.35	2.203
420.71	2.032
421.06	1.551
421.42	2.339
421.77	1.513
422.12	0.561
422.48	1.079
422.83	1.573
423.19	1.492
423.54	1.683
423.90	1.391
424.25	2.233
424.61	1.845
424.96	1.399
425.31	1.661
425.67	1.404
426.02	1.429
426.38	2.503
426.73	1.638
427.09	1.581
427.44	1.783
427.79	1.668
428.15	2.202
428.50	1.346
428.85	2.741
429.21	1.436
429.56	1.503
429.92	1.560
430.27	1.738
430.62	0.870
430.98	1.868
431.33	2.010
431.68	1.571
432.04	1.012
432.39	1.028
432.74	1.137
433.10	1.415
433.45	1.691
433.80	1.497
434.16	2.083
434.51	2.000
434.86	1.767
435.22	2.279
435.57	1.945
435.92	1.697
436.28	1.483
436.63	2.594
436.98	1.088
437.34	1.908
437.69	2.334
438.04	1.799
438.39	1.373
438.75	1.569
439.10	1.844
439.45	1.476
439.81	1.571
440.16	1.525
440.51	2.109
440.86	1.274
441.22	1.557
441.57	1.433
441.92	1.279
442.27	1.722
442.63	1.580
442.98	2.254
443.33	1.196
443.68	1.239
444.03	1.562
444.39	0.925
444.74	1.515
445.09	1.941
445.44	1.859
445.79	1.682
446.15	2.329
446.50	1.508
446.85	1.079
447.20	0.969
447.55	1.396
447.91	1.324
448.26	1.503
448.61	1.018
448.96	2.159
449.31	1.462
449.66	1.688
450.02	1.170
450.37	1.247
450.72	1.579
451.07	0.731
451.42	1.216
451.77	1.938
452.12	2.194
452.47	1.741
452.83	1.107
453.18	1.895
453.53	1.299
453.88	1.595
454.23	1.674
454.58	1.575
454.93	1.844
455.28	1.247
455.63	1.820
455.98	2.440
456.34	1.319
456.69	1.691
457.04	1.548
457.39	1.636
457.74	1.393
458.09	2.243
458.44	1.425
458.79	1.247
459.14	1.354
459.49	1.459
459.84	0.997
460.19	0.825
460.54	1.736
460.89	1.097
461.24	1.214
461.59	2.382
461.94	1.171
462.29	2.730
462.64	2.234
462.99	1.431
463.34	2.533
463.69	1.438
464.04	2.319
464.39	2.435
464.74	2.198
465.09	1.448
465.44	1.496
465.79	1.734
466.14	2.080
466.49	1.279
466.84	1.868
467.19	2.173
467.54	1.750
467.89	1.621
468.24	1.222
468.59	2.320
468.94	1.222
469.29	1.992
469.64	2.276
469.99	2.233
470.34	1.387
470.68	0.575
471.03	1.565
471.38	2.085
471.73	1.732
472.08	2.566
472.43	1.759
472.78	2.107
473.13	2.311
473.48	1.685
473.83	2.073
474.17	1.120
474.52	2.295
474.87	2.218
475.22	1.741
475.57	1.666
475.92	1.487
476.27	1.747
476.61	2.041
476.96	1.649
477.31	0.942
477.66	1.641
478.01	1.307
478.36	1.745
478.70	1.142
479.05	1.438
479.40	1.638
479.75	1.068
480.10	0.944
480.45	1.856
480.79	1.529
481.14	1.223
481.49	1.946
481.84	1.555
482.19	1.363
482.53	1.697
482.88	1.489
483.23	1.168
483.58	2.047
483.92	1.406
484.27	0.828
484.62	1.034
484.97	1.301
485.31	1.164
485.66	0.664
486.01	0.405
486.36	0.612
486.70	0.458
487.05	0.857
487.40	0.741
487.75	0.739
488.09	1.062
488.44	1.067
488.79	1.013
489.13	1.299
489.48	1.101
489.83	0.906
490.17	1.008
490.52	1.151
490.87	1.809
491.22	1.319
491.56	0.820
491.91	0.931
492.26	1.011
492.60	1.382
492.95	0.982
493.30	1.916
493.64	1.307
493.99	1.161
494.34	1.480
494.68	1.603
495.03	1.692
495.37	1.349
495.72	1.657
496.07	1.206
496.41	1.018
496.76	1.011
497.11	1.261
497.45	1.444
497.80	1.248
498.14	0.628
498.49	1.220
498.84	1.198
499.18	0.905
499.53	1.187
499.87	1.351
500.22	1.554
500.56	1.796
500.91	1.058
501.26	1.280
501.60	1.898
501.95	1.467
502.29	1.593
502.64	1.629
502.98	1.216
503.33	1.371
503.67	1.067
504.02	1.497
504.36	1.638
504.71	1.172
505.06	1.928
505.40	1.070
505.75	1.350
506.09	1.361
506.44	1.085
506.78	1.413
507.13	1.363
507.47	1.667
507.82	1.216
508.16	1.773
508.51	1.522
508.85	1.043
509.19	1.071
509.54	1.429
509.88	1.236
510.23	1.131
510.57	2.322
510.92	1.346
511.26	1.079
511.61	1.763
511.95	1.461
512.30	0.901
512.64	1.881
512.98	1.768
513.33	2.355
513.67	1.387
514.02	0.866
514.36	1.311
514.70	1.384
515.05	0.725
515.39	1.122
515.74	1.295
516.08	2.124
516.42	1.942
516.77	2.285
517.11	1.443
517.46	1.806
517.80	1.103
518.14	0.695
518.49	1.809
518.83	1.250
519.17	1.443
519.52	1.811
519.86	2.396
520.20	2.486
520.55	1.735
520.89	1.582
521.23	2.232
521.58	1.681
521.92	2.082
522.26	1.830
522.61	1.433
522.95	1.473
523.29	1.461
523.64	1.707
523.98	2.033
524.32	1.990
524.66	1.984
525.01	2.206
525.35	1.673
525.69	1.355
526.04	1.433
526.38	1.708
526.72	1.963
527.06	1.507
527.41	1.485
527.75	1.865
528.09	1.734
528.43	1.785
528.78	2.213
529.12	1.879
529.46	2.021
529.80	1.361
530.15	2.617
530.49	2.154
530.83	1.962
531.17	2.154
531.51	2.918
531.86	1.355
532.20	2.542
532.54	2.691
532.88	1.861
533.22	1.624
533.57	2.099
533.91	1.866
534.25	2.369
534.59	1.586
534.93	2.320
535.27	1.871
535.62	1.954
535.96	2.260
536.30	1.081
536.64	2.189
536.98	2.190
537.32	1.514
537.66	1.533
538.01	1.843
538.35	2.133
538.69	2.808
539.03	1.559
539.37	1.150
539.71	1.167
540.05	1.634
540.39	1.130
540.73	2.264
541.07	1.817
541.42	2.414
541.76	2.839
542.10	2.652
542.44	2.384
542.78	2.833
543.12	1.919
543.46	2.623
543.80	2.082
544.14	2.182
544.48	2.222
544.82	2.437
545.16	2.602
545.50	1.799
545.84	2.151
546.18	1.886
546.52	2.065
546.86	2.199
547.20	2.562
547.54	2.004
547.88	3.061
548.22	2.491
548.56	2.704
548.90	2.881
549.24	1.279
549.58	2.046
549.92	2.404
550.26	2.628
550.60	2.144
550.94	2.183
551.28	1.609
551.62	2.588
551.96	1.684
552.30	2.321
552.64	1.961
552.98	2.102
553.32	2.293
553.66	2.386
554.00	2.128
554.34	1.863
554.68	2.289
555.02	1.551
555.36	2.088
555.69	1.894
556.03	1.884
556.37	2.592
556.71	1.637
557.05	1.681
557.39	1.889
557.73	1.764
558.07	2.683
558.41	1.881
558.75	2.131
559.08	2.312
559.42	1.814
559.76	1.838
560.10	2.070
560.44	1.677
560.78	1.530
561.12	1.517
561.45	2.738
561.79	2.044
562.13	1.408
562.47	1.503
562.81	1.464
563.15	1.472
563.48	1.790
563.82	1.566
564.16	1.700
564.50	1.172
564.84	1.896
565.17	1.480
565.51	1.917
565.85	2.157
566.19	1.691
566.52	1.457
566.86	1.989
567.20	1.828
567.54	1.256
567.88	1.032
568.21	2.275
568.55	1.416
568.89	1.411
569.23	1.114
569.56	1.417
569.90	1.170
570.24	0.646
570.57	0.952
570.91	1.357
571.25	0.772
571.59	0.795
571.92	0.778
572.26	1.155
572.60	1.081
572.93	1.139
573.27	1.094
573.61	0.921
573.95	1.008
574.28	0.653
574.62	0.777
574.96	0.454
575.29	0.533
575.63	0.838
575.97	0.729
576.30	1.221
576.64	0.834
576.98	0.681
577.31	0.624
577.65	0.760
577.98	0.643
578.32	0.695
578.66	0.943
578.99	0.845
579.33	0.726
579.67	0.657
580.00	0.719
580.34	0.783
580.67	0.827
581.01	0.967
581.35	0.655
581.68	0.763
582.02	0.700
582.35	0.561
582.69	0.569
583.02	0.502
583.36	0.807
583.70	0.549
584.03	0.549
584.37	1.028
584.70	0.522
585.04	0.783
585.37	0.792
585.71	1.057
586.04	0.749
586.38	0.784
586.72	1.160
587.05	0.598
587.39	0.897
587.72	0.799
588.06	0.480
588.39	0.933
588.73	0.851
589.06	0.935
589.40	0.741
589.73	0.950
590.07	0.996
590.40	0.877
590.73	0.664
591.07	1.913
591.40	1.687
591.74	1.342
592.07	1.091
592.41	0.909
592.74	1.049
593.08	1.266
593.41	0.664
593.75	0.906
594.08	0.905
594.41	1.096
594.75	0.776
595.08	1.467
595.42	1.401
595.75	0.926
596.09	1.164
596.42	1.768
596.75	1.688
597.09	1.732
597.42	1.054
597.75	0.949
598.09	1.391
598.42	1.503
598.76	1.135
599.09	1.026
599.42	1.237
599.76	1.318
600.09	0.911
600.42	1.169
600.76	0.929
601.09	1.202
601.42	0.913
601.76	1.404
602.09	0.870
602.42	1.473
602.76	1.370
603.09	1.416
603.42	1.171
603.76	0.991
604.09	0.659
604.42	1.345
604.76	1.814
605.09	1.616
605.42	1.283
605.75	1.407
606.09	0.895
606.42	0.736
606.75	1.078
607.09	1.674
607.42	0.642
607.75	1.308
608.08	0.868
608.42	1.569
608.75	1.398
609.08	1.203
609.41	1.190
609.75	1.429
610.08	1.932
610.41	1.164
610.74	1.277
611.07	1.285
611.41	2.061
611.74	1.911
612.07	1.656
612.40	1.784
612.73	1.474
613.07	1.778
613.40	2.212
613.73	1.206
614.06	1.613
614.39	1.783
614.72	1.895
615.06	2.153
615.39	1.008
615.72	1.738
616.05	1.223
616.38	1.723
616.71	1.841
617.05	2.002
617.38	1.744
617.71	1.682
618.04	2.103
618.37	1.952
618.70	2.614
619.03	2.303
619.36	1.697
619.69	1.338
620.03	1.786
620.36	2.273
620.69	2.671
621.02	2.655
621.35	2.349
621.68	1.869
622.01	2.245
622.34	1.967
622.67	2.129
623.00	1.687
623.33	1.573
623.66	2.359
623.99	1.767
624.32	1.854
624.65	1.836
624.99	2.125
625.32	0.941
625.65	1.953
625.98	2.921
626.31	3.110
626.64	2.367
626.97	2.494
627.30	1.829
627.63	2.789
627.96	1.682
628.29	2.450
628.62	3.477
628.95	3.585
629.28	3.193
629.61	3.208
629.94	2.952
630.26	2.860
630.59	2.574
630.92	3.831
631.25	2.468
631.58	3.203
631.91	2.535
632.24	2.321
632.57	2.938
632.90	3.399
633.23	4.251
633.56	3.729
633.89	2.945
634.22	3.519
634.55	2.722
634.88	2.036
635.20	3.226
635.53	3.494
635.86	3.960
636.19	2.588
636.52	3.691
636.85	3.207
637.18	2.765
637.51	4.610
637.83	2.836
638.16	3.197
638.49	3.149
638.82	4.298
639.15	4.000
639.48	4.489
639.81	3.083
640.13	3.516
640.46	3.221
640.79	3.699
641.12	3.026
641.45	1.955
641.77	2.504
642.10	2.924
642.43	2.102
642.76	2.941
643.09	2.914
643.41	3.187
643.74	3.704
644.07	3.049
644.40	4.448
644.73	4.567
645.05	4.120
645.38	3.002
645.71	4.509
646.04	5.316
646.36	5.008
646.69	4.682
647.02	4.252
647.35	4.467
647.67	2.655
648.00	5.203
648.33	2.640
648.66	3.030
648.98	4.498
649.31	2.093
649.64	2.990
649.96	4.620
650.29	4.739
650.62	3.074
650.94	5.511
651.27	5.912
651.60	4.825
651.92	6.390
652.25	3.583
652.58	5.140
652.90	4.897
653.23	3.698
653.56	3.780
653.88	3.962
654.21	4.265
654.54	2.640
654.86	3.427
655.19	2.432
655.52	1.554
655.84	0.503
656.17	0.323
656.49	0.509
656.82	0.373
657.15	0.424
657.47	0.348
657.80	0.297
658.13	0.366
658.45	0.589
658.78	0.527
659.10	1.057
659.43	1.021
659.75	1.385
660.08	1.962
660.41	2.421
660.73	5.083
661.06	3.344
661.38	4.727
661.71	5.577
662.03	6.312
662.36	3.777
662.68	3.614
663.01	4.646
663.33	3.609
663.66	4.202
663.98	4.752
664.31	6.092
664.63	3.441
664.96	3.622
665.28	5.943
665.61	5.458
665.93	5.231
666.26	4.260
666.58	4.184
666.91	5.285
667.23	5.393
667.56	3.888
667.88	8.547
668.21	7.036
668.53	4.338
668.86	5.411
669.18	6.397
669.50	7.174
669.83	9.586
670.15	6.444
670.48	4.793
670.80	5.603
671.13	5.732
671.45	3.617
671.77	5.499
672.10	6.100
672.42	5.477
672.75	5.473
673.07	3.169
673.39	2.712
673.72	3.125
674.04	4.118
674.37	6.214
674.69	4.499
675.01	4.812
675.34	8.214
675.66	6.737
675.98	8.350
676.31	4.832
676.63	4.883
676.95	7.128
677.28	3.972
677.60	4.176
677.92	8.017
678.25	5.749
678.57	4.582
678.89	3.206
679.22	3.733
679.54	6.298
679.86	7.523
680.18	3.757
680.51	6.206
680.83	6.940
681.15	4.151
681.48	7.561
681.80	4.449
682.12	3.065
682.44	3.288
682.77	5.499
683.09	5.579
683.41	5.987
683.73	6.623
684.06	7.438
684.38	4.501
684.70	6.202
685.02	5.441
685.34	5.311
685.67	4.371
685.99	3.952
686.31	4.608
686.63	1.590
686.96	4.107
687.28	5.415
687.60	5.072
687.92	6.216
688.24	5.703
688.56	5.622
688.89	4.772
689.21	3.712
689.53	7.098
689.85	5.765
690.17	5.797
690.49	6.157
690.82	3.738
691.14	3.348
691.46	4.852
691.78	7.229
692.10	6.405
692.42	5.190
692.74	2.905
693.06	5.957
693.39	4.928
693.71	3.930
694.03	4.421
694.35	5.411
694.67	5.721
694.99	6.098
695.31	4.167
695.63	4.306
695.95	5.379
696.27	1.269
696.59	5.181
696.91	4.663
697.23	2.347
697.56	7.036
697.88	4.090
698.20	5.833
698.52	7.312
698.84	4.009
699.16	3.917
699.48	5.463
699.80	7.246
700.12	6.234
700.44	7.427
700.76	9.945
701.08	4.885
701.40	9.497
701.72	9.621
702.04	9.943
702.36	7.649
702.68	6.232
703.00	8.864
703.32	7.181
703.64	5.362
703.96	5.850
704.28	7.267
704.60	7.331
704.91	8.012
705.23	8.211
705.55	13.289
705.87	9.635
706.19	7.420
706.51	7.165
706.83	9.394
707.15	9.524
707.47	6.061
707.79	4.668
708.11	7.306
708.43	4.524
708.74	4.592
709.06	8.052
709.38	6.562
709.70	10.174
710.02	8.605
710.34	7.879
710.66	12.239
710.98	10.795
711.29	8.430
711.61	12.389
711.93	8.013
712.25	10.289
712.57	5.147
712.89	10.381
713.20	10.638
713.52	9.868
713.84	7.595
714.16	8.841
714.48	8.908
714.80	9.726
715.11	8.357
715.43	7.122
715.75	10.435
716.07	7.348
716.39	5.016
716.70	9.635
717.02	10.072
717.34	10.954
717.66	13.433
717.97	12.351
718.29	10.000
718.61	11.314
718.93	9.191
719.24	12.803
719.56	10.847
719.88	9.831
720.20	11.486
720.51	9.408
720.83	8.922
721.15	4.478
721.46	8.156
721.78	15.054
722.10	10.189
722.42	10.902
722.73	8.614
723.05	7.787
723.37	9.717
723.68	13.127
724.00	10.976
724.32	8.871
724.63	8.130
724.95	6.695
725.27	8.907
725.58	10.547
725.90	13.869
726.22	4.906
726.53	6.597
726.85	9.556
727.16	6.406
727.48	9.220
727.80	8.333
728.11	9.420
728.43	7.692
728.74	11.828
729.06	14.234
729.38	13.235
729.69	9.964
730.01	6.826
730.32	6.944
730.64	10.702
730.96	6.931
731.27	8.278
731.59	7.339
731.90	7.872
732.22	7.143
732.53	8.050
732.85	6.731
733.16	8.360
733.48	5.648
733.80	11.364
734.11	9.554
734.43	9.172
734.74	6.571
735.06	5.158
735.37	9.827
735.69	7.006
736.00	10.458
736.32	9.346
736.63	8.946
736.95	8.626
737.26	5.102
737.58	7.097
737.89	10.368
738.21	9.215
738.52	8.929
738.83	7.170
739.15	8.077
739.46	10.584
739.78	6.250
740.09	11.385
740.41	9.355
740.72	5.923
741.04	13.333
741.35	12.500
741.66	11.111
741.98	8.962
742.29	11.005
742.61	12.069
742.92	6.335
743.23	11.538
743.55	14.000
743.86	10.526
744.18	13.274
744.49	11.483
744.80	13.146
745.12	17.727
745.43	12.775
745.74	14.414
746.06	13.761
746.37	12.556
746.68	12.670
747.00	12.500
747.31	13.810
747.62	7.965
747.94	7.930
748.25	10.213
748.56	14.978
748.88	7.921
749.19	15.000
749.50	13.488
749.82	12.195
750.13	7.755
750.44	9.124
750.75	12.281
751.07	15.113
751.38	6.969
751.69	9.025
752.01	8.647
752.32	6.859
752.63	9.574
752.94	9.426
753.26	16.800
753.57	7.317
753.88	9.766
754.19	8.929
754.51	15.278
754.82	6.859
755.13	10.189
755.44	9.023
755.75	8.029
756.07	9.574
756.38	5.474
756.69	10.738
757.00	12.275
757.31	5.638
757.63	6.433
757.94	7.507
758.25	9.559
758.56	7.901
758.87	6.989
759.18	9.697
759.50	7.210
759.81	8.411
760.12	5.312
760.43	7.450
760.74	7.065
761.05	8.757
761.36	10.428
761.67	11.364
761.99	5.280
762.30	6.597
762.61	12.214
762.92	7.031
763.23	2.521
763.54	12.400
763.85	7.812
764.16	11.923
764.47	11.407
764.78	8.834
765.10	8.544
765.41	10.914
765.72	7.784
766.03	7.524
766.34	8.000
766.65	11.915
766.96	12.821
767.27	8.629
767.58	13.021
767.89	16.316
768.20	14.943
768.51	15.736
768.82	16.972
769.13	14.228
769.44	8.907
769.75	11.159
770.06	7.339
770.37	12.217
770.68	13.426
770.99	12.000
771.30	6.557
771.61	10.762
771.92	11.885
772.23	11.345
772.54	15.897
772.85	17.801
773.16	13.298
773.47	14.674
773.78	16.751
774.09	15.476
774.39	19.883
774.70	17.901
775.01	16.667
775.32	28.758
775.63	22.368
775.94	20.144
776.25	17.323
776.56	23.881
776.87	18.852
777.18	23.438
777.48	32.824
777.79	19.697
778.10	22.963
778.41	16.071
778.72	13.139
779.03	23.490
779.34	20.134
779.65	10.135
779.95	19.018
780.26	18.301
780.57	21.379
780.88	21.875
781.19	15.038
781.50	21.622
781.80	15.094
782.11	15.819
782.42	9.494
782.73	15.951
783.04	21.622
783.34	18.310
783.65	20.548
783.96	18.657
784.27	13.287
784.57	12.950
784.88	20.370
785.19	19.048
785.50	16.981
785.81	16.418
786.11	19.672
786.42	28.682
786.73	19.469
787.04	24.528
787.34	20.536
787.65	26.000
787.96	16.216
788.26	22.314
788.57	20.339
788.88	20.661
789.19	23.611
789.49	27.273
789.80	23.664
790.11	35.238
790.41	32.673
790.72	22.892
791.03	23.913
791.33	29.070
791.64	25.773
791.95	28.713
792.25	34.444
792.56	32.468
792.87	39.744
793.17	32.911
793.48	47.126
793.79	37.931
794.09	39.773
794.40	26.891
794.70	27.941
795.01	19.259
795.32	24.460
795.62	22.047
795.93	20.690
796.23	15.929
796.54	15.294
796.85	36.486
797.15	47.887
797.46	25.758
797.76	50.602
798.07	36.709
798.37	27.692
798.68	22.727
798.99	15.493
799.29	42.857
799.60	32.955
799.90	32.877
800.21	37.313
800.51	43.103
800.82	49.123
801.12	40.984
801.43	48.485
801.73	33.784
802.04	44.444
802.34	40.741
802.65	42.187
802.95	61.017
803.26	53.125
803.56	37.143
803.87	41.538
804.17	41.176
804.48	59.259
804.78	31.034
805.09	42.647
805.39	32.692
805.70	48.214
806.00	39.344
806.30	34.848
806.61	34.146
806.91	22.785
807.22	19.737
807.52	19.403
807.83	38.028
808.13	29.688
808.43	38.333
808.74	39.474
809.04	52.174
809.35	35.821
809.65	48.684
809.95	56.452
810.26	44.068
810.56	50.794
810.86	45.455
811.17	69.048
811.47	58.333
811.77	53.704
812.08	47.273
812.38	44.000
812.69	63.889
812.99	93.182
813.29	63.265
813.59	50.000
813.90	65.306
814.20	47.273
814.50	33.846
814.81	52.941
815.11	53.061
815.41	55.738
815.72	57.143
816.02	56.364
816.32	50.000
816.62	45.000
816.93	60.976
817.23	71.429
817.53	70.455
817.84	72.727
818.14	50.000
818.44	33.333
818.74	82.353
819.04	92.500
819.35	77.143
819.65	85.294
819.95	64.286
820.25	80.000
820.56	87.179
820.86	63.636
821.16	60.465
821.46	89.744
821.76	82.000
822.07	100.000
822.37	90.000
822.67	75.758
822.97	60.784
823.27	96.429
823.57	72.973
823.88	80.000
824.18	90.000
824.48	88.095
824.78	120.000
825.08	41.667
825.38	83.784
825.69	70.732
825.99	83.333
826.29	44.828
826.59	81.579
826.89	55.263
827.19	82.353
827.49	125.806
827.79	88.636
828.09	77.273
828.39	85.106
828.70	69.388
829.00	92.593
829.30	51.613
829.60	65.000
829.90	140.000
830.20	96.429
830.50	108.696
830.80	95.652
831.10	110.000
831.40	120.000
831.70	91.304
832.00	103.846
832.30	103.704
832.60	75.000
832.90	116.667
833.20	242.857
833.50	106.452
833.80	68.966
834.10	125.000
834.40	134.615
834.70	122.222
835.00	147.619
835.30	60.000
835.60	100.000
835.90	124.138
836.20	228.571
836.50	100.000
836.80	104.000
837.10	75.000
837.40	133.333
837.70	135.294
838.00	107.407
838.30	123.810
838.60	152.381
838.90	130.769
839.19	160.000
839.49	235.714
839.79	215.000
840.09	115.000
840.39	104.762
840.69	165.217
840.99	155.556
841.29	200.000
841.59	116.667
841.88	181.250
842.18	89.655
842.48	166.667
842.78	123.333
843.08	113.043
843.38	103.125
843.68	466.667
843.97	134.615
844.27	110.345
844.57	180.952
844.87	156.250
845.17	114.815
845.47	533.333
845.76	155.556
846.06	158.824
846.36	187.500
846.66	150.000
846.96	137.500
847.25	218.182
847.55	190.909
847.85	156.522
848.15	370.000
848.44	171.429
848.74	55.556
849.04	217.647
849.34	220.000
849.63	126.316
849.93	145.455
850.23	480.000
850.53	242.857
850.82	1050.000
851.12	-1600.000
851.42	2000.000
851.71	150.000
852.01	-200.000
852.31	133.333
852.61	700.000
852.90	161.905
853.20	124.000
853.50	152.941
853.79	123.810
854.09	70.833
854.39	168.750
854.68	116.216
854.98	74.194
855.28	76.667
855.57	106.897
855.87	107.407
856.17	63.158
856.46	126.667
856.76	76.471
857.05	117.241
857.35	133.333
857.65	193.333
857.94	134.783
858.24	103.846
858.53	130.000
858.83	168.182
859.13	126.667
859.42	0.000
859.72	300.000
860.01	236.364
860.31	163.636
860.60	121.053
860.90	121.739
861.20	211.111
861.49	283.333
861.79	-2300.000
862.08	400.000
862.38	171.429
862.67	184.615
862.97	170.588
863.26	322.222
863.56	133.333
863.85	233.333
864.15	412.500
864.44	266.667
864.74	333.333
865.03	350.000
865.33	152.632
865.62	227.273
865.92	253.846
866.21	166.667
866.51	0.000
866.80	190.909
867.10	600.000
867.39	253.846
867.69	200.000
867.98	142.105
868.27	263.636
868.57	152.632
868.86	-1800.000
869.16	187.500
869.45	700.000
869.75	-2000.000
870.04	250.000
870.33	285.714
870.63	450.000
870.92	1600.000
871.22	442.857
871.51	223.529
871.80	114.286
872.10	178.571
>>>>>End Processed Spectral Data<<<<<
