SpectraSuite Data File
++++++++++++++++++++++++++++++++++++
Date: Wed May 13 16:00:22 PDT 2015
User: schluterlab
Dark Spectrum Present: Yes
Reference Spectrum Present: Yes
Number of Sampled Component Spectra: 1
Spectrometers: USB2E3373
Integration Time (usec): 3000 (USB2E3373)
Spectra Averaged: 3 (USB2E3373)
Boxcar Smoothing: 0 (USB2E3373)
Correct for Electrical Dark: No (USB2E3373)
Strobe/Lamp Enabled: No (USB2E3373)
Correct for Detector Non-linearity: No (USB2E3373)
Correct for Stray Light: No (USB2E3373)
Number of Pixels in Processed Spectrum: 2048
>>>>>Begin Processed Spectral Data<<<<<
178.53	0.000
178.91	-375.000
179.29	-375.000
179.67	-22.222
180.04	-525.000
180.42	1050.000
180.80	260.000
181.18	-100.000
181.56	185.714
181.94	0.000
182.31	-228.571
182.69	266.667
183.07	-100.000
183.45	-111.111
183.83	227.273
184.20	-20.000
184.58	550.000
184.96	1800.000
185.34	-380.000
185.72	-87.500
186.09	-450.000
186.47	900.000
186.85	600.000
187.23	2000.000
187.61	-0.000
187.98	400.000
188.36	209.091
188.74	218.182
189.12	-180.000
189.49	210.000
189.87	-900.000
190.25	-450.000
190.63	235.714
191.00	153.846
191.38	366.667
191.76	-50.000
192.14	400.000
192.51	250.000
192.89	516.667
193.27	162.500
193.65	-275.000
194.02	170.000
194.40	100.000
194.78	160.000
195.15	150.000
195.53	200.000
195.91	-0.000
196.29	162.500
196.66	100.000
197.04	-40.000
197.42	0.000
197.79	240.000
198.17	-2000.000
198.55	57.143
198.92	250.000
199.30	200.000
199.68	0.000
200.05	133.333
200.43	242.857
200.81	600.000
201.18	533.333
201.56	-433.333
201.94	155.556
202.31	133.333
202.69	108.333
203.07	210.000
203.44	0.000
203.82	250.000
204.19	257.143
204.57	150.000
204.95	175.000
205.32	266.667
205.70	181.818
206.08	164.286
206.45	1050.000
206.83	100.000
207.20	266.667
207.58	240.000
207.96	94.444
208.33	287.500
208.71	-283.333
209.08	257.143
209.46	155.556
209.84	236.364
210.21	-66.667
210.59	275.000
210.96	-100.000
211.34	800.000
211.71	230.000
212.09	150.000
212.46	0.000
212.84	400.000
213.22	500.000
213.59	-500.000
213.97	50.000
214.34	314.286
214.72	227.273
215.09	420.000
215.47	-550.000
215.84	-900.000
216.22	500.000
216.59	164.286
216.97	450.000
217.34	54.545
217.72	-166.667
218.09	0.000
218.47	-1800.000
218.84	166.667
219.22	171.429
219.59	266.667
219.97	-114.286
220.34	160.000
220.72	-666.667
221.09	150.000
221.47	375.000
221.84	-200.000
222.22	0.000
222.59	450.000
222.97	-400.000
223.34	200.000
223.72	153.846
224.09	400.000
224.46	600.000
224.84	-200.000
225.21	-240.000
225.59	-600.000
225.96	180.000
226.34	105.000
226.71	500.000
227.08	262.500
227.46	200.000
227.83	-275.000
228.21	-400.000
228.58	166.667
228.95	-700.000
229.33	-700.000
229.70	266.667
230.08	142.857
230.45	-200.000
230.82	75.000
231.20	266.667
231.57	214.286
231.95	175.000
232.32	50.000
232.69	81.818
233.07	42.857
233.44	69.231
233.81	-366.667
234.19	178.947
234.56	75.000
234.93	16.667
235.31	118.182
235.68	7.692
236.05	78.571
236.43	81.818
236.80	68.421
237.17	1300.000
237.55	47.619
237.92	82.143
238.29	71.429
238.67	83.871
239.04	82.759
239.41	27.778
239.79	47.826
240.16	42.857
240.53	52.273
240.91	31.373
241.28	28.000
241.65	18.000
242.02	34.783
242.40	25.806
242.77	38.333
243.14	35.484
243.51	35.955
243.89	17.647
244.26	28.889
244.63	25.806
245.00	24.468
245.38	23.762
245.75	23.364
246.12	22.018
246.49	29.927
246.87	40.000
247.24	29.231
247.61	22.143
247.98	30.065
248.36	16.216
248.73	23.567
249.10	28.025
249.47	18.079
249.84	25.134
250.22	21.390
250.59	20.118
250.96	23.737
251.33	24.645
251.70	21.287
252.08	25.238
252.45	21.973
252.82	24.348
253.19	22.128
253.56	24.314
253.94	19.917
254.31	26.172
254.68	23.077
255.05	18.450
255.42	22.358
255.79	20.221
256.16	23.105
256.54	18.728
256.91	19.217
257.28	13.669
257.65	21.452
258.02	22.360
258.39	20.820
258.76	18.729
259.14	21.429
259.51	19.453
259.88	17.702
260.25	20.242
260.62	20.520
260.99	18.944
261.36	17.718
261.73	21.777
262.10	20.640
262.47	20.563
262.85	17.270
263.22	20.513
263.59	21.652
263.96	19.780
264.33	18.016
264.70	18.158
265.07	19.693
265.44	18.939
265.81	15.572
266.18	20.854
266.55	17.317
266.92	17.445
267.29	22.917
267.66	21.560
268.03	19.091
268.40	18.458
268.77	16.468
269.14	17.117
269.51	18.962
269.88	18.648
270.25	18.736
270.62	16.854
270.99	21.290
271.36	21.459
271.73	15.888
272.10	17.391
272.47	19.140
272.84	16.883
273.21	18.029
273.58	13.755
273.95	16.143
274.32	17.769
274.69	16.274
275.06	18.898
275.43	15.957
275.80	17.635
276.17	17.108
276.54	18.919
276.91	15.810
277.28	16.211
277.65	16.054
278.02	17.805
278.39	21.094
278.76	18.364
279.13	16.981
279.50	16.387
279.87	13.944
280.23	16.168
280.60	18.956
280.97	16.081
281.34	18.053
281.71	19.636
282.08	18.810
282.45	15.091
282.82	18.117
283.19	17.112
283.56	17.018
283.92	16.751
284.29	15.520
284.66	16.515
285.03	15.009
285.40	17.254
285.77	16.667
286.14	15.544
286.51	18.167
286.87	16.239
287.24	16.287
287.61	17.335
287.98	15.909
288.35	17.750
288.72	15.576
289.08	17.840
289.45	14.827
289.82	15.610
290.19	14.129
290.56	15.314
290.93	15.408
291.29	15.491
291.66	14.602
292.03	17.442
292.40	17.474
292.77	13.462
293.13	13.582
293.50	14.577
293.87	12.148
294.24	15.111
294.60	13.392
294.97	13.372
295.34	15.233
295.71	15.057
296.08	12.963
296.44	14.718
296.81	13.606
297.18	13.957
297.55	10.818
297.91	12.005
298.28	13.387
298.65	13.055
299.02	14.361
299.38	12.749
299.75	11.456
300.12	12.005
300.48	13.750
300.85	13.564
301.22	13.121
301.59	10.985
301.95	11.461
302.32	12.580
302.69	15.173
303.05	11.879
303.42	10.988
303.79	13.250
304.15	11.538
304.52	12.167
304.89	11.847
305.25	12.877
305.62	13.250
305.99	12.751
306.35	13.535
306.72	12.332
307.09	13.762
307.45	14.302
307.82	12.500
308.19	12.252
308.55	13.592
308.92	12.782
309.29	12.566
309.65	11.665
310.02	13.742
310.38	13.656
310.75	13.411
311.12	13.613
311.48	13.062
311.85	13.522
312.22	13.944
312.58	12.474
312.95	14.784
313.31	13.301
313.68	13.825
314.05	14.793
314.41	14.874
314.78	12.790
315.14	14.697
315.51	15.860
315.87	15.545
316.24	14.697
316.61	14.815
316.97	15.264
317.34	13.992
317.70	16.730
318.07	15.014
318.43	17.221
318.80	17.057
319.16	16.008
319.53	15.947
319.89	17.238
320.26	18.000
320.62	17.163
320.99	16.667
321.35	16.970
321.72	17.351
322.08	17.670
322.45	19.104
322.81	18.217
323.18	18.593
323.54	18.738
323.91	18.302
324.27	19.598
324.64	20.130
325.00	18.485
325.37	19.381
325.73	20.557
326.10	20.653
326.46	19.086
326.83	22.002
327.19	21.264
327.56	21.080
327.92	21.172
328.29	21.295
328.65	22.099
329.01	22.744
329.38	21.554
329.74	21.791
330.11	22.337
330.47	22.406
330.84	23.162
331.20	21.676
331.56	22.294
331.93	22.963
332.29	22.005
332.66	22.566
333.02	21.938
333.38	22.855
333.75	22.193
334.11	22.509
334.48	21.562
334.84	21.783
335.20	22.727
335.57	20.762
335.93	20.268
336.29	22.161
336.66	21.280
337.02	21.629
337.38	22.593
337.75	21.925
338.11	21.486
338.47	21.271
338.84	21.815
339.20	19.450
339.56	22.628
339.93	21.818
340.29	21.649
340.65	21.034
341.02	22.426
341.38	22.331
341.74	22.368
342.11	23.930
342.47	21.233
342.83	22.260
343.20	21.645
343.56	22.409
343.92	21.754
344.28	21.514
344.65	21.238
345.01	20.623
345.37	21.012
345.73	22.673
346.10	21.739
346.46	22.119
346.82	21.582
347.19	21.136
347.55	22.332
347.91	22.816
348.27	22.186
348.63	22.241
349.00	23.301
349.36	20.690
349.72	21.973
350.08	21.637
350.45	21.888
350.81	21.608
351.17	22.042
351.53	21.540
351.89	21.040
352.26	22.021
352.62	22.053
352.98	22.123
353.34	22.514
353.70	21.522
354.07	22.097
354.43	21.111
354.79	22.446
355.15	21.229
355.51	24.221
355.87	22.041
356.24	22.476
356.60	21.812
356.96	22.607
357.32	22.486
357.68	22.362
358.04	20.744
358.40	22.328
358.77	21.753
359.13	22.415
359.49	21.176
359.85	21.825
360.21	21.691
360.57	22.646
360.93	22.846
361.29	21.618
361.66	20.666
362.02	23.134
362.38	22.205
362.74	22.321
363.10	21.318
363.46	22.010
363.82	22.147
364.18	21.512
364.54	22.065
364.90	22.592
365.26	23.015
365.62	22.936
365.98	22.279
366.35	22.421
366.71	22.343
367.07	23.088
367.43	23.512
367.79	23.911
368.15	24.066
368.51	22.602
368.87	23.269
369.23	23.482
369.59	23.678
369.95	23.162
370.31	23.291
370.67	22.609
371.03	23.446
371.39	23.542
371.75	23.676
372.11	22.760
372.47	24.194
372.83	24.712
373.19	22.543
373.55	24.464
373.91	24.669
374.27	23.093
374.63	23.927
374.99	24.223
375.35	23.517
375.71	24.126
376.07	25.926
376.42	25.034
376.78	24.718
377.14	23.406
377.50	24.636
377.86	24.003
378.22	24.716
378.58	24.185
378.94	24.953
379.30	24.491
379.66	24.683
380.02	25.000
380.38	24.954
380.74	25.210
381.09	25.550
381.45	24.524
381.81	26.106
382.17	25.350
382.53	25.660
382.89	26.049
383.25	25.766
383.61	26.270
383.97	25.829
384.32	25.951
384.68	26.208
385.04	25.937
385.40	25.077
385.76	26.167
386.12	26.425
386.48	26.306
386.83	26.812
387.19	26.840
387.55	26.221
387.91	26.058
388.27	26.303
388.62	27.044
388.98	25.921
389.34	26.471
389.70	26.793
390.06	27.060
390.42	27.237
390.77	27.481
391.13	27.951
391.49	26.015
391.85	26.225
392.20	26.372
392.56	26.768
392.92	27.369
393.28	25.325
393.64	26.978
393.99	25.962
394.35	27.233
394.71	27.666
395.07	26.480
395.42	27.132
395.78	27.417
396.14	27.312
396.50	27.068
396.85	26.955
397.21	27.004
397.57	27.464
397.92	26.803
398.28	26.962
398.64	27.180
399.00	27.308
399.35	27.693
399.71	27.836
400.07	27.499
400.42	26.319
400.78	27.684
401.14	26.768
401.49	27.224
401.85	27.102
402.21	26.467
402.57	26.650
402.92	27.049
403.28	28.232
403.63	27.104
403.99	27.070
404.35	27.273
404.70	27.098
405.06	26.383
405.42	26.575
405.77	26.400
406.13	27.314
406.49	26.316
406.84	26.816
407.20	26.182
407.55	26.165
407.91	26.533
408.27	27.441
408.62	26.972
408.98	26.409
409.34	27.306
409.69	27.419
410.05	27.261
410.40	26.667
410.76	25.866
411.11	26.538
411.47	26.134
411.83	27.123
412.18	26.592
412.54	26.650
412.89	26.747
413.25	26.623
413.60	27.363
413.96	26.472
414.31	27.704
414.67	27.186
415.03	26.358
415.38	26.933
415.74	27.331
416.09	27.368
416.45	26.774
416.80	27.495
417.16	27.547
417.51	27.405
417.87	26.846
418.22	27.634
418.58	26.469
418.93	26.597
419.29	26.798
419.64	26.952
420.00	27.744
420.35	27.362
420.71	27.735
421.06	27.267
421.42	27.135
421.77	27.018
422.12	26.951
422.48	26.606
422.83	27.199
423.19	27.514
423.54	27.452
423.90	26.783
424.25	27.136
424.61	26.607
424.96	27.055
425.31	27.907
425.67	26.798
426.02	26.229
426.38	27.473
426.73	26.390
427.09	27.295
427.44	26.624
427.79	27.660
428.15	26.607
428.50	26.624
428.85	26.758
429.21	26.891
429.56	27.372
429.92	26.623
430.27	27.259
430.62	26.779
430.98	27.400
431.33	27.010
431.68	28.010
432.04	26.944
432.39	27.413
432.74	27.887
433.10	27.957
433.45	27.055
433.80	26.663
434.16	28.152
434.51	28.000
434.86	27.309
435.22	27.349
435.57	27.538
435.92	27.150
436.28	27.046
436.63	27.428
436.98	26.846
437.34	27.967
437.69	27.713
438.04	27.600
438.39	27.761
438.75	27.775
439.10	28.436
439.45	27.627
439.81	27.069
440.16	27.216
440.51	27.592
440.86	28.141
441.22	26.863
441.57	26.858
441.92	28.096
442.27	28.095
442.63	27.541
442.98	28.732
443.33	28.207
443.68	28.446
444.03	27.233
444.39	27.264
444.74	28.030
445.09	27.763
445.44	27.337
445.79	27.115
446.15	27.263
446.50	27.464
446.85	28.314
447.20	27.333
447.55	27.080
447.91	27.413
448.26	27.546
448.61	27.812
448.96	27.962
449.31	27.897
449.66	28.081
450.02	27.632
450.37	27.494
450.72	27.806
451.07	27.727
451.42	26.991
451.77	27.540
452.12	27.425
452.47	28.856
452.83	28.438
453.18	28.178
453.53	28.324
453.88	27.761
454.23	27.675
454.58	27.377
454.93	28.099
455.28	27.369
455.63	28.519
455.98	28.869
456.34	27.764
456.69	28.491
457.04	27.988
457.39	27.586
457.74	27.742
458.09	28.005
458.44	27.195
458.79	27.332
459.14	27.765
459.49	28.313
459.84	28.476
460.19	27.519
460.54	27.025
460.89	27.976
461.24	28.051
461.59	28.239
461.94	27.620
462.29	27.656
462.64	28.079
462.99	26.415
463.34	28.533
463.69	28.018
464.04	27.942
464.39	27.420
464.74	28.699
465.09	27.684
465.44	27.147
465.79	27.685
466.14	26.929
466.49	27.364
466.84	27.087
467.19	27.278
467.54	27.750
467.89	27.491
468.24	28.040
468.59	28.632
468.94	27.428
469.29	28.342
469.64	28.179
469.99	28.214
470.34	26.684
470.68	28.161
471.03	26.463
471.38	27.797
471.73	28.181
472.08	27.763
472.43	26.696
472.78	27.452
473.13	27.086
473.48	27.278
473.83	27.561
474.17	27.567
474.52	26.489
474.87	27.554
475.22	27.452
475.57	27.190
475.92	26.978
476.27	27.339
476.61	27.137
476.96	27.158
477.31	27.002
477.66	26.696
478.01	26.712
478.36	27.552
478.70	27.155
479.05	27.796
479.40	27.482
479.75	27.504
480.10	27.485
480.45	25.988
480.79	26.660
481.14	27.495
481.49	26.531
481.84	27.343
482.19	26.579
482.53	26.376
482.88	26.943
483.23	26.355
483.58	27.252
483.92	27.741
484.27	26.362
484.62	26.466
484.97	26.330
485.31	26.815
485.66	26.450
486.01	25.608
486.36	24.347
486.70	24.817
487.05	25.169
487.40	25.000
487.75	25.301
488.09	25.993
488.44	25.117
488.79	26.112
489.13	25.783
489.48	25.530
489.83	26.500
490.17	27.269
490.52	26.572
490.87	26.368
491.22	26.103
491.56	25.877
491.91	26.664
492.26	26.137
492.60	25.484
492.95	26.006
493.30	26.355
493.64	26.132
493.99	26.091
494.34	27.197
494.68	26.328
495.03	26.269
495.37	26.198
495.72	26.316
496.07	26.450
496.41	24.779
496.76	26.649
497.11	25.439
497.45	26.129
497.80	25.816
498.14	25.556
498.49	26.195
498.84	25.839
499.18	25.762
499.53	25.831
499.87	25.955
500.22	26.331
500.56	26.699
500.91	25.385
501.26	26.031
501.60	27.243
501.95	25.940
502.29	26.757
502.64	25.978
502.98	25.199
503.33	25.229
503.67	25.568
504.02	25.678
504.36	25.643
504.71	25.159
505.06	25.976
505.40	25.036
505.75	25.217
506.09	25.413
506.44	25.555
506.78	25.718
507.13	25.946
507.47	25.253
507.82	25.684
508.16	26.342
508.51	25.926
508.85	25.422
509.19	25.816
509.54	26.071
509.88	25.296
510.23	26.015
510.57	26.471
510.92	25.531
511.26	25.591
511.61	26.245
511.95	24.635
512.30	24.920
512.64	25.900
512.98	26.099
513.33	26.285
513.67	25.293
514.02	25.920
514.36	25.942
514.70	26.231
515.05	25.544
515.39	25.967
515.74	25.957
516.08	25.713
516.42	26.304
516.77	26.310
517.11	25.694
517.46	25.790
517.80	27.003
518.14	25.304
518.49	26.138
518.83	26.080
519.17	26.039
519.52	25.806
519.86	26.127
520.20	26.127
520.55	26.571
520.89	25.669
521.23	26.357
521.58	25.330
521.92	26.148
522.26	24.893
522.61	25.047
522.95	25.230
523.29	26.172
523.64	26.341
523.98	26.371
524.32	26.417
524.66	25.135
525.01	25.858
525.35	24.597
525.69	25.308
526.04	25.109
526.38	25.076
526.72	25.460
527.06	26.051
527.41	24.381
527.75	26.045
528.09	25.947
528.43	25.558
528.78	25.384
529.12	25.394
529.46	26.209
529.80	26.671
530.15	26.293
530.49	24.677
530.83	25.759
531.17	26.044
531.51	26.135
531.86	25.419
532.20	25.684
532.54	25.240
532.88	25.610
533.22	24.735
533.57	25.247
533.91	24.383
534.25	25.456
534.59	25.015
534.93	24.390
535.27	24.804
535.62	24.664
535.96	25.675
536.30	25.620
536.64	24.791
536.98	25.348
537.32	24.621
537.66	24.600
538.01	24.292
538.35	24.564
538.69	26.611
539.03	23.912
539.37	24.217
539.71	23.914
540.05	25.098
540.39	25.050
540.73	24.191
541.07	24.335
541.42	25.310
541.76	24.452
542.10	25.291
542.44	24.901
542.78	23.781
543.12	23.097
543.46	24.656
543.80	24.789
544.14	22.850
544.48	24.127
544.82	23.797
545.16	24.528
545.50	24.743
545.84	23.858
546.18	24.781
546.52	24.019
546.86	23.436
547.20	24.477
547.54	24.382
547.88	25.191
548.22	23.724
548.56	23.585
548.90	23.688
549.24	23.973
549.58	23.602
549.92	24.382
550.26	23.437
550.60	23.306
550.94	23.944
551.28	22.751
551.62	24.012
551.96	23.018
552.30	23.959
552.64	23.529
552.98	24.610
553.32	24.073
553.66	23.722
554.00	24.571
554.34	24.293
554.68	24.607
555.02	23.202
555.36	23.521
555.69	23.207
556.03	22.476
556.37	23.397
556.71	23.124
557.05	23.459
557.39	23.723
557.73	22.795
558.07	23.278
558.41	24.023
558.75	23.659
559.08	24.534
559.42	23.885
559.76	23.676
560.10	22.841
560.44	23.270
560.78	23.819
561.12	22.296
561.45	24.055
561.79	23.599
562.13	23.273
562.47	23.429
562.81	23.640
563.15	22.742
563.48	23.143
563.82	23.483
564.16	22.106
564.50	21.875
564.84	22.124
565.17	21.879
565.51	23.642
565.85	22.779
566.19	21.478
566.52	22.546
566.86	22.242
567.20	22.583
567.54	22.489
567.88	21.782
568.21	21.958
568.55	22.245
568.89	21.839
569.23	21.257
569.56	21.862
569.90	21.283
570.24	20.883
570.57	20.843
570.91	20.556
571.25	20.229
571.59	20.854
571.92	20.478
572.26	20.191
572.60	20.661
572.93	19.850
573.27	20.053
573.61	20.408
573.95	20.336
574.28	19.774
574.62	20.262
574.96	19.857
575.29	19.714
575.63	19.893
575.97	19.995
576.30	19.862
576.64	20.318
576.98	19.762
577.31	20.032
577.65	19.609
577.98	19.843
578.32	19.222
578.66	19.476
578.99	19.082
579.33	19.269
579.67	19.290
580.00	19.060
580.34	19.483
580.67	19.641
581.01	19.901
581.35	19.636
581.68	19.639
582.02	18.891
582.35	19.476
582.69	19.329
583.02	19.042
583.36	18.930
583.70	19.880
584.03	19.462
584.37	19.130
584.70	19.645
585.04	19.349
585.37	19.478
585.71	19.290
586.04	19.183
586.38	19.566
586.72	19.166
587.05	18.989
587.39	19.446
587.72	19.634
588.06	19.184
588.39	19.342
588.73	18.921
589.06	19.508
589.40	19.798
589.73	19.571
590.07	19.431
590.40	19.364
590.73	19.945
591.07	20.065
591.40	19.739
591.74	20.563
592.07	19.764
592.41	20.215
592.74	19.176
593.08	19.420
593.41	20.278
593.75	19.457
594.08	18.874
594.41	19.548
594.75	19.630
595.08	18.719
595.42	20.000
595.75	19.373
596.09	19.902
596.42	20.000
596.75	19.713
597.09	20.043
597.42	18.465
597.75	19.060
598.09	19.739
598.42	19.974
598.76	18.727
599.09	19.270
599.42	18.959
599.76	19.766
600.09	18.434
600.42	19.138
600.76	18.679
601.09	18.543
601.42	19.140
601.76	18.975
602.09	19.209
602.42	19.148
602.76	19.790
603.09	19.079
603.42	19.172
603.76	19.588
604.09	18.651
604.42	18.916
604.76	19.528
605.09	19.397
605.42	18.427
605.75	19.454
606.09	18.991
606.42	19.616
606.75	19.245
607.09	18.878
607.42	19.170
607.75	18.692
608.08	19.409
608.42	19.095
608.75	19.161
609.08	18.548
609.41	19.467
609.75	18.390
610.08	19.510
610.41	18.622
610.74	18.685
611.07	19.219
611.41	18.989
611.74	19.859
612.07	19.513
612.40	18.888
612.73	19.947
613.07	19.289
613.40	19.905
613.73	18.091
614.06	19.140
614.39	19.350
614.72	19.368
615.06	19.590
615.39	18.206
615.72	18.354
616.05	18.979
616.38	19.455
616.71	19.537
617.05	19.552
617.38	19.543
617.71	19.399
618.04	20.012
618.37	19.456
618.70	19.166
619.03	20.132
619.36	18.941
619.69	20.070
620.03	20.192
620.36	20.120
620.69	20.479
621.02	19.100
621.35	20.047
621.68	19.393
622.01	20.820
622.34	20.348
622.67	20.684
623.00	18.635
623.33	19.585
623.66	19.442
623.99	20.250
624.32	19.544
624.65	18.997
624.99	18.626
625.32	19.117
625.65	19.083
625.98	19.523
626.31	19.984
626.64	20.898
626.97	20.283
627.30	19.784
627.63	20.509
627.96	21.026
628.29	19.685
628.62	20.860
628.95	21.792
629.28	21.350
629.61	20.715
629.94	21.238
630.26	20.400
630.59	21.640
630.92	21.552
631.25	19.348
631.58	21.822
631.91	21.805
632.24	21.097
632.57	20.357
632.90	20.614
633.23	20.358
633.56	20.452
633.89	21.291
634.22	21.453
634.55	21.183
634.88	20.599
635.20	20.908
635.53	21.205
635.86	22.030
636.19	20.471
636.52	21.915
636.85	21.077
637.18	19.470
637.51	20.567
637.83	19.605
638.16	20.332
638.49	22.040
638.82	22.124
639.15	22.000
639.48	20.823
639.81	22.654
640.13	23.307
640.46	20.268
640.79	20.211
641.12	20.358
641.45	22.765
641.77	21.502
642.10	21.491
642.43	21.021
642.76	20.898
643.09	21.933
643.41	21.396
643.74	21.451
644.07	21.951
644.40	23.773
644.73	23.465
645.05	22.504
645.38	22.117
645.71	21.417
646.04	21.595
646.36	24.040
646.69	23.077
647.02	21.769
647.35	21.134
647.67	21.947
648.00	22.114
648.33	21.947
648.66	20.303
648.98	21.589
649.31	20.777
649.64	22.123
649.96	21.311
650.29	21.643
650.62	20.874
650.94	21.556
651.27	24.324
651.60	21.963
651.92	22.364
652.25	18.893
652.58	22.430
652.90	22.591
653.23	20.955
653.56	21.102
653.88	23.296
654.21	22.117
654.54	19.967
654.86	20.405
655.19	19.459
655.52	16.557
655.84	15.216
656.17	18.901
656.49	24.650
656.82	24.478
657.15	18.173
657.47	13.264
657.80	10.111
658.13	10.379
658.45	15.293
658.78	15.265
659.10	16.094
659.43	15.963
659.75	16.659
660.08	17.405
660.41	19.553
660.73	21.093
661.06	20.701
661.38	21.455
661.71	22.500
662.03	22.880
662.36	22.068
662.68	22.289
663.01	24.444
663.33	20.594
663.66	22.689
663.98	23.542
664.31	19.328
664.63	21.053
664.96	20.121
665.28	24.590
665.61	19.103
665.93	22.938
666.26	22.312
666.58	21.757
666.91	21.987
667.23	22.022
667.56	18.790
667.88	23.077
668.21	21.962
668.53	21.041
668.86	22.294
669.18	23.667
669.50	24.348
669.83	22.440
670.15	21.778
670.48	22.658
670.80	22.198
671.13	21.444
671.45	20.426
671.77	23.014
672.10	21.442
672.42	21.908
672.75	21.393
673.07	18.134
673.39	19.892
673.72	19.531
674.04	22.549
674.37	21.553
674.69	20.041
675.01	17.782
675.34	20.945
675.66	24.842
675.98	20.774
676.31	21.639
676.63	21.656
676.95	20.964
677.28	18.925
677.60	20.659
677.92	24.262
678.25	21.971
678.57	20.319
678.89	22.044
679.22	21.022
679.54	22.710
679.86	23.119
680.18	20.572
680.51	21.809
680.83	19.751
681.15	21.132
681.48	21.172
681.80	21.857
682.12	21.648
682.44	19.342
682.77	21.385
683.09	24.034
683.41	19.956
683.73	23.179
684.06	24.793
684.38	22.114
684.70	23.062
685.02	21.201
685.34	21.245
685.67	20.455
685.99	18.900
686.31	19.625
686.63	19.611
686.96	18.571
687.28	19.495
687.60	19.022
687.92	21.938
688.24	20.152
688.56	20.482
688.89	22.822
689.21	24.017
689.53	20.251
689.85	24.834
690.17	19.462
690.49	21.444
690.82	21.963
691.14	19.866
691.46	20.464
691.78	20.080
692.10	21.281
692.42	19.960
692.74	19.295
693.06	21.702
693.39	21.766
693.71	18.777
694.03	21.263
694.35	19.913
694.67	20.595
694.99	20.244
695.31	18.873
695.63	20.096
695.95	18.826
696.27	21.320
696.59	19.430
696.91	20.725
697.23	16.667
697.56	21.962
697.88	19.018
698.20	21.458
698.52	19.570
698.84	24.053
699.16	17.742
699.48	19.952
699.80	20.048
700.12	25.974
700.44	23.077
700.76	22.099
701.08	20.402
701.40	20.112
701.72	22.449
702.04	25.852
702.36	19.830
702.68	22.380
703.00	19.114
703.32	19.681
703.64	22.252
703.96	22.284
704.28	21.512
704.60	22.287
704.91	21.365
705.23	21.114
705.55	24.585
705.87	22.924
706.19	22.968
706.51	22.741
706.83	25.758
707.15	23.810
707.47	21.465
707.79	19.902
708.11	19.178
708.43	20.714
708.74	17.857
709.06	21.299
709.38	20.735
709.70	22.384
710.02	21.958
710.34	20.303
710.66	22.090
710.98	23.864
711.29	25.291
711.61	24.484
711.93	22.115
712.25	25.080
712.57	20.588
712.89	23.529
713.20	21.581
713.52	23.684
713.84	18.354
714.16	20.732
714.48	21.839
714.80	25.836
715.11	23.919
715.43	20.475
715.75	20.000
716.07	18.530
716.39	24.138
716.70	21.262
717.02	20.144
717.34	22.261
717.66	27.239
717.97	23.904
718.29	21.852
718.61	20.803
718.93	22.794
719.24	20.069
719.56	19.661
719.88	24.068
720.20	23.649
720.51	21.254
720.83	21.561
721.15	20.896
721.46	22.695
721.78	22.939
722.10	19.245
722.42	20.677
722.73	22.846
723.05	19.672
723.37	21.862
723.68	22.394
724.00	22.358
724.32	19.758
724.63	19.919
724.95	19.665
725.27	26.316
725.58	24.219
725.90	25.912
726.22	18.868
726.53	18.750
726.85	23.208
727.16	22.776
727.48	22.340
727.80	17.803
728.11	21.377
728.43	18.077
728.74	20.430
729.06	24.453
729.38	26.103
729.69	22.064
730.01	19.113
730.32	18.750
730.64	17.726
730.96	16.832
731.27	21.523
731.59	22.324
731.90	23.324
732.22	21.429
732.53	17.028
732.85	21.154
733.16	20.900
733.48	20.930
733.80	22.078
734.11	24.522
734.43	21.893
734.74	17.714
735.06	14.900
735.37	25.434
735.69	16.242
736.00	24.183
736.32	22.741
736.63	17.572
736.95	21.406
737.26	13.265
737.58	18.387
737.89	20.401
738.21	22.526
738.52	19.286
738.83	19.245
739.15	20.769
739.46	22.993
739.78	20.486
740.09	20.615
740.41	20.323
740.72	16.028
741.04	20.000
741.35	18.333
741.66	25.333
741.98	18.396
742.29	26.794
742.61	28.879
742.92	19.910
743.23	22.222
743.55	21.200
743.86	26.754
744.18	22.124
744.49	25.359
744.80	28.169
745.12	27.273
745.43	24.229
745.74	25.225
746.06	27.523
746.37	24.215
746.68	22.624
747.00	24.537
747.31	22.857
747.62	18.584
747.94	20.264
748.25	20.000
748.56	28.194
748.88	20.297
749.19	26.500
749.50	24.651
749.82	17.480
750.13	22.041
750.44	24.088
750.75	21.754
751.07	23.794
751.38	22.300
751.69	20.939
752.01	20.301
752.32	18.773
752.63	25.177
752.94	23.361
753.26	24.800
753.57	15.041
753.88	20.703
754.19	19.286
754.51	24.653
754.82	19.495
755.13	22.264
755.44	16.917
755.75	20.803
756.07	20.567
756.38	19.708
756.69	22.483
757.00	20.060
757.31	20.178
757.63	18.713
757.94	17.426
758.25	20.833
758.56	18.025
758.87	17.473
759.18	21.212
759.50	17.868
759.81	20.872
760.12	18.750
760.43	19.771
760.74	18.207
761.05	18.927
761.36	19.519
761.67	18.182
761.99	17.081
762.30	23.958
762.61	23.282
762.92	18.750
763.23	21.008
763.54	23.200
763.85	17.187
764.16	21.154
764.47	20.532
764.78	18.021
765.10	16.139
765.41	20.649
765.72	19.162
766.03	17.241
766.34	20.000
766.65	22.979
766.96	23.077
767.27	27.411
767.58	22.917
767.89	26.316
768.20	19.540
768.51	22.335
768.82	19.266
769.13	22.764
769.44	21.457
769.75	18.026
770.06	18.349
770.37	25.792
770.68	21.759
770.99	16.000
771.30	18.852
771.61	21.076
771.92	25.000
772.23	28.992
772.54	26.667
772.85	22.513
773.16	25.000
773.47	25.543
773.78	22.335
774.09	18.452
774.39	24.561
774.70	26.543
775.01	33.333
775.32	33.333
775.63	25.658
775.94	28.777
776.25	33.071
776.56	28.358
776.87	28.689
777.18	29.687
777.48	27.481
777.79	25.000
778.10	24.444
778.41	18.750
778.72	25.547
779.03	24.832
779.34	15.436
779.65	20.946
779.95	27.607
780.26	30.065
780.57	26.897
780.88	29.688
781.19	33.083
781.50	25.676
781.80	23.899
782.11	22.599
782.42	18.987
782.73	22.086
783.04	27.703
783.34	28.873
783.65	29.452
783.96	29.851
784.27	21.678
784.57	18.705
784.88	14.815
785.19	30.952
785.50	30.189
785.81	29.851
786.11	25.410
786.42	24.806
786.73	25.664
787.04	34.906
787.34	30.357
787.65	30.000
787.96	22.523
788.26	26.446
788.57	29.661
788.88	32.231
789.19	27.778
789.49	31.061
789.80	28.244
790.11	25.714
790.41	35.644
790.72	25.301
791.03	35.870
791.33	34.884
791.64	29.897
791.95	27.723
792.25	26.667
792.56	20.779
792.87	38.462
793.17	43.038
793.48	44.828
793.79	36.782
794.09	34.091
794.40	36.975
794.70	39.706
795.01	24.444
795.32	23.022
795.62	29.921
795.93	31.897
796.23	30.973
796.54	20.000
796.85	32.432
797.15	46.479
797.46	31.818
797.76	44.578
798.07	27.848
798.37	35.385
798.68	21.212
798.99	19.718
799.29	32.468
799.60	34.091
799.90	38.356
800.21	37.313
800.51	18.966
800.82	43.860
801.12	32.787
801.43	50.000
801.73	35.135
802.04	50.794
802.34	44.444
802.65	35.938
802.95	42.373
803.26	31.250
803.56	20.000
803.87	26.154
804.17	44.118
804.48	51.852
804.78	27.586
805.09	45.588
805.39	28.846
805.70	39.286
806.00	49.180
806.30	21.212
806.61	41.463
806.91	32.911
807.22	36.842
807.52	25.373
807.83	57.746
808.13	59.375
808.43	20.000
808.74	34.211
809.04	43.478
809.35	35.821
809.65	38.158
809.95	40.323
810.26	32.203
810.56	22.222
810.86	43.182
811.17	50.000
811.47	43.333
811.77	33.333
812.08	38.182
812.38	60.000
812.69	38.889
812.99	61.364
813.29	55.102
813.59	0.000
813.90	53.061
814.20	29.091
814.50	27.692
814.81	47.059
815.11	40.816
815.41	54.098
815.72	45.238
816.02	54.545
816.32	64.286
816.62	42.500
816.93	39.024
817.23	59.524
817.53	47.727
817.84	36.364
818.14	60.870
818.44	51.111
818.74	41.176
819.04	50.000
819.35	40.000
819.65	70.588
819.95	42.857
820.25	35.000
820.56	76.923
820.86	59.091
821.16	60.465
821.46	66.667
821.76	46.000
822.07	54.286
822.37	35.000
822.67	54.545
822.97	39.216
823.27	89.286
823.57	48.649
823.88	70.000
824.18	96.667
824.48	59.524
824.78	52.000
825.08	45.833
825.38	64.865
825.69	39.024
825.99	91.667
826.29	24.138
826.59	52.632
826.89	73.684
827.19	50.000
827.49	70.968
827.79	52.273
828.09	70.455
828.39	44.681
828.70	48.980
829.00	51.852
829.30	22.581
829.60	42.500
829.90	46.667
830.20	46.429
830.50	56.522
830.80	52.174
831.10	76.667
831.40	73.333
831.70	56.522
832.00	103.846
832.30	107.407
832.60	168.750
832.90	106.667
833.20	185.714
833.50	58.065
833.80	48.276
834.10	90.625
834.40	111.538
834.70	83.333
835.00	171.429
835.30	45.714
835.60	53.846
835.90	110.345
836.20	64.286
836.50	68.966
836.80	76.000
837.10	80.556
837.40	114.286
837.70	100.000
838.00	70.370
838.30	52.381
838.60	90.476
838.90	65.385
839.19	75.000
839.49	114.286
839.79	110.000
840.09	70.000
840.39	114.286
840.69	104.348
840.99	66.667
841.29	150.000
841.59	116.667
841.88	143.750
842.18	27.586
842.48	85.714
842.78	73.333
843.08	130.435
843.38	71.875
843.68	400.000
843.97	76.923
844.27	100.000
844.57	147.619
844.87	137.500
845.17	66.667
845.47	266.667
845.76	88.889
846.06	100.000
846.36	50.000
846.66	78.571
846.96	50.000
847.25	109.091
847.55	9.091
847.85	100.000
848.15	-10.000
848.44	185.714
848.74	5.556
849.04	64.706
849.34	160.000
849.63	100.000
849.93	18.182
850.23	280.000
850.53	157.143
850.82	800.000
851.12	-1400.000
851.42	1100.000
851.71	95.000
852.01	-100.000
852.31	91.667
852.61	666.667
852.90	100.000
853.20	100.000
853.50	52.941
853.79	71.429
854.09	58.333
854.39	93.750
854.68	94.595
854.98	77.419
855.28	66.667
855.57	79.310
855.87	88.889
856.17	36.842
856.46	26.667
856.76	117.647
857.05	65.517
857.35	66.667
857.65	20.000
857.94	113.043
858.24	92.308
858.53	80.000
858.83	54.545
859.13	113.333
859.42	0.000
859.72	88.889
860.01	181.818
860.31	95.455
860.60	94.737
860.90	34.783
861.20	111.111
861.49	200.000
861.79	-800.000
862.08	187.500
862.38	109.524
862.67	130.769
862.97	129.412
863.26	200.000
863.56	83.333
863.85	91.667
864.15	212.500
864.44	106.667
864.74	216.667
865.03	212.500
865.33	94.737
865.62	181.818
865.92	184.615
866.21	0.000
866.51	0.000
866.80	118.182
867.10	420.000
867.39	153.846
867.69	109.091
867.98	84.211
868.27	172.727
868.57	89.474
868.86	200.000
869.16	93.750
869.45	-150.000
869.75	-600.000
870.04	150.000
870.33	142.857
870.63	100.000
870.92	550.000
871.22	142.857
871.51	135.294
871.80	14.286
872.10	107.143
>>>>>End Processed Spectral Data<<<<<
