SpectraSuite Data File
++++++++++++++++++++++++++++++++++++
Date: Wed May 13 16:23:39 PDT 2015
User: schluterlab
Dark Spectrum Present: Yes
Reference Spectrum Present: Yes
Number of Sampled Component Spectra: 1
Spectrometers: USB2E3373
Integration Time (usec): 3000 (USB2E3373)
Spectra Averaged: 3 (USB2E3373)
Boxcar Smoothing: 0 (USB2E3373)
Correct for Electrical Dark: No (USB2E3373)
Strobe/Lamp Enabled: No (USB2E3373)
Correct for Detector Non-linearity: No (USB2E3373)
Correct for Stray Light: No (USB2E3373)
Number of Pixels in Processed Spectrum: 2048
>>>>>Begin Processed Spectral Data<<<<<
178.53	0.000
178.91	-1350.000
179.29	-1200.000
179.67	-211.111
180.04	-1175.000
180.42	2400.000
180.80	960.000
181.18	-1100.000
181.56	671.429
181.94	0.000
182.31	-700.000
182.69	1266.667
183.07	-625.000
183.45	-500.000
183.83	563.636
184.20	-420.000
184.58	2250.000
184.96	5200.000
185.34	-660.000
185.72	-562.500
186.09	-2250.000
186.47	2650.000
186.85	2550.000
187.23	4600.000
187.61	-1733.333
187.98	1325.000
188.36	481.818
188.74	518.182
189.12	-680.000
189.49	600.000
189.87	-5200.000
190.25	-1025.000
190.63	385.714
191.00	415.385
191.38	800.000
191.76	-1025.000
192.14	1475.000
192.51	575.000
192.89	966.667
193.27	612.500
193.65	-1025.000
194.02	530.000
194.40	900.000
194.78	500.000
195.15	516.667
195.53	570.000
195.91	-2150.000
196.29	393.750
196.66	347.368
197.04	-360.000
197.42	0.000
197.79	630.000
198.17	-3700.000
198.55	542.857
198.92	662.500
199.30	820.000
199.68	0.000
200.05	272.222
200.43	557.143
200.81	3000.000
201.18	1733.333
201.56	-1566.667
201.94	588.889
202.31	511.111
202.69	400.000
203.07	540.000
203.44	0.000
203.82	975.000
204.19	742.857
204.57	400.000
204.95	675.000
205.32	1633.333
205.70	409.091
206.08	371.429
206.45	2600.000
206.83	406.250
207.20	866.667
207.58	780.000
207.96	305.556
208.33	600.000
208.71	-866.667
209.08	800.000
209.46	555.556
209.84	536.364
210.21	-1500.000
210.59	1400.000
210.96	-425.000
211.34	2500.000
211.71	600.000
212.09	750.000
212.46	0.000
212.84	1733.333
213.22	1425.000
213.59	-4700.000
213.97	700.000
214.34	814.286
214.72	545.455
215.09	1180.000
215.47	-1900.000
215.84	-2350.000
216.22	1566.667
216.59	435.714
216.97	1300.000
217.34	445.455
217.72	-616.667
218.09	0.000
218.47	-3700.000
218.84	555.556
219.22	642.857
219.59	1766.667
219.97	-642.857
220.34	1020.000
220.72	-1600.000
221.09	414.286
221.47	1325.000
221.84	-833.333
222.22	0.000
222.59	1375.000
222.97	-2150.000
223.34	900.000
223.72	353.846
224.09	840.000
224.46	2050.000
224.84	-4600.000
225.21	-840.000
225.59	-4200.000
225.96	680.000
226.34	250.000
226.71	2200.000
227.08	587.500
227.46	480.000
227.83	-1200.000
228.21	-2400.000
228.58	588.889
228.95	-2200.000
229.33	-3100.000
229.70	1566.667
230.08	657.143
230.45	-920.000
230.82	466.667
231.20	950.000
231.57	657.143
231.95	416.667
232.32	259.091
232.69	418.182
233.07	614.286
233.44	307.692
233.81	-1266.667
234.19	273.684
234.56	441.667
234.93	408.333
235.31	454.545
235.68	369.231
236.05	278.571
236.43	175.758
236.80	242.105
237.17	4300.000
237.55	233.333
237.92	200.000
238.29	233.333
238.67	164.516
239.04	200.000
239.41	166.667
239.79	108.696
240.16	157.143
240.53	115.909
240.91	100.000
241.28	130.000
241.65	132.000
242.02	105.797
242.40	111.290
242.77	100.000
243.14	78.495
243.51	84.270
243.89	80.000
244.26	72.222
244.63	75.269
245.00	80.851
245.38	66.337
245.75	68.224
246.12	58.716
246.49	67.153
246.87	69.600
247.24	63.846
247.61	60.000
247.98	61.438
248.36	44.595
248.73	59.236
249.10	53.503
249.47	50.847
249.84	60.428
250.22	54.545
250.59	52.663
250.96	55.051
251.33	47.393
251.70	52.475
252.08	50.000
252.45	45.291
252.82	48.696
253.19	48.085
253.56	50.196
253.94	50.207
254.31	49.219
254.68	46.538
255.05	46.125
255.42	44.309
255.79	42.647
256.16	43.321
256.54	39.576
256.91	43.416
257.28	43.165
257.65	41.254
258.02	39.752
258.39	42.587
258.76	42.809
259.14	41.964
259.51	38.602
259.88	37.267
260.25	40.181
260.62	38.728
260.99	42.236
261.36	40.541
261.73	39.828
262.10	40.698
262.47	40.845
262.85	40.947
263.22	33.903
263.59	41.595
263.96	36.813
264.33	35.770
264.70	38.684
265.07	38.363
265.44	39.394
265.81	36.496
266.18	41.206
266.55	39.268
266.92	38.575
267.29	38.889
267.66	34.633
268.03	37.727
268.40	35.280
268.77	36.993
269.14	35.135
269.51	37.020
269.88	37.529
270.25	36.117
270.62	38.652
270.99	38.065
271.36	37.768
271.73	36.682
272.10	35.435
272.47	38.065
272.84	37.662
273.21	37.526
273.58	36.026
273.95	33.753
274.32	36.157
274.69	35.332
275.06	35.039
275.43	38.298
275.80	34.669
276.17	34.623
276.54	36.175
276.91	32.806
277.28	35.742
277.65	34.816
278.02	35.611
278.39	33.984
278.76	34.545
279.13	34.528
279.50	35.196
279.87	35.259
280.23	33.533
280.60	33.849
280.97	34.566
281.34	34.336
281.71	33.818
282.08	34.741
282.45	32.545
282.82	35.702
283.19	30.838
283.56	32.982
283.92	31.810
284.29	32.099
284.66	33.757
285.03	31.284
285.40	32.746
285.77	31.145
286.14	32.815
286.51	34.667
286.87	32.650
287.24	34.039
287.61	32.263
287.98	30.195
288.35	31.696
288.72	28.972
289.08	30.203
289.45	29.325
289.82	31.545
290.19	28.414
290.56	28.943
290.93	27.190
291.29	29.755
291.66	29.351
292.03	30.523
292.40	31.424
292.77	28.846
293.13	29.254
293.50	28.134
293.87	28.741
294.24	26.815
294.60	27.074
294.97	27.035
295.34	28.632
295.71	25.284
296.08	26.638
296.44	27.098
296.81	25.760
297.18	25.881
297.55	24.274
297.91	25.594
298.28	26.506
298.65	28.198
299.02	26.350
299.38	25.896
299.75	22.507
300.12	23.499
300.48	25.625
300.85	24.908
301.22	25.732
301.59	24.747
301.95	24.433
302.32	25.160
302.69	24.492
303.05	24.606
303.42	23.951
303.79	25.142
304.15	24.009
304.52	22.711
304.89	22.764
305.25	23.434
305.62	24.122
305.99	24.675
306.35	25.280
306.72	22.197
307.09	23.973
307.45	25.000
307.82	23.103
308.19	23.731
308.55	24.811
308.92	23.093
309.29	22.070
309.65	23.118
310.02	23.996
310.38	24.301
310.75	23.548
311.12	22.313
311.48	24.033
311.85	24.214
312.22	24.766
312.58	22.661
312.95	24.287
313.31	23.689
313.68	25.052
314.05	25.345
314.41	25.528
314.78	24.471
315.14	23.932
315.51	25.129
315.87	25.446
316.24	24.528
316.61	25.439
316.97	24.070
317.34	25.049
317.70	25.430
318.07	26.275
318.43	28.278
318.80	26.429
319.16	26.365
319.53	25.610
319.89	27.238
320.26	28.200
320.62	27.976
320.99	28.687
321.35	29.293
321.72	28.439
322.08	29.812
322.45	31.642
322.81	30.136
323.18	30.732
323.54	30.983
323.91	31.038
324.27	30.784
324.64	30.009
325.00	30.929
325.37	32.393
325.73	33.214
326.10	34.334
326.46	33.154
326.83	34.513
327.19	33.988
327.56	34.582
327.92	35.783
328.29	36.114
328.65	35.175
329.01	36.643
329.38	37.835
329.74	36.565
330.11	37.229
330.47	35.445
330.84	37.868
331.20	36.794
331.56	38.349
331.93	37.963
332.29	36.646
332.66	38.053
333.02	37.751
333.38	37.127
333.75	36.988
334.11	37.989
334.48	36.823
334.84	37.960
335.20	39.091
335.57	37.081
335.93	36.696
336.29	38.553
336.66	38.233
337.02	36.380
337.38	37.037
337.75	37.790
338.11	38.585
338.47	38.029
338.84	38.863
339.20	38.073
339.56	39.872
339.93	39.182
340.29	39.221
340.65	38.681
341.02	40.052
341.38	38.345
341.74	38.772
342.11	39.651
342.47	39.559
342.83	38.613
343.20	39.740
343.56	37.911
343.92	39.298
344.28	37.245
344.65	39.553
345.01	39.983
345.37	39.108
345.73	40.186
346.10	40.921
346.46	41.102
346.82	39.127
347.19	39.348
347.55	38.424
347.91	39.725
348.27	39.606
348.63	40.301
349.00	39.644
349.36	39.327
349.72	40.978
350.08	39.870
350.45	40.683
350.81	39.318
351.17	40.600
351.53	40.868
351.89	38.449
352.26	40.805
352.62	40.096
352.98	40.438
353.34	41.167
353.70	39.280
354.07	41.048
354.43	40.238
354.79	39.662
355.15	39.745
355.51	41.087
355.87	41.633
356.24	40.228
356.60	39.535
356.96	40.708
357.32	42.191
357.68	40.866
358.04	41.726
358.40	40.697
358.77	42.175
359.13	40.884
359.49	40.392
359.85	40.635
360.21	43.142
360.57	40.856
360.93	42.692
361.29	41.723
361.66	41.563
362.02	42.537
362.38	41.673
362.74	41.071
363.10	41.007
363.46	42.333
363.82	42.479
364.18	41.263
364.54	42.645
364.90	41.714
365.26	42.353
365.62	42.586
365.98	42.805
366.35	42.479
366.71	43.167
367.07	42.826
367.43	43.324
367.79	43.826
368.15	43.678
368.51	42.660
368.87	44.111
369.23	43.233
369.59	43.592
369.95	43.676
370.31	43.305
370.67	42.754
371.03	44.644
371.39	43.878
371.75	44.853
372.11	43.030
372.47	45.455
372.83	45.749
373.19	43.858
373.55	45.750
373.91	45.214
374.27	43.574
374.63	44.291
374.99	45.056
375.35	44.522
375.71	45.785
376.07	46.365
376.42	45.392
376.78	45.792
377.14	46.744
377.50	45.828
377.86	45.878
378.22	45.638
378.58	45.175
378.94	45.820
379.30	46.120
379.66	46.510
380.02	47.236
380.38	46.570
380.74	45.618
381.09	47.311
381.45	47.880
381.81	47.543
382.17	47.516
382.53	47.736
382.89	48.025
383.25	48.280
383.61	48.761
383.97	47.842
384.32	46.974
384.68	47.831
385.04	47.142
385.40	47.430
385.76	48.034
386.12	47.150
386.48	48.395
386.83	48.749
387.19	49.660
387.55	49.969
387.91	48.247
388.27	48.498
388.62	48.248
388.98	48.894
389.34	50.375
389.70	49.601
390.06	49.556
390.42	51.038
390.77	49.873
391.13	50.351
391.49	50.825
391.85	48.568
392.20	48.959
392.56	50.189
392.92	49.088
393.28	49.467
393.64	49.640
393.99	50.397
394.35	50.434
394.71	50.690
395.07	48.910
395.42	50.742
395.78	50.700
396.14	49.597
396.50	51.190
396.85	50.922
397.21	49.322
397.57	50.341
397.92	51.142
398.28	49.103
398.64	49.343
399.00	49.860
399.35	49.690
399.71	50.000
400.07	49.556
400.42	49.877
400.78	50.241
401.14	50.610
401.49	49.731
401.85	49.607
402.21	48.204
402.57	50.463
402.92	49.811
403.28	50.531
403.63	49.134
403.99	50.892
404.35	49.273
404.70	49.101
405.06	49.214
405.42	49.220
405.77	48.743
406.13	47.912
406.49	49.261
406.84	49.380
407.20	48.345
407.55	50.160
407.91	50.933
408.27	48.756
408.62	48.585
408.98	49.020
409.34	49.692
409.69	49.290
410.05	49.195
410.40	48.318
410.76	49.343
411.11	49.276
411.47	49.585
411.83	48.564
412.18	49.351
412.54	49.315
412.89	48.916
413.25	49.174
413.60	48.610
413.96	47.055
414.31	47.266
414.67	49.176
415.03	48.808
415.38	47.680
415.74	48.424
416.09	48.792
416.45	47.925
416.80	48.777
417.16	48.525
417.51	49.104
417.87	48.940
418.22	49.211
418.58	48.806
418.93	48.280
419.29	48.377
419.64	49.496
420.00	48.171
420.35	47.826
420.71	48.416
421.06	47.912
421.42	48.655
421.77	48.991
422.12	47.445
422.48	47.275
422.83	48.340
423.19	47.790
423.54	48.288
423.90	47.362
424.25	48.074
424.61	47.262
424.96	47.638
425.31	47.398
425.67	45.618
426.02	46.286
426.38	48.413
426.73	48.157
427.09	48.267
427.44	47.671
427.79	48.246
428.15	47.738
428.50	48.040
428.85	47.855
429.21	47.101
429.56	46.812
429.92	48.012
430.27	46.524
430.62	46.083
430.98	45.719
431.33	46.804
431.68	46.597
432.04	45.101
432.39	45.974
432.74	46.499
433.10	46.802
433.45	48.397
433.80	46.674
434.16	46.795
434.51	45.474
434.86	47.263
435.22	46.693
435.57	46.991
435.92	47.221
436.28	47.331
436.63	47.627
436.98	46.594
437.34	46.691
437.69	46.499
438.04	47.161
438.39	47.761
438.75	48.112
439.10	47.263
439.45	46.753
439.81	46.888
440.16	45.850
440.51	47.452
440.86	46.439
441.22	46.830
441.57	46.231
441.92	46.673
442.27	45.802
442.63	45.866
442.98	46.930
443.33	46.576
443.68	45.225
444.03	45.974
444.39	45.667
444.74	45.346
445.09	46.146
445.44	46.036
445.79	46.116
446.15	45.686
446.50	46.150
446.85	45.632
447.20	44.671
447.55	46.119
447.91	45.780
448.26	45.743
448.61	45.789
448.96	46.844
449.31	46.400
449.66	45.020
450.02	43.955
450.37	45.408
450.72	45.121
451.07	45.338
451.42	44.924
451.77	46.389
452.12	44.169
452.47	45.585
452.83	45.455
453.18	44.927
453.53	46.815
453.88	45.718
454.23	45.726
454.58	46.214
454.93	46.027
455.28	45.137
455.63	45.024
455.98	46.012
456.34	45.729
456.69	46.462
457.04	44.706
457.39	44.360
457.74	44.573
458.09	45.083
458.44	44.356
458.79	43.167
459.14	45.147
459.49	44.367
459.84	44.377
460.19	43.901
460.54	43.287
460.89	43.335
461.24	44.202
461.59	43.928
461.94	44.390
462.29	44.866
462.64	43.267
462.99	43.396
463.34	43.733
463.69	44.966
464.04	43.478
464.39	43.884
464.74	43.018
465.09	43.546
465.44	43.213
465.79	41.946
466.14	42.474
466.49	42.547
466.84	42.966
467.19	43.331
467.54	44.187
467.89	43.097
468.24	41.943
468.59	43.712
468.94	42.272
469.29	44.216
469.64	43.507
469.99	43.843
470.34	43.395
470.68	43.750
471.03	43.061
471.38	42.877
471.73	43.238
472.08	43.684
472.43	42.588
472.78	42.396
473.13	42.426
473.48	42.697
473.83	42.439
474.17	42.626
474.52	42.680
474.87	42.966
475.22	42.194
475.57	40.677
475.92	41.742
476.27	41.150
476.61	41.147
476.96	41.121
477.31	41.706
477.66	41.958
478.01	41.715
478.36	41.407
478.70	41.070
479.05	41.747
479.40	41.146
479.75	40.519
480.10	40.905
480.45	40.647
480.79	39.513
481.14	41.096
481.49	40.674
481.84	39.415
482.19	40.527
482.53	40.092
482.88	40.298
483.23	41.028
483.58	40.082
483.92	39.972
484.27	38.911
484.62	39.698
484.97	38.865
485.31	40.959
485.66	39.848
486.01	37.712
486.36	36.320
486.70	34.919
487.05	36.175
487.40	37.462
487.75	37.842
488.09	37.762
488.44	38.459
488.79	39.277
489.13	39.267
489.48	39.396
489.83	38.800
490.17	39.237
490.52	38.530
490.87	38.625
491.22	38.608
491.56	38.087
491.91	38.530
492.26	38.953
492.60	38.710
492.95	37.933
493.30	38.131
493.64	38.824
493.99	38.719
494.34	38.113
494.68	39.286
495.03	38.722
495.37	37.785
495.72	39.376
496.07	38.840
496.41	36.593
496.76	38.127
497.11	37.956
497.45	38.100
497.80	38.820
498.14	36.957
498.49	37.854
498.84	37.824
499.18	37.810
499.53	37.939
499.87	38.257
500.22	37.683
500.56	38.835
500.91	38.750
501.26	38.217
501.60	38.348
501.95	37.076
502.29	38.004
502.64	38.268
502.98	37.728
503.33	36.563
503.67	37.262
504.02	37.091
504.36	37.670
504.71	37.567
505.06	37.398
505.40	37.385
505.75	36.500
506.09	37.075
506.44	37.691
506.78	37.214
507.13	37.254
507.47	37.071
507.82	36.981
508.16	37.234
508.51	37.849
508.85	36.544
509.19	37.602
509.54	36.888
509.88	36.631
510.23	37.429
510.57	37.822
510.92	37.079
511.26	37.359
511.61	37.500
511.95	36.273
512.30	36.320
512.64	37.399
512.98	38.478
513.33	37.206
513.67	36.339
514.02	36.580
514.36	37.138
514.70	38.074
515.05	37.702
515.39	37.241
515.74	37.669
516.08	37.731
516.42	37.347
516.77	37.458
517.11	36.071
517.46	37.246
517.80	38.676
518.14	36.074
518.49	38.215
518.83	36.307
519.17	37.240
519.52	36.899
519.86	36.452
520.20	37.052
520.55	37.463
520.89	37.348
521.23	37.274
521.58	37.575
521.92	38.212
522.26	36.852
522.61	37.632
522.95	37.262
523.29	36.519
523.64	37.073
523.98	36.845
524.32	35.826
524.66	37.462
525.01	36.703
525.35	37.546
525.69	36.823
526.04	36.386
526.38	36.486
526.72	36.564
527.06	37.414
527.41	35.458
527.75	37.814
528.09	36.673
528.43	36.966
528.78	36.447
529.12	36.121
529.46	37.538
529.80	36.510
530.15	37.196
530.49	36.062
530.83	36.013
531.17	37.337
531.51	37.938
531.86	36.194
532.20	36.245
532.54	37.988
532.88	35.815
533.22	36.227
533.57	37.099
533.91	36.002
534.25	35.419
534.59	35.265
534.93	35.098
535.27	35.848
535.62	36.264
535.96	36.095
536.30	35.664
536.64	35.995
536.98	37.094
537.32	35.747
537.66	35.667
538.01	36.998
538.35	35.747
538.69	35.992
539.03	35.737
539.37	34.760
539.71	34.738
540.05	35.490
540.39	36.346
540.73	34.994
541.07	36.665
541.42	36.073
541.76	36.000
542.10	35.252
542.44	36.291
542.78	36.627
543.12	34.933
543.46	35.607
543.80	36.174
544.14	35.623
544.48	35.556
544.82	34.381
545.16	35.459
545.50	34.769
545.84	34.745
546.18	36.162
546.52	35.719
546.86	35.120
547.20	35.604
547.54	35.671
547.88	36.288
548.22	34.932
548.56	34.277
548.90	34.635
549.24	33.872
549.58	35.948
549.92	35.508
550.26	35.724
550.60	34.855
550.94	34.718
551.28	34.016
551.62	35.873
551.96	34.035
552.30	35.904
552.64	35.227
552.98	36.068
553.32	34.525
553.66	35.787
554.00	34.660
554.34	34.369
554.68	35.193
555.02	34.979
555.36	33.890
555.69	34.168
556.03	34.320
556.37	34.789
556.71	34.652
557.05	33.964
557.39	35.339
557.73	34.721
558.07	34.663
558.41	35.166
558.75	34.460
559.08	34.004
559.42	34.618
559.76	35.294
560.10	34.475
560.44	34.102
560.78	33.733
561.12	34.169
561.45	34.941
561.79	33.355
562.13	33.132
562.47	33.880
562.81	35.286
563.15	34.114
563.48	33.488
563.82	33.333
564.16	33.682
564.50	33.724
564.84	33.249
565.17	33.912
565.51	34.058
565.85	34.454
566.19	32.498
566.52	34.072
566.86	33.333
567.20	34.021
567.54	33.333
567.88	32.917
568.21	33.439
568.55	33.923
568.89	32.101
569.23	31.774
569.56	31.538
569.90	31.472
570.24	31.216
570.57	30.840
570.91	30.511
571.25	30.451
571.59	30.457
571.92	29.839
572.26	29.838
572.60	30.240
572.93	30.105
573.27	30.524
573.61	30.290
573.95	30.233
574.28	29.548
574.62	29.762
574.96	29.486
575.29	29.486
575.63	29.472
575.97	29.602
576.30	29.421
576.64	29.871
576.98	29.825
577.31	29.783
577.65	29.490
577.98	29.513
578.32	29.150
578.66	29.203
578.99	28.829
579.33	29.170
579.67	28.728
580.00	29.417
580.34	29.402
580.67	29.378
581.01	30.065
581.35	29.474
581.68	29.329
582.02	29.019
582.35	28.445
582.69	28.539
583.02	28.876
583.36	29.122
583.70	29.146
584.03	29.310
584.37	30.382
584.70	30.120
585.04	29.452
585.37	29.240
585.71	29.276
586.04	28.944
586.38	29.963
586.72	29.660
587.05	29.720
587.39	28.839
587.72	29.142
588.06	29.856
588.39	29.547
588.73	29.510
589.06	30.477
589.40	30.067
589.73	30.130
590.07	30.142
590.40	29.960
590.73	29.938
591.07	30.566
591.40	30.704
591.74	31.126
592.07	30.934
592.41	30.715
592.74	29.963
593.08	30.613
593.41	29.453
593.75	28.795
594.08	29.467
594.41	29.622
594.75	29.908
595.08	29.885
595.42	30.298
595.75	29.274
596.09	30.717
596.42	30.452
596.75	30.435
597.09	30.519
597.42	29.764
597.75	29.840
598.09	29.435
598.42	30.369
598.76	29.469
599.09	29.532
599.42	29.622
599.76	29.466
600.09	29.326
600.42	29.145
600.76	29.107
601.09	29.144
601.42	28.691
601.76	29.184
602.09	29.170
602.42	29.260
602.76	29.504
603.09	30.094
603.42	29.832
603.76	28.887
604.09	29.663
604.42	30.575
604.76	30.747
605.09	29.620
605.42	30.483
605.75	30.215
606.09	29.362
606.42	30.159
606.75	29.034
607.09	29.678
607.42	29.097
607.75	28.945
608.08	28.875
608.42	30.076
608.75	29.441
609.08	29.695
609.41	29.224
609.75	29.204
610.08	29.830
610.41	29.702
610.74	30.322
611.07	30.089
611.41	29.588
611.74	30.367
612.07	29.814
612.40	30.430
612.73	29.526
613.07	30.657
613.40	30.542
613.73	29.418
614.06	30.000
614.39	29.890
614.72	29.632
615.06	29.937
615.39	29.671
615.72	30.368
616.05	29.240
616.38	30.072
616.71	31.354
617.05	31.272
617.38	30.126
617.71	30.871
618.04	31.731
618.37	29.568
618.70	30.989
619.03	32.368
619.36	30.957
619.69	31.268
620.03	30.838
620.36	31.350
620.69	31.712
621.02	32.817
621.35	30.775
621.68	31.231
622.01	32.895
622.34	32.602
622.67	31.331
623.00	30.961
623.33	31.808
623.66	30.951
623.99	31.885
624.32	31.027
624.65	31.356
624.99	29.887
625.32	31.427
625.65	32.081
625.98	31.591
626.31	31.882
626.64	32.898
626.97	32.086
627.30	31.255
627.63	33.388
627.96	32.128
628.29	31.146
628.62	33.486
628.95	33.774
629.28	32.026
629.61	33.364
629.94	32.762
630.26	33.556
630.59	32.412
630.92	33.812
631.25	31.688
631.58	33.333
631.91	32.252
632.24	33.966
632.57	33.998
632.90	34.101
633.23	31.767
633.56	34.689
633.89	33.862
634.22	34.733
634.55	34.083
634.88	32.934
635.20	36.081
635.53	34.337
635.86	33.911
636.19	34.824
636.52	34.025
636.85	34.479
637.18	33.641
637.51	35.579
637.83	33.292
638.16	35.550
638.49	35.642
638.82	34.513
639.15	35.250
639.48	35.536
639.81	35.121
640.13	34.505
640.46	34.631
640.79	34.742
641.12	34.801
641.45	35.894
641.77	34.904
642.10	36.842
642.43	34.384
642.76	34.675
643.09	36.963
643.41	36.267
643.74	35.957
644.07	34.299
644.40	36.963
644.73	37.638
645.05	38.035
645.38	33.965
645.71	36.876
646.04	36.047
646.36	40.401
646.69	34.950
647.02	37.755
647.35	38.144
647.67	36.814
648.00	36.423
648.33	35.974
648.66	35.303
648.98	36.132
649.31	34.978
649.64	35.277
649.96	34.575
650.29	36.019
650.62	34.628
650.94	36.953
651.27	40.372
651.60	37.105
651.92	35.942
652.25	33.876
652.58	36.604
652.90	37.283
653.23	33.898
653.56	35.591
653.88	36.926
654.21	37.283
654.54	35.644
654.86	35.670
655.19	32.297
655.52	26.181
655.84	23.533
656.17	30.619
656.49	40.195
656.82	40.180
657.15	29.495
657.47	21.835
657.80	16.626
658.13	17.601
658.45	25.551
658.78	26.071
659.10	26.771
659.43	28.489
659.75	29.835
660.08	32.278
660.41	35.661
660.73	37.865
661.06	37.261
661.38	39.273
661.71	36.538
662.03	38.067
662.36	37.376
662.68	40.161
663.01	39.394
663.33	38.641
663.66	38.025
663.98	38.445
664.31	37.185
664.63	34.615
664.96	34.406
665.28	35.656
665.61	35.867
665.93	37.022
666.26	37.120
666.58	38.703
666.91	39.535
667.23	40.225
667.56	36.069
667.88	39.530
668.21	40.938
668.53	39.913
668.86	34.199
669.18	37.313
669.50	37.826
669.83	39.651
670.15	37.111
670.48	37.255
670.80	40.302
671.13	36.730
671.45	38.085
671.77	39.308
672.10	36.599
672.42	34.276
672.75	35.489
673.07	36.268
673.39	36.890
673.72	34.375
674.04	37.843
674.37	34.175
674.69	34.969
675.01	35.356
675.34	38.604
675.66	39.789
675.98	37.067
676.31	36.555
676.63	33.970
676.95	36.268
677.28	39.953
677.60	37.363
677.92	39.662
678.25	35.524
678.57	36.454
678.89	37.275
679.22	36.149
679.54	35.305
679.86	35.596
680.18	35.063
680.51	34.752
680.83	35.231
681.15	32.264
681.48	36.862
681.80	35.977
682.12	35.249
682.44	35.203
682.77	37.475
683.09	39.270
683.41	36.364
683.73	38.631
684.06	38.430
684.38	35.812
684.70	35.465
685.02	34.522
685.34	35.165
685.67	33.042
685.99	33.162
686.31	33.788
686.63	32.155
686.96	32.857
687.28	33.935
687.60	33.877
687.92	33.821
688.24	36.692
688.56	38.956
688.89	35.270
689.21	39.301
689.53	35.908
689.85	39.468
690.17	35.818
690.49	36.730
690.82	36.916
691.14	37.277
691.46	35.021
691.78	35.542
692.10	37.810
692.42	35.928
692.74	32.780
693.06	36.170
693.39	37.372
693.71	35.590
694.03	36.632
694.35	37.013
694.67	36.842
694.99	38.537
695.31	38.971
695.63	36.603
695.95	37.653
696.27	36.548
696.59	39.119
696.91	38.342
697.23	33.803
697.56	37.313
697.88	33.129
698.20	34.792
698.52	35.054
698.84	37.194
699.16	35.253
699.48	38.005
699.80	39.614
700.12	42.078
700.44	40.849
700.76	39.227
701.08	40.230
701.40	37.989
701.72	42.857
702.04	41.761
702.36	36.827
702.68	38.810
703.00	40.166
703.32	39.362
703.64	39.142
703.96	38.162
704.28	39.244
704.60	40.469
704.91	40.356
705.23	42.229
705.55	45.847
705.87	44.850
706.19	46.290
706.51	42.368
706.83	43.030
707.15	38.655
707.47	35.606
707.79	40.049
708.11	36.073
708.43	36.905
708.74	37.500
709.06	40.000
709.38	38.320
709.70	39.535
710.02	43.917
710.34	41.212
710.66	39.403
710.98	38.636
711.29	40.698
711.61	41.003
711.93	36.538
712.25	43.730
712.57	45.588
712.89	40.830
713.20	37.690
713.52	40.132
713.84	39.873
714.16	41.159
714.48	37.931
714.80	45.289
715.11	39.769
715.43	37.389
715.75	37.681
716.07	40.895
716.39	43.887
716.70	44.186
717.02	42.086
717.34	43.110
717.66	43.284
717.97	41.833
718.29	42.222
718.61	44.526
718.93	41.544
719.24	43.253
719.56	39.322
719.88	40.000
720.20	42.568
720.51	42.160
720.83	43.123
721.15	42.910
721.46	41.844
721.78	43.011
722.10	43.396
722.42	44.361
722.73	45.318
723.05	45.902
723.37	41.700
723.68	44.788
724.00	42.683
724.32	43.952
724.63	46.341
724.95	44.770
725.27	42.915
725.58	40.234
725.90	45.985
726.22	43.396
726.53	40.972
726.85	40.956
727.16	43.416
727.48	42.553
727.80	41.288
728.11	41.304
728.43	40.385
728.74	43.011
729.06	48.175
729.38	47.059
729.69	40.925
730.01	39.932
730.32	41.667
730.64	40.134
730.96	36.634
731.27	44.040
731.59	38.838
731.90	36.735
732.22	37.578
732.53	37.152
732.85	40.064
733.16	39.550
733.48	40.864
733.80	35.390
734.11	38.854
734.43	39.941
734.74	36.000
735.06	36.103
735.37	38.150
735.69	36.943
736.00	41.830
736.32	38.941
736.63	39.617
736.95	38.978
737.26	35.714
737.58	35.484
737.89	37.124
738.21	40.956
738.52	37.857
738.83	36.981
739.15	43.462
739.46	37.956
739.78	40.972
740.09	41.538
740.41	38.387
740.72	34.843
741.04	44.074
741.35	42.083
741.66	46.222
741.98	44.340
742.29	46.411
742.61	43.534
742.92	47.511
743.23	41.453
743.55	44.000
743.86	45.614
744.18	49.115
744.49	49.282
744.80	51.174
745.12	48.636
745.43	44.053
745.74	47.297
746.06	52.294
746.37	47.982
746.68	42.986
747.00	43.981
747.31	46.667
747.62	45.575
747.94	44.493
748.25	40.426
748.56	49.780
748.88	45.545
749.19	49.000
749.50	46.977
749.82	43.089
750.13	43.265
750.44	43.431
750.75	41.754
751.07	43.087
751.38	46.341
751.69	41.516
752.01	40.977
752.32	38.628
752.63	43.262
752.94	46.311
753.26	48.400
753.57	34.959
753.88	42.969
754.19	41.786
754.51	40.278
754.82	39.711
755.13	44.528
755.44	40.602
755.75	36.496
756.07	46.099
756.38	38.321
756.69	44.295
757.00	37.425
757.31	36.499
757.63	36.257
757.94	38.070
758.25	34.804
758.56	35.309
758.87	36.290
759.18	39.697
759.50	34.169
759.81	37.695
760.12	32.188
760.43	37.249
760.74	36.141
761.05	36.723
761.36	36.631
761.67	33.523
761.99	36.646
762.30	41.319
762.61	41.603
762.92	42.188
763.23	42.857
763.54	43.600
763.85	37.500
764.16	43.462
764.47	43.346
764.78	38.869
765.10	32.595
765.41	40.413
765.72	41.916
766.03	35.110
766.34	36.333
766.65	46.383
766.96	41.453
767.27	51.269
767.58	50.000
767.89	56.316
768.20	54.023
768.51	49.746
768.82	44.037
769.13	44.715
769.44	37.652
769.75	45.494
770.06	42.202
770.37	48.416
770.68	46.296
770.99	48.444
771.30	38.934
771.61	42.152
771.92	44.672
772.23	48.319
772.54	51.282
772.85	50.785
773.16	50.532
773.47	53.261
773.78	46.193
774.09	45.833
774.39	47.953
774.70	56.173
775.01	55.797
775.32	56.863
775.63	48.026
775.94	61.871
776.25	67.717
776.56	60.448
776.87	61.475
777.18	50.781
777.48	65.649
777.79	64.394
778.10	62.222
778.41	69.643
778.72	45.985
779.03	58.389
779.34	55.034
779.65	51.351
779.95	53.988
780.26	54.902
780.57	62.069
780.88	63.281
781.19	54.135
781.50	50.676
781.80	57.233
782.11	49.153
782.42	48.101
782.73	49.080
783.04	54.730
783.34	57.042
783.65	61.644
783.96	60.448
784.27	58.741
784.57	49.640
784.88	58.333
785.19	65.079
785.50	74.528
785.81	60.448
786.11	68.033
786.42	52.713
786.73	56.637
787.04	70.755
787.34	61.607
787.65	68.000
787.96	63.063
788.26	66.116
788.57	66.949
788.88	70.248
789.19	62.500
789.49	56.061
789.80	63.359
790.11	80.000
790.41	70.297
790.72	84.337
791.03	75.000
791.33	75.581
791.64	79.381
791.95	70.297
792.25	68.889
792.56	74.026
792.87	93.590
793.17	96.203
793.48	82.759
793.79	80.460
794.09	79.545
794.40	63.866
794.70	58.088
795.01	52.593
795.32	62.590
795.62	60.630
795.93	62.931
796.23	59.292
796.54	75.294
796.85	85.135
797.15	102.817
797.46	92.424
797.76	81.928
798.07	89.873
798.37	75.385
798.68	81.818
798.99	67.606
799.29	67.532
799.60	80.682
799.90	87.671
800.21	94.030
800.51	108.621
800.82	105.263
801.12	101.639
801.43	90.909
801.73	77.027
802.04	98.413
802.34	98.765
802.65	96.875
802.95	100.000
803.26	98.438
803.56	95.714
803.87	76.923
804.17	94.118
804.48	127.778
804.78	112.069
805.09	89.706
805.39	103.846
805.70	94.643
806.00	95.082
806.30	89.394
806.61	76.829
806.91	87.342
807.22	78.947
807.52	73.134
807.83	85.915
808.13	110.938
808.43	106.667
808.74	75.000
809.04	97.101
809.35	89.552
809.65	92.105
809.95	91.935
810.26	101.695
810.56	101.587
810.86	131.818
811.17	161.905
811.47	121.667
811.77	109.259
812.08	112.727
812.38	112.000
812.69	130.556
812.99	165.909
813.29	122.449
813.59	100.000
813.90	144.898
814.20	118.182
814.50	87.692
814.81	111.765
815.11	122.449
815.41	90.164
815.72	128.571
816.02	110.909
816.32	140.476
816.62	132.500
816.93	143.902
817.23	126.190
817.53	104.545
817.84	163.636
818.14	136.957
818.44	120.000
818.74	179.412
819.04	132.500
819.35	145.714
819.65	176.471
819.95	171.429
820.25	210.000
820.56	158.974
820.86	145.455
821.16	148.837
821.46	135.897
821.76	158.000
822.07	171.429
822.37	160.000
822.67	145.455
822.97	109.804
823.27	217.857
823.57	127.027
823.88	157.500
824.18	220.000
824.48	135.714
824.78	204.000
825.08	187.500
825.38	143.243
825.69	129.268
825.99	191.667
826.29	186.207
826.59	181.579
826.89	131.579
827.19	147.059
827.49	164.516
827.79	131.818
828.09	150.000
828.39	127.660
828.70	130.612
829.00	144.444
829.30	158.065
829.60	142.500
829.90	260.000
830.20	178.571
830.50	191.304
830.80	239.130
831.10	193.333
831.40	196.667
831.70	178.261
832.00	188.462
832.30	181.481
832.60	231.250
832.90	160.000
833.20	321.429
833.50	196.774
833.80	172.414
834.10	184.375
834.40	211.538
834.70	311.111
835.00	323.810
835.30	111.429
835.60	323.077
835.90	193.103
836.20	300.000
836.50	168.966
836.80	172.000
837.10	197.222
837.40	247.619
837.70	300.000
838.00	200.000
838.30	157.143
838.60	190.476
838.90	200.000
839.19	275.000
839.49	300.000
839.79	300.000
840.09	250.000
840.39	228.571
840.69	243.478
840.99	255.556
841.29	430.000
841.59	341.667
841.88	356.250
842.18	200.000
842.48	247.619
842.78	166.667
843.08	208.696
843.38	168.750
843.68	783.333
843.97	188.462
844.27	217.241
844.57	290.476
844.87	306.250
845.17	233.333
845.47	1733.333
845.76	566.667
846.06	282.353
846.36	412.500
846.66	335.714
846.96	300.000
847.25	463.636
847.55	418.182
847.85	208.696
848.15	470.000
848.44	335.714
848.74	233.333
849.04	276.471
849.34	440.000
849.63	278.947
849.93	509.091
850.23	940.000
850.53	371.429
850.82	1900.000
851.12	-5000.000
851.42	4700.000
851.71	250.000
852.01	-900.000
852.31	262.500
852.61	1633.333
852.90	233.333
853.20	204.000
853.50	311.765
853.79	261.905
854.09	200.000
854.39	287.500
854.68	154.054
854.98	190.323
855.28	143.333
855.57	213.793
855.87	218.519
856.17	242.105
856.46	246.667
856.76	270.588
857.05	182.759
857.35	212.500
857.65	293.333
857.94	217.391
858.24	234.615
858.53	265.000
858.83	195.455
859.13	320.000
859.42	0.000
859.72	600.000
860.01	445.455
860.31	236.364
860.60	326.316
860.90	191.304
861.20	600.000
861.49	500.000
861.79	-4000.000
862.08	637.500
862.38	238.095
862.67	315.385
862.97	282.353
863.26	655.556
863.56	288.889
863.85	350.000
864.15	562.500
864.44	413.333
864.74	750.000
865.03	637.500
865.33	273.684
865.62	390.909
865.92	384.615
866.21	325.000
866.51	0.000
866.80	309.091
867.10	1100.000
867.39	400.000
867.69	372.727
867.98	242.105
868.27	427.273
868.57	300.000
868.86	-4400.000
869.16	287.500
869.45	1700.000
869.75	-4000.000
870.04	433.333
870.33	571.429
870.63	875.000
870.92	2250.000
871.22	828.571
871.51	323.529
871.80	242.857
872.10	321.429
>>>>>End Processed Spectral Data<<<<<
