SpectraSuite Data File
++++++++++++++++++++++++++++++++++++
Date: Wed May 13 16:17:51 PDT 2015
User: schluterlab
Dark Spectrum Present: Yes
Reference Spectrum Present: Yes
Number of Sampled Component Spectra: 1
Spectrometers: USB2E3373
Integration Time (usec): 3000 (USB2E3373)
Spectra Averaged: 3 (USB2E3373)
Boxcar Smoothing: 0 (USB2E3373)
Correct for Electrical Dark: No (USB2E3373)
Strobe/Lamp Enabled: No (USB2E3373)
Correct for Detector Non-linearity: No (USB2E3373)
Correct for Stray Light: No (USB2E3373)
Number of Pixels in Processed Spectrum: 2048
>>>>>Begin Processed Spectral Data<<<<<
178.53	0.000
178.91	-1100.000
179.29	-1075.000
179.67	-188.889
180.04	-1000.000
180.42	2100.000
180.80	860.000
181.18	-975.000
181.56	671.429
181.94	0.000
182.31	-514.286
182.69	1433.333
183.07	-487.500
183.45	-466.667
183.83	472.727
184.20	-470.000
184.58	1850.000
184.96	5100.000
185.34	-660.000
185.72	-375.000
186.09	-1600.000
186.47	2350.000
186.85	2200.000
187.23	4000.000
187.61	-1333.333
187.98	1250.000
188.36	490.909
188.74	381.818
189.12	-780.000
189.49	500.000
189.87	-4200.000
190.25	-1075.000
190.63	350.000
191.00	415.385
191.38	700.000
191.76	-950.000
192.14	1050.000
192.51	600.000
192.89	916.667
193.27	500.000
193.65	-1025.000
194.02	390.000
194.40	840.000
194.78	510.000
195.15	525.000
195.53	510.000
195.91	-1650.000
196.29	250.000
196.66	226.316
197.04	-390.000
197.42	0.000
197.79	500.000
198.17	-4100.000
198.55	557.143
198.92	662.500
199.30	660.000
199.68	0.000
200.05	305.556
200.43	728.571
200.81	3200.000
201.18	1433.333
201.56	-1566.667
201.94	488.889
202.31	544.444
202.69	416.667
203.07	450.000
203.44	0.000
203.82	1000.000
204.19	785.714
204.57	407.143
204.95	550.000
205.32	1500.000
205.70	336.364
206.08	364.286
206.45	2000.000
206.83	312.500
207.20	750.000
207.58	680.000
207.96	283.333
208.33	637.500
208.71	-900.000
209.08	742.857
209.46	522.222
209.84	445.455
210.21	-900.000
210.59	1050.000
210.96	-350.000
211.34	2150.000
211.71	470.000
212.09	683.333
212.46	0.000
212.84	1433.333
213.22	1150.000
213.59	-3800.000
213.97	633.333
214.34	614.286
214.72	590.909
215.09	940.000
215.47	-2000.000
215.84	-1950.000
216.22	1233.333
216.59	335.714
216.97	1000.000
217.34	363.636
217.72	-566.667
218.09	0.000
218.47	-4600.000
218.84	466.667
219.22	742.857
219.59	1566.667
219.97	-585.714
220.34	720.000
220.72	-1266.667
221.09	292.857
221.47	1175.000
221.84	-850.000
222.22	0.000
222.59	1150.000
222.97	-2400.000
223.34	1120.000
223.72	376.923
224.09	1020.000
224.46	2250.000
224.84	-3000.000
225.21	-720.000
225.59	-4300.000
225.96	530.000
226.34	270.000
226.71	2550.000
227.08	487.500
227.46	480.000
227.83	-950.000
228.21	-1850.000
228.58	522.222
228.95	-1900.000
229.33	-2050.000
229.70	1133.333
230.08	771.429
230.45	-680.000
230.82	383.333
231.20	683.333
231.57	614.286
231.95	441.667
232.32	254.545
232.69	345.455
233.07	514.286
233.44	338.462
233.81	-1433.333
234.19	294.737
234.56	391.667
234.93	383.333
235.31	445.455
235.68	346.154
236.05	342.857
236.43	193.939
236.80	231.579
237.17	4200.000
237.55	228.571
237.92	200.000
238.29	257.143
238.67	216.129
239.04	241.379
239.41	163.889
239.79	134.783
240.16	157.143
240.53	159.091
240.91	149.020
241.28	140.000
241.65	140.000
242.02	118.841
242.40	120.968
242.77	131.667
243.14	102.151
243.51	112.360
243.89	109.412
244.26	105.556
244.63	105.376
245.00	92.553
245.38	99.010
245.75	92.523
246.12	88.073
246.49	88.321
246.87	102.400
247.24	83.846
247.61	87.143
247.98	82.353
248.36	85.811
248.73	87.898
249.10	84.076
249.47	79.661
249.84	74.332
250.22	79.144
250.59	78.698
250.96	85.859
251.33	78.673
251.70	78.218
252.08	78.571
252.45	69.507
252.82	76.522
253.19	79.149
253.56	73.333
253.94	73.444
254.31	69.922
254.68	76.538
255.05	75.277
255.42	70.732
255.79	75.000
256.16	74.368
256.54	69.611
256.91	72.598
257.28	67.986
257.65	70.627
258.02	70.497
258.39	69.401
258.76	71.237
259.14	64.881
259.51	63.830
259.88	67.702
260.25	72.810
260.62	66.763
260.99	71.739
261.36	70.270
261.73	68.195
262.10	72.674
262.47	70.986
262.85	64.067
263.22	67.236
263.59	66.952
263.96	67.582
264.33	65.274
264.70	68.684
265.07	66.240
265.44	68.939
265.81	61.557
266.18	68.090
266.55	63.902
266.92	66.585
267.29	62.963
267.66	64.220
268.03	64.773
268.40	66.355
268.77	63.723
269.14	63.514
269.51	66.140
269.88	68.298
270.25	60.948
270.62	62.247
270.99	64.731
271.36	62.876
271.73	68.224
272.10	66.304
272.47	66.882
272.84	62.554
273.21	61.006
273.58	61.135
273.95	59.958
274.32	58.678
274.69	62.099
275.06	60.433
275.43	65.745
275.80	63.126
276.17	64.766
276.54	63.617
276.91	62.648
277.28	60.547
277.65	60.928
278.02	61.698
278.39	61.523
278.76	60.364
279.13	61.321
279.50	58.659
279.87	59.163
280.23	63.273
280.60	61.509
280.97	59.519
281.34	59.469
281.71	58.545
282.08	61.612
282.45	60.727
282.82	60.568
283.19	57.932
283.56	60.351
283.92	57.868
284.29	59.083
284.66	59.347
285.03	57.685
285.40	58.099
285.77	59.596
286.14	59.240
286.51	58.000
286.87	58.632
287.24	56.840
287.61	55.859
287.98	55.032
288.35	56.260
288.72	52.648
289.08	55.243
289.45	55.189
289.82	55.122
290.19	51.020
290.56	51.608
290.93	51.964
291.29	54.141
291.66	52.360
292.03	50.291
292.40	51.542
292.77	49.556
293.13	50.597
293.50	50.875
293.87	50.963
294.24	48.593
294.60	48.035
294.97	48.547
295.34	49.788
295.71	47.443
296.08	49.288
296.44	47.455
296.81	48.217
297.18	46.748
297.55	45.251
297.91	46.174
298.28	46.720
298.65	45.431
299.02	46.245
299.38	45.817
299.75	43.531
300.12	45.594
300.48	45.000
300.85	44.020
301.22	45.987
301.59	43.182
301.95	45.466
302.32	46.213
302.69	43.011
303.05	43.879
303.42	43.580
303.79	42.695
304.15	42.191
304.52	42.178
304.89	43.322
305.25	43.387
305.62	42.922
305.99	44.156
306.35	42.282
306.72	44.058
307.09	43.951
307.45	42.568
307.82	42.076
308.19	43.819
308.55	43.366
308.92	42.320
309.29	41.077
309.65	42.312
310.02	42.600
310.38	42.473
310.75	43.928
311.12	42.170
311.48	43.365
311.85	44.759
312.22	42.144
312.58	42.620
312.95	44.245
313.31	41.262
313.68	43.555
314.05	43.886
314.41	42.211
314.78	43.706
315.14	43.496
315.51	45.108
315.87	44.653
316.24	43.694
316.61	43.665
316.97	42.955
317.34	42.172
317.70	44.646
318.07	46.006
318.43	45.988
318.80	46.579
319.16	45.292
319.53	44.184
319.89	46.381
320.26	46.900
320.62	46.528
320.99	45.253
321.35	46.465
321.72	47.125
322.08	46.693
322.45	47.164
322.81	48.256
323.18	47.399
323.54	46.382
323.91	46.321
324.27	47.228
324.64	47.158
325.00	47.160
325.37	48.954
325.73	50.718
326.10	48.720
326.46	49.910
326.83	50.820
327.19	50.128
327.56	52.003
327.92	50.306
328.29	51.730
328.65	50.921
329.01	50.361
329.38	50.971
329.74	50.508
330.11	51.932
330.47	51.791
330.84	51.654
331.20	50.273
331.56	51.468
331.93	52.870
332.29	51.020
332.66	51.947
333.02	50.457
333.38	50.678
333.75	52.317
334.11	50.267
334.48	49.423
334.84	51.471
335.20	50.455
335.57	50.771
335.93	50.536
336.29	50.183
336.66	50.406
337.02	50.950
337.38	51.111
337.75	50.980
338.11	50.403
338.47	51.013
338.84	51.604
339.20	50.642
339.56	51.460
339.93	51.091
340.29	49.909
340.65	49.376
341.02	50.960
341.38	51.423
341.74	50.088
342.11	49.520
342.47	50.573
342.83	49.401
343.20	51.602
343.56	49.789
343.92	48.596
344.28	49.830
344.65	49.957
345.01	48.064
345.37	48.027
345.73	48.985
346.10	50.128
346.46	49.153
346.82	49.094
347.19	49.958
347.55	49.097
347.91	50.000
348.27	49.384
348.63	49.498
349.00	50.162
349.36	48.933
349.72	48.677
350.08	49.028
350.45	48.983
350.81	51.015
351.17	49.028
351.53	48.485
351.89	48.597
352.26	48.934
352.62	50.361
352.98	50.000
353.34	50.370
353.70	50.082
354.07	47.903
354.43	47.540
354.79	48.914
355.15	48.524
355.51	49.880
355.87	49.306
356.24	49.593
356.60	47.314
356.96	49.718
357.32	50.450
357.68	50.079
358.04	50.515
358.40	50.356
358.77	48.357
359.13	49.408
359.49	48.941
359.85	49.048
360.21	51.435
360.57	51.751
360.93	49.462
361.29	50.642
361.66	50.619
362.02	48.284
362.38	50.722
362.74	49.479
363.10	49.297
363.46	49.083
363.82	49.131
364.18	48.972
364.54	51.857
364.90	49.575
365.26	49.412
365.62	50.913
365.98	51.059
366.35	48.711
366.71	49.892
367.07	49.818
367.43	51.959
367.79	51.463
368.15	49.713
368.51	49.273
368.87	51.463
369.23	50.841
369.59	51.702
369.95	50.368
370.31	50.427
370.67	49.348
371.03	52.210
371.39	50.802
371.75	50.294
372.11	50.000
372.47	51.979
372.83	52.450
373.19	50.506
373.55	51.515
373.91	53.682
374.27	51.615
374.63	52.655
374.99	53.531
375.35	52.756
375.71	52.022
376.07	52.263
376.42	53.164
376.78	51.359
377.14	52.374
377.50	53.046
377.86	51.529
378.22	52.528
378.58	52.506
378.94	52.608
379.30	53.944
379.66	53.997
380.02	52.948
380.38	52.641
380.74	53.361
381.09	53.423
381.45	54.026
381.81	54.115
382.17	54.586
382.53	54.717
382.89	54.259
383.25	54.784
383.61	56.072
383.97	54.534
384.32	54.897
384.68	54.771
385.04	54.948
385.40	55.108
385.76	54.730
386.12	56.995
386.48	56.576
386.83	57.665
387.19	57.390
387.55	54.607
387.91	54.595
388.27	54.016
388.62	54.763
388.98	55.713
389.34	58.260
389.70	56.101
390.06	56.591
390.42	56.939
390.77	56.616
391.13	56.414
391.49	56.155
391.85	57.161
392.20	55.962
392.56	57.323
392.92	57.034
393.28	55.858
393.64	55.935
393.99	56.139
394.35	56.762
394.71	57.654
395.07	54.143
395.42	57.478
395.78	56.107
396.14	57.107
396.50	57.581
396.85	58.042
397.21	56.782
397.57	57.595
397.92	56.731
398.28	56.334
398.64	57.348
399.00	56.799
399.35	56.571
399.71	57.523
400.07	56.121
400.42	56.503
400.78	58.082
401.14	57.256
401.49	57.612
401.85	56.624
402.21	57.006
402.57	57.434
402.92	58.323
403.28	58.339
403.63	57.054
403.99	57.834
404.35	56.485
404.70	57.494
405.06	58.241
405.42	59.451
405.77	57.143
406.13	56.433
406.49	57.658
406.84	56.881
407.20	57.624
407.55	58.519
407.91	58.667
408.27	58.073
408.62	56.291
408.98	57.659
409.34	56.642
409.69	57.548
410.05	56.691
410.40	57.920
410.76	57.168
411.11	56.936
411.47	56.805
411.83	57.728
412.18	58.256
412.54	57.908
412.89	57.108
413.25	57.615
413.60	58.555
413.96	56.466
414.31	56.683
414.67	56.654
415.03	56.821
415.38	56.057
415.74	56.013
416.09	58.197
416.45	57.028
416.80	57.039
417.16	57.306
417.51	57.200
417.87	56.390
418.22	57.855
418.58	57.779
418.93	56.695
419.29	58.307
419.64	58.249
420.00	55.854
420.35	57.101
420.71	57.621
421.06	56.742
421.42	56.842
421.77	57.119
422.12	56.204
422.48	55.963
422.83	56.610
423.19	57.569
423.54	56.761
423.90	57.217
424.25	56.672
424.61	56.369
424.96	57.901
425.31	55.703
425.67	54.494
426.02	55.771
426.38	57.692
426.73	55.998
427.09	56.474
427.44	57.504
427.79	55.837
428.15	56.667
428.50	56.524
428.85	56.317
429.21	57.040
429.56	57.024
429.92	55.964
430.27	56.455
430.62	55.812
430.98	55.682
431.33	55.155
431.68	57.016
432.04	54.313
432.39	56.653
432.74	56.254
433.10	56.650
433.45	58.017
433.80	58.038
434.16	55.502
434.51	56.105
434.86	55.815
435.22	56.976
435.57	56.778
435.92	56.583
436.28	58.185
436.63	56.457
436.98	55.352
437.34	57.662
437.69	57.176
438.04	56.773
438.39	57.493
438.75	56.769
439.10	57.263
439.45	57.320
439.81	57.160
440.16	55.505
440.51	57.176
440.86	56.862
441.22	57.119
441.57	57.166
441.92	56.141
442.27	56.620
442.63	55.766
442.98	56.338
443.33	56.576
443.68	54.775
444.03	57.101
444.39	55.599
444.74	56.439
445.09	56.442
445.44	55.768
445.79	56.408
446.15	56.061
446.50	55.412
446.85	55.653
447.20	55.176
447.55	57.901
447.91	55.323
448.26	56.427
448.61	56.133
448.96	57.087
449.31	57.199
449.66	55.487
450.02	56.490
450.37	55.839
450.72	56.740
451.07	54.966
451.42	55.198
451.77	55.960
452.12	55.543
452.47	55.970
452.83	56.294
453.18	55.196
453.53	56.710
453.88	54.932
454.23	54.812
454.58	54.876
454.93	56.516
455.28	55.362
455.63	55.765
455.98	58.512
456.34	55.716
456.69	57.232
457.04	57.090
457.39	55.465
457.74	54.672
458.09	55.549
458.44	56.613
458.79	53.905
459.14	55.418
459.49	56.859
459.84	54.958
460.19	55.274
460.54	55.150
460.89	55.129
461.24	56.648
461.59	55.607
461.94	54.747
462.29	55.846
462.64	54.690
462.99	54.327
463.34	55.867
463.69	55.472
464.04	54.899
464.39	53.797
464.74	54.605
465.09	54.101
465.44	55.291
465.79	54.698
466.14	54.735
466.49	52.503
466.84	53.824
467.19	53.832
467.54	55.125
467.89	54.022
468.24	54.276
468.59	54.701
468.94	52.474
469.29	54.049
469.64	54.953
469.99	55.886
470.34	54.227
470.68	54.095
471.03	55.170
471.38	54.830
471.73	54.364
472.08	55.329
472.43	54.020
472.78	53.259
473.13	54.108
473.48	54.619
473.83	54.085
474.17	54.698
474.52	53.970
474.87	54.407
475.22	54.324
475.57	53.735
475.92	53.585
476.27	53.044
476.61	52.399
476.96	53.271
477.31	52.957
477.66	53.282
478.01	51.333
478.36	53.199
478.70	52.752
479.05	53.035
479.40	53.275
479.75	52.923
480.10	53.181
480.45	51.642
480.79	52.222
481.14	52.006
481.49	52.871
481.84	52.446
482.19	52.976
482.53	52.110
482.88	52.536
483.23	53.411
483.58	51.865
483.92	52.343
484.27	50.893
484.62	52.026
484.97	51.045
485.31	53.425
485.66	54.671
486.01	52.856
486.36	50.548
486.70	48.426
487.05	48.647
487.40	49.566
487.75	48.631
488.09	49.530
488.44	48.366
488.79	50.524
489.13	50.000
489.48	50.367
489.83	50.842
490.17	50.373
490.52	50.620
490.87	50.565
491.22	50.250
491.56	49.932
491.91	50.442
492.26	50.115
492.60	49.539
492.95	49.766
493.30	48.785
493.64	50.303
493.99	49.954
494.34	49.907
494.68	49.908
495.03	50.376
495.37	49.000
495.72	50.585
496.07	50.766
496.41	49.071
496.76	49.780
497.11	48.492
497.45	49.930
497.80	49.568
498.14	49.469
498.49	49.073
498.84	48.706
499.18	49.238
499.53	49.050
499.87	50.093
500.22	50.118
500.56	49.854
500.91	48.894
501.26	50.024
501.60	50.925
501.95	49.083
502.29	50.422
502.64	50.233
502.98	49.275
503.33	47.258
503.67	49.513
504.02	48.410
504.36	49.088
504.71	49.438
505.06	49.349
505.40	49.344
505.75	48.023
506.09	47.570
506.44	48.989
506.78	48.660
507.13	49.874
507.47	49.646
507.82	48.987
508.16	48.784
508.51	49.822
508.85	47.865
509.19	48.520
509.54	48.112
509.88	47.347
510.23	48.380
510.57	49.381
510.92	48.576
511.26	48.201
511.61	48.496
511.95	48.173
512.30	48.515
512.64	47.770
512.98	48.553
513.33	48.929
513.67	47.599
514.02	47.078
514.36	48.717
514.70	48.367
515.05	48.522
515.39	48.402
515.74	47.635
516.08	48.631
516.42	47.947
516.77	48.216
517.11	47.281
517.46	48.533
517.80	47.503
518.14	47.829
518.49	47.608
518.83	47.273
519.17	47.286
519.52	47.821
519.86	47.804
520.20	48.497
520.55	48.773
520.89	48.175
521.23	48.251
521.58	48.259
521.92	47.765
522.26	47.041
522.61	48.411
522.95	47.637
523.29	48.387
523.64	48.232
523.98	48.367
524.32	47.527
524.66	48.046
525.01	48.039
525.35	47.336
525.69	47.660
526.04	46.854
526.38	47.834
526.72	46.564
527.06	48.650
527.41	46.658
527.75	46.881
528.09	47.463
528.43	48.120
528.78	46.958
529.12	46.182
529.46	47.704
529.80	47.153
530.15	46.044
530.49	46.092
530.83	46.203
531.17	47.846
531.51	48.119
531.86	46.516
532.20	47.588
532.54	47.149
532.88	47.754
533.22	46.596
533.57	46.481
533.91	47.020
534.25	46.841
534.59	47.529
534.93	46.282
535.27	46.228
535.62	47.497
535.96	46.704
536.30	45.900
536.64	47.070
536.98	47.180
537.32	46.280
537.66	47.933
538.01	46.741
538.35	46.736
538.69	47.096
539.03	45.744
539.37	45.431
539.71	44.653
540.05	45.686
540.39	46.777
540.73	45.149
541.07	46.723
541.42	47.097
541.76	45.355
542.10	46.442
542.44	46.623
542.78	46.443
543.12	45.553
543.46	45.705
543.80	46.259
544.14	44.801
544.48	46.603
544.82	45.029
545.16	45.999
545.50	44.409
545.84	45.296
546.18	45.791
546.52	46.662
546.86	45.498
547.20	44.707
547.54	45.825
547.88	46.365
548.22	44.770
548.56	45.031
548.90	44.366
549.24	43.098
549.58	45.362
549.92	45.536
550.26	45.810
550.60	44.260
550.94	44.859
551.28	44.111
551.62	45.075
551.96	46.175
552.30	45.939
552.64	46.586
552.98	45.559
553.32	44.707
553.66	45.535
554.00	45.779
554.34	44.859
554.68	45.637
555.02	45.205
555.36	45.164
555.69	43.369
556.03	44.415
556.37	46.180
556.71	42.838
557.05	44.608
557.39	44.437
557.73	44.531
558.07	45.033
558.41	44.356
558.75	44.453
559.08	45.041
559.42	43.311
559.76	43.603
560.10	44.968
560.44	43.816
560.78	44.378
561.12	45.053
561.45	45.502
561.79	44.430
562.13	44.400
562.47	43.716
562.81	45.537
563.15	43.679
563.48	44.363
563.82	43.901
564.16	44.997
564.50	44.141
564.84	43.110
565.17	44.466
565.51	45.176
565.85	44.226
566.19	43.143
566.52	45.092
566.86	43.701
567.20	43.986
567.54	46.290
567.88	43.455
568.21	44.444
568.55	44.540
568.89	44.358
569.23	44.251
569.56	43.927
569.90	45.019
570.24	44.169
570.57	44.475
570.91	42.986
571.25	43.051
571.59	43.770
571.92	43.376
572.26	42.894
572.60	42.943
572.93	42.639
573.27	43.005
573.61	43.244
573.95	43.566
574.28	43.518
574.62	43.537
574.96	42.676
575.29	43.065
575.63	41.972
575.97	42.333
576.30	42.406
576.64	43.669
576.98	42.927
577.31	43.369
577.65	43.974
577.98	43.989
578.32	42.871
578.66	42.327
578.99	42.319
579.33	42.605
579.67	41.547
580.00	41.860
580.34	42.501
580.67	42.000
581.01	42.905
581.35	43.424
581.68	43.909
582.02	42.890
582.35	42.821
582.69	42.107
583.02	42.415
583.36	42.333
583.70	42.233
584.03	42.111
584.37	42.082
584.70	42.372
585.04	42.588
585.37	42.894
585.71	43.022
586.04	43.078
586.38	43.077
586.72	42.944
587.05	42.434
587.39	42.929
587.72	42.901
588.06	42.556
588.39	42.332
588.73	42.446
589.06	42.942
589.40	42.424
589.73	42.344
590.07	42.527
590.40	41.688
590.73	42.350
591.07	43.305
591.40	42.640
591.74	43.333
592.07	42.452
592.41	43.365
592.74	42.921
593.08	42.738
593.41	42.866
593.75	41.911
594.08	41.737
594.41	42.489
594.75	42.662
595.08	42.913
595.42	42.592
595.75	42.771
596.09	42.358
596.42	42.358
596.75	42.296
597.09	42.381
597.42	41.484
597.75	42.863
598.09	42.391
598.42	42.053
598.76	41.508
599.09	42.265
599.42	41.303
599.76	41.545
600.09	41.858
600.42	41.563
600.76	41.107
601.09	41.967
601.42	41.438
601.76	41.556
602.09	41.858
602.42	42.715
602.76	41.959
603.09	42.172
603.42	42.796
603.76	42.492
604.09	42.109
604.42	42.030
604.76	42.472
605.09	41.896
605.42	40.958
605.75	41.598
606.09	42.294
606.42	41.357
606.75	41.642
607.09	41.398
607.42	42.191
607.75	41.055
608.08	41.685
608.42	41.909
608.75	41.569
609.08	40.796
609.41	40.980
609.75	42.354
610.08	41.423
610.41	41.527
610.74	42.053
611.07	43.330
611.41	40.824
611.74	42.936
612.07	42.081
612.40	42.445
612.73	41.211
613.07	41.379
613.40	41.917
613.73	40.482
614.06	42.419
614.39	41.689
614.72	41.263
615.06	41.439
615.39	41.826
615.72	41.922
616.05	40.564
616.38	41.634
616.71	41.865
617.05	42.285
617.38	41.130
617.71	41.201
618.04	42.728
618.37	41.100
618.70	42.128
619.03	42.105
619.36	42.566
619.69	42.324
620.03	42.995
620.36	42.580
620.69	42.534
621.02	41.150
621.35	41.895
621.68	41.044
622.01	41.022
622.34	42.814
622.67	42.586
623.00	41.159
623.33	42.602
623.66	42.459
623.99	42.857
624.32	40.585
624.65	42.020
624.99	40.581
625.32	41.492
625.65	42.224
625.98	42.967
626.31	42.613
626.64	42.857
626.97	42.145
627.30	42.810
627.63	42.166
627.96	41.548
628.29	42.432
628.62	42.635
628.95	43.396
629.28	40.785
629.61	41.888
629.94	41.143
630.26	42.326
630.59	42.326
630.92	41.667
631.25	41.955
631.58	40.941
631.91	41.278
632.24	42.511
632.57	41.028
632.90	41.557
633.23	41.163
633.56	43.277
633.89	41.450
634.22	41.317
634.55	43.669
634.88	42.874
635.20	43.130
635.53	42.651
635.86	43.812
636.19	41.647
636.52	41.638
636.85	42.726
637.18	41.705
637.51	41.962
637.83	41.677
638.16	44.629
638.49	42.317
638.82	42.984
639.15	42.125
639.48	43.267
639.81	41.555
640.13	42.708
640.46	40.671
640.79	43.593
641.12	42.641
641.45	41.341
641.77	43.299
642.10	39.912
642.43	39.940
642.76	42.570
643.09	43.405
643.41	43.551
643.74	44.290
644.07	42.530
644.40	41.871
644.73	44.724
645.05	43.423
645.38	42.180
645.71	41.546
646.04	44.186
646.36	44.073
646.69	44.147
647.02	43.197
647.35	42.955
647.67	44.071
648.00	43.740
648.33	42.409
648.66	40.303
648.98	41.829
649.31	41.405
649.64	42.451
649.96	42.027
650.29	42.496
650.62	42.233
650.94	41.329
651.27	43.243
651.60	43.261
651.92	40.735
652.25	40.717
652.58	43.146
652.90	43.602
653.23	40.986
653.56	41.417
653.88	41.521
654.21	42.812
654.54	42.904
654.86	45.794
655.19	41.892
655.52	36.641
655.84	39.097
656.17	49.724
656.49	66.101
656.82	64.047
657.15	46.565
657.47	33.953
657.80	25.778
658.13	25.846
658.45	37.690
658.78	36.350
659.10	36.919
659.43	38.019
659.75	38.946
660.08	41.456
660.41	44.134
660.73	44.727
661.06	41.401
661.38	44.909
661.71	42.308
662.03	42.801
662.36	40.358
662.68	42.771
663.01	43.030
663.33	42.463
663.66	45.588
663.98	40.821
664.31	41.597
664.63	44.534
664.96	40.443
665.28	43.648
665.61	44.444
665.93	42.052
666.26	41.176
666.58	46.234
666.91	43.975
667.23	48.090
667.56	42.765
667.88	42.949
668.21	41.791
668.53	44.685
668.86	41.342
669.18	46.908
669.50	43.696
669.83	46.187
670.15	42.667
670.48	42.048
670.80	42.241
671.13	45.435
671.45	41.915
671.77	46.029
672.10	43.808
672.42	43.110
672.75	44.113
673.07	41.901
673.39	41.772
673.72	44.141
674.04	42.745
674.37	42.136
674.69	46.012
675.01	41.841
675.34	44.353
675.66	41.895
675.98	42.770
676.31	43.908
676.63	42.887
676.95	43.816
677.28	41.121
677.60	43.516
677.92	44.304
678.25	42.094
678.57	44.821
678.89	43.086
679.22	42.829
679.54	41.031
679.86	42.936
680.18	45.975
680.51	42.199
680.83	44.484
681.15	41.698
681.48	44.234
681.80	43.327
682.12	43.487
682.44	43.520
682.77	45.010
683.09	48.712
683.41	41.242
683.73	45.695
684.06	46.074
684.38	39.726
684.70	44.574
685.02	43.152
685.34	41.392
685.67	43.706
685.99	39.863
686.31	41.809
686.63	39.753
686.96	41.429
687.28	41.877
687.60	42.210
687.92	42.413
688.24	42.395
688.56	42.169
688.89	43.154
689.21	45.852
689.53	41.336
689.85	43.681
690.17	40.994
690.49	44.374
690.82	45.561
691.14	43.080
691.46	42.616
691.78	42.972
692.10	42.149
692.42	42.715
692.74	39.627
693.06	41.702
693.39	43.737
693.71	44.760
694.03	45.053
694.35	41.342
694.67	42.563
694.99	44.878
695.31	43.873
695.63	40.191
695.95	43.521
696.27	42.640
696.59	43.523
696.91	43.523
697.23	44.366
697.56	43.710
697.88	41.922
698.20	41.042
698.52	41.505
698.84	43.653
699.16	41.014
699.48	43.705
699.80	47.585
700.12	51.948
700.44	46.154
700.76	46.133
701.08	45.115
701.40	45.531
701.72	46.356
702.04	46.307
702.36	43.059
702.68	44.759
703.00	48.199
703.32	44.149
703.64	47.185
703.96	45.125
704.28	43.314
704.60	42.522
704.91	46.588
705.23	45.161
705.55	51.163
705.87	47.508
706.19	48.763
706.51	45.794
706.83	47.273
707.15	44.258
707.47	41.667
707.79	45.455
708.11	46.119
708.43	40.952
708.74	44.133
709.06	46.234
709.38	45.144
709.70	46.802
710.02	47.478
710.34	43.939
710.66	47.164
710.98	45.170
711.29	43.314
711.61	50.147
711.93	45.192
712.25	46.624
712.57	49.632
712.89	50.173
713.20	43.465
713.52	46.711
713.84	46.519
714.16	42.988
714.48	44.253
714.80	53.191
715.11	43.804
715.43	50.148
715.75	43.188
716.07	50.479
716.39	46.082
716.70	47.508
717.02	48.561
717.34	43.463
717.66	49.254
717.97	51.793
718.29	50.000
718.61	47.080
718.93	53.676
719.24	47.405
719.56	46.102
719.88	43.729
720.20	46.959
720.51	49.129
720.83	47.212
721.15	50.000
721.46	48.936
721.78	48.029
722.10	46.792
722.42	48.496
722.73	49.064
723.05	52.459
723.37	45.344
723.68	52.124
724.00	45.935
724.32	49.194
724.63	50.813
724.95	52.720
725.27	55.870
725.58	51.563
725.90	48.540
726.22	49.434
726.53	45.833
726.85	45.392
727.16	50.890
727.48	47.518
727.80	44.697
728.11	50.000
728.43	50.385
728.74	48.029
729.06	52.920
729.38	52.206
729.69	49.822
730.01	45.734
730.32	44.097
730.64	44.816
730.96	45.215
731.27	50.662
731.59	47.401
731.90	44.606
732.22	40.994
732.53	47.678
732.85	44.231
733.16	44.051
733.48	49.502
733.80	45.779
734.11	51.911
734.43	48.225
734.74	45.429
735.06	45.845
735.37	52.601
735.69	50.637
736.00	48.693
736.32	47.664
736.63	46.645
736.95	44.728
737.26	45.238
737.58	44.516
737.89	50.167
738.21	48.805
738.52	42.857
738.83	43.774
739.15	46.154
739.46	52.920
739.78	44.444
740.09	49.846
740.41	44.839
740.72	43.206
741.04	50.370
741.35	47.083
741.66	51.556
741.98	41.981
742.29	52.632
742.61	53.879
742.92	46.606
743.23	48.718
743.55	51.600
743.86	49.123
744.18	54.425
744.49	57.895
744.80	53.991
745.12	50.909
745.43	50.220
745.74	58.108
746.06	50.000
746.37	53.363
746.68	50.226
747.00	54.630
747.31	55.714
747.62	46.018
747.94	51.101
748.25	42.979
748.56	55.066
748.88	51.485
749.19	58.000
749.50	51.628
749.82	47.967
750.13	48.980
750.44	41.971
750.75	52.281
751.07	50.161
751.38	48.780
751.69	47.292
752.01	50.376
752.32	48.375
752.63	52.482
752.94	47.951
753.26	49.600
753.57	45.935
753.88	51.172
754.19	47.857
754.51	49.653
754.82	47.292
755.13	47.547
755.44	48.496
755.75	44.891
756.07	48.227
756.38	46.715
756.69	43.624
757.00	41.317
757.31	46.884
757.63	45.322
757.94	44.504
758.25	43.873
758.56	41.235
758.87	42.742
759.18	47.273
759.50	44.514
759.81	44.548
760.12	44.687
760.43	47.278
760.74	48.098
761.05	48.305
761.36	45.187
761.67	48.580
761.99	45.031
762.30	43.056
762.61	48.473
762.92	47.656
763.23	52.101
763.54	50.800
763.85	46.875
764.16	51.923
764.47	52.471
764.78	44.876
765.10	45.253
765.41	46.313
765.72	50.000
766.03	50.157
766.34	47.333
766.65	54.894
766.96	51.709
767.27	54.822
767.58	50.521
767.89	56.842
768.20	56.322
768.51	52.792
768.82	49.083
769.13	49.593
769.44	50.202
769.75	55.365
770.06	44.037
770.37	51.584
770.68	50.000
770.99	48.444
771.30	46.721
771.61	58.744
771.92	50.000
772.23	51.681
772.54	54.359
772.85	54.974
773.16	54.255
773.47	55.978
773.78	56.345
774.09	55.952
774.39	55.556
774.70	57.407
775.01	63.768
775.32	67.320
775.63	59.211
775.94	59.712
776.25	68.504
776.56	59.701
776.87	58.197
777.18	66.406
777.48	62.595
777.79	62.121
778.10	53.333
778.41	75.000
778.72	54.745
779.03	57.047
779.34	59.060
779.65	64.865
779.95	53.988
780.26	64.706
780.57	61.379
780.88	63.281
781.19	66.917
781.50	56.757
781.80	62.893
782.11	56.497
782.42	65.190
782.73	61.963
783.04	64.189
783.34	61.268
783.65	60.959
783.96	70.149
784.27	55.245
784.57	57.554
784.88	64.815
785.19	64.286
785.50	64.151
785.81	67.910
786.11	76.230
786.42	61.240
786.73	66.372
787.04	74.528
787.34	66.964
787.65	77.000
787.96	71.171
788.26	61.983
788.57	72.881
788.88	73.554
789.19	65.972
789.49	64.394
789.80	61.832
790.11	86.667
790.41	72.277
790.72	89.157
791.03	75.000
791.33	73.256
791.64	87.629
791.95	76.238
792.25	75.556
792.56	75.325
792.87	82.051
793.17	87.342
793.48	88.506
793.79	80.460
794.09	89.773
794.40	64.706
794.70	64.706
795.01	62.222
795.32	53.957
795.62	66.929
795.93	65.517
796.23	73.451
796.54	70.588
796.85	78.378
797.15	95.775
797.46	84.848
797.76	72.289
798.07	88.608
798.37	96.923
798.68	95.455
798.99	57.746
799.29	74.026
799.60	82.955
799.90	94.521
800.21	83.582
800.51	91.379
800.82	119.298
801.12	93.443
801.43	113.636
801.73	75.676
802.04	100.000
802.34	86.420
802.65	89.062
802.95	100.000
803.26	109.375
803.56	84.286
803.87	83.077
804.17	82.353
804.48	127.778
804.78	89.655
805.09	94.118
805.39	88.462
805.70	94.643
806.00	93.443
806.30	72.727
806.61	86.585
806.91	78.481
807.22	76.316
807.52	88.060
807.83	90.141
808.13	100.000
808.43	110.000
808.74	73.684
809.04	94.203
809.35	107.463
809.65	78.947
809.95	109.677
810.26	84.746
810.56	77.778
810.86	134.091
811.17	147.619
811.47	108.333
811.77	90.741
812.08	112.727
812.38	110.000
812.69	155.556
812.99	122.727
813.29	102.041
813.59	102.381
813.90	124.490
814.20	100.000
814.50	81.538
814.81	108.824
815.11	95.918
815.41	104.918
815.72	142.857
816.02	110.909
816.32	109.524
816.62	117.500
816.93	119.512
817.23	147.619
817.53	129.545
817.84	139.394
818.14	104.348
818.44	102.222
818.74	161.765
819.04	152.500
819.35	148.571
819.65	191.176
819.95	160.714
820.25	215.000
820.56	138.462
820.86	131.818
821.16	137.209
821.46	94.872
821.76	122.000
822.07	165.714
822.37	137.500
822.67	130.303
822.97	98.039
823.27	182.143
823.57	145.946
823.88	162.500
824.18	196.667
824.48	159.524
824.78	192.000
825.08	175.000
825.38	121.622
825.69	112.195
825.99	183.333
826.29	162.069
826.59	152.632
826.89	136.842
827.19	167.647
827.49	158.065
827.79	134.091
828.09	113.636
828.39	119.149
828.70	128.571
829.00	170.370
829.30	145.161
829.60	135.000
829.90	260.000
830.20	153.571
830.50	221.739
830.80	186.957
831.10	186.667
831.40	176.667
831.70	160.870
832.00	192.308
832.30	162.963
832.60	275.000
832.90	190.000
833.20	407.143
833.50	154.839
833.80	162.069
834.10	156.250
834.40	215.385
834.70	288.889
835.00	285.714
835.30	137.143
835.60	338.462
835.90	172.414
836.20	278.571
836.50	175.862
836.80	120.000
837.10	166.667
837.40	223.810
837.70	300.000
838.00	188.889
838.30	219.048
838.60	261.905
838.90	184.615
839.19	210.000
839.49	407.143
839.79	265.000
840.09	255.000
840.39	214.286
840.69	213.043
840.99	305.556
841.29	420.000
841.59	358.333
841.88	300.000
842.18	144.828
842.48	266.667
842.78	170.000
843.08	221.739
843.38	153.125
843.68	800.000
843.97	234.615
844.27	168.966
844.57	242.857
844.87	275.000
845.17	192.593
845.47	1300.000
845.76	355.556
846.06	247.059
846.36	387.500
846.66	328.571
846.96	275.000
847.25	345.455
847.55	345.455
847.85	213.043
848.15	400.000
848.44	300.000
848.74	172.222
849.04	270.588
849.34	420.000
849.63	200.000
849.93	309.091
850.23	900.000
850.53	378.571
850.82	1800.000
851.12	-3900.000
851.42	4200.000
851.71	265.000
852.01	-1166.667
852.31	258.333
852.61	1633.333
852.90	266.667
853.20	196.000
853.50	241.176
853.79	233.333
854.09	162.500
854.39	268.750
854.68	140.541
854.98	161.290
855.28	153.333
855.57	186.207
855.87	177.778
856.17	257.895
856.46	233.333
856.76	194.118
857.05	165.517
857.35	220.833
857.65	260.000
857.94	186.957
858.24	184.615
858.53	255.000
858.83	195.455
859.13	273.333
859.42	0.000
859.72	533.333
860.01	345.455
860.31	222.727
860.60	257.895
860.90	160.870
861.20	511.111
861.49	400.000
861.79	-3500.000
862.08	612.500
862.38	233.333
862.67	269.231
862.97	323.529
863.26	488.889
863.56	227.778
863.85	350.000
864.15	525.000
864.44	346.667
864.74	733.333
865.03	625.000
865.33	268.421
865.62	454.545
865.92	384.615
866.21	358.333
866.51	0.000
866.80	409.091
867.10	860.000
867.39	446.154
867.69	363.636
867.98	278.947
868.27	372.727
868.57	231.579
868.86	-4300.000
869.16	300.000
869.45	1650.000
869.75	-4000.000
870.04	341.667
870.33	557.143
870.63	875.000
870.92	1900.000
871.22	671.429
871.51	229.412
871.80	152.381
872.10	307.143
>>>>>End Processed Spectral Data<<<<<
