SpectraSuite Data File
++++++++++++++++++++++++++++++++++++
Date: Wed May 13 16:48:04 PDT 2015
User: schluterlab
Dark Spectrum Present: Yes
Reference Spectrum Present: Yes
Number of Sampled Component Spectra: 1
Spectrometers: USB2E3373
Integration Time (usec): 3000 (USB2E3373)
Spectra Averaged: 3 (USB2E3373)
Boxcar Smoothing: 0 (USB2E3373)
Correct for Electrical Dark: No (USB2E3373)
Strobe/Lamp Enabled: No (USB2E3373)
Correct for Detector Non-linearity: No (USB2E3373)
Correct for Stray Light: No (USB2E3373)
Number of Pixels in Processed Spectrum: 2048
>>>>>Begin Processed Spectral Data<<<<<
178.53	0.000
178.91	-1300.000
179.29	-1150.000
179.67	-227.778
180.04	-1425.000
180.42	2500.000
180.80	1240.000
181.18	-925.000
181.56	542.857
181.94	0.000
182.31	-642.857
182.69	1533.333
183.07	-575.000
183.45	-588.889
183.83	481.818
184.20	-420.000
184.58	2150.000
184.96	3900.000
185.34	-760.000
185.72	-437.500
186.09	-2300.000
186.47	2900.000
186.85	1800.000
187.23	4100.000
187.61	-1633.333
187.98	1250.000
188.36	454.545
188.74	518.182
189.12	-840.000
189.49	510.000
189.87	-4500.000
190.25	-1125.000
190.63	364.286
191.00	384.615
191.38	733.333
191.76	-1075.000
192.14	1300.000
192.51	637.500
192.89	966.667
193.27	500.000
193.65	-1300.000
194.02	470.000
194.40	920.000
194.78	560.000
195.15	458.333
195.53	620.000
195.91	-2350.000
196.29	350.000
196.66	300.000
197.04	-260.000
197.42	0.000
197.79	540.000
198.17	-4300.000
198.55	671.429
198.92	700.000
199.30	980.000
199.68	0.000
200.05	333.333
200.43	728.571
200.81	4600.000
201.18	1866.667
201.56	-1733.333
201.94	500.000
202.31	522.222
202.69	450.000
203.07	610.000
203.44	0.000
203.82	1150.000
204.19	800.000
204.57	342.857
204.95	650.000
205.32	1600.000
205.70	536.364
206.08	392.857
206.45	2450.000
206.83	343.750
207.20	816.667
207.58	660.000
207.96	338.889
208.33	725.000
208.71	-883.333
209.08	700.000
209.46	588.889
209.84	518.182
210.21	-1533.333
210.59	1300.000
210.96	-400.000
211.34	2250.000
211.71	650.000
212.09	800.000
212.46	0.000
212.84	1500.000
213.22	1400.000
213.59	-4800.000
213.97	850.000
214.34	714.286
214.72	618.182
215.09	860.000
215.47	-2450.000
215.84	-2350.000
216.22	1666.667
216.59	335.714
216.97	1175.000
217.34	454.545
217.72	-733.333
218.09	0.000
218.47	-4700.000
218.84	777.778
219.22	785.714
219.59	1733.333
219.97	-528.571
220.34	1180.000
220.72	-1433.333
221.09	400.000
221.47	1525.000
221.84	-783.333
222.22	0.000
222.59	1275.000
222.97	-2450.000
223.34	1080.000
223.72	423.077
224.09	920.000
224.46	1900.000
224.84	-5300.000
225.21	-960.000
225.59	-4400.000
225.96	530.000
226.34	325.000
226.71	2650.000
227.08	612.500
227.46	510.000
227.83	-950.000
228.21	-1950.000
228.58	611.111
228.95	-2600.000
229.33	-2350.000
229.70	1766.667
230.08	828.571
230.45	-700.000
230.82	475.000
231.20	816.667
231.57	700.000
231.95	458.333
232.32	240.909
232.69	372.727
233.07	714.286
233.44	346.154
233.81	-1533.333
234.19	289.474
234.56	441.667
234.93	333.333
235.31	454.545
235.68	300.000
236.05	307.143
236.43	163.636
236.80	184.211
237.17	3900.000
237.55	233.333
237.92	214.286
238.29	242.857
238.67	170.968
239.04	244.828
239.41	150.000
239.79	104.348
240.16	140.476
240.53	127.273
240.91	96.078
241.28	94.000
241.65	100.000
242.02	85.507
242.40	69.355
242.77	80.000
243.14	80.645
243.51	74.157
243.89	64.706
244.26	48.889
244.63	60.215
245.00	63.830
245.38	55.446
245.75	53.271
246.12	35.780
246.49	61.314
246.87	58.400
247.24	54.615
247.61	49.286
247.98	44.444
248.36	44.595
248.73	42.038
249.10	47.134
249.47	45.763
249.84	48.128
250.22	42.246
250.59	43.195
250.96	39.394
251.33	34.597
251.70	42.574
252.08	37.619
252.45	32.735
252.82	37.391
253.19	34.043
253.56	35.294
253.94	36.100
254.31	34.766
254.68	36.154
255.05	32.472
255.42	31.707
255.79	34.559
256.16	37.184
256.54	27.562
256.91	34.164
257.28	30.935
257.65	29.043
258.02	30.435
258.39	29.022
258.76	28.428
259.14	31.250
259.51	28.267
259.88	27.950
260.25	31.722
260.62	25.723
260.99	25.776
261.36	30.330
261.73	26.648
262.10	25.872
262.47	28.732
262.85	25.905
263.22	24.501
263.59	27.920
263.96	27.747
264.33	25.587
264.70	24.737
265.07	27.621
265.44	24.495
265.81	24.088
266.18	24.623
266.55	28.293
266.92	25.553
267.29	26.620
267.66	22.936
268.03	25.227
268.40	24.766
268.77	23.150
269.14	23.423
269.51	25.508
269.88	23.310
270.25	23.702
270.62	24.045
270.99	25.806
271.36	22.961
271.73	24.766
272.10	23.913
272.47	26.452
272.84	22.294
273.21	24.319
273.58	22.052
273.95	21.803
274.32	22.521
274.69	24.839
275.06	22.638
275.43	24.468
275.80	22.244
276.17	23.829
276.54	22.037
276.91	24.704
277.28	22.656
277.65	24.565
278.02	24.224
278.39	24.414
278.76	23.091
279.13	22.642
279.50	23.277
279.87	23.307
280.23	22.355
280.60	23.211
280.97	22.366
281.34	21.947
281.71	22.545
282.08	21.497
282.45	19.818
282.82	20.959
283.19	20.677
283.56	22.632
283.92	21.320
284.29	19.929
284.66	20.871
285.03	20.072
285.40	19.014
285.77	21.549
286.14	20.035
286.51	22.833
286.87	21.368
287.24	22.150
287.61	20.064
287.98	21.104
288.35	19.334
288.72	20.249
289.08	20.188
289.45	22.076
289.82	19.675
290.19	18.210
290.56	18.377
290.93	18.127
291.29	19.939
291.66	19.617
292.03	21.948
292.40	19.824
292.77	19.231
293.13	19.701
293.50	19.679
293.87	17.778
294.24	17.333
294.60	18.341
294.97	19.477
295.34	17.913
295.71	17.187
296.08	18.946
296.44	18.982
296.81	19.155
297.18	19.377
297.55	16.887
297.91	18.206
298.28	17.403
298.65	18.277
299.02	19.236
299.38	18.194
299.75	17.655
300.12	17.114
300.48	17.625
300.85	17.879
301.22	16.943
301.59	17.172
301.95	16.877
302.32	18.742
302.69	18.638
303.05	18.182
303.42	17.284
303.79	16.874
304.15	17.599
304.52	18.192
304.89	18.351
305.25	17.517
305.62	18.913
305.99	19.481
306.35	18.233
306.72	17.713
307.09	17.980
307.45	18.581
307.82	17.857
308.19	19.316
308.55	18.662
308.92	19.119
309.29	18.374
309.65	17.815
310.02	19.239
310.38	20.968
310.75	21.542
311.12	20.266
311.48	19.958
311.85	22.013
312.22	21.540
312.58	20.270
312.95	22.175
313.31	21.553
313.68	23.181
314.05	23.669
314.41	23.920
314.78	23.766
315.14	23.535
315.51	25.747
315.87	23.564
316.24	24.230
316.61	24.366
316.97	24.560
317.34	25.734
317.70	26.673
318.07	27.334
318.43	29.061
318.80	28.304
319.16	29.002
319.53	28.518
319.89	30.762
320.26	32.300
320.62	33.036
320.99	33.030
321.35	34.242
321.72	34.908
322.08	34.057
322.45	36.915
322.81	37.112
323.18	38.825
323.54	37.570
323.91	40.094
324.27	40.344
324.64	41.193
325.00	41.569
325.37	44.586
325.73	45.961
326.10	46.337
326.46	46.595
326.83	49.267
327.19	49.530
327.56	50.610
327.92	51.531
328.29	53.860
328.65	53.407
329.01	53.430
329.38	54.579
329.74	54.294
330.11	56.173
330.47	56.566
330.84	57.353
331.20	57.286
331.56	56.789
331.93	59.537
332.29	56.078
332.66	57.257
333.02	58.684
333.38	58.537
333.75	59.537
334.11	59.520
334.48	60.426
334.84	61.213
335.20	59.182
335.57	59.383
335.93	59.018
336.29	61.264
336.66	62.849
337.02	62.081
337.38	62.685
337.75	62.478
338.11	61.415
338.47	64.273
338.84	64.895
339.20	62.661
339.56	64.416
339.93	62.909
340.29	63.134
340.65	62.299
341.02	63.962
341.38	65.125
341.74	63.684
342.11	64.629
342.47	64.670
342.83	63.527
343.20	65.281
343.56	63.100
343.92	65.877
344.28	64.116
344.65	64.230
345.01	62.795
345.37	62.607
345.73	63.452
346.10	64.450
346.46	64.915
346.82	64.498
347.19	63.993
347.55	63.383
347.91	64.968
348.27	66.721
348.63	65.217
349.00	65.615
349.36	64.696
349.72	63.833
350.08	64.182
350.45	64.687
350.81	66.450
351.17	64.668
351.53	65.602
351.89	65.099
352.26	64.878
352.62	64.635
352.98	64.749
353.34	66.475
353.70	65.957
354.07	65.806
354.43	62.698
354.79	65.487
355.15	65.204
355.51	67.626
355.87	67.347
356.24	67.671
356.60	66.881
356.96	66.130
357.32	67.948
357.68	66.220
358.04	67.063
358.40	65.717
358.77	66.588
359.13	66.062
359.49	67.373
359.85	67.460
360.21	66.746
360.57	65.603
360.93	66.923
361.29	65.155
361.66	66.718
362.02	66.119
362.38	68.517
362.74	67.039
363.10	65.877
363.46	67.498
363.82	67.498
364.18	67.548
364.54	68.945
364.90	67.705
365.26	68.235
365.62	69.540
365.98	68.809
366.35	65.473
366.71	67.101
367.07	68.755
367.43	69.303
367.79	69.022
368.15	68.750
368.51	66.788
368.87	69.736
369.23	68.032
369.59	69.080
369.95	70.147
370.31	67.735
370.67	67.174
371.03	69.438
371.39	70.481
371.75	69.926
372.11	68.279
372.47	69.795
372.83	71.830
373.19	69.147
373.55	69.771
373.91	71.429
374.27	68.247
374.63	69.745
374.99	70.621
375.35	69.435
375.71	69.157
376.07	71.399
376.42	71.458
376.78	71.372
377.14	70.353
377.50	70.000
377.86	68.019
378.22	70.101
378.58	69.737
378.94	72.030
379.30	70.547
379.66	72.335
380.02	69.963
380.38	70.006
380.74	70.168
381.09	71.394
381.45	70.621
381.81	70.885
382.17	72.420
382.53	71.321
382.89	71.543
383.25	71.169
383.61	72.491
383.97	72.045
384.32	71.366
384.68	70.632
385.04	71.358
385.40	70.279
385.76	70.823
386.12	71.891
386.48	71.995
386.83	72.739
387.19	72.480
387.55	71.800
387.91	71.524
388.27	72.839
388.62	72.526
388.98	71.683
389.34	72.028
389.70	69.773
390.06	70.786
390.42	72.309
390.77	71.438
391.13	73.389
391.49	71.701
391.85	71.738
392.20	72.366
392.56	71.402
392.92	72.749
393.28	71.065
393.64	70.683
393.99	70.739
394.35	72.829
394.71	71.016
395.07	71.277
395.42	71.941
395.78	70.674
396.14	71.384
396.50	70.489
396.85	72.918
397.21	70.037
397.57	70.490
397.92	71.394
398.28	70.348
398.64	70.430
399.00	69.166
399.35	69.825
399.71	70.486
400.07	68.894
400.42	70.000
400.78	69.843
401.14	70.549
401.49	70.627
401.85	69.631
402.21	70.240
402.57	68.538
402.92	70.113
403.28	69.956
403.63	69.183
403.99	69.745
404.35	68.909
404.70	70.204
405.06	68.725
405.42	69.120
405.77	68.286
406.13	67.325
406.49	67.948
406.84	68.576
407.20	68.676
407.55	68.794
407.91	68.333
408.27	69.496
408.62	68.212
408.98	67.157
409.34	68.450
409.69	68.065
410.05	67.968
410.40	67.829
410.76	67.622
411.11	66.104
411.47	66.326
411.83	66.402
412.18	66.605
412.54	67.808
412.89	66.386
413.25	66.588
413.60	67.758
413.96	66.849
414.31	66.100
414.67	68.885
415.03	67.152
415.38	66.559
415.74	66.431
416.09	67.276
416.45	66.399
416.80	65.631
417.16	66.086
417.51	67.153
417.87	66.217
418.22	65.552
418.58	66.753
418.93	65.971
419.29	66.964
419.64	65.239
420.00	66.402
420.35	65.159
420.71	66.049
421.06	64.021
421.42	64.678
421.77	65.078
422.12	64.234
422.48	63.357
422.83	65.055
423.19	64.530
423.54	65.699
423.90	65.449
424.25	64.824
424.61	62.976
424.96	64.956
425.31	63.012
425.67	62.978
426.02	63.943
426.38	66.117
426.73	63.195
427.09	63.891
427.44	63.427
427.79	62.220
428.15	64.345
428.50	64.599
428.85	65.495
429.21	63.556
429.56	63.971
429.92	62.859
430.27	63.009
430.62	62.826
430.98	62.117
431.33	61.186
431.68	61.885
432.04	60.969
432.39	62.707
432.74	63.256
433.10	62.252
433.45	62.799
433.80	61.475
434.16	61.806
434.51	60.579
434.86	62.030
435.22	61.479
435.57	61.945
435.92	60.211
436.28	62.871
436.63	62.472
436.98	61.763
437.34	62.016
437.69	62.952
438.04	61.551
438.39	61.373
438.75	61.302
439.10	60.168
439.45	60.803
439.81	61.692
440.16	60.136
440.51	60.984
440.86	60.625
441.22	60.623
441.57	61.837
441.92	60.440
442.27	61.249
442.63	59.979
442.98	60.901
443.33	60.489
443.68	60.506
444.03	59.736
444.39	59.640
444.74	59.416
445.09	58.976
445.44	60.962
445.79	58.189
446.15	59.079
446.50	60.635
446.85	59.198
447.20	59.918
447.55	60.190
447.91	59.239
448.26	58.653
448.61	59.129
448.96	59.911
449.31	60.067
449.66	59.482
450.02	59.053
450.37	58.673
450.72	57.924
451.07	58.196
451.42	56.900
451.77	57.957
452.12	57.217
452.47	58.085
452.83	58.392
453.18	57.335
453.53	59.678
453.88	57.472
454.23	57.860
454.58	58.631
454.93	58.868
455.28	56.796
455.63	57.585
455.98	59.643
456.34	57.915
456.69	56.794
457.04	57.895
457.39	56.458
457.74	56.703
458.09	56.987
458.44	57.127
458.79	54.989
459.14	56.659
459.49	57.618
459.84	54.958
460.19	55.922
460.54	55.440
460.89	55.952
461.24	56.163
461.59	56.653
461.94	55.364
462.29	57.448
462.64	56.414
462.99	56.148
463.34	55.800
463.69	57.348
464.04	56.464
464.39	54.377
464.74	55.377
465.09	56.454
465.44	54.737
465.79	54.306
466.14	53.640
466.49	54.283
466.84	53.940
467.19	53.832
467.54	54.750
467.89	54.502
468.24	54.159
468.59	54.884
468.94	53.696
469.29	54.113
469.64	55.221
469.99	55.413
470.34	55.350
470.68	55.747
471.03	55.170
471.38	55.664
471.73	53.964
472.08	54.737
472.43	53.266
472.78	53.325
473.13	53.338
473.48	54.370
473.83	52.683
474.17	52.147
474.52	52.667
474.87	53.707
475.22	52.176
475.57	52.015
475.92	52.735
476.27	53.326
476.61	53.227
476.96	53.436
477.31	52.067
477.66	52.899
478.01	51.019
478.36	51.613
478.70	51.194
479.05	51.651
479.40	51.689
479.75	51.805
480.10	52.386
480.45	50.595
480.79	50.167
481.14	51.125
481.49	51.068
481.84	51.212
482.19	51.159
482.53	50.826
482.88	50.489
483.23	50.841
483.58	51.183
483.92	50.703
484.27	48.366
484.62	49.267
484.97	49.507
485.31	50.856
485.66	49.926
486.01	48.324
486.36	46.084
486.70	44.876
487.05	45.805
487.40	46.757
487.75	47.234
488.09	47.528
488.44	47.665
488.79	49.042
489.13	48.663
489.48	48.246
489.83	48.943
490.17	48.882
490.52	49.291
490.87	48.711
491.22	48.568
491.56	48.018
491.91	49.372
492.26	47.680
492.60	47.742
492.95	47.942
493.30	47.757
493.64	48.437
493.99	47.307
494.34	48.381
494.68	48.214
495.03	48.308
495.37	47.650
495.72	48.246
496.07	48.770
496.41	46.903
496.76	47.405
497.11	47.591
497.45	47.508
497.80	48.273
498.14	47.874
498.49	47.854
498.84	47.315
499.18	46.286
499.53	46.296
499.87	46.598
500.22	46.726
500.56	47.087
500.91	46.250
501.26	46.183
501.60	47.651
501.95	45.784
502.29	47.329
502.64	46.555
502.98	46.704
503.33	46.252
503.67	45.708
504.02	46.165
504.36	45.110
504.71	46.263
505.06	45.976
505.40	45.795
505.75	45.178
506.09	45.092
506.44	46.226
506.78	46.030
507.13	46.542
507.47	46.010
507.82	45.593
508.16	46.099
508.51	46.778
508.85	45.680
509.19	45.612
509.54	45.612
509.88	45.080
510.23	45.141
510.57	45.872
510.92	45.935
511.26	45.375
511.61	46.058
511.95	44.415
512.30	44.857
512.64	45.083
512.98	46.249
513.33	45.236
513.67	44.237
514.02	44.643
514.36	46.259
514.70	45.988
515.05	46.235
515.39	45.036
515.74	45.833
516.08	45.780
516.42	45.339
516.77	46.042
517.11	44.229
517.46	45.260
517.80	45.180
518.14	44.354
518.49	45.391
518.83	44.773
519.17	44.284
519.52	45.557
519.86	45.408
520.20	46.301
520.55	45.302
520.89	45.499
521.23	44.994
521.58	44.598
521.92	46.111
522.26	43.319
522.61	45.545
522.95	43.769
523.29	43.457
523.64	44.329
523.98	46.087
524.32	44.692
524.66	43.957
525.01	44.424
525.35	43.680
525.69	44.150
526.04	44.548
526.38	44.234
526.72	43.558
527.06	44.570
527.41	42.760
527.75	43.923
528.09	44.316
528.43	44.105
528.78	43.393
529.12	44.242
529.46	43.968
529.80	43.936
530.15	43.925
530.49	42.523
530.83	44.620
531.17	46.084
531.51	44.877
531.86	45.097
532.20	44.329
532.54	44.651
532.88	43.132
533.22	43.161
533.57	43.457
533.91	43.588
534.25	42.649
534.59	43.441
534.93	43.605
535.27	41.581
535.62	42.796
535.96	44.382
536.30	42.657
536.64	42.949
536.98	42.668
537.32	42.725
537.66	43.000
538.01	43.252
538.35	42.146
538.69	43.459
539.03	42.690
539.37	41.470
539.71	41.154
540.05	42.288
540.39	42.126
540.73	42.626
541.07	44.711
541.42	43.705
541.76	42.645
542.10	42.173
542.44	42.781
542.78	42.885
543.12	41.459
543.46	42.492
543.80	42.485
544.14	41.913
544.48	41.714
544.82	42.142
545.16	42.550
545.50	41.003
545.84	42.339
546.18	42.761
546.52	42.189
546.86	42.955
547.20	42.751
547.54	41.750
547.88	42.411
548.22	42.217
548.56	40.943
548.90	39.565
549.24	41.549
549.58	42.156
549.92	41.415
550.26	42.969
550.60	41.148
550.94	41.197
551.28	41.478
551.62	41.769
551.96	41.404
552.30	42.116
552.64	42.258
552.98	40.475
553.32	41.133
553.66	41.513
554.00	40.700
554.34	40.925
554.68	41.917
555.02	41.678
555.36	40.919
555.69	40.528
556.03	40.781
556.37	40.996
556.71	40.859
557.05	40.126
557.39	41.288
557.73	40.226
558.07	42.712
558.41	40.449
558.75	40.705
559.08	41.834
559.42	41.572
559.76	42.794
560.10	39.472
560.44	40.811
560.78	39.920
561.12	39.446
561.45	40.026
561.79	39.552
562.13	40.912
562.47	40.984
562.81	39.888
563.15	39.398
563.48	39.390
563.82	39.596
564.16	39.634
564.50	38.997
564.84	38.496
565.17	39.382
565.51	40.575
565.85	39.023
566.19	39.198
566.52	40.342
566.86	38.879
567.20	40.330
567.54	40.183
567.88	39.489
568.21	38.730
568.55	38.372
568.89	39.640
569.23	37.567
569.56	37.085
569.90	37.321
570.24	37.280
570.57	36.008
570.91	36.490
571.25	36.010
571.59	35.700
571.92	35.743
572.26	35.933
572.60	36.607
572.93	35.952
573.27	35.108
573.61	35.315
573.95	35.245
574.28	35.653
574.62	35.447
574.96	35.030
575.29	35.597
575.63	34.502
575.97	35.251
576.30	34.944
576.64	34.774
576.98	35.246
577.31	35.120
577.65	35.157
577.98	34.580
578.32	34.293
578.66	34.403
578.99	34.079
579.33	34.423
579.67	33.933
580.00	33.949
580.34	35.026
580.67	34.554
581.01	35.260
581.35	34.629
581.68	34.685
582.02	33.654
582.35	33.978
582.69	33.769
583.02	33.898
583.36	34.102
583.70	34.540
584.03	34.587
584.37	35.257
584.70	34.901
585.04	34.540
585.37	34.599
585.71	33.905
586.04	33.897
586.38	34.770
586.72	34.576
587.05	34.855
587.39	34.644
587.72	34.733
588.06	34.445
588.39	34.376
588.73	34.614
589.06	34.840
589.40	35.017
589.73	34.249
590.07	35.125
590.40	35.221
590.73	35.714
591.07	35.897
591.40	35.597
591.74	36.494
592.07	35.733
592.41	35.759
592.74	35.019
593.08	34.910
593.41	34.451
593.75	34.104
594.08	34.462
594.41	34.146
594.75	35.046
595.08	34.753
595.42	35.131
595.75	34.224
596.09	35.374
596.42	35.992
596.75	34.572
597.09	35.714
597.42	34.401
597.75	35.058
598.09	35.217
598.42	34.579
598.76	33.847
599.09	34.322
599.42	33.770
599.76	34.370
600.09	34.681
600.42	34.332
600.76	34.036
601.09	33.698
601.42	33.904
601.76	34.194
602.09	35.059
602.42	34.236
602.76	35.671
603.09	34.500
603.42	34.908
603.76	34.184
604.09	34.083
604.42	34.366
604.76	34.416
605.09	35.343
605.42	34.587
605.75	34.396
606.09	34.648
606.42	34.696
606.75	33.720
607.09	34.240
607.42	33.804
607.75	33.629
608.08	34.650
608.42	34.200
608.75	34.175
609.08	33.996
609.41	34.888
609.75	34.778
610.08	35.297
610.41	34.125
610.74	34.957
611.07	34.783
611.41	34.446
611.74	34.942
612.07	35.611
612.40	36.097
612.73	34.895
613.07	35.183
613.40	35.914
613.73	34.924
614.06	35.699
614.39	34.190
614.72	34.632
615.06	35.294
615.39	35.403
615.72	34.407
616.05	33.971
616.38	35.631
616.71	36.105
617.05	35.689
617.38	35.298
617.71	35.676
618.04	35.937
618.37	35.245
618.70	35.657
619.03	36.579
619.36	36.049
619.69	35.775
620.03	36.745
620.36	37.166
620.69	36.712
621.02	37.242
621.35	36.570
621.68	35.436
622.01	37.771
622.34	37.065
622.67	36.882
623.00	36.464
623.33	35.668
623.66	36.455
623.99	36.598
624.32	36.020
624.65	36.017
624.99	35.057
625.32	35.626
625.65	36.289
625.98	36.126
626.31	35.537
626.64	35.347
626.97	37.240
627.30	37.323
627.63	36.751
627.96	36.838
628.29	36.133
628.62	36.597
628.95	38.019
629.28	36.861
629.61	38.313
629.94	37.810
630.26	38.799
630.59	37.846
630.92	36.973
631.25	36.920
631.58	37.838
631.91	37.931
632.24	36.287
632.57	38.300
632.90	38.596
633.23	37.360
633.56	38.870
633.89	38.392
634.22	39.728
634.55	40.000
634.88	38.802
635.20	39.904
635.53	38.434
635.86	39.480
636.19	36.824
636.52	38.524
636.85	38.488
637.18	36.521
637.51	41.135
637.83	37.731
638.16	39.003
638.49	39.924
638.82	39.697
639.15	37.375
639.48	39.776
639.81	40.349
640.13	39.453
640.46	37.450
640.79	39.366
641.12	37.139
641.45	39.665
641.77	40.795
642.10	40.351
642.43	38.288
642.76	39.474
643.09	40.644
643.41	39.605
643.74	42.593
644.07	40.701
644.40	41.718
644.73	41.102
645.05	42.155
645.38	41.864
645.71	41.385
646.04	43.355
646.36	41.903
646.69	41.137
647.02	40.646
647.35	40.722
647.67	43.009
648.00	44.065
648.33	40.099
648.66	39.697
648.98	38.681
649.31	39.013
649.64	39.611
649.96	40.238
650.29	40.916
650.62	40.291
650.94	42.626
651.27	42.736
651.60	40.266
651.92	40.735
652.25	39.414
652.58	38.785
652.90	38.705
653.23	38.983
653.56	40.472
653.88	40.729
654.21	41.390
654.54	40.429
654.86	38.941
655.19	38.919
655.52	28.033
655.84	27.002
656.17	34.949
656.49	46.899
656.82	47.021
657.15	35.066
657.47	25.789
657.80	19.917
658.13	20.511
658.45	30.452
658.78	29.585
659.10	30.735
659.43	32.063
659.75	33.184
660.08	35.570
660.41	39.851
660.73	42.313
661.06	39.968
661.38	43.455
661.71	41.154
662.03	44.181
662.36	40.358
662.68	42.570
663.01	41.818
663.33	43.312
663.66	41.807
663.98	44.060
664.31	42.437
664.63	40.891
664.96	40.845
665.28	43.648
665.61	41.131
665.93	40.644
666.26	43.002
666.58	39.749
666.91	43.340
667.23	42.921
667.56	40.605
667.88	43.376
668.21	41.151
668.53	42.299
668.86	41.775
669.18	41.578
669.50	43.478
669.83	43.573
670.15	42.222
670.48	41.176
670.80	42.888
671.13	42.463
671.45	41.277
671.77	41.141
672.10	40.665
672.42	39.576
672.75	38.308
673.07	39.085
673.39	39.602
673.72	39.648
674.04	38.824
674.37	40.971
674.69	40.286
675.01	41.004
675.34	44.559
675.66	42.526
675.98	38.900
676.31	43.067
676.63	40.127
676.95	41.509
677.28	44.159
677.60	41.978
677.92	43.671
678.25	39.425
678.57	38.845
678.89	42.084
679.22	38.900
679.54	40.267
679.86	40.183
680.18	37.209
680.51	38.475
680.83	37.367
681.15	39.434
681.48	39.887
681.80	38.878
682.12	38.697
682.44	39.265
682.77	42.566
683.09	42.489
683.41	40.798
683.73	42.605
684.06	39.876
684.38	40.313
684.70	41.667
685.02	40.150
685.34	37.363
685.67	38.462
685.99	36.426
686.31	38.396
686.63	35.689
686.96	37.143
687.28	40.794
687.60	37.862
687.92	39.488
688.24	38.593
688.56	39.157
688.89	42.946
689.21	43.013
689.53	39.248
689.85	40.576
690.17	38.716
690.49	41.189
690.82	40.187
691.14	41.964
691.46	38.186
691.78	41.165
692.10	40.496
692.42	37.924
692.74	39.419
693.06	40.426
693.39	40.657
693.71	40.830
694.03	40.421
694.35	39.177
694.67	42.105
694.99	42.439
695.31	42.402
695.63	42.105
695.95	41.320
696.27	38.579
696.59	41.710
696.91	45.337
697.23	38.028
697.56	39.872
697.88	37.628
698.20	38.958
698.52	40.645
698.84	40.089
699.16	40.323
699.48	40.855
699.80	41.304
700.12	48.571
700.44	40.318
700.76	43.094
701.08	43.391
701.40	43.855
701.72	45.481
702.04	47.727
702.36	42.493
702.68	44.476
703.00	45.706
703.32	42.553
703.64	43.968
703.96	44.568
704.28	41.570
704.60	45.161
704.91	45.994
705.23	45.748
705.55	45.515
705.87	49.834
706.19	44.523
706.51	47.040
706.83	44.242
707.15	47.339
707.47	39.394
707.79	42.506
708.11	38.584
708.43	38.571
708.74	38.776
709.06	44.935
709.38	39.895
709.70	46.512
710.02	43.323
710.34	40.606
710.66	42.090
710.98	43.182
711.29	42.733
711.61	43.658
711.93	48.077
712.25	48.875
712.57	45.588
712.89	48.789
713.20	41.945
713.52	47.039
713.84	45.886
714.16	42.988
714.48	40.805
714.80	44.681
715.11	42.363
715.43	42.136
715.75	41.739
716.07	44.728
716.39	42.947
716.70	48.173
717.02	44.964
717.34	49.117
717.66	47.388
717.97	50.598
718.29	46.296
718.61	45.620
718.93	48.897
719.24	40.830
719.56	39.322
719.88	45.763
720.20	47.973
720.51	51.220
720.83	49.814
721.15	48.507
721.46	43.972
721.78	46.953
722.10	51.321
722.42	48.872
722.73	45.318
723.05	46.721
723.37	47.368
723.68	49.035
724.00	46.341
724.32	43.952
724.63	47.154
724.95	49.791
725.27	48.583
725.58	47.266
725.90	48.175
726.22	42.642
726.53	43.750
726.85	43.686
727.16	46.619
727.48	41.844
727.80	46.212
728.11	43.841
728.43	46.154
728.74	46.237
729.06	46.715
729.38	47.059
729.69	46.619
730.01	43.686
730.32	43.403
730.64	43.478
730.96	41.914
731.27	45.033
731.59	46.177
731.90	43.732
732.22	42.547
732.53	40.557
732.85	45.192
733.16	44.051
733.48	46.179
733.80	42.857
734.11	41.083
734.43	40.533
734.74	41.143
735.06	40.401
735.37	44.509
735.69	41.720
736.00	47.059
736.32	44.860
736.63	42.812
736.95	42.492
737.26	41.156
737.58	38.710
737.89	46.154
738.21	41.297
738.52	44.286
738.83	42.642
739.15	45.000
739.46	47.810
739.78	44.097
740.09	44.308
740.41	45.161
740.72	44.599
741.04	44.815
741.35	45.833
741.66	52.000
741.98	47.170
742.29	54.545
742.61	48.707
742.92	51.131
743.23	54.274
743.55	45.600
743.86	54.386
744.18	57.965
744.49	52.153
744.80	54.460
745.12	56.364
745.43	50.220
745.74	50.450
746.06	52.752
746.37	49.327
746.68	49.321
747.00	51.389
747.31	47.143
747.62	47.345
747.94	45.815
748.25	45.532
748.56	54.626
748.88	47.030
749.19	53.000
749.50	57.674
749.82	41.057
750.13	44.490
750.44	42.701
750.75	44.912
751.07	45.016
751.38	43.902
751.69	46.209
752.01	46.992
752.32	43.321
752.63	49.645
752.94	39.344
753.26	47.200
753.57	42.276
753.88	46.484
754.19	45.000
754.51	47.222
754.82	42.238
755.13	49.434
755.44	46.241
755.75	45.620
756.07	44.681
756.38	42.701
756.69	41.946
757.00	40.120
757.31	40.950
757.63	37.427
757.94	41.823
758.25	37.500
758.56	38.765
758.87	39.785
759.18	40.606
759.50	40.752
759.81	42.679
760.12	38.437
760.43	41.261
760.74	38.315
761.05	39.831
761.36	36.631
761.67	42.045
761.99	41.615
762.30	44.444
762.61	40.076
762.92	44.922
763.23	49.580
763.54	50.000
763.85	41.797
764.16	48.846
764.47	46.388
764.78	41.696
765.10	37.658
765.41	42.773
765.72	39.222
766.03	44.514
766.34	38.000
766.65	49.362
766.96	47.009
767.27	51.777
767.58	52.604
767.89	60.000
768.20	56.897
768.51	45.685
768.82	47.248
769.13	42.683
769.44	44.939
769.75	41.631
770.06	48.624
770.37	47.059
770.68	49.074
770.99	47.556
771.30	42.213
771.61	47.085
771.92	47.541
772.23	52.101
772.54	55.385
772.85	49.215
773.16	54.787
773.47	53.261
773.78	51.777
774.09	51.786
774.39	60.234
774.70	52.469
775.01	59.420
775.32	61.438
775.63	55.263
775.94	60.432
776.25	68.504
776.56	66.418
776.87	63.934
777.18	58.594
777.48	65.649
777.79	64.394
778.10	66.667
778.41	73.214
778.72	54.745
779.03	57.047
779.34	55.705
779.65	54.054
779.95	58.282
780.26	58.824
780.57	59.310
780.88	74.219
781.19	59.398
781.50	62.838
781.80	59.119
782.11	52.542
782.42	55.696
782.73	47.239
783.04	62.838
783.34	66.197
783.65	67.808
783.96	64.179
784.27	60.839
784.57	50.360
784.88	60.185
785.19	77.778
785.50	68.868
785.81	67.164
786.11	72.131
786.42	59.690
786.73	69.912
787.04	71.698
787.34	66.964
787.65	76.000
787.96	71.171
788.26	63.636
788.57	66.102
788.88	74.380
789.19	65.278
789.49	70.455
789.80	58.015
790.11	73.333
790.41	71.287
790.72	73.494
791.03	86.957
791.33	94.186
791.64	86.598
791.95	77.228
792.25	76.667
792.56	76.623
792.87	91.026
793.17	96.203
793.48	79.310
793.79	82.759
794.09	76.136
794.40	65.546
794.70	71.324
795.01	55.556
795.32	58.273
795.62	59.055
795.93	73.276
796.23	69.027
796.54	76.471
796.85	72.973
797.15	102.817
797.46	83.333
797.76	100.000
798.07	91.139
798.37	96.923
798.68	78.788
798.99	78.873
799.29	85.714
799.60	82.955
799.90	97.260
800.21	101.493
800.51	113.793
800.82	140.351
801.12	108.197
801.43	110.606
801.73	86.486
802.04	114.286
802.34	93.827
802.65	84.375
802.95	110.169
803.26	117.188
803.56	90.000
803.87	112.308
804.17	91.176
804.48	111.111
804.78	91.379
805.09	98.529
805.39	107.692
805.70	110.714
806.00	95.082
806.30	100.000
806.61	89.024
806.91	81.013
807.22	86.842
807.52	85.075
807.83	102.817
808.13	100.000
808.43	86.667
808.74	85.526
809.04	97.101
809.35	98.507
809.65	86.842
809.95	111.290
810.26	120.339
810.56	106.349
810.86	131.818
811.17	142.857
811.47	116.667
811.77	112.963
812.08	101.818
812.38	124.000
812.69	136.111
812.99	143.182
813.29	124.490
813.59	119.048
813.90	140.816
814.20	118.182
814.50	98.462
814.81	110.294
815.11	106.122
815.41	108.197
815.72	147.619
816.02	103.636
816.32	138.095
816.62	122.500
816.93	134.146
817.23	135.714
817.53	138.636
817.84	148.485
818.14	150.000
818.44	131.111
818.74	155.882
819.04	135.000
819.35	157.143
819.65	158.824
819.95	182.143
820.25	235.000
820.56	171.795
820.86	140.909
821.16	137.209
821.46	156.410
821.76	130.000
822.07	171.429
822.37	137.500
822.67	184.848
822.97	137.255
823.27	214.286
823.57	172.973
823.88	162.500
824.18	170.000
824.48	157.143
824.78	220.000
825.08	175.000
825.38	156.757
825.69	129.268
825.99	237.500
826.29	162.069
826.59	144.737
826.89	157.895
827.19	173.529
827.49	167.742
827.79	170.455
828.09	147.727
828.39	121.277
828.70	112.245
829.00	170.370
829.30	174.194
829.60	140.000
829.90	293.333
830.20	196.429
830.50	217.391
830.80	230.435
831.10	200.000
831.40	170.000
831.70	178.261
832.00	230.769
832.30	162.963
832.60	243.750
832.90	186.667
833.20	442.857
833.50	206.452
833.80	182.759
834.10	193.750
834.40	234.615
834.70	305.556
835.00	271.429
835.30	162.857
835.60	323.077
835.90	206.897
836.20	407.143
836.50	213.793
836.80	228.000
837.10	177.778
837.40	295.238
837.70	294.118
838.00	203.704
838.30	200.000
838.60	257.143
838.90	207.692
839.19	235.000
839.49	378.571
839.79	310.000
840.09	235.000
840.39	271.429
840.69	243.478
840.99	266.667
841.29	450.000
841.59	358.333
841.88	368.750
842.18	155.172
842.48	219.048
842.78	186.667
843.08	265.217
843.38	200.000
843.68	750.000
843.97	230.769
844.27	193.103
844.57	252.381
844.87	287.500
845.17	222.222
845.47	1233.333
845.76	477.778
846.06	276.471
846.36	525.000
846.66	321.429
846.96	281.250
847.25	372.727
847.55	436.364
847.85	221.739
848.15	540.000
848.44	285.714
848.74	188.889
849.04	317.647
849.34	570.000
849.63	205.263
849.93	390.909
850.23	1060.000
850.53	407.143
850.82	2100.000
851.12	-4700.000
851.42	3300.000
851.71	255.000
852.01	-1166.667
852.31	254.167
852.61	1866.667
852.90	266.667
853.20	216.000
853.50	311.765
853.79	261.905
854.09	183.333
854.39	312.500
854.68	156.757
854.98	161.290
855.28	176.667
855.57	203.448
855.87	200.000
856.17	305.263
856.46	306.667
856.76	300.000
857.05	213.793
857.35	241.667
857.65	280.000
857.94	230.435
858.24	192.308
858.53	300.000
858.83	254.545
859.13	313.333
859.42	0.000
859.72	500.000
860.01	454.545
860.31	263.636
860.60	221.053
860.90	230.435
861.20	555.556
861.49	425.000
861.79	-4700.000
862.08	637.500
862.38	233.333
862.67	369.231
862.97	352.941
863.26	533.333
863.56	238.889
863.85	325.000
864.15	687.500
864.44	400.000
864.74	933.333
865.03	662.500
865.33	289.474
865.62	454.545
865.92	369.231
866.21	366.667
866.51	0.000
866.80	381.818
867.10	1060.000
867.39	369.231
867.69	490.909
867.98	284.211
868.27	445.455
868.57	310.526
868.86	-3700.000
869.16	318.750
869.45	2100.000
869.75	-4600.000
870.04	400.000
870.33	628.571
870.63	1000.000
870.92	2300.000
871.22	685.714
871.51	323.529
871.80	266.667
872.10	371.429
>>>>>End Processed Spectral Data<<<<<
