SpectraSuite Data File
++++++++++++++++++++++++++++++++++++
Date: Wed May 13 16:44:22 PDT 2015
User: schluterlab
Dark Spectrum Present: Yes
Reference Spectrum Present: Yes
Number of Sampled Component Spectra: 1
Spectrometers: USB2E3373
Integration Time (usec): 3000 (USB2E3373)
Spectra Averaged: 3 (USB2E3373)
Boxcar Smoothing: 0 (USB2E3373)
Correct for Electrical Dark: No (USB2E3373)
Strobe/Lamp Enabled: No (USB2E3373)
Correct for Detector Non-linearity: No (USB2E3373)
Correct for Stray Light: No (USB2E3373)
Number of Pixels in Processed Spectrum: 2048
>>>>>Begin Processed Spectral Data<<<<<
178.53	0.000
178.91	-1425.000
179.29	-1350.000
179.67	-194.444
180.04	-1275.000
180.42	2300.000
180.80	1160.000
181.18	-900.000
181.56	500.000
181.94	0.000
182.31	-700.000
182.69	1800.000
183.07	-512.500
183.45	-455.556
183.83	527.273
184.20	-450.000
184.58	2300.000
184.96	5400.000
185.34	-680.000
185.72	-625.000
186.09	-2550.000
186.47	2450.000
186.85	2500.000
187.23	5100.000
187.61	-1666.667
187.98	1200.000
188.36	563.636
188.74	445.455
189.12	-780.000
189.49	490.000
189.87	-4600.000
190.25	-1175.000
190.63	371.429
191.00	376.923
191.38	600.000
191.76	-1200.000
192.14	1375.000
192.51	650.000
192.89	900.000
193.27	612.500
193.65	-1175.000
194.02	560.000
194.40	900.000
194.78	620.000
195.15	525.000
195.53	590.000
195.91	-2150.000
196.29	350.000
196.66	284.211
197.04	-280.000
197.42	0.000
197.79	560.000
198.17	-5400.000
198.55	714.286
198.92	612.500
199.30	780.000
199.68	0.000
200.05	372.222
200.43	657.143
200.81	3500.000
201.18	1533.333
201.56	-1633.333
201.94	533.333
202.31	600.000
202.69	391.667
203.07	590.000
203.44	0.000
203.82	1375.000
204.19	685.714
204.57	378.571
204.95	687.500
205.32	1633.333
205.70	518.182
206.08	428.571
206.45	2200.000
206.83	318.750
207.20	800.000
207.58	800.000
207.96	350.000
208.33	625.000
208.71	-716.667
209.08	814.286
209.46	544.444
209.84	445.455
210.21	-1500.000
210.59	1400.000
210.96	-450.000
211.34	2500.000
211.71	550.000
212.09	716.667
212.46	0.000
212.84	1733.333
213.22	1075.000
213.59	-4800.000
213.97	816.667
214.34	757.143
214.72	572.727
215.09	1180.000
215.47	-2200.000
215.84	-1950.000
216.22	1533.333
216.59	400.000
216.97	1225.000
217.34	427.273
217.72	-683.333
218.09	0.000
218.47	-4500.000
218.84	666.667
219.22	842.857
219.59	1533.333
219.97	-742.857
220.34	940.000
220.72	-1833.333
221.09	414.286
221.47	1475.000
221.84	-900.000
222.22	0.000
222.59	1425.000
222.97	-2150.000
223.34	1220.000
223.72	415.385
224.09	1140.000
224.46	2550.000
224.84	-5500.000
225.21	-960.000
225.59	-3800.000
225.96	550.000
226.34	285.000
226.71	2650.000
227.08	750.000
227.46	600.000
227.83	-1000.000
228.21	-2150.000
228.58	533.333
228.95	-2250.000
229.33	-2600.000
229.70	1466.667
230.08	771.429
230.45	-820.000
230.82	383.333
231.20	850.000
231.57	628.571
231.95	500.000
232.32	222.727
232.69	427.273
233.07	657.143
233.44	330.769
233.81	-1566.667
234.19	268.421
234.56	500.000
234.93	408.333
235.31	409.091
235.68	300.000
236.05	350.000
236.43	154.545
236.80	278.947
237.17	3900.000
237.55	176.190
237.92	185.714
238.29	200.000
238.67	167.742
239.04	162.069
239.41	158.333
239.79	106.522
240.16	133.333
240.53	102.273
240.91	94.118
241.28	84.000
241.65	80.000
242.02	86.957
242.40	70.968
242.77	73.333
243.14	60.215
243.51	65.169
243.89	55.294
244.26	57.778
244.63	54.839
245.00	41.489
245.38	54.455
245.75	48.598
246.12	41.284
246.49	54.015
246.87	54.400
247.24	38.462
247.61	40.000
247.98	40.523
248.36	26.351
248.73	27.389
249.10	36.943
249.47	34.463
249.84	30.481
250.22	24.064
250.59	26.036
250.96	31.313
251.33	28.910
251.70	26.733
252.08	27.619
252.45	26.906
252.82	25.652
253.19	23.830
253.56	25.098
253.94	21.577
254.31	24.219
254.68	25.000
255.05	21.771
255.42	18.699
255.79	19.118
256.16	22.022
256.54	19.435
256.91	18.861
257.28	18.705
257.65	18.812
258.02	20.497
258.39	17.350
258.76	18.060
259.14	20.833
259.51	19.149
259.88	15.839
260.25	19.335
260.62	17.341
260.99	17.081
261.36	17.417
261.73	16.332
262.10	15.116
262.47	18.310
262.85	16.713
263.22	13.105
263.59	15.385
263.96	16.484
264.33	15.405
264.70	16.579
265.07	16.113
265.44	17.172
265.81	15.572
266.18	13.317
266.55	15.366
266.92	13.514
267.29	17.593
267.66	13.073
268.03	13.182
268.40	13.551
268.77	10.740
269.14	13.063
269.51	16.704
269.88	13.986
270.25	13.544
270.62	14.157
270.99	14.194
271.36	15.451
271.73	13.551
272.10	11.304
272.47	14.624
272.84	13.203
273.21	13.208
273.58	13.319
273.95	12.998
274.32	12.397
274.69	13.490
275.06	11.614
275.43	13.191
275.80	13.026
276.17	9.776
276.54	12.890
276.91	10.277
277.28	11.523
277.65	12.959
278.02	12.422
278.39	14.453
278.76	12.182
279.13	13.208
279.50	13.222
279.87	11.155
280.23	11.377
280.60	8.317
280.97	11.275
281.34	10.796
281.71	12.545
282.08	11.516
282.45	9.818
282.82	11.012
283.19	9.269
283.56	10.877
283.92	11.506
284.29	8.818
284.66	11.434
285.03	8.680
285.40	10.211
285.77	10.101
286.14	9.326
286.51	11.333
286.87	10.085
287.24	9.935
287.61	11.557
287.98	13.312
288.35	9.350
288.72	9.346
289.08	10.172
289.45	8.896
289.82	10.732
290.19	9.262
290.56	10.413
290.93	10.574
291.29	9.663
291.66	9.145
292.03	10.610
292.40	11.013
292.77	8.136
293.13	8.507
293.50	8.601
293.87	9.185
294.24	8.000
294.60	8.297
294.97	9.157
295.34	8.886
295.71	7.528
296.08	8.547
296.44	8.253
296.81	9.775
297.18	10.027
297.55	7.124
297.91	7.784
298.28	8.701
298.65	9.269
299.02	8.827
299.38	8.632
299.75	6.604
300.12	7.535
300.48	8.000
300.85	8.385
301.22	6.497
301.59	5.556
301.95	7.935
302.32	8.087
302.69	8.244
303.05	8.000
303.42	7.778
303.79	7.814
304.15	6.876
304.52	5.910
304.89	5.226
305.25	7.309
305.62	8.154
305.99	6.730
306.35	6.823
306.72	7.063
307.09	7.436
307.45	8.221
307.82	6.250
308.19	7.285
308.55	8.414
308.92	7.089
309.29	7.603
309.65	6.575
310.02	7.611
310.38	7.204
310.75	6.336
311.12	7.062
311.48	6.897
311.85	7.338
312.22	7.180
312.58	6.965
312.95	7.497
313.31	6.699
313.68	7.588
314.05	9.073
314.41	7.839
314.78	6.647
315.14	7.051
315.51	7.106
315.87	7.327
316.24	7.349
316.61	7.407
316.97	6.654
317.34	7.632
317.70	8.222
318.07	7.026
318.43	7.828
318.80	7.685
319.16	7.910
319.53	7.317
319.89	7.810
320.26	8.700
320.62	8.135
320.99	7.980
321.35	8.081
321.72	8.727
322.08	9.279
322.45	9.254
322.81	8.333
323.18	9.827
323.54	9.369
323.91	8.679
324.27	7.935
324.64	7.829
325.00	9.197
325.37	9.827
325.73	9.246
326.10	9.532
326.46	8.871
326.83	9.405
327.19	10.248
327.56	8.972
327.92	9.186
328.29	9.494
328.65	10.037
329.01	9.838
329.38	8.973
329.74	10.711
330.11	9.802
330.47	10.836
330.84	10.846
331.20	8.652
331.56	9.725
331.93	9.444
332.29	10.204
332.66	10.000
333.02	9.781
333.38	10.479
333.75	9.982
334.11	10.142
334.48	9.406
334.84	9.743
335.20	9.818
335.57	9.338
335.93	8.304
336.29	8.883
336.66	9.919
337.02	9.140
337.38	9.815
337.75	9.091
338.11	9.132
338.47	8.840
338.84	9.441
339.20	8.073
339.56	9.945
339.93	8.636
340.29	8.152
340.65	10.339
341.02	10.122
341.38	9.786
341.74	8.421
342.11	9.520
342.47	9.339
342.83	9.503
343.20	10.563
343.56	9.183
343.92	8.421
344.28	9.014
344.65	8.512
345.01	7.912
345.37	7.890
345.73	8.376
346.10	9.207
346.46	8.559
346.82	9.143
347.19	7.853
347.55	7.225
347.91	8.414
348.27	9.039
348.63	8.946
349.00	8.738
349.36	8.949
349.72	8.260
350.08	9.076
350.45	8.869
350.81	8.367
351.17	9.724
351.53	9.009
351.89	7.921
352.26	9.392
352.62	8.180
352.98	8.995
353.34	8.463
353.70	8.101
354.07	7.903
354.43	7.698
354.79	7.723
355.15	8.619
355.51	9.113
355.87	8.898
356.24	8.062
356.60	7.538
356.96	7.965
357.32	8.258
357.68	8.976
358.04	7.601
358.40	9.105
358.77	8.920
359.13	8.366
359.49	8.157
359.85	6.905
360.21	6.858
360.57	8.794
360.93	8.154
361.29	8.314
361.66	7.121
362.02	8.134
362.38	8.289
362.74	9.301
363.10	7.846
363.46	7.337
363.82	7.861
364.18	8.223
364.54	8.321
364.90	8.924
365.26	7.132
365.62	8.912
365.98	7.232
366.35	7.880
366.71	7.664
367.07	8.012
367.43	7.475
367.79	8.637
368.15	8.908
368.51	8.067
368.87	8.851
369.23	8.193
369.59	8.617
369.95	8.015
370.31	8.405
370.67	8.188
371.03	9.363
371.39	7.799
371.75	7.794
372.11	8.748
372.47	8.871
372.83	8.862
373.19	7.442
373.55	8.056
373.91	8.689
374.27	8.247
374.63	7.418
374.99	8.616
375.35	7.606
375.71	7.951
376.07	8.848
376.42	8.116
376.78	8.814
377.14	7.259
377.50	8.344
377.86	7.713
378.22	7.901
378.58	7.456
378.94	7.794
379.30	7.316
379.66	7.868
380.02	8.047
380.38	7.650
380.74	8.283
381.09	8.068
381.45	8.359
381.81	9.029
382.17	8.344
382.53	7.296
382.89	8.704
383.25	8.255
383.61	7.621
383.97	8.068
384.32	9.357
384.68	7.931
385.04	8.297
385.40	7.802
385.76	8.170
386.12	8.355
386.48	9.125
386.83	8.467
387.19	8.040
387.55	7.792
387.91	7.860
388.27	7.664
388.62	8.974
388.98	7.862
389.34	8.511
389.70	7.787
390.06	9.189
390.42	7.393
390.77	8.969
391.13	8.615
391.49	8.883
391.85	8.084
392.20	7.445
392.56	8.523
392.92	8.534
393.28	6.686
393.64	8.693
393.99	8.735
394.35	8.747
394.71	7.591
395.07	7.975
395.42	7.973
395.78	8.333
396.14	8.690
396.50	8.584
396.85	8.137
397.21	8.323
397.57	7.998
397.92	8.113
398.28	7.511
398.64	9.020
399.00	8.226
399.35	8.347
399.71	7.986
400.07	9.048
400.42	7.669
400.78	8.866
401.14	8.354
401.49	8.239
401.85	8.046
402.21	7.665
402.57	7.773
402.92	8.386
403.28	8.370
403.63	8.230
403.99	7.452
404.35	8.121
404.70	8.393
405.06	7.921
405.42	8.546
405.77	8.171
406.13	8.183
406.49	8.457
406.84	8.801
407.20	7.565
407.55	8.105
407.91	8.333
408.27	7.977
408.62	8.308
408.98	7.966
409.34	8.795
409.69	8.581
410.05	8.178
410.40	8.257
410.76	8.124
411.11	8.504
411.47	9.073
411.83	8.308
412.18	8.287
412.54	8.032
412.89	8.795
413.25	8.442
413.60	8.153
413.96	7.468
414.31	7.898
414.67	9.125
415.03	7.616
415.38	9.085
415.74	8.039
416.09	9.536
416.45	8.233
416.80	7.799
417.16	9.383
417.51	8.494
417.87	7.643
418.22	8.580
418.58	9.103
418.93	8.047
419.29	8.784
419.64	8.375
420.00	8.841
420.35	8.522
420.71	8.906
421.06	8.353
421.42	8.596
421.77	8.576
422.12	6.794
422.48	7.339
422.83	8.620
423.19	8.785
423.54	8.590
423.90	8.580
424.25	8.766
424.61	8.036
424.96	8.280
425.31	8.195
425.67	7.640
426.02	7.657
426.38	9.219
426.73	8.075
427.09	7.842
427.44	7.706
427.79	7.648
428.15	8.452
428.50	8.719
428.85	8.343
429.21	8.007
429.56	7.672
429.92	7.952
430.27	8.093
430.62	7.220
430.98	8.303
431.33	8.247
431.68	8.115
432.04	8.307
432.39	7.938
432.74	7.840
433.10	9.111
433.45	8.222
433.80	7.650
434.16	7.746
434.51	7.842
434.86	8.381
435.22	7.949
435.57	8.328
435.92	7.782
436.28	7.651
436.63	8.002
436.98	7.899
437.34	7.812
437.69	8.751
438.04	7.532
438.39	7.701
438.75	8.251
439.10	7.989
439.45	8.383
439.81	7.432
440.16	7.679
440.51	8.202
440.86	8.164
441.22	7.898
441.57	8.227
441.92	7.523
442.27	7.481
442.63	7.372
442.98	8.676
443.33	8.533
443.68	8.260
444.03	7.565
444.39	6.865
444.74	7.035
445.09	7.871
445.44	8.092
445.79	8.016
446.15	8.311
446.50	8.293
446.85	7.811
447.20	7.598
447.55	7.929
447.91	8.329
448.26	8.069
448.61	8.253
448.96	8.195
449.31	8.155
449.66	7.935
450.02	7.744
450.37	8.220
450.72	7.445
451.07	6.825
451.42	7.781
451.77	8.632
452.12	8.199
452.47	8.458
452.83	7.517
453.18	8.007
453.53	8.287
453.88	8.092
454.23	7.890
454.58	9.146
454.93	8.582
455.28	8.105
455.63	7.706
455.98	8.929
456.34	7.915
456.69	9.017
457.04	8.545
457.39	8.299
457.74	7.951
458.09	8.683
458.44	7.583
458.79	7.646
459.14	8.126
459.49	8.990
459.84	7.978
460.19	7.366
460.54	7.407
460.89	8.173
461.24	8.440
461.59	8.483
461.94	8.076
462.29	8.665
462.64	7.913
462.99	7.807
463.34	8.867
463.69	8.255
464.04	8.638
464.39	8.870
464.74	8.259
465.09	7.901
465.44	7.313
465.79	7.606
466.14	7.608
466.49	7.675
466.84	8.581
467.19	8.027
467.54	8.000
467.89	8.283
468.24	7.970
468.59	8.303
468.94	8.247
469.29	8.869
469.64	8.367
469.99	8.457
470.34	7.332
470.68	7.830
471.03	7.755
471.38	9.173
471.73	8.861
472.08	8.684
472.43	7.726
472.78	8.953
473.13	7.831
473.48	8.614
473.83	7.866
474.17	7.405
474.52	8.375
474.87	8.114
475.22	8.416
475.57	8.006
475.92	7.276
476.27	7.103
476.61	7.722
476.96	6.377
477.31	7.012
477.66	7.877
478.01	7.527
478.36	7.827
478.70	7.009
479.05	7.614
479.40	7.523
479.75	7.575
480.10	7.356
480.45	6.759
480.79	7.215
481.14	6.849
481.49	7.784
481.84	7.270
482.19	7.133
482.53	6.835
482.88	7.538
483.23	7.290
483.58	7.871
483.92	7.263
484.27	6.492
484.62	7.112
484.97	6.504
485.31	6.849
485.66	5.777
486.01	5.490
486.36	5.060
486.70	5.033
487.05	5.458
487.40	5.567
487.75	5.531
488.09	6.127
488.44	5.971
488.79	6.763
489.13	6.494
489.48	6.607
489.83	7.121
490.17	6.708
490.52	7.352
490.87	6.829
491.22	6.639
491.56	6.651
491.91	7.120
492.26	6.615
492.60	6.406
492.95	6.969
493.30	6.776
493.64	6.720
493.99	7.103
494.34	6.660
494.68	7.372
495.03	7.096
495.37	6.887
495.72	6.725
496.07	6.961
496.41	6.681
496.76	6.992
497.11	6.394
497.45	7.173
497.80	6.862
498.14	7.295
498.49	6.634
498.84	7.766
499.18	7.476
499.53	6.220
499.87	6.710
500.22	6.406
500.56	7.573
500.91	6.154
501.26	7.160
501.60	7.499
501.95	6.554
502.29	7.123
502.64	6.704
502.98	7.200
503.33	6.627
503.67	6.497
504.02	6.969
504.36	6.832
504.71	6.986
505.06	7.566
505.40	7.098
505.75	6.654
506.09	6.657
506.44	6.660
506.78	6.722
507.13	6.865
507.47	7.475
507.82	7.244
508.16	7.194
508.51	7.103
508.85	7.398
509.19	6.071
509.54	6.633
509.88	6.801
510.23	7.044
510.57	7.585
510.92	7.405
511.26	7.143
511.61	7.573
511.95	6.889
512.30	6.681
512.64	7.415
512.98	7.342
513.33	7.066
513.67	7.204
514.02	6.385
514.36	7.264
514.70	6.918
515.05	6.860
515.39	7.011
515.74	7.939
516.08	7.267
516.42	7.381
516.77	8.027
517.11	7.103
517.46	7.562
517.80	6.969
518.14	7.354
518.49	7.235
518.83	6.989
519.17	7.621
519.52	7.583
519.86	7.929
520.20	8.035
520.55	7.660
520.89	7.603
521.23	8.263
521.58	7.443
521.92	8.083
522.26	6.650
522.61	7.788
522.95	7.428
523.29	6.999
523.64	7.927
523.98	7.394
524.32	7.901
524.66	7.757
525.01	7.782
525.35	7.001
525.69	7.328
526.04	7.352
526.38	7.932
526.72	8.037
527.06	7.659
527.41	6.559
527.75	7.717
528.09	7.322
528.43	7.584
528.78	8.543
529.12	7.576
529.46	7.287
529.80	7.921
530.15	7.788
530.49	6.892
530.83	7.975
531.17	8.290
531.51	9.144
531.86	8.581
532.20	8.801
532.54	9.097
532.88	8.087
533.22	7.308
533.57	7.284
533.91	7.586
534.25	6.744
534.59	7.871
534.93	7.258
535.27	7.423
535.62	7.387
535.96	7.031
536.30	6.929
536.64	8.628
536.98	7.764
537.32	7.373
537.66	7.600
538.01	7.702
538.35	8.016
538.69	8.551
539.03	7.602
539.37	6.773
539.71	5.703
540.05	7.516
540.39	8.173
540.73	7.697
541.07	8.631
541.42	8.611
541.76	8.129
542.10	8.409
542.44	7.417
542.78	7.642
543.12	7.614
543.46	8.393
543.80	7.742
544.14	6.932
544.48	8.063
544.82	7.954
545.16	7.092
545.50	7.648
545.84	7.056
546.18	7.946
546.52	7.915
546.86	7.973
547.20	7.620
547.54	8.083
547.88	8.355
548.22	7.161
548.56	7.484
548.90	8.003
549.24	7.542
549.58	8.049
549.92	7.967
550.26	7.812
550.60	8.437
550.94	8.028
551.28	6.511
551.62	8.124
551.96	8.351
552.30	8.532
552.64	8.046
552.98	8.203
553.32	8.227
553.66	9.134
554.00	8.167
554.34	7.729
554.68	8.655
555.02	7.475
555.36	8.420
555.69	7.578
556.03	7.604
556.37	7.913
556.71	7.503
557.05	7.773
557.39	8.118
557.73	8.257
558.07	8.557
558.41	8.900
558.75	8.376
559.08	8.576
559.42	7.937
559.76	7.941
560.10	7.495
560.44	7.338
560.78	7.585
561.12	7.388
561.45	8.996
561.79	6.856
562.13	7.109
562.47	7.719
562.81	6.625
563.15	7.893
563.48	8.024
563.82	7.045
564.16	6.475
564.50	7.096
564.84	8.091
565.17	7.529
565.51	7.987
565.85	8.185
566.19	6.637
566.52	7.346
566.86	6.631
567.20	7.724
567.54	7.192
567.88	6.573
568.21	6.984
568.55	6.876
568.89	6.469
569.23	6.640
569.56	5.628
569.90	5.736
570.24	5.705
570.57	5.712
570.91	5.559
571.25	5.374
571.59	5.272
571.92	5.645
572.26	5.488
572.60	5.315
572.93	5.457
573.27	5.679
573.61	5.472
573.95	5.245
574.28	5.000
574.62	4.956
574.96	5.018
575.29	5.068
575.63	5.030
575.97	5.259
576.30	5.231
576.64	5.080
576.98	4.910
577.31	4.829
577.65	4.821
577.98	4.765
578.32	4.726
578.66	4.780
578.99	4.839
579.33	4.987
579.67	4.792
580.00	5.083
580.34	4.841
580.67	4.940
581.01	5.127
581.35	4.582
581.68	4.854
582.02	4.530
582.35	4.738
582.69	4.681
583.02	4.729
583.36	4.796
583.70	5.020
584.03	4.937
584.37	5.191
584.70	5.042
585.04	4.868
585.37	4.846
585.71	5.099
586.04	5.001
586.38	5.172
586.72	5.164
587.05	4.727
587.39	4.802
587.72	5.179
588.06	5.256
588.39	5.405
588.73	5.016
589.06	5.266
589.40	5.152
589.73	5.561
590.07	5.907
590.40	5.517
590.73	6.050
591.07	6.512
591.40	5.947
591.74	6.450
592.07	6.108
592.41	6.325
592.74	5.730
593.08	5.330
593.41	5.378
593.75	5.278
594.08	5.364
594.41	5.691
594.75	5.471
595.08	5.619
595.42	5.359
595.75	5.627
596.09	5.595
596.42	6.012
596.75	5.867
597.09	6.234
597.42	5.523
597.75	5.821
598.09	6.435
598.42	6.143
598.76	5.837
599.09	5.169
599.42	5.422
599.76	5.454
600.09	5.246
600.42	5.186
600.76	5.429
601.09	5.792
601.42	5.518
601.76	5.844
602.09	5.099
602.42	5.852
602.76	6.288
603.09	5.704
603.42	5.310
603.76	5.678
604.09	5.584
604.42	5.177
604.76	6.495
605.09	5.810
605.42	5.814
605.75	5.712
606.09	5.612
606.42	5.353
606.75	6.056
607.09	6.237
607.42	5.862
607.75	5.401
608.08	5.124
608.42	6.275
608.75	6.222
609.08	6.198
609.41	5.902
609.75	6.432
610.08	6.456
610.41	5.447
610.74	5.629
611.07	5.731
611.41	5.790
611.74	6.486
612.07	6.418
612.40	6.453
612.73	6.368
613.07	6.088
613.40	6.635
613.73	6.555
614.06	5.968
614.39	6.502
614.72	7.105
615.06	6.670
615.39	6.263
615.72	6.237
616.05	6.486
616.38	6.392
616.71	7.007
617.05	6.832
617.38	6.434
617.71	6.126
618.04	7.212
618.37	6.564
618.70	7.405
619.03	7.105
619.36	5.703
619.69	7.465
620.03	7.624
620.36	7.687
620.69	8.151
621.02	7.817
621.35	6.735
621.68	7.866
622.01	7.740
622.34	7.262
622.67	7.681
623.00	7.630
623.33	6.862
623.66	7.648
623.99	6.996
624.32	6.847
624.65	6.709
624.99	6.516
625.32	6.445
625.65	7.137
625.98	7.994
626.31	8.009
626.64	7.837
626.97	8.063
627.30	6.899
627.63	7.793
627.96	8.747
628.29	8.049
628.62	8.875
628.95	10.094
629.28	8.759
629.61	8.708
629.94	6.952
630.26	8.675
630.59	8.580
630.92	8.046
631.25	7.897
631.58	9.409
631.91	9.026
632.24	7.806
632.57	9.129
632.90	8.991
633.23	10.067
633.56	9.605
633.89	9.513
634.22	10.102
634.55	9.941
634.88	9.701
635.20	9.797
635.53	10.482
635.86	8.045
636.19	9.765
636.52	10.727
636.85	8.247
637.18	9.332
637.51	10.165
637.83	9.125
638.16	10.358
638.49	10.705
638.82	10.619
639.15	10.500
639.48	10.474
639.81	11.260
640.13	9.766
640.46	11.141
640.79	8.851
641.12	9.216
641.45	10.615
641.77	12.224
642.10	11.257
642.43	10.060
642.76	9.288
643.09	10.429
643.41	11.684
643.74	12.191
644.07	11.280
644.40	11.963
644.73	12.756
645.05	11.252
645.38	11.374
645.71	10.145
646.04	11.462
646.36	13.856
646.69	11.706
647.02	12.755
647.35	12.199
647.67	12.389
648.00	12.195
648.33	12.541
648.66	10.909
648.98	12.444
649.31	9.567
649.64	10.015
649.96	10.134
650.29	10.585
650.62	9.061
650.94	12.156
651.27	12.162
651.60	12.978
651.92	11.502
652.25	10.098
652.58	11.994
652.90	12.796
653.23	11.248
653.56	9.449
653.88	11.569
654.21	12.954
654.54	10.561
654.86	12.928
655.19	8.243
655.52	4.901
655.84	3.211
656.17	3.566
656.49	5.040
656.82	5.330
657.15	4.223
657.47	3.284
657.80	2.723
658.13	2.813
658.45	4.464
658.78	4.700
659.10	5.470
659.43	5.922
659.75	7.369
660.08	7.342
660.41	9.218
660.73	12.579
661.06	10.669
661.38	15.091
661.71	13.269
662.03	14.990
662.36	12.326
662.68	13.855
663.01	13.333
663.33	13.800
663.66	12.395
663.98	11.447
664.31	11.555
664.63	11.943
664.96	11.268
665.28	12.910
665.61	12.476
665.93	12.274
666.26	12.576
666.58	11.715
666.91	15.433
667.23	13.034
667.56	13.607
667.88	14.316
668.21	13.859
668.53	12.581
668.86	14.719
669.18	13.859
669.50	14.348
669.83	14.161
670.15	14.889
670.48	13.725
670.80	14.655
671.13	14.437
671.45	13.191
671.77	15.682
672.10	13.309
672.42	12.191
672.75	12.604
673.07	12.324
673.39	10.488
673.72	11.133
674.04	11.569
674.37	13.204
674.69	12.270
675.01	11.506
675.34	14.784
675.66	15.158
675.98	15.886
676.31	13.025
676.63	15.074
676.95	14.465
677.28	13.785
677.60	14.945
677.92	17.722
678.25	13.142
678.57	13.546
678.89	10.621
679.22	14.145
679.54	15.267
679.86	13.578
680.18	13.596
680.51	12.057
680.83	11.922
681.15	13.396
681.48	14.745
681.80	11.412
682.12	10.920
682.44	12.573
682.77	13.238
683.09	16.524
683.41	13.304
683.73	13.466
684.06	15.083
684.38	13.307
684.70	12.016
685.02	13.321
685.34	12.088
685.67	10.839
685.99	11.684
686.31	10.922
686.63	10.071
686.96	10.714
687.28	12.816
687.60	10.870
687.92	15.174
688.24	11.787
688.56	14.056
688.89	14.108
689.21	15.721
689.53	13.987
689.85	17.960
690.17	11.180
690.49	15.499
690.82	11.682
691.14	12.054
691.46	10.970
691.78	15.060
692.10	12.190
692.42	15.569
692.74	13.485
693.06	14.255
693.39	12.936
693.71	15.502
694.03	14.737
694.35	12.771
694.67	10.755
694.99	14.878
695.31	13.235
695.63	16.029
695.95	15.159
696.27	11.168
696.59	16.321
696.91	18.653
697.23	12.676
697.56	16.205
697.88	10.634
698.20	12.500
698.52	13.333
698.84	14.922
699.16	12.212
699.48	15.677
699.80	14.251
700.12	17.403
700.44	17.241
700.76	16.022
701.08	16.092
701.40	14.246
701.72	13.120
702.04	20.455
702.36	14.164
702.68	12.181
703.00	16.343
703.32	14.096
703.64	16.354
703.96	16.713
704.28	15.116
704.60	19.062
704.91	17.211
705.23	22.581
705.55	18.272
705.87	21.262
706.19	20.848
706.51	18.692
706.83	19.394
707.15	19.888
707.47	15.909
707.79	17.445
708.11	15.525
708.43	14.762
708.74	15.306
709.06	16.623
709.38	16.010
709.70	16.860
710.02	17.211
710.34	15.152
710.66	20.000
710.98	22.159
711.29	18.605
711.61	21.239
711.93	17.628
712.25	19.614
712.57	20.588
712.89	16.955
713.20	19.149
713.52	19.737
713.84	19.304
714.16	17.683
714.48	18.966
714.80	18.541
715.11	16.138
715.43	18.991
715.75	21.449
716.07	16.613
716.39	16.301
716.70	22.591
717.02	18.345
717.34	21.555
717.66	24.627
717.97	18.725
718.29	21.111
718.61	18.248
718.93	22.794
719.24	19.031
719.56	19.661
719.88	18.305
720.20	19.257
720.51	19.512
720.83	23.420
721.15	19.776
721.46	18.794
721.78	20.789
722.10	18.491
722.42	19.925
722.73	22.097
723.05	20.902
723.37	21.053
723.68	22.008
724.00	19.919
724.32	20.161
724.63	18.699
724.95	25.523
725.27	23.077
725.58	23.047
725.90	23.358
726.22	19.245
726.53	17.708
726.85	23.549
727.16	20.996
727.48	20.213
727.80	23.485
728.11	20.290
728.43	20.000
728.74	20.430
729.06	22.628
729.38	25.000
729.69	25.267
730.01	16.382
730.32	18.056
730.64	20.401
730.96	17.492
731.27	20.199
731.59	19.266
731.90	21.866
732.22	20.186
732.53	17.028
732.85	19.872
733.16	18.328
733.48	19.601
733.80	17.532
734.11	19.108
734.43	15.680
734.74	14.857
735.06	17.765
735.37	18.786
735.69	15.605
736.00	21.242
736.32	20.249
736.63	18.211
736.95	19.808
737.26	9.864
737.58	17.097
737.89	19.398
738.21	22.184
738.52	21.786
738.83	18.868
739.15	22.692
739.46	25.547
739.78	20.833
740.09	19.385
740.41	18.710
740.72	15.679
741.04	20.000
741.35	23.750
741.66	24.889
741.98	23.113
742.29	26.316
742.61	28.448
742.92	24.887
743.23	26.923
743.55	24.000
743.86	24.123
744.18	28.761
744.49	27.751
744.80	30.047
745.12	30.909
745.43	26.432
745.74	26.577
746.06	23.853
746.37	26.906
746.68	27.602
747.00	27.778
747.31	27.619
747.62	21.239
747.94	22.026
748.25	25.106
748.56	24.670
748.88	24.257
749.19	29.000
749.50	28.372
749.82	22.358
750.13	16.327
750.44	21.898
750.75	20.000
751.07	21.865
751.38	19.861
751.69	20.939
752.01	20.677
752.32	19.856
752.63	20.922
752.94	20.082
753.26	26.800
753.57	19.106
753.88	25.391
754.19	18.571
754.51	23.611
754.82	19.495
755.13	23.396
755.44	22.180
755.75	17.518
756.07	19.149
756.38	20.073
756.69	19.128
757.00	19.760
757.31	16.024
757.63	14.912
757.94	13.941
758.25	15.686
758.56	15.556
758.87	15.323
759.18	17.273
759.50	19.122
759.81	18.380
760.12	14.687
760.43	17.765
760.74	16.304
761.05	17.232
761.36	14.439
761.67	18.750
761.99	18.944
762.30	20.139
762.61	21.374
762.92	23.828
763.23	26.050
763.54	25.200
763.85	22.266
764.16	25.000
764.47	24.715
764.78	20.848
765.10	12.342
765.41	19.764
765.72	18.563
766.03	20.376
766.34	17.000
766.65	25.957
766.96	21.795
767.27	29.442
767.58	25.000
767.89	32.632
768.20	32.759
768.51	28.934
768.82	29.358
769.13	22.358
769.44	20.648
769.75	27.039
770.06	17.890
770.37	28.054
770.68	31.019
770.99	23.556
771.30	19.672
771.61	23.318
771.92	23.770
772.23	31.513
772.54	24.103
772.85	25.654
773.16	30.319
773.47	28.804
773.78	32.995
774.09	26.786
774.39	33.918
774.70	30.247
775.01	41.304
775.32	35.294
775.63	36.842
775.94	32.374
776.25	46.457
776.56	38.806
776.87	41.803
777.18	46.875
777.48	47.328
777.79	39.394
778.10	30.370
778.41	44.643
778.72	37.956
779.03	34.899
779.34	36.913
779.65	24.324
779.95	32.515
780.26	32.680
780.57	40.690
780.88	46.094
781.19	38.346
781.50	42.568
781.80	34.591
782.11	33.333
782.42	35.443
782.73	36.196
783.04	35.135
783.34	36.620
783.65	42.466
783.96	45.522
784.27	30.769
784.57	37.410
784.88	31.481
785.19	39.683
785.50	37.736
785.81	47.015
786.11	50.000
786.42	50.388
786.73	43.363
787.04	50.943
787.34	49.107
787.65	54.000
787.96	44.144
788.26	43.802
788.57	39.831
788.88	47.934
789.19	38.194
789.49	44.697
789.80	41.221
790.11	47.619
790.41	52.475
790.72	55.422
791.03	56.522
791.33	55.814
791.64	52.577
791.95	60.396
792.25	58.889
792.56	63.636
792.87	73.077
793.17	64.557
793.48	67.816
793.79	55.172
794.09	54.545
794.40	41.176
794.70	44.853
795.01	41.481
795.32	35.971
795.62	41.732
795.93	50.000
796.23	48.673
796.54	51.765
796.85	55.405
797.15	80.282
797.46	59.091
797.76	59.036
798.07	60.759
798.37	55.385
798.68	63.636
798.99	56.338
799.29	64.935
799.60	51.136
799.90	65.753
800.21	74.627
800.51	74.138
800.82	107.018
801.12	80.328
801.43	72.727
801.73	74.324
802.04	88.889
802.34	81.481
802.65	87.500
802.95	93.220
803.26	95.312
803.56	72.857
803.87	63.077
804.17	94.118
804.48	103.704
804.78	67.241
805.09	88.235
805.39	71.154
805.70	80.357
806.00	100.000
806.30	59.091
806.61	65.854
806.91	58.228
807.22	57.895
807.52	70.149
807.83	73.239
808.13	95.312
808.43	78.333
808.74	65.789
809.04	69.565
809.35	71.642
809.65	65.789
809.95	91.935
810.26	81.356
810.56	77.778
810.86	125.000
811.17	123.810
811.47	105.000
811.77	103.704
812.08	101.818
812.38	98.000
812.69	119.444
812.99	136.364
813.29	106.122
813.59	97.619
813.90	120.408
814.20	81.818
814.50	84.615
814.81	104.412
815.11	120.408
815.41	72.131
815.72	116.667
816.02	100.000
816.32	126.190
816.62	105.000
816.93	112.195
817.23	123.810
817.53	104.545
817.84	166.667
818.14	102.174
818.44	115.556
818.74	150.000
819.04	122.500
819.35	131.429
819.65	182.353
819.95	164.286
820.25	215.000
820.56	151.282
820.86	131.818
821.16	120.930
821.46	130.769
821.76	106.000
822.07	142.857
822.37	137.500
822.67	136.364
822.97	103.922
823.27	182.143
823.57	140.541
823.88	170.000
824.18	173.333
824.48	133.333
824.78	192.000
825.08	158.333
825.38	143.243
825.69	129.268
825.99	175.000
826.29	127.586
826.59	134.211
826.89	136.842
827.19	161.765
827.49	158.065
827.79	111.364
828.09	134.091
828.39	102.128
828.70	118.367
829.00	122.222
829.30	135.484
829.60	127.500
829.90	260.000
830.20	200.000
830.50	165.217
830.80	178.261
831.10	180.000
831.40	153.333
831.70	191.304
832.00	246.154
832.30	203.704
832.60	262.500
832.90	160.000
833.20	364.286
833.50	196.774
833.80	151.724
834.10	190.625
834.40	188.462
834.70	244.444
835.00	271.429
835.30	137.143
835.60	323.077
835.90	189.655
836.20	328.571
836.50	168.966
836.80	236.000
837.10	144.444
837.40	233.333
837.70	317.647
838.00	148.148
838.30	233.333
838.60	242.857
838.90	223.077
839.19	215.000
839.49	414.286
839.79	305.000
840.09	265.000
840.39	242.857
840.69	243.478
840.99	250.000
841.29	480.000
841.59	283.333
841.88	368.750
842.18	141.379
842.48	257.143
842.78	193.333
843.08	234.783
843.38	171.875
843.68	716.667
843.97	234.615
844.27	186.207
844.57	280.952
844.87	381.250
845.17	177.778
845.47	1633.333
845.76	388.889
846.06	317.647
846.36	550.000
846.66	300.000
846.96	350.000
847.25	400.000
847.55	490.909
847.85	252.174
848.15	460.000
848.44	278.571
848.74	261.111
849.04	241.176
849.34	420.000
849.63	263.158
849.93	436.364
850.23	1000.000
850.53	378.571
850.82	2300.000
851.12	-3400.000
851.42	4100.000
851.71	260.000
852.01	-833.333
852.31	195.833
852.61	1533.333
852.90	238.095
853.20	220.000
853.50	294.118
853.79	223.810
854.09	170.833
854.39	337.500
854.68	183.784
854.98	183.871
855.28	160.000
855.57	196.552
855.87	244.444
856.17	205.263
856.46	246.667
856.76	300.000
857.05	172.414
857.35	200.000
857.65	326.667
857.94	243.478
858.24	230.769
858.53	320.000
858.83	240.909
859.13	366.667
859.42	0.000
859.72	600.000
860.01	472.727
860.31	268.182
860.60	252.632
860.90	213.043
861.20	600.000
861.49	466.667
861.79	-4100.000
862.08	562.500
862.38	276.190
862.67	276.923
862.97	311.765
863.26	455.556
863.56	305.556
863.85	408.333
864.15	587.500
864.44	400.000
864.74	816.667
865.03	650.000
865.33	278.947
865.62	427.273
865.92	469.231
866.21	316.667
866.51	0.000
866.80	390.909
867.10	1100.000
867.39	338.462
867.69	472.727
867.98	257.895
868.27	454.545
868.57	289.474
868.86	-4200.000
869.16	281.250
869.45	2200.000
869.75	-4100.000
870.04	433.333
870.33	585.714
870.63	975.000
870.92	2500.000
871.22	671.429
871.51	352.941
871.80	233.333
872.10	364.286
>>>>>End Processed Spectral Data<<<<<
