SpectraSuite Data File
++++++++++++++++++++++++++++++++++++
Date: Wed May 13 16:49:17 PDT 2015
User: schluterlab
Dark Spectrum Present: Yes
Reference Spectrum Present: Yes
Number of Sampled Component Spectra: 1
Spectrometers: USB2E3373
Integration Time (usec): 3000 (USB2E3373)
Spectra Averaged: 3 (USB2E3373)
Boxcar Smoothing: 0 (USB2E3373)
Correct for Electrical Dark: No (USB2E3373)
Strobe/Lamp Enabled: No (USB2E3373)
Correct for Detector Non-linearity: No (USB2E3373)
Correct for Stray Light: No (USB2E3373)
Number of Pixels in Processed Spectrum: 2048
>>>>>Begin Processed Spectral Data<<<<<
178.53	0.000
178.91	-1375.000
179.29	-975.000
179.67	-205.556
180.04	-1125.000
180.42	2350.000
180.80	960.000
181.18	-1175.000
181.56	657.143
181.94	0.000
182.31	-657.143
182.69	1900.000
183.07	-487.500
183.45	-477.778
183.83	554.545
184.20	-400.000
184.58	2700.000
184.96	5400.000
185.34	-940.000
185.72	-500.000
186.09	-2600.000
186.47	2750.000
186.85	2250.000
187.23	4700.000
187.61	-1700.000
187.98	1175.000
188.36	527.273
188.74	509.091
189.12	-820.000
189.49	670.000
189.87	-4400.000
190.25	-1150.000
190.63	485.714
191.00	369.231
191.38	883.333
191.76	-1100.000
192.14	1375.000
192.51	575.000
192.89	933.333
193.27	487.500
193.65	-1125.000
194.02	490.000
194.40	900.000
194.78	530.000
195.15	491.667
195.53	550.000
195.91	-2150.000
196.29	356.250
196.66	342.105
197.04	-300.000
197.42	0.000
197.79	560.000
198.17	-3700.000
198.55	628.571
198.92	750.000
199.30	940.000
199.68	0.000
200.05	366.667
200.43	842.857
200.81	4500.000
201.18	1466.667
201.56	-1733.333
201.94	622.222
202.31	500.000
202.69	383.333
203.07	540.000
203.44	0.000
203.82	1225.000
204.19	842.857
204.57	485.714
204.95	662.500
205.32	1466.667
205.70	409.091
206.08	364.286
206.45	2700.000
206.83	331.250
207.20	866.667
207.58	980.000
207.96	316.667
208.33	737.500
208.71	-816.667
209.08	871.429
209.46	511.111
209.84	409.091
210.21	-1800.000
210.59	1425.000
210.96	-512.500
211.34	2000.000
211.71	510.000
212.09	750.000
212.46	0.000
212.84	1466.667
213.22	1175.000
213.59	-4000.000
213.97	900.000
214.34	800.000
214.72	600.000
215.09	1060.000
215.47	-2150.000
215.84	-2700.000
216.22	1766.667
216.59	357.143
216.97	1150.000
217.34	490.909
217.72	-716.667
218.09	0.000
218.47	-4400.000
218.84	655.556
219.22	771.429
219.59	1333.333
219.97	-600.000
220.34	720.000
220.72	-1333.333
221.09	435.714
221.47	1600.000
221.84	-1066.667
222.22	0.000
222.59	1300.000
222.97	-2300.000
223.34	1060.000
223.72	415.385
224.09	880.000
224.46	2200.000
224.84	-4900.000
225.21	-920.000
225.59	-4500.000
225.96	600.000
226.34	330.000
226.71	2200.000
227.08	562.500
227.46	440.000
227.83	-900.000
228.21	-2100.000
228.58	422.222
228.95	-2450.000
229.33	-2050.000
229.70	1766.667
230.08	628.571
230.45	-680.000
230.82	475.000
231.20	866.667
231.57	657.143
231.95	458.333
232.32	218.182
232.69	363.636
233.07	600.000
233.44	369.231
233.81	-1466.667
234.19	263.158
234.56	333.333
234.93	350.000
235.31	427.273
235.68	307.692
236.05	278.571
236.43	154.545
236.80	221.053
237.17	3500.000
237.55	195.238
237.92	200.000
238.29	214.286
238.67	145.161
239.04	193.103
239.41	125.000
239.79	113.043
240.16	111.905
240.53	111.364
240.91	64.706
241.28	82.000
241.65	82.000
242.02	76.812
242.40	59.677
242.77	66.667
243.14	59.140
243.51	53.933
243.89	50.588
244.26	47.778
244.63	48.387
245.00	39.362
245.38	47.525
245.75	35.514
246.12	33.028
246.49	47.445
246.87	49.600
247.24	41.538
247.61	38.571
247.98	35.294
248.36	25.000
248.73	31.847
249.10	36.943
249.47	26.554
249.84	28.342
250.22	27.807
250.59	28.994
250.96	25.253
251.33	34.123
251.70	25.743
252.08	23.333
252.45	24.215
252.82	22.609
253.19	20.000
253.56	21.176
253.94	26.971
254.31	21.875
254.68	21.154
255.05	21.033
255.42	18.293
255.79	18.750
256.16	19.856
256.54	14.488
256.91	22.420
257.28	15.468
257.65	20.132
258.02	17.391
258.39	17.666
258.76	15.050
259.14	18.155
259.51	14.894
259.88	15.217
260.25	18.127
260.62	13.873
260.99	15.528
261.36	15.015
261.73	15.186
262.10	16.279
262.47	17.183
262.85	13.928
263.22	13.960
263.59	16.809
263.96	12.637
264.33	14.099
264.70	14.211
265.07	16.113
265.44	15.657
265.81	13.869
266.18	15.578
266.55	13.902
266.92	13.022
267.29	13.194
267.66	12.615
268.03	12.500
268.40	12.617
268.77	10.979
269.14	11.036
269.51	13.770
269.88	11.888
270.25	12.867
270.62	12.809
270.99	13.333
271.36	12.661
271.73	10.047
272.10	13.913
272.47	11.828
272.84	12.338
273.21	13.836
273.58	9.825
273.95	9.853
274.32	12.190
274.69	10.921
275.06	10.630
275.43	12.766
275.80	9.619
276.17	10.998
276.54	11.850
276.91	12.253
277.28	12.305
277.65	12.186
278.02	8.282
278.39	11.328
278.76	9.818
279.13	12.075
279.50	10.242
279.87	9.960
280.23	10.379
280.60	10.058
280.97	8.872
281.34	13.097
281.71	11.818
282.08	10.173
282.45	10.182
282.82	10.302
283.19	9.091
283.56	10.175
283.92	11.844
284.29	10.582
284.66	10.889
285.03	9.584
285.40	9.683
285.77	10.606
286.14	8.808
286.51	10.500
286.87	10.940
287.24	9.609
287.61	10.273
287.98	10.227
288.35	9.826
288.72	7.632
289.08	11.424
289.45	8.896
289.82	8.455
290.19	7.849
290.56	8.270
290.93	7.855
291.29	8.436
291.66	8.997
292.03	10.174
292.40	10.426
292.77	8.432
293.13	9.701
293.50	7.289
293.87	8.296
294.24	8.148
294.60	7.569
294.97	8.285
295.34	10.437
295.71	9.943
296.08	7.977
296.44	8.116
296.81	10.040
297.18	9.485
297.55	6.332
297.91	8.443
298.28	8.969
298.65	9.269
299.02	8.169
299.38	7.171
299.75	4.987
300.12	8.557
300.48	7.250
300.85	8.261
301.22	7.134
301.59	7.955
301.95	8.438
302.32	6.804
302.69	7.766
303.05	8.727
303.42	6.296
303.79	7.588
304.15	6.527
304.52	6.721
304.89	7.201
305.25	8.005
305.62	6.908
305.99	6.730
306.35	7.718
306.72	7.175
307.09	8.102
307.45	8.221
307.82	5.915
308.19	7.947
308.55	7.659
308.92	6.122
309.29	6.230
309.65	8.378
310.02	6.660
310.38	7.097
310.75	8.025
311.12	7.369
311.48	7.941
311.85	7.652
312.22	7.908
312.58	6.029
312.95	6.758
313.31	6.311
313.68	6.757
314.05	8.974
314.41	7.236
314.78	6.647
315.14	6.852
315.51	6.900
315.87	6.040
316.24	6.356
316.61	6.433
316.97	6.458
317.34	5.871
317.70	6.883
318.07	7.122
318.43	7.241
318.80	7.591
319.16	6.685
319.53	6.660
319.89	8.000
320.26	7.200
320.62	6.548
320.99	7.273
321.35	7.071
321.72	7.392
322.08	7.700
322.45	8.756
322.81	7.364
323.18	7.803
323.54	7.328
323.91	7.736
324.27	7.170
324.64	5.405
325.00	6.673
325.37	7.643
325.73	8.348
326.10	7.237
326.46	5.645
326.83	7.506
327.19	6.319
327.56	6.098
327.92	6.912
328.29	6.832
328.65	6.446
329.01	7.581
329.38	5.920
329.74	6.002
330.11	5.938
330.47	7.530
330.84	6.985
331.20	6.011
331.56	7.248
331.93	6.481
332.29	6.744
332.66	7.257
333.02	7.038
333.38	7.136
333.75	6.595
334.11	7.562
334.48	7.010
334.84	6.250
335.20	7.364
335.57	6.256
335.93	6.161
336.29	6.044
336.66	6.492
337.02	5.973
337.38	7.315
337.75	5.971
338.11	6.177
338.47	5.433
338.84	7.241
339.20	5.413
339.56	6.387
339.93	6.000
340.29	6.522
340.65	6.595
341.02	7.330
341.38	6.495
341.74	5.614
342.11	7.773
342.47	5.815
342.83	6.164
343.20	5.801
343.56	5.813
343.92	6.404
344.28	6.973
344.65	6.535
345.01	6.145
345.37	5.918
345.73	6.345
346.10	6.650
346.46	6.271
346.82	6.178
347.19	6.767
347.55	6.979
347.91	5.663
348.27	6.081
348.63	6.271
349.00	5.663
349.36	6.076
349.72	6.736
350.08	5.348
350.45	6.591
350.81	5.199
351.17	6.483
351.53	5.979
351.89	5.776
352.26	6.946
352.62	6.175
352.98	6.159
353.34	6.984
353.70	4.746
354.07	5.806
354.43	6.508
354.79	4.827
355.15	5.427
355.51	6.555
355.87	6.694
356.24	6.026
356.60	4.892
356.96	6.436
357.32	5.805
357.68	6.535
358.04	5.542
358.40	6.572
358.77	5.790
359.13	6.235
359.49	6.118
359.85	3.571
360.21	5.263
360.57	6.381
360.93	6.308
361.29	4.762
361.66	5.495
362.02	6.343
362.38	5.399
362.74	5.506
363.10	4.589
363.46	5.209
363.82	4.989
364.18	5.874
364.54	6.241
364.90	6.374
365.26	5.956
365.62	6.282
365.98	5.698
366.35	5.659
366.71	5.785
367.07	5.244
367.43	5.080
367.79	5.567
368.15	6.609
368.51	4.869
368.87	5.353
369.23	5.486
369.59	5.865
369.95	6.029
370.31	5.983
370.67	6.377
371.03	5.993
371.39	6.050
371.75	5.662
372.11	5.761
372.47	6.452
372.83	5.908
373.19	5.708
373.55	5.026
373.91	6.480
374.27	5.430
374.63	5.673
374.99	6.215
375.35	5.094
375.71	5.415
376.07	6.310
376.42	5.433
376.78	5.832
377.14	6.174
377.50	5.364
377.86	4.654
378.22	5.879
378.58	5.013
378.94	5.405
379.30	5.216
379.66	5.520
380.02	6.020
380.38	5.282
380.74	5.642
381.09	6.357
381.45	5.900
381.81	5.160
382.17	5.669
382.53	5.346
382.89	6.173
383.25	5.441
383.61	5.514
383.97	5.629
384.32	5.926
384.68	5.576
385.04	5.470
385.40	4.892
385.76	5.283
386.12	5.052
386.48	5.601
386.83	6.735
387.19	6.122
387.55	5.504
387.91	5.562
388.27	5.518
388.62	6.208
388.98	5.283
389.34	6.508
389.70	5.886
390.06	6.527
390.42	6.161
390.77	6.807
391.13	5.361
391.49	6.472
391.85	5.220
392.20	4.858
392.56	6.061
392.92	5.709
393.28	4.793
393.64	6.475
393.99	6.048
394.35	5.769
394.71	6.085
395.07	5.919
395.42	6.119
395.78	5.598
396.14	6.331
396.50	6.140
396.85	6.103
397.21	6.165
397.57	6.014
397.92	6.490
398.28	5.325
398.64	7.109
399.00	5.764
399.35	5.415
399.71	5.903
400.07	5.736
400.42	6.074
400.78	6.031
401.14	5.732
401.49	6.269
401.85	6.352
402.21	5.329
402.57	5.305
402.92	5.675
403.28	5.746
403.63	5.755
403.99	6.178
404.35	6.303
404.70	5.755
405.06	5.358
405.42	5.864
405.77	4.800
406.13	5.361
406.49	6.564
406.84	6.084
407.20	5.496
407.55	6.190
407.91	6.733
408.27	5.680
408.62	6.261
408.98	5.453
409.34	6.212
409.69	5.935
410.05	5.452
410.40	5.688
410.76	5.436
411.11	6.152
411.47	5.815
411.83	5.864
412.18	5.195
412.54	5.604
412.89	6.084
413.25	5.136
413.60	5.806
413.96	5.404
414.31	5.407
414.67	6.210
415.03	5.762
415.38	6.250
415.74	5.852
416.09	6.009
416.45	5.221
416.80	5.816
417.16	5.898
417.51	6.171
417.87	5.459
418.22	6.183
418.58	5.681
418.93	6.757
419.29	5.920
419.64	6.297
420.00	6.159
420.35	6.319
420.71	6.157
421.06	5.847
421.42	5.556
421.77	6.558
422.12	4.997
422.48	5.127
422.83	6.232
423.19	5.635
423.54	5.514
423.90	5.971
424.25	6.198
424.61	5.774
424.96	5.015
425.31	5.260
425.67	6.124
426.02	6.286
426.38	6.471
426.73	5.676
427.09	5.593
427.44	6.095
427.79	5.290
428.15	5.774
428.50	6.027
428.85	5.781
429.21	5.687
429.56	5.599
429.92	5.133
430.27	5.015
430.62	4.813
430.98	5.449
431.33	5.619
431.68	5.864
432.04	6.070
432.39	5.311
432.74	5.805
433.10	5.603
433.45	6.414
433.80	5.377
434.16	5.823
434.51	6.263
434.86	6.442
435.22	5.058
435.57	5.593
435.92	5.968
436.28	6.584
436.63	6.402
436.98	5.896
437.34	5.725
437.69	6.418
438.04	5.790
438.39	5.672
438.75	6.101
439.10	5.587
439.45	6.316
439.81	6.103
440.16	5.985
440.51	5.741
440.86	5.906
441.22	5.061
441.57	5.945
441.92	5.988
442.27	5.705
442.63	5.424
442.98	6.254
443.33	6.033
443.68	5.834
444.03	5.808
444.39	5.501
444.74	5.790
445.09	6.038
445.44	5.467
445.79	5.690
446.15	6.458
446.50	6.139
446.85	5.807
447.20	5.609
447.55	6.086
447.91	6.067
448.26	5.732
448.61	6.218
448.96	6.312
449.31	6.243
449.66	6.866
450.02	6.017
450.37	6.179
450.72	5.866
451.07	6.277
451.42	6.079
451.77	5.755
452.12	6.409
452.47	5.970
452.83	6.119
453.18	6.235
453.53	6.370
453.88	6.320
454.23	6.515
454.58	6.420
454.93	7.374
455.28	6.110
455.63	6.007
455.98	6.369
456.34	6.533
456.69	6.262
457.04	6.130
457.39	5.435
457.74	6.442
458.09	5.865
458.44	6.442
458.79	5.477
459.14	6.377
459.49	6.772
459.84	6.150
460.19	5.539
460.54	6.655
460.89	6.199
461.24	6.497
461.59	7.205
461.94	6.289
462.29	6.825
462.64	6.382
462.99	6.246
463.34	6.600
463.69	6.879
464.04	6.899
464.39	6.667
464.74	6.179
465.09	6.634
465.44	5.706
465.79	5.313
466.14	6.240
466.49	5.617
466.84	6.421
467.19	5.975
467.54	6.688
467.89	5.822
468.24	7.272
468.59	7.021
468.94	6.353
469.29	6.170
469.64	7.162
469.99	7.442
470.34	5.878
470.68	7.399
471.03	6.259
471.38	7.436
471.73	7.328
472.08	6.842
472.43	6.281
472.78	6.715
473.13	6.226
473.48	6.804
473.83	6.037
474.17	6.783
474.52	5.955
474.87	7.005
475.22	6.616
475.57	6.448
475.92	6.107
476.27	6.032
476.61	6.067
476.96	6.102
477.31	5.651
477.66	6.346
478.01	6.325
478.36	6.240
478.70	5.400
479.05	5.804
479.40	6.295
479.75	6.101
480.10	5.268
480.45	5.712
480.79	5.733
481.14	5.920
481.49	6.028
481.84	5.670
482.19	5.997
482.53	6.193
482.88	6.003
483.23	6.308
483.58	5.914
483.92	6.279
484.27	4.837
484.62	5.431
484.97	5.321
485.31	5.890
485.66	4.646
486.01	4.164
486.36	4.222
486.70	3.642
487.05	4.308
487.40	4.597
487.75	4.436
488.09	5.126
488.44	4.670
488.79	5.280
489.13	5.424
489.48	5.546
489.83	5.050
490.17	5.743
490.52	5.359
490.87	5.518
491.22	5.821
491.56	5.467
491.91	5.724
492.26	5.742
492.60	6.083
492.95	5.192
493.30	5.935
493.64	5.646
493.99	5.850
494.34	6.475
494.68	6.227
495.03	5.733
495.37	5.584
495.72	5.263
496.07	6.079
496.41	5.531
496.76	5.981
497.11	5.763
497.45	6.055
497.80	5.854
498.14	5.845
498.49	5.463
498.84	5.657
499.18	5.762
499.53	5.223
499.87	5.778
500.22	6.265
500.56	6.214
500.91	5.625
501.26	5.974
501.60	6.502
501.95	5.820
502.29	5.951
502.64	6.052
502.98	6.311
503.33	5.896
503.67	6.032
504.02	5.800
504.36	6.224
504.71	6.058
505.06	6.506
505.40	6.125
505.75	5.545
506.09	5.831
506.44	6.117
506.78	6.430
507.13	6.461
507.47	6.768
507.82	5.978
508.16	6.383
508.51	5.987
508.85	6.554
509.19	5.867
509.54	7.296
509.88	6.079
510.23	6.581
510.57	7.224
510.92	6.370
511.26	6.372
511.61	6.846
511.95	6.211
512.30	5.938
512.64	6.341
512.98	6.752
513.33	7.066
513.67	6.510
514.02	6.548
514.36	6.117
514.70	6.807
515.05	6.023
515.39	6.842
515.74	6.644
516.08	6.428
516.42	6.659
516.77	6.577
517.11	6.659
517.46	7.393
517.80	7.259
518.14	6.138
518.49	7.643
518.83	7.159
519.17	7.275
519.52	7.527
519.86	7.074
520.20	7.514
520.55	7.540
520.89	7.238
521.23	7.358
521.58	7.623
521.92	7.165
522.26	7.627
522.61	6.854
522.95	7.244
523.29	6.939
523.64	7.500
523.98	7.763
524.32	7.117
524.66	7.396
525.01	7.292
525.35	7.311
525.69	7.143
526.04	7.788
526.38	6.772
526.72	7.914
527.06	6.842
527.41	7.302
527.75	7.331
528.09	7.707
528.43	7.521
528.78	8.175
529.12	6.848
529.46	7.532
529.80	8.106
530.15	8.287
530.49	7.508
530.83	8.228
531.17	7.963
531.51	8.171
531.86	7.484
532.20	8.801
532.54	8.200
532.88	8.023
533.22	7.745
533.57	8.086
533.91	7.465
534.25	7.594
534.59	7.383
534.93	7.020
535.27	7.242
535.62	7.875
535.96	7.721
536.30	7.692
536.64	8.178
536.98	7.697
537.32	7.505
537.66	7.533
538.01	7.900
538.35	7.886
538.69	8.934
539.03	7.277
539.37	7.412
539.71	7.259
540.05	7.451
540.39	7.508
540.73	7.309
541.07	7.917
541.42	7.958
541.76	8.710
542.10	7.439
542.44	8.079
542.78	8.564
543.12	7.294
543.46	7.607
543.80	7.872
544.14	7.253
544.48	8.317
544.82	7.441
545.16	7.092
545.50	7.841
545.84	7.661
546.18	7.677
546.52	7.915
546.86	7.285
547.20	8.024
547.54	7.348
547.88	8.418
548.22	7.410
548.56	8.365
548.90	7.618
549.24	6.936
549.58	8.254
549.92	7.349
550.26	8.097
550.60	7.884
550.94	7.535
551.28	8.193
551.62	7.620
551.96	7.930
552.30	8.532
552.64	8.654
552.98	7.864
553.32	8.361
553.66	7.907
554.00	8.717
554.34	8.351
554.68	9.013
555.02	8.533
555.36	8.281
555.69	8.119
556.03	8.075
556.37	7.981
556.71	8.049
557.05	7.843
557.39	8.887
557.73	8.257
558.07	8.267
558.41	8.104
558.75	7.641
559.08	8.725
559.42	7.861
559.76	8.382
560.10	7.994
560.44	8.176
560.78	7.917
561.12	8.311
561.45	8.866
561.79	8.438
562.13	7.914
562.47	7.923
562.81	8.577
563.15	8.027
563.48	7.825
563.82	7.436
564.16	8.044
564.50	7.227
564.84	8.534
565.17	7.465
565.51	8.115
565.85	8.249
566.19	7.264
566.52	7.283
566.86	7.595
567.20	8.019
567.54	6.849
567.88	6.464
568.21	7.778
568.55	6.977
568.89	6.420
569.23	6.952
569.56	6.437
569.90	5.811
570.24	5.849
570.57	5.712
570.91	5.818
571.25	5.806
571.59	5.714
571.92	5.530
572.26	5.575
572.60	5.946
572.93	6.207
573.27	5.945
573.61	6.170
573.95	5.530
574.28	5.276
574.62	5.199
574.96	5.137
575.29	5.650
575.63	5.462
575.97	5.129
576.30	5.789
576.64	5.560
576.98	5.445
577.31	5.407
577.65	5.277
577.98	5.167
578.32	5.044
578.66	5.178
578.99	5.524
579.33	5.326
579.67	5.035
580.00	5.466
580.34	5.529
580.67	5.791
581.01	5.599
581.35	5.298
581.68	5.207
582.02	4.898
582.35	4.882
582.69	5.022
583.02	5.085
583.36	5.465
583.70	5.669
584.03	5.747
584.37	5.744
584.70	5.408
585.04	5.602
585.37	5.382
585.71	5.663
586.04	5.484
586.38	5.669
586.72	6.103
587.05	5.379
587.39	5.356
587.72	5.978
588.06	5.390
588.39	5.679
588.73	5.749
589.06	6.014
589.40	6.027
589.73	5.984
590.07	6.548
590.40	5.882
590.73	6.323
591.07	6.675
591.40	7.086
591.74	6.667
592.07	6.457
592.41	7.193
592.74	6.180
593.08	6.329
593.41	5.916
593.75	5.746
594.08	6.336
594.41	6.186
594.75	6.359
595.08	6.514
595.42	6.375
595.75	6.268
596.09	6.684
596.42	7.033
596.75	6.923
597.09	7.489
597.42	6.535
597.75	6.210
598.09	6.913
598.42	6.486
598.76	6.242
599.09	6.081
599.42	6.295
599.76	6.479
600.09	6.120
600.42	5.990
600.76	5.893
601.09	6.740
601.42	6.507
601.76	6.338
602.09	6.206
602.42	6.967
602.76	7.013
603.09	6.334
603.42	6.911
603.76	6.021
604.09	6.398
604.42	6.645
604.76	6.959
605.09	6.597
605.42	6.670
605.75	6.540
606.09	7.117
606.42	6.375
606.75	6.553
607.09	6.823
607.42	7.060
607.75	6.371
608.08	6.513
608.42	6.992
608.75	7.078
609.08	6.568
609.41	6.854
609.75	6.860
610.08	7.399
610.41	6.052
610.74	6.623
611.07	7.164
611.41	6.722
611.74	6.888
612.07	6.263
612.40	7.765
612.73	6.789
613.07	6.843
613.40	7.636
613.73	6.397
614.06	7.258
614.39	7.079
614.72	7.158
615.06	7.300
615.39	6.953
615.72	6.748
616.05	7.337
616.38	7.337
616.71	6.770
617.05	8.363
617.38	7.216
617.71	7.327
618.04	7.091
618.37	7.392
618.70	7.841
619.03	8.553
619.36	8.486
619.69	7.676
620.03	8.173
620.36	8.155
620.69	7.877
621.02	8.776
621.35	8.379
621.68	8.178
622.01	7.972
622.34	9.153
622.67	7.757
623.00	7.190
623.33	8.578
623.66	7.934
623.99	7.879
624.32	7.632
624.65	8.404
624.99	7.082
625.32	7.965
625.65	8.490
625.98	8.839
626.31	9.253
626.64	9.796
626.97	9.144
627.30	8.894
627.63	9.762
627.96	9.336
628.29	9.624
628.62	9.241
628.95	10.189
629.28	9.672
629.61	9.808
629.94	8.571
630.26	9.533
630.59	9.247
630.92	9.195
631.25	8.687
631.58	9.810
631.91	9.939
632.24	9.810
632.57	9.549
632.90	9.320
633.23	10.291
633.56	10.395
633.89	10.872
634.22	10.329
634.55	11.598
634.88	10.419
635.20	11.708
635.53	10.361
635.86	10.767
636.19	10.235
636.52	10.496
636.85	10.767
637.18	9.677
637.51	12.293
637.83	10.358
638.16	10.997
638.49	11.209
638.82	12.516
639.15	11.625
639.48	10.599
639.81	11.528
640.13	11.068
640.46	11.678
640.79	12.550
641.12	10.729
641.45	10.894
641.77	11.635
642.10	12.427
642.43	9.910
642.76	11.765
643.09	13.497
643.41	12.595
643.74	13.889
644.07	10.823
644.40	13.650
644.73	12.283
645.05	13.788
645.38	10.900
645.71	13.527
646.04	12.292
646.36	14.357
646.69	12.542
647.02	12.245
647.35	12.887
647.67	12.212
648.00	14.146
648.33	13.201
648.66	11.818
648.98	11.844
649.31	10.613
649.64	12.407
649.96	10.879
650.29	11.532
650.62	11.327
650.94	15.721
651.27	14.358
651.60	13.478
651.92	13.578
652.25	13.192
652.58	11.838
652.90	11.848
653.23	10.940
653.56	11.811
653.88	11.569
654.21	13.586
654.54	11.056
654.86	12.461
655.19	10.946
655.52	6.037
655.84	4.217
656.17	5.044
656.49	6.661
656.82	6.714
657.15	5.241
657.47	4.031
657.80	3.164
658.13	3.201
658.45	5.186
658.78	5.557
659.10	5.603
659.43	6.637
659.75	6.610
660.08	8.101
660.41	9.963
660.73	13.088
661.06	12.739
661.38	14.364
661.71	14.808
662.03	16.174
662.36	11.133
662.68	13.855
663.01	13.737
663.33	12.739
663.66	13.025
663.98	14.687
664.31	13.025
664.63	17.206
664.96	14.085
665.28	15.574
665.61	12.671
665.93	14.487
666.26	10.548
666.58	14.226
666.91	12.896
667.23	13.034
667.56	14.039
667.88	15.598
668.21	17.910
668.53	14.534
668.86	12.771
669.18	15.778
669.50	14.130
669.83	18.954
670.15	17.556
670.48	12.854
670.80	15.302
671.13	14.013
671.45	13.830
671.77	16.293
672.10	14.787
672.42	12.721
672.75	13.765
673.07	11.796
673.39	12.477
673.72	10.937
674.04	14.118
674.37	13.786
674.69	13.497
675.01	12.971
675.34	17.043
675.66	19.158
675.98	14.664
676.31	17.857
676.63	15.499
676.95	16.562
677.28	14.953
677.60	14.066
677.92	16.878
678.25	13.142
678.57	15.339
678.89	14.830
679.22	14.538
679.54	14.313
679.86	15.229
680.18	13.417
680.51	12.589
680.83	13.879
681.15	13.774
681.48	14.367
681.80	13.153
682.12	13.218
682.44	12.959
682.77	14.257
683.09	18.670
683.41	16.851
683.73	13.466
684.06	16.736
684.38	15.851
684.70	12.984
685.02	16.510
685.34	15.385
685.67	10.490
685.99	13.058
686.31	11.604
686.63	11.131
686.96	12.321
687.28	13.177
687.60	11.775
687.92	13.711
688.24	12.928
688.56	14.056
688.89	17.012
689.21	15.066
689.53	17.954
689.85	15.299
690.17	14.286
690.49	17.197
690.82	17.290
691.14	13.839
691.46	13.502
691.78	14.859
692.10	16.116
692.42	16.168
692.74	14.523
693.06	15.106
693.39	14.990
693.71	15.721
694.03	15.368
694.35	12.987
694.67	16.247
694.99	15.610
695.31	14.461
695.63	14.833
695.95	11.247
696.27	14.467
696.59	15.803
696.91	16.580
697.23	14.554
697.56	18.337
697.88	12.474
698.20	15.000
698.52	15.054
698.84	13.808
699.16	15.207
699.48	14.014
699.80	17.391
700.12	19.221
700.44	16.711
700.76	17.403
701.08	19.253
701.40	17.039
701.72	18.950
702.04	21.875
702.36	14.448
702.68	17.847
703.00	18.283
703.32	15.691
703.64	17.426
703.96	20.056
704.28	17.442
704.60	21.114
704.91	20.475
705.23	21.994
705.55	22.259
705.87	22.924
706.19	18.728
706.51	22.118
706.83	14.242
707.15	16.246
707.47	14.899
707.79	16.953
708.11	16.210
708.43	14.762
708.74	16.071
709.06	18.442
709.38	17.585
709.70	19.186
710.02	18.398
710.34	16.061
710.66	17.910
710.98	18.466
711.29	18.023
711.61	20.944
711.93	18.590
712.25	19.293
712.57	18.382
712.89	20.415
713.20	21.581
713.52	19.737
713.84	18.038
714.16	20.122
714.48	18.391
714.80	20.061
715.11	21.326
715.43	18.101
715.75	19.710
716.07	18.530
716.39	17.241
716.70	24.252
717.02	20.144
717.34	19.788
717.66	26.119
717.97	25.100
718.29	21.481
718.61	20.438
718.93	24.632
719.24	20.761
719.56	18.983
719.88	20.339
720.20	22.973
720.51	19.861
720.83	22.305
721.15	19.030
721.46	21.631
721.78	22.939
722.10	21.887
722.42	24.436
722.73	25.468
723.05	21.721
723.37	25.101
723.68	24.710
724.00	19.512
724.32	20.968
724.63	23.171
724.95	20.921
725.27	23.077
725.58	23.438
725.90	27.372
726.22	21.132
726.53	18.750
726.85	19.795
727.16	23.488
727.48	19.858
727.80	18.939
728.11	23.551
728.43	24.615
728.74	22.222
729.06	26.277
729.38	23.162
729.69	24.555
730.01	19.795
730.32	20.486
730.64	21.405
730.96	20.792
731.27	20.861
731.59	17.431
731.90	17.784
732.22	17.702
732.53	17.957
732.85	20.513
733.16	14.469
733.48	16.611
733.80	22.403
734.11	21.338
734.43	19.527
734.74	17.429
735.06	19.771
735.37	21.098
735.69	21.019
736.00	20.261
736.32	18.692
736.63	20.128
736.95	19.169
737.26	17.347
737.58	17.742
737.89	16.054
738.21	18.089
738.52	21.429
738.83	21.132
739.15	22.692
739.46	27.007
739.78	22.569
740.09	22.154
740.41	20.323
740.72	18.118
741.04	24.444
741.35	22.917
741.66	29.333
741.98	22.170
742.29	28.708
742.61	28.017
742.92	28.959
743.23	26.496
743.55	28.000
743.86	24.123
744.18	31.858
744.49	22.967
744.80	29.577
745.12	28.636
745.43	27.753
745.74	32.883
746.06	26.606
746.37	26.457
746.68	25.339
747.00	31.019
747.31	30.000
747.62	24.779
747.94	26.432
748.25	27.234
748.56	26.872
748.88	23.762
749.19	32.500
749.50	22.791
749.82	20.325
750.13	23.673
750.44	19.708
750.75	21.754
751.07	23.473
751.38	24.042
751.69	17.690
752.01	24.060
752.32	22.022
752.63	22.695
752.94	21.311
753.26	25.200
753.57	21.545
753.88	26.172
754.19	21.786
754.51	26.042
754.82	17.329
755.13	26.038
755.44	20.677
755.75	19.343
756.07	20.213
756.38	22.628
756.69	17.114
757.00	16.168
757.31	20.178
757.63	19.591
757.94	16.622
758.25	16.176
758.56	16.790
758.87	16.667
759.18	16.970
759.50	18.495
759.81	21.495
760.12	13.750
760.43	20.630
760.74	14.946
761.05	19.209
761.36	16.578
761.67	20.170
761.99	18.634
762.30	23.958
762.61	20.611
762.92	24.219
763.23	25.210
763.54	25.600
763.85	24.219
764.16	25.000
764.47	27.376
764.78	23.675
765.10	17.722
765.41	19.174
765.72	17.665
766.03	20.063
766.34	21.667
766.65	20.851
766.96	23.932
767.27	27.411
767.58	30.729
767.89	29.474
768.20	33.333
768.51	31.472
768.82	31.651
769.13	21.138
769.44	24.696
769.75	25.322
770.06	20.183
770.37	30.769
770.68	24.074
770.99	24.889
771.30	20.902
771.61	25.112
771.92	24.590
772.23	31.513
772.54	25.128
772.85	32.461
773.16	34.043
773.47	33.152
773.78	32.487
774.09	39.286
774.39	27.485
774.70	37.037
775.01	34.783
775.32	41.176
775.63	36.842
775.94	41.007
776.25	45.669
776.56	42.537
776.87	40.984
777.18	46.875
777.48	51.145
777.79	45.455
778.10	42.963
778.41	41.071
778.72	32.117
779.03	41.611
779.34	37.584
779.65	31.081
779.95	37.423
780.26	41.830
780.57	39.310
780.88	47.656
781.19	41.353
781.50	33.784
781.80	30.189
782.11	31.073
782.42	34.810
782.73	32.515
783.04	35.135
783.34	42.254
783.65	40.411
783.96	38.806
784.27	35.664
784.57	33.094
784.88	32.407
785.19	52.381
785.50	37.736
785.81	44.030
786.11	39.344
786.42	49.612
786.73	46.903
787.04	46.226
787.34	44.643
787.65	42.000
787.96	40.541
788.26	38.843
788.57	51.695
788.88	49.587
789.19	47.222
789.49	47.727
789.80	41.985
790.11	63.810
790.41	50.495
790.72	44.578
791.03	55.435
791.33	55.814
791.64	59.794
791.95	61.386
792.25	57.778
792.56	55.844
792.87	70.513
793.17	79.747
793.48	74.713
793.79	64.368
794.09	70.455
794.40	40.336
794.70	42.647
795.01	45.926
795.32	44.604
795.62	42.520
795.93	41.379
796.23	45.133
796.54	55.294
796.85	60.811
797.15	78.873
797.46	65.152
797.76	73.494
798.07	58.228
798.37	80.000
798.68	63.636
798.99	46.479
799.29	63.636
799.60	59.091
799.90	82.192
800.21	70.149
800.51	72.414
800.82	84.211
801.12	88.525
801.43	65.152
801.73	62.162
802.04	90.476
802.34	76.543
802.65	71.875
802.95	105.085
803.26	93.750
803.56	74.286
803.87	63.077
804.17	75.000
804.48	81.481
804.78	86.207
805.09	72.059
805.39	86.538
805.70	80.357
806.00	95.082
806.30	77.273
806.61	65.854
806.91	54.430
807.22	67.105
807.52	64.179
807.83	74.648
808.13	76.563
808.43	75.000
808.74	63.158
809.04	60.870
809.35	92.537
809.65	64.474
809.95	98.387
810.26	91.525
810.56	82.540
810.86	125.000
811.17	123.810
811.47	90.000
811.77	81.481
812.08	83.636
812.38	106.000
812.69	141.667
812.99	118.182
813.29	126.531
813.59	83.333
813.90	114.286
814.20	90.909
814.50	67.692
814.81	91.176
815.11	93.878
815.41	91.803
815.72	133.333
816.02	85.455
816.32	116.667
816.62	100.000
816.93	97.561
817.23	123.810
817.53	131.818
817.84	154.545
818.14	110.870
818.44	106.667
818.74	135.294
819.04	127.500
819.35	142.857
819.65	179.412
819.95	153.571
820.25	205.000
820.56	141.026
820.86	118.182
821.16	116.279
821.46	148.718
821.76	100.000
822.07	145.714
822.37	135.000
822.67	130.303
822.97	109.804
823.27	164.286
823.57	145.946
823.88	130.000
824.18	190.000
824.48	133.333
824.78	176.000
825.08	158.333
825.38	135.135
825.69	131.707
825.99	195.833
826.29	134.483
826.59	150.000
826.89	134.211
827.19	167.647
827.49	187.097
827.79	131.818
828.09	115.909
828.39	80.851
828.70	97.959
829.00	133.333
829.30	116.129
829.60	135.000
829.90	260.000
830.20	189.286
830.50	165.217
830.80	200.000
831.10	176.667
831.40	193.333
831.70	165.217
832.00	219.231
832.30	222.222
832.60	256.250
832.90	196.667
833.20	385.714
833.50	183.871
833.80	189.655
834.10	200.000
834.40	207.692
834.70	227.778
835.00	319.048
835.30	142.857
835.60	307.692
835.90	182.759
836.20	285.714
836.50	175.862
836.80	196.000
837.10	158.333
837.40	285.714
837.70	317.647
838.00	214.815
838.30	214.286
838.60	233.333
838.90	211.538
839.19	230.000
839.49	407.143
839.79	275.000
840.09	230.000
840.39	257.143
840.69	213.043
840.99	205.556
841.29	340.000
841.59	358.333
841.88	325.000
842.18	158.621
842.48	219.048
842.78	183.333
843.08	200.000
843.38	137.500
843.68	833.333
843.97	188.462
844.27	158.621
844.57	261.905
844.87	412.500
845.17	188.889
845.47	1166.667
845.76	277.778
846.06	317.647
846.36	625.000
846.66	357.143
846.96	281.250
847.25	381.818
847.55	490.909
847.85	247.826
848.15	470.000
848.44	407.143
848.74	283.333
849.04	329.412
849.34	450.000
849.63	278.947
849.93	454.545
850.23	940.000
850.53	435.714
850.82	2150.000
851.12	-3200.000
851.42	4100.000
851.71	255.000
852.01	-1033.333
852.31	225.000
852.61	1566.667
852.90	252.381
853.20	228.000
853.50	300.000
853.79	233.333
854.09	191.667
854.39	300.000
854.68	154.054
854.98	154.839
855.28	150.000
855.57	186.207
855.87	196.296
856.17	231.579
856.46	220.000
856.76	294.118
857.05	220.690
857.35	204.167
857.65	286.667
857.94	234.783
858.24	207.692
858.53	255.000
858.83	272.727
859.13	346.667
859.42	0.000
859.72	600.000
860.01	409.091
860.31	231.818
860.60	284.211
860.90	208.696
861.20	433.333
861.49	525.000
861.79	-3200.000
862.08	650.000
862.38	280.952
862.67	292.308
862.97	317.647
863.26	511.111
863.56	238.889
863.85	383.333
864.15	537.500
864.44	353.333
864.74	733.333
865.03	612.500
865.33	305.263
865.62	418.182
865.92	415.385
866.21	350.000
866.51	0.000
866.80	518.182
867.10	1080.000
867.39	407.692
867.69	454.545
867.98	252.632
868.27	409.091
868.57	315.789
868.86	-4400.000
869.16	312.500
869.45	1550.000
869.75	-4700.000
870.04	400.000
870.33	614.286
870.63	900.000
870.92	2200.000
871.22	642.857
871.51	358.824
871.80	185.714
872.10	357.143
>>>>>End Processed Spectral Data<<<<<
