SpectraSuite Data File
++++++++++++++++++++++++++++++++++++
Date: Wed May 13 16:53:12 PDT 2015
User: schluterlab
Dark Spectrum Present: Yes
Reference Spectrum Present: Yes
Number of Sampled Component Spectra: 1
Spectrometers: USB2E3373
Integration Time (usec): 3000 (USB2E3373)
Spectra Averaged: 3 (USB2E3373)
Boxcar Smoothing: 0 (USB2E3373)
Correct for Electrical Dark: No (USB2E3373)
Strobe/Lamp Enabled: No (USB2E3373)
Correct for Detector Non-linearity: No (USB2E3373)
Correct for Stray Light: No (USB2E3373)
Number of Pixels in Processed Spectrum: 2048
>>>>>Begin Processed Spectral Data<<<<<
178.53	0.000
178.91	-1275.000
179.29	-1250.000
179.67	-227.778
180.04	-1325.000
180.42	2550.000
180.80	960.000
181.18	-975.000
181.56	714.286
181.94	0.000
182.31	-642.857
182.69	1666.667
183.07	-662.500
183.45	-500.000
183.83	518.182
184.20	-400.000
184.58	2350.000
184.96	4700.000
185.34	-980.000
185.72	-575.000
186.09	-2250.000
186.47	2600.000
186.85	2150.000
187.23	5000.000
187.61	-1633.333
187.98	1125.000
188.36	572.727
188.74	463.636
189.12	-800.000
189.49	640.000
189.87	-4900.000
190.25	-1350.000
190.63	442.857
191.00	423.077
191.38	733.333
191.76	-1150.000
192.14	1350.000
192.51	712.500
192.89	1100.000
193.27	612.500
193.65	-1075.000
194.02	530.000
194.40	960.000
194.78	560.000
195.15	491.667
195.53	560.000
195.91	-1950.000
196.29	387.500
196.66	278.947
197.04	-420.000
197.42	0.000
197.79	650.000
198.17	-4700.000
198.55	771.429
198.92	787.500
199.30	940.000
199.68	0.000
200.05	338.889
200.43	785.714
200.81	4400.000
201.18	1833.333
201.56	-1633.333
201.94	577.778
202.31	533.333
202.69	541.667
203.07	520.000
203.44	0.000
203.82	1450.000
204.19	814.286
204.57	471.429
204.95	725.000
205.32	1433.333
205.70	481.818
206.08	378.571
206.45	1800.000
206.83	356.250
207.20	766.667
207.58	800.000
207.96	350.000
208.33	762.500
208.71	-766.667
209.08	785.714
209.46	466.667
209.84	518.182
210.21	-1600.000
210.59	1250.000
210.96	-525.000
211.34	2550.000
211.71	600.000
212.09	816.667
212.46	0.000
212.84	1666.667
213.22	1600.000
213.59	-5500.000
213.97	916.667
214.34	814.286
214.72	581.818
215.09	1120.000
215.47	-2400.000
215.84	-2800.000
216.22	1600.000
216.59	442.857
216.97	1325.000
217.34	481.818
217.72	-650.000
218.09	0.000
218.47	-5200.000
218.84	577.778
219.22	728.571
219.59	2000.000
219.97	-557.143
220.34	820.000
220.72	-1633.333
221.09	335.714
221.47	1300.000
221.84	-850.000
222.22	0.000
222.59	1375.000
222.97	-2350.000
223.34	1140.000
223.72	376.923
224.09	1160.000
224.46	2100.000
224.84	-5000.000
225.21	-940.000
225.59	-4900.000
225.96	520.000
226.34	255.000
226.71	2850.000
227.08	675.000
227.46	600.000
227.83	-1325.000
228.21	-2300.000
228.58	577.778
228.95	-1950.000
229.33	-1900.000
229.70	1733.333
230.08	685.714
230.45	-740.000
230.82	441.667
231.20	666.667
231.57	628.571
231.95	466.667
232.32	245.455
232.69	445.455
233.07	700.000
233.44	407.692
233.81	-1400.000
234.19	294.737
234.56	416.667
234.93	458.333
235.31	409.091
235.68	338.462
236.05	357.143
236.43	157.576
236.80	263.158
237.17	3700.000
237.55	161.905
237.92	175.000
238.29	195.238
238.67	161.290
239.04	186.207
239.41	163.889
239.79	97.826
240.16	109.524
240.53	95.455
240.91	101.961
241.28	82.000
241.65	88.000
242.02	79.710
242.40	66.129
242.77	75.000
243.14	68.817
243.51	69.663
243.89	50.588
244.26	50.000
244.63	53.763
245.00	46.809
245.38	44.554
245.75	39.252
246.12	38.532
246.49	45.255
246.87	46.400
247.24	42.308
247.61	37.143
247.98	31.373
248.36	24.324
248.73	35.032
249.10	32.484
249.47	29.379
249.84	30.481
250.22	28.877
250.59	26.627
250.96	27.778
251.33	28.436
251.70	26.238
252.08	23.333
252.45	25.561
252.82	23.913
253.19	23.404
253.56	20.000
253.94	20.332
254.31	19.531
254.68	18.077
255.05	19.188
255.42	19.919
255.79	18.015
256.16	19.134
256.54	16.608
256.91	16.014
257.28	15.108
257.65	19.802
258.02	19.255
258.39	14.196
258.76	13.712
259.14	16.369
259.51	13.982
259.88	13.043
260.25	16.918
260.62	13.584
260.99	16.770
261.36	15.916
261.73	12.321
262.10	14.826
262.47	12.958
262.85	15.042
263.22	10.256
263.59	13.960
263.96	11.813
264.33	15.927
264.70	13.158
265.07	16.113
265.44	11.869
265.81	11.192
266.18	11.809
266.55	11.220
266.92	13.759
267.29	12.037
267.66	10.321
268.03	12.273
268.40	11.215
268.77	11.695
269.14	10.586
269.51	12.867
269.88	11.655
270.25	12.867
270.62	11.461
270.99	14.409
271.36	12.661
271.73	10.981
272.10	10.217
272.47	11.398
272.84	11.472
273.21	12.579
273.58	8.515
273.95	9.224
274.32	10.537
274.69	10.064
275.06	8.858
275.43	11.489
275.80	11.623
276.17	9.165
276.54	10.395
276.91	10.079
277.28	10.156
277.65	11.219
278.02	10.973
278.39	10.937
278.76	8.909
279.13	11.509
279.50	11.173
279.87	10.159
280.23	10.379
280.60	8.897
280.97	9.982
281.34	10.619
281.71	11.455
282.08	11.708
282.45	7.818
282.82	10.835
283.19	7.130
283.56	10.526
283.92	11.168
284.29	11.287
284.66	8.893
285.03	7.052
285.40	8.275
285.77	9.596
286.14	7.945
286.51	9.000
286.87	9.060
287.24	11.401
287.61	8.026
287.98	8.442
288.35	7.924
288.72	7.788
289.08	9.859
289.45	10.049
289.82	9.919
290.19	7.064
290.56	10.107
290.93	6.042
291.29	7.209
291.66	7.670
292.03	9.448
292.40	9.545
292.77	5.621
293.13	9.254
293.50	8.455
293.87	7.556
294.24	7.259
294.60	5.531
294.97	7.413
295.34	8.604
295.71	9.517
296.08	7.123
296.44	7.153
296.81	6.737
297.18	9.214
297.55	4.749
297.91	6.332
298.28	9.103
298.65	8.094
299.02	5.929
299.38	7.570
299.75	5.660
300.12	6.003
300.48	6.125
300.85	6.289
301.22	5.860
301.59	5.303
301.95	6.927
302.32	6.162
302.69	7.646
303.05	5.939
303.42	5.926
303.79	6.682
304.15	6.527
304.52	5.214
304.89	5.110
305.25	5.916
305.62	6.795
305.99	7.084
306.35	6.488
306.72	6.502
307.09	6.770
307.45	6.532
307.82	5.580
308.19	6.623
308.55	6.580
308.92	6.767
309.29	4.541
309.65	6.151
310.02	6.977
310.38	7.742
310.75	6.547
311.12	5.834
311.48	6.479
311.85	6.604
312.22	6.139
312.58	5.301
312.95	6.864
313.31	6.117
313.68	6.029
314.05	8.383
314.41	5.930
314.78	5.639
315.14	5.660
315.51	6.385
315.87	7.228
316.24	6.653
316.61	5.750
316.97	5.969
317.34	5.186
317.70	6.405
318.07	6.449
318.43	5.186
318.80	6.842
319.16	6.591
319.53	6.660
319.89	7.238
320.26	8.000
320.62	7.837
320.99	7.273
321.35	6.364
321.72	7.084
322.08	8.292
322.45	7.264
322.81	7.461
323.18	8.092
323.54	7.143
323.91	7.170
324.27	7.361
324.64	5.778
325.00	6.943
325.37	7.461
325.73	7.989
326.10	8.120
326.46	6.810
326.83	7.938
327.19	7.600
327.56	7.056
327.92	7.349
328.29	8.252
328.65	7.366
329.01	8.032
329.38	7.493
329.74	7.110
330.11	7.163
330.47	7.346
330.84	8.548
331.20	6.740
331.56	8.257
331.93	7.222
332.29	6.744
332.66	8.673
333.02	6.764
333.38	7.407
333.75	7.932
334.11	7.384
334.48	7.276
334.84	7.904
335.20	7.091
335.57	6.346
335.93	6.875
336.29	6.960
336.66	6.943
337.02	7.330
337.38	7.222
337.75	6.774
338.11	7.431
338.47	7.643
338.84	7.149
339.20	6.330
339.56	8.303
339.93	6.091
340.29	7.609
340.65	7.219
341.02	7.766
341.38	7.384
341.74	7.632
342.11	7.511
342.47	6.872
342.83	7.534
343.20	7.792
343.56	7.077
343.92	7.018
344.28	6.888
344.65	7.395
345.01	6.902
345.37	5.746
345.73	7.445
346.10	6.564
346.46	6.610
346.82	6.672
347.19	6.516
347.55	6.486
347.91	6.958
348.27	8.956
348.63	6.773
349.00	6.958
349.36	6.814
349.72	6.816
350.08	7.212
350.45	7.567
350.81	6.661
351.17	7.699
351.53	6.470
351.89	5.611
352.26	7.103
352.62	6.255
352.98	6.159
353.34	6.491
353.70	5.728
354.07	6.855
354.43	6.429
354.79	5.551
355.15	6.544
355.51	7.114
355.87	5.633
356.24	5.782
356.60	6.335
356.96	6.516
357.32	5.805
357.68	7.244
358.04	6.572
358.40	7.680
358.77	6.729
359.13	5.525
359.49	6.353
359.85	5.556
360.21	5.742
360.57	5.914
360.93	6.615
361.29	5.593
361.66	4.876
362.02	6.343
362.38	6.768
362.74	6.324
363.10	6.070
363.46	6.603
363.82	7.105
364.18	6.241
364.54	7.058
364.90	6.728
365.26	6.985
365.62	6.063
365.98	5.698
366.35	5.301
366.71	6.218
367.07	5.462
367.43	6.749
367.79	6.852
368.15	7.040
368.51	5.669
368.87	6.210
369.23	5.560
369.59	6.445
369.95	6.103
370.31	6.766
370.67	6.014
371.03	7.266
371.39	6.633
371.75	6.250
372.11	6.401
372.47	7.405
372.83	7.061
373.19	6.214
373.55	6.800
373.91	6.554
374.27	6.942
374.63	5.891
374.99	7.486
375.35	5.583
375.71	6.374
376.07	7.339
376.42	5.915
376.78	6.892
377.14	6.445
377.50	6.821
377.86	5.918
378.22	6.700
378.58	5.326
378.94	5.343
379.30	6.043
379.66	5.774
380.02	6.634
380.38	6.254
380.74	7.023
381.09	6.357
381.45	6.638
381.81	6.143
382.17	6.815
382.53	7.107
382.89	6.914
383.25	6.066
383.61	7.249
383.97	7.067
384.32	6.800
384.68	5.948
385.04	6.454
385.40	6.625
385.76	7.064
386.12	7.578
386.48	7.363
386.83	7.120
387.19	7.359
387.55	7.050
387.91	6.651
388.27	6.928
388.62	8.113
388.98	6.511
389.34	7.572
389.70	6.744
390.06	7.288
390.42	7.069
390.77	7.634
391.13	7.275
391.49	7.678
391.85	6.811
392.20	6.372
392.56	7.386
392.92	7.240
393.28	5.444
393.64	7.554
393.99	7.880
394.35	7.506
394.71	7.905
395.07	6.791
395.42	7.293
395.78	7.761
396.14	7.883
396.50	7.895
396.85	7.692
397.21	8.200
397.57	7.874
397.92	7.512
398.28	6.783
398.64	7.467
399.00	7.387
399.35	6.712
399.71	7.176
400.07	8.220
400.42	7.362
400.78	7.660
401.14	6.951
401.49	7.522
401.85	7.320
402.21	7.186
402.57	6.909
402.92	7.629
403.28	7.808
403.63	8.292
403.99	7.070
404.35	7.455
404.70	7.134
405.06	7.047
405.42	7.424
405.77	6.629
406.13	6.603
406.49	6.978
406.84	7.679
407.20	7.033
407.55	7.594
407.91	7.200
408.27	6.445
408.62	8.067
408.98	7.353
409.34	7.503
409.69	7.419
410.05	7.249
410.40	7.156
410.76	8.124
411.11	7.780
411.47	7.668
411.83	7.330
412.18	7.112
412.54	7.472
412.89	7.892
413.25	7.143
413.60	7.783
413.96	7.225
414.31	7.776
414.67	8.555
415.03	6.821
415.38	8.119
415.74	7.974
416.09	8.361
416.45	8.635
416.80	7.799
417.16	8.445
417.51	8.693
417.87	7.193
418.22	8.139
418.58	8.586
418.93	7.555
419.29	7.957
419.64	8.060
420.00	8.049
420.35	8.000
420.71	7.770
421.06	8.115
421.42	8.246
421.77	8.296
422.12	7.355
422.48	6.908
422.83	7.455
423.19	7.956
423.54	7.545
423.90	7.942
424.25	8.487
424.61	7.798
424.96	7.405
425.31	7.420
425.67	7.247
426.02	7.257
426.38	8.303
426.73	7.548
427.09	7.599
427.44	7.591
427.79	7.188
428.15	7.798
428.50	7.899
428.85	7.926
429.21	7.454
429.56	7.828
429.92	8.103
430.27	7.646
430.62	7.117
430.98	8.095
431.33	7.423
431.68	7.958
432.04	7.721
432.39	7.767
432.74	7.840
433.10	7.414
433.45	8.571
433.80	7.871
434.16	8.280
434.51	8.316
434.86	7.526
435.22	8.004
435.57	8.450
435.92	7.607
436.28	8.007
436.63	8.389
436.98	8.472
437.34	8.527
437.69	8.343
438.04	7.139
438.39	7.642
438.75	8.193
439.10	7.821
439.45	7.497
439.81	7.432
440.16	8.131
440.51	7.967
440.86	7.991
441.22	7.953
441.57	7.643
441.92	7.677
442.27	8.396
442.63	7.899
442.98	8.169
443.33	8.424
443.68	7.847
444.03	8.053
444.39	6.719
444.74	7.792
445.09	8.194
445.44	7.436
445.79	7.274
446.15	8.364
446.50	7.916
446.85	7.965
447.20	8.312
447.55	7.873
447.91	7.391
448.26	7.958
448.61	8.027
448.96	7.807
449.31	8.155
449.66	7.822
450.02	7.632
450.37	8.107
450.72	8.404
451.07	7.556
451.42	8.146
451.77	8.338
452.12	8.025
452.47	8.333
452.83	7.343
453.18	8.619
453.53	8.225
453.88	7.620
454.23	7.950
454.58	8.783
454.93	8.837
455.28	8.354
455.63	8.192
455.98	8.810
456.34	7.977
456.69	8.641
457.04	8.978
457.39	8.416
457.74	7.835
458.09	8.281
458.44	7.925
458.79	7.538
459.14	8.804
459.49	8.173
459.84	8.255
460.19	7.896
460.54	8.160
460.89	7.625
461.24	8.561
461.59	9.820
461.94	8.385
462.29	9.555
462.64	8.743
462.99	8.003
463.34	8.600
463.69	8.693
464.04	8.870
464.39	9.043
464.74	8.913
465.09	7.961
465.44	7.645
465.79	7.550
466.14	8.374
466.49	7.453
466.84	8.757
467.19	7.725
467.54	9.000
467.89	8.703
468.24	8.784
468.59	9.035
468.94	7.941
469.29	8.483
469.64	8.835
469.99	8.728
470.34	8.058
470.68	8.836
471.03	8.844
471.38	9.243
471.73	9.793
472.08	9.934
472.43	8.480
472.78	7.373
473.13	9.307
473.48	8.489
473.83	8.780
474.17	7.467
474.52	9.181
474.87	8.815
475.22	8.880
475.57	7.845
475.92	8.178
476.27	8.399
476.61	7.501
476.96	7.367
477.31	7.849
477.66	8.643
478.01	7.266
478.36	8.778
478.70	8.307
479.05	7.987
479.40	7.677
479.75	8.083
480.10	7.753
480.45	7.758
480.79	7.215
481.14	8.366
481.49	7.451
481.84	7.499
482.19	7.633
482.53	8.119
482.88	8.050
483.23	7.850
483.58	7.916
483.92	7.873
484.27	6.667
484.62	7.328
484.97	7.331
485.31	7.295
485.66	6.858
486.01	6.190
486.36	5.833
486.70	5.710
487.05	6.292
487.40	6.537
487.75	6.216
488.09	7.067
488.44	6.771
488.79	7.450
489.13	7.105
489.48	6.933
489.83	7.035
490.17	7.278
490.52	7.750
490.87	6.875
491.22	7.367
491.56	6.925
491.91	7.445
492.26	7.120
492.60	7.465
492.95	7.203
493.30	7.523
493.64	7.280
493.99	7.289
494.34	7.586
494.68	7.509
495.03	8.036
495.37	7.352
495.72	7.700
496.07	7.517
496.41	7.212
496.76	7.432
497.11	7.474
497.45	6.754
497.80	7.917
498.14	7.585
498.49	7.902
498.84	7.910
499.18	7.619
499.53	7.217
499.87	7.642
500.22	7.254
500.56	8.495
500.91	7.404
501.26	7.776
501.60	7.641
501.95	7.104
502.29	7.779
502.64	7.588
502.98	7.667
503.33	6.993
503.67	6.868
504.02	7.437
504.36	7.674
504.71	7.328
505.06	7.904
505.40	7.341
505.75	7.136
506.09	7.532
506.44	7.449
506.78	7.891
507.13	7.471
507.47	8.737
507.82	7.801
508.16	8.257
508.51	8.016
508.85	7.895
509.19	8.316
509.54	8.163
509.88	7.676
510.23	8.432
510.57	8.617
510.92	7.354
511.26	7.605
511.61	8.351
511.95	7.150
512.30	7.582
512.64	7.415
512.98	7.878
513.33	7.762
513.67	7.417
514.02	7.955
514.36	8.301
514.70	8.412
515.05	7.529
515.39	8.245
515.74	8.277
516.08	7.937
516.42	8.324
516.77	8.863
517.11	7.769
517.46	8.578
517.80	8.188
518.14	7.354
518.49	7.876
518.83	8.807
519.17	9.007
519.52	8.149
519.86	8.500
520.20	8.960
520.55	8.917
520.89	8.273
521.23	8.926
521.58	8.884
521.92	8.634
522.26	8.542
522.61	8.411
522.95	8.840
523.29	9.008
523.64	9.146
523.98	8.256
524.32	8.565
524.66	9.020
525.01	8.272
525.35	7.869
525.69	8.313
526.04	8.474
526.38	8.664
526.72	8.957
527.06	8.600
527.41	7.735
527.75	9.068
528.09	8.735
528.43	8.859
528.78	8.789
529.12	8.061
529.46	8.818
529.80	8.849
530.15	9.657
530.49	8.185
530.83	9.304
531.17	7.963
531.51	9.533
531.86	9.226
532.20	9.648
532.54	9.737
532.88	9.243
533.22	8.245
533.57	8.765
533.91	8.850
534.25	8.931
534.59	8.420
534.93	8.328
535.27	8.992
535.62	9.646
535.96	9.542
536.30	8.264
536.64	9.079
536.98	9.224
537.32	7.834
537.66	8.733
538.01	8.427
538.35	9.244
538.69	8.998
539.03	8.837
539.37	8.243
539.71	7.842
540.05	9.216
540.39	9.236
540.73	8.732
541.07	9.604
541.42	9.263
541.76	9.355
542.10	9.185
542.44	9.272
542.78	9.354
543.12	8.061
543.46	9.311
543.80	9.889
544.14	8.408
544.48	9.524
544.82	8.659
545.16	8.198
545.50	8.612
545.84	9.140
546.18	9.764
546.52	9.016
546.86	9.278
547.20	9.777
547.54	9.486
547.88	9.885
548.22	8.842
548.56	9.308
548.90	9.155
549.24	8.283
549.58	9.823
549.92	9.272
550.26	8.878
550.60	9.544
550.94	10.141
551.28	8.559
551.62	9.058
551.96	8.702
552.30	9.283
552.64	9.331
552.98	9.898
553.32	9.305
553.66	10.225
554.00	9.403
554.34	9.317
554.68	10.372
555.02	9.873
555.36	9.882
555.69	8.457
556.03	9.690
556.37	9.618
556.71	9.482
557.05	9.384
557.39	9.797
557.73	9.457
558.07	9.282
558.41	8.466
558.75	9.993
559.08	9.918
559.42	9.221
559.76	8.971
560.10	9.565
560.44	9.154
560.78	8.583
561.12	9.301
561.45	9.192
561.79	9.558
562.13	9.054
562.47	8.880
562.81	9.344
563.15	9.097
563.48	9.085
563.82	9.393
564.16	8.371
564.50	8.594
564.84	8.913
565.17	8.880
565.51	9.329
565.85	9.327
566.19	7.890
566.52	9.373
566.86	8.258
567.20	8.785
567.54	8.219
567.88	8.202
568.21	8.889
568.55	8.493
568.89	8.512
569.23	8.244
569.56	7.854
569.90	7.774
570.24	8.073
570.57	7.344
570.91	7.046
571.25	7.381
571.59	7.423
571.92	6.768
572.26	6.846
572.60	7.207
572.93	7.466
573.27	7.631
573.61	7.510
573.95	7.597
574.28	7.035
574.62	7.094
574.96	7.025
575.29	6.814
575.63	6.987
575.97	7.134
576.30	7.090
576.64	6.470
576.98	6.855
577.31	6.816
577.65	7.014
577.98	6.594
578.32	6.593
578.66	6.876
578.99	6.642
579.33	6.826
579.67	6.616
580.00	6.689
580.34	6.882
580.67	6.949
581.01	7.308
581.35	6.811
581.68	6.621
582.02	6.454
582.35	6.510
582.69	6.936
583.02	6.654
583.36	7.009
583.70	7.218
584.03	6.714
584.37	7.325
584.70	7.079
585.04	6.874
585.37	6.803
585.71	7.143
586.04	6.910
586.38	6.897
586.72	7.484
587.05	7.009
587.39	6.649
587.72	7.215
588.06	6.777
588.39	7.051
588.73	6.923
589.06	7.136
589.40	7.441
589.73	7.427
590.07	7.509
590.40	7.417
590.73	7.884
591.07	7.937
591.40	7.845
591.74	7.922
592.07	8.115
592.41	7.441
592.74	7.041
593.08	7.462
593.41	7.150
593.75	7.339
594.08	7.409
594.41	7.494
594.75	7.061
595.08	7.588
595.42	7.951
595.75	7.550
596.09	7.773
596.42	8.448
596.75	7.978
597.09	8.571
597.42	7.841
597.75	7.762
598.09	7.739
598.42	7.775
598.76	7.053
599.09	7.184
599.42	7.460
599.76	7.723
600.09	7.031
600.42	7.414
600.76	7.357
601.09	7.177
601.42	7.725
601.76	7.628
602.09	7.115
602.42	7.803
602.76	7.819
603.09	7.356
603.42	7.809
603.76	7.508
604.09	8.026
604.42	7.053
604.76	7.887
605.09	7.514
605.42	7.610
605.75	7.864
606.09	7.320
606.42	7.274
606.75	7.590
607.09	8.037
607.42	7.360
607.75	7.046
608.08	7.686
608.42	8.203
608.75	7.845
609.08	7.724
609.41	7.615
609.75	8.051
610.08	8.106
610.41	7.356
610.74	7.852
611.07	7.658
611.41	7.802
611.74	7.893
612.07	8.333
612.40	8.972
612.73	7.579
613.07	8.136
613.40	8.425
613.73	8.128
614.06	7.796
614.39	8.285
614.72	8.368
615.06	8.298
615.39	7.749
615.72	8.027
616.05	8.187
616.38	8.060
616.71	8.373
617.05	8.245
617.38	8.599
617.71	7.928
618.04	8.233
618.37	8.161
618.70	9.210
619.03	9.276
619.36	7.739
619.69	8.521
620.03	9.753
620.36	9.091
620.69	9.726
621.02	8.776
621.35	9.005
621.68	8.956
622.01	9.598
622.34	9.077
622.67	9.658
623.00	8.217
623.33	8.863
623.66	9.435
623.99	8.837
624.32	8.417
624.65	8.545
624.99	8.569
625.32	8.979
625.65	9.391
625.98	9.301
626.31	9.876
626.64	9.306
626.97	8.894
627.30	8.978
627.63	10.172
627.96	8.915
628.29	9.449
628.62	9.881
628.95	11.226
629.28	9.854
629.61	10.449
629.94	9.333
630.26	8.294
630.59	10.200
630.92	10.153
631.25	10.267
631.58	10.010
631.91	9.128
632.24	9.810
632.57	10.178
632.90	9.759
633.23	10.738
633.56	12.203
633.89	10.646
634.22	10.556
634.55	11.006
634.88	9.820
635.20	9.797
635.53	10.482
635.86	10.149
636.19	11.412
636.52	11.765
636.85	10.767
637.18	10.945
637.51	12.293
637.83	11.837
638.16	11.509
638.49	11.839
638.82	11.884
639.15	12.000
639.48	12.344
639.81	11.260
640.13	11.979
640.46	11.141
640.79	12.285
641.12	10.591
641.45	13.687
641.77	12.666
642.10	12.573
642.43	10.511
642.76	10.991
643.09	11.810
643.41	11.836
643.74	12.963
644.07	13.110
644.40	13.650
644.73	13.701
645.05	13.788
645.38	10.900
645.71	11.433
646.04	12.625
646.36	14.357
646.69	14.716
647.02	12.585
647.35	13.574
647.67	13.805
648.00	15.122
648.33	12.376
648.66	13.030
648.98	14.693
649.31	10.762
649.64	12.706
649.96	11.923
650.29	13.112
650.62	11.650
650.94	11.669
651.27	15.709
651.60	12.479
651.92	14.856
652.25	11.726
652.58	13.396
652.90	13.586
653.23	11.248
653.56	12.126
653.88	11.569
654.21	14.850
654.54	11.716
654.86	12.305
655.19	10.000
655.52	7.352
655.84	5.042
656.17	6.165
656.49	8.265
656.82	8.309
657.15	6.250
657.47	4.752
657.80	3.766
658.13	3.934
658.45	6.022
658.78	6.150
659.10	6.554
659.43	7.250
659.75	7.414
660.08	8.228
660.41	9.870
660.73	12.579
661.06	13.217
661.38	13.455
661.71	15.769
662.03	16.765
662.36	13.320
662.68	14.257
663.01	13.333
663.33	14.225
663.66	11.975
663.98	14.039
664.31	13.866
664.63	12.753
664.96	12.877
665.28	15.369
665.61	14.230
665.93	14.688
666.26	13.793
666.58	14.644
666.91	15.856
667.23	13.258
667.56	12.311
667.88	14.744
668.21	13.646
668.53	14.534
668.86	16.883
669.18	18.337
669.50	17.609
669.83	16.122
670.15	17.556
670.48	14.815
670.80	14.655
671.13	15.711
671.45	15.532
671.77	16.497
672.10	14.603
672.42	12.367
672.75	14.925
673.07	11.620
673.39	12.297
673.72	15.430
674.04	13.725
674.37	13.010
674.69	12.270
675.01	15.063
675.34	17.043
675.66	17.895
675.98	13.849
676.31	16.176
676.63	15.074
676.95	12.998
677.28	17.290
677.60	14.066
677.92	15.401
678.25	14.784
678.57	15.538
678.89	13.026
679.22	13.556
679.54	15.267
679.86	14.495
680.18	14.490
680.51	13.652
680.83	14.057
681.15	14.528
681.48	15.123
681.80	13.540
682.12	13.602
682.44	11.219
682.77	15.071
683.09	16.738
683.41	15.078
683.73	14.128
684.06	14.050
684.38	14.481
684.70	14.341
685.02	12.946
685.34	12.271
685.67	10.839
685.99	10.481
686.31	12.287
686.63	10.601
686.96	12.321
687.28	13.357
687.60	14.312
687.92	15.174
688.24	12.548
688.56	16.667
688.89	14.108
689.21	16.594
689.53	14.405
689.85	15.743
690.17	13.872
690.49	17.410
690.82	15.421
691.14	12.723
691.46	14.346
691.78	14.257
692.10	13.843
692.42	14.770
692.74	14.315
693.06	13.191
693.39	17.248
693.71	12.882
694.03	16.000
694.35	14.935
694.67	13.730
694.99	16.341
695.31	17.402
695.63	15.550
695.95	15.648
696.27	12.944
696.59	16.321
696.91	17.876
697.23	14.554
697.56	17.271
697.88	15.337
698.20	13.958
698.52	14.624
698.84	14.922
699.16	14.286
699.48	15.439
699.80	16.425
700.12	21.039
700.44	18.568
700.76	18.785
701.08	17.816
701.40	17.318
701.72	20.117
702.04	22.159
702.36	15.581
702.68	17.564
703.00	18.283
703.32	18.883
703.64	18.499
703.96	16.156
704.28	15.698
704.60	23.460
704.91	18.398
705.23	18.182
705.55	19.601
705.87	22.259
706.19	20.848
706.51	21.807
706.83	20.606
707.15	19.328
707.47	16.919
707.79	16.953
708.11	16.667
708.43	16.190
708.74	15.306
709.06	17.143
709.38	20.210
709.70	15.988
710.02	20.475
710.34	15.758
710.66	21.791
710.98	20.170
711.29	18.605
711.61	22.124
711.93	18.590
712.25	21.222
712.57	18.750
712.89	19.031
713.20	19.453
713.52	19.079
713.84	19.937
714.16	18.598
714.48	18.391
714.80	21.581
715.11	22.190
715.43	19.288
715.75	18.261
716.07	19.169
716.39	21.944
716.70	21.262
717.02	23.022
717.34	20.495
717.66	20.896
717.97	28.685
718.29	24.444
718.61	22.263
718.93	23.897
719.24	24.221
719.56	18.983
719.88	20.678
720.20	23.986
720.51	24.042
720.83	20.446
721.15	17.164
721.46	19.149
721.78	24.373
722.10	24.906
722.42	24.060
722.73	22.846
723.05	18.443
723.37	21.053
723.68	24.324
724.00	22.358
724.32	25.806
724.63	20.732
724.95	22.594
725.27	25.101
725.58	21.484
725.90	24.818
726.22	23.396
726.53	20.833
726.85	21.843
727.16	19.573
727.48	23.404
727.80	24.621
728.11	24.638
728.43	21.538
728.74	22.581
729.06	28.102
729.38	22.794
729.69	24.199
730.01	18.430
730.32	22.222
730.64	23.077
730.96	19.472
731.27	23.510
731.59	22.018
731.90	20.991
732.22	19.876
732.53	18.576
732.85	16.987
733.16	20.579
733.48	18.937
733.80	19.156
734.11	21.656
734.43	18.935
734.74	15.714
735.06	18.625
735.37	22.543
735.69	18.471
736.00	24.510
736.32	21.807
736.63	20.128
736.95	22.364
737.26	12.925
737.58	16.452
737.89	20.736
738.21	23.549
738.52	21.071
738.83	20.755
739.15	23.077
739.46	23.723
739.78	23.264
740.09	21.846
740.41	21.290
740.72	20.906
741.04	24.815
741.35	21.250
741.66	34.667
741.98	20.283
742.29	29.665
742.61	28.017
742.92	23.077
743.23	25.641
743.55	24.800
743.86	25.877
744.18	26.991
744.49	25.837
744.80	31.455
745.12	29.545
745.43	28.634
745.74	30.631
746.06	25.229
746.37	25.561
746.68	25.339
747.00	28.704
747.31	24.762
747.62	26.106
747.94	22.026
748.25	24.681
748.56	29.956
748.88	28.218
749.19	29.500
749.50	27.907
749.82	27.236
750.13	21.633
750.44	22.628
750.75	23.509
751.07	23.151
751.38	21.254
751.69	22.383
752.01	23.308
752.32	22.744
752.63	21.631
752.94	27.459
753.26	30.000
753.57	18.293
753.88	25.391
754.19	23.571
754.51	24.653
754.82	22.022
755.13	23.396
755.44	21.429
755.75	20.073
756.07	21.986
756.38	19.708
756.69	21.812
757.00	17.365
757.31	16.320
757.63	19.006
757.94	16.890
758.25	17.402
758.56	17.531
758.87	17.742
759.18	16.970
759.50	18.809
759.81	22.118
760.12	15.313
760.43	17.765
760.74	16.848
761.05	15.537
761.36	16.310
761.67	20.739
761.99	17.391
762.30	21.875
762.61	24.427
762.92	24.609
763.23	22.689
763.54	22.800
763.85	21.875
764.16	28.846
764.47	21.673
764.78	18.021
765.10	20.253
765.41	19.174
765.72	21.856
766.03	18.495
766.34	19.000
766.65	24.681
766.96	26.068
767.27	31.472
767.58	30.208
767.89	31.053
768.20	34.483
768.51	34.010
768.82	29.817
769.13	26.829
769.44	22.672
769.75	21.888
770.06	17.431
770.37	31.222
770.68	25.000
770.99	25.778
771.30	21.721
771.61	25.112
771.92	27.459
772.23	31.933
772.54	23.590
772.85	32.461
773.16	31.383
773.47	31.522
773.78	35.533
774.09	36.310
774.39	32.749
774.70	35.802
775.01	34.058
775.32	48.366
775.63	30.921
775.94	39.568
776.25	44.094
776.56	38.806
776.87	42.623
777.18	43.750
777.48	51.145
777.79	48.485
778.10	42.963
778.41	47.321
778.72	37.956
779.03	36.913
779.34	38.926
779.65	38.514
779.95	33.742
780.26	31.373
780.57	42.069
780.88	57.031
781.19	40.602
781.50	45.946
781.80	36.478
782.11	37.288
782.42	34.810
782.73	28.221
783.04	43.243
783.34	42.958
783.65	43.151
783.96	49.254
784.27	37.762
784.57	35.971
784.88	34.259
785.19	43.651
785.50	45.283
785.81	44.030
786.11	45.902
786.42	42.636
786.73	51.327
787.04	44.340
787.34	44.643
787.65	53.000
787.96	53.153
788.26	47.934
788.57	50.847
788.88	50.413
789.19	46.528
789.49	53.030
789.80	45.802
790.11	60.000
790.41	50.495
790.72	67.470
791.03	48.913
791.33	62.791
791.64	67.010
791.95	59.406
792.25	66.667
792.56	74.026
792.87	70.513
793.17	73.418
793.48	77.011
793.79	55.172
794.09	65.909
794.40	50.420
794.70	46.324
795.01	41.481
795.32	37.410
795.62	50.394
795.93	43.103
796.23	44.248
796.54	56.471
796.85	63.514
797.15	88.732
797.46	74.242
797.76	75.904
798.07	69.620
798.37	76.923
798.68	71.212
798.99	54.930
799.29	64.935
799.60	72.727
799.90	67.123
800.21	68.657
800.51	82.759
800.82	100.000
801.12	91.803
801.43	75.758
801.73	63.514
802.04	95.238
802.34	69.136
802.65	90.625
802.95	98.305
803.26	100.000
803.56	64.286
803.87	81.538
804.17	69.118
804.48	87.037
804.78	67.241
805.09	70.588
805.39	94.231
805.70	85.714
806.00	98.361
806.30	77.273
806.61	78.049
806.91	65.823
807.22	69.737
807.52	67.164
807.83	77.465
808.13	78.125
808.43	81.667
808.74	53.947
809.04	72.464
809.35	71.642
809.65	76.316
809.95	120.968
810.26	69.492
810.56	98.413
810.86	125.000
811.17	114.286
811.47	95.000
811.77	98.148
812.08	96.364
812.38	100.000
812.69	130.556
812.99	131.818
813.29	118.367
813.59	107.143
813.90	110.204
814.20	101.818
814.50	86.154
814.81	92.647
815.11	100.000
815.41	86.885
815.72	133.333
816.02	107.273
816.32	138.095
816.62	122.500
816.93	112.195
817.23	123.810
817.53	109.091
817.84	154.545
818.14	119.565
818.44	115.556
818.74	141.176
819.04	137.500
819.35	137.143
819.65	161.765
819.95	189.286
820.25	210.000
820.56	123.077
820.86	113.636
821.16	132.558
821.46	117.949
821.76	136.000
822.07	137.143
822.37	117.500
822.67	157.576
822.97	101.961
823.27	203.571
823.57	129.730
823.88	150.000
824.18	183.333
824.48	142.857
824.78	204.000
825.08	179.167
825.38	164.865
825.69	104.878
825.99	216.667
826.29	141.379
826.59	157.895
826.89	139.474
827.19	164.706
827.49	151.613
827.79	136.364
828.09	120.455
828.39	121.277
828.70	126.531
829.00	177.778
829.30	148.387
829.60	172.500
829.90	260.000
830.20	171.429
830.50	182.609
830.80	234.783
831.10	220.000
831.40	216.667
831.70	208.696
832.00	223.077
832.30	203.704
832.60	312.500
832.90	193.333
833.20	385.714
833.50	193.548
833.80	141.379
834.10	203.125
834.40	226.923
834.70	250.000
835.00	314.286
835.30	131.429
835.60	369.231
835.90	186.207
836.20	300.000
836.50	189.655
836.80	188.000
837.10	155.556
837.40	276.190
837.70	317.647
838.00	200.000
838.30	214.286
838.60	257.143
838.90	230.769
839.19	225.000
839.49	392.857
839.79	285.000
840.09	260.000
840.39	219.048
840.69	230.435
840.99	266.667
841.29	460.000
841.59	283.333
841.88	318.750
842.18	182.759
842.48	233.333
842.78	186.667
843.08	226.087
843.38	156.250
843.68	800.000
843.97	203.846
844.27	179.310
844.57	238.095
844.87	318.750
845.17	203.704
845.47	1433.333
845.76	433.333
846.06	258.824
846.36	575.000
846.66	314.286
846.96	231.250
847.25	409.091
847.55	372.727
847.85	226.087
848.15	510.000
848.44	350.000
848.74	211.111
849.04	300.000
849.34	540.000
849.63	231.579
849.93	418.182
850.23	1000.000
850.53	378.571
850.82	2350.000
851.12	-3100.000
851.42	3600.000
851.71	250.000
852.01	-1133.333
852.31	200.000
852.61	1800.000
852.90	285.714
853.20	184.000
853.50	317.647
853.79	252.381
854.09	183.333
854.39	306.250
854.68	154.054
854.98	148.387
855.28	176.667
855.57	186.207
855.87	196.296
856.17	184.211
856.46	240.000
856.76	276.471
857.05	210.345
857.35	212.500
857.65	353.333
857.94	230.435
858.24	250.000
858.53	290.000
858.83	236.364
859.13	300.000
859.42	0.000
859.72	500.000
860.01	436.364
860.31	222.727
860.60	289.474
860.90	247.826
861.20	500.000
861.49	458.333
861.79	-4500.000
862.08	612.500
862.38	261.905
862.67	292.308
862.97	329.412
863.26	511.111
863.56	255.556
863.85	350.000
864.15	625.000
864.44	426.667
864.74	783.333
865.03	612.500
865.33	268.421
865.62	436.364
865.92	407.692
866.21	358.333
866.51	0.000
866.80	381.818
867.10	1180.000
867.39	361.538
867.69	418.182
867.98	278.947
868.27	527.273
868.57	347.368
868.86	-4100.000
869.16	356.250
869.45	1700.000
869.75	-3000.000
870.04	400.000
870.33	657.143
870.63	650.000
870.92	1900.000
871.22	714.286
871.51	341.176
871.80	252.381
872.10	400.000
>>>>>End Processed Spectral Data<<<<<
