SpectraSuite Data File
++++++++++++++++++++++++++++++++++++
Date: Wed May 13 16:19:44 PDT 2015
User: schluterlab
Dark Spectrum Present: Yes
Reference Spectrum Present: Yes
Number of Sampled Component Spectra: 1
Spectrometers: USB2E3373
Integration Time (usec): 3000 (USB2E3373)
Spectra Averaged: 3 (USB2E3373)
Boxcar Smoothing: 0 (USB2E3373)
Correct for Electrical Dark: No (USB2E3373)
Strobe/Lamp Enabled: No (USB2E3373)
Correct for Detector Non-linearity: No (USB2E3373)
Correct for Stray Light: No (USB2E3373)
Number of Pixels in Processed Spectrum: 2048
>>>>>Begin Processed Spectral Data<<<<<
178.53	0.000
178.91	-1350.000
179.29	-1125.000
179.67	-150.000
180.04	-925.000
180.42	2150.000
180.80	780.000
181.18	-925.000
181.56	585.714
181.94	0.000
182.31	-557.143
182.69	1166.667
183.07	-587.500
183.45	-377.778
183.83	472.727
184.20	-340.000
184.58	2000.000
184.96	4800.000
185.34	-880.000
185.72	-500.000
186.09	-2100.000
186.47	2500.000
186.85	1650.000
187.23	4700.000
187.61	-1466.667
187.98	1100.000
188.36	490.909
188.74	427.273
189.12	-880.000
189.49	490.000
189.87	-3300.000
190.25	-1050.000
190.63	400.000
191.00	369.231
191.38	666.667
191.76	-900.000
192.14	1350.000
192.51	525.000
192.89	850.000
193.27	512.500
193.65	-925.000
194.02	490.000
194.40	700.000
194.78	470.000
195.15	500.000
195.53	520.000
195.91	-1850.000
196.29	275.000
196.66	294.737
197.04	-270.000
197.42	0.000
197.79	530.000
198.17	-3500.000
198.55	528.571
198.92	525.000
199.30	660.000
199.68	0.000
200.05	227.778
200.43	700.000
200.81	4600.000
201.18	1266.667
201.56	-1300.000
201.94	522.222
202.31	511.111
202.69	300.000
203.07	410.000
203.44	0.000
203.82	850.000
204.19	600.000
204.57	392.857
204.95	612.500
205.32	1400.000
205.70	445.455
206.08	400.000
206.45	2600.000
206.83	306.250
207.20	800.000
207.58	500.000
207.96	344.444
208.33	550.000
208.71	-650.000
209.08	671.429
209.46	522.222
209.84	418.182
210.21	-1233.333
210.59	1125.000
210.96	-412.500
211.34	1950.000
211.71	450.000
212.09	616.667
212.46	0.000
212.84	1200.000
213.22	1200.000
213.59	-4500.000
213.97	750.000
214.34	671.429
214.72	445.455
215.09	780.000
215.47	-1950.000
215.84	-2350.000
216.22	1166.667
216.59	357.143
216.97	1225.000
217.34	372.727
217.72	-683.333
218.09	0.000
218.47	-4700.000
218.84	533.333
219.22	571.429
219.59	1700.000
219.97	-457.143
220.34	860.000
220.72	-1633.333
221.09	421.429
221.47	1050.000
221.84	-800.000
222.22	0.000
222.59	1175.000
222.97	-2100.000
223.34	980.000
223.72	376.923
224.09	700.000
224.46	1750.000
224.84	-3600.000
225.21	-800.000
225.59	-4200.000
225.96	550.000
226.34	265.000
226.71	1750.000
227.08	662.500
227.46	520.000
227.83	-925.000
228.21	-2200.000
228.58	633.333
228.95	-2250.000
229.33	-2100.000
229.70	1600.000
230.08	685.714
230.45	-480.000
230.82	366.667
231.20	766.667
231.57	657.143
231.95	366.667
232.32	236.364
232.69	336.364
233.07	414.286
233.44	284.615
233.81	-1300.000
234.19	221.053
234.56	383.333
234.93	316.667
235.31	400.000
235.68	253.846
236.05	271.429
236.43	136.364
236.80	215.789
237.17	3600.000
237.55	209.524
237.92	182.143
238.29	200.000
238.67	151.613
239.04	148.276
239.41	108.333
239.79	100.000
240.16	111.905
240.53	97.727
240.91	86.275
241.28	94.000
241.65	66.000
242.02	72.464
242.40	59.677
242.77	65.000
243.14	47.312
243.51	43.820
243.89	50.588
244.26	42.222
244.63	50.538
245.00	36.170
245.38	44.554
245.75	38.318
246.12	31.193
246.49	39.416
246.87	45.600
247.24	40.769
247.61	32.857
247.98	30.719
248.36	29.730
248.73	23.567
249.10	28.025
249.47	25.424
249.84	31.016
250.22	27.807
250.59	26.627
250.96	25.758
251.33	26.066
251.70	25.248
252.08	22.857
252.45	21.525
252.82	17.391
253.19	18.723
253.56	19.608
253.94	21.162
254.31	24.609
254.68	22.692
255.05	16.605
255.42	13.415
255.79	18.750
256.16	19.856
256.54	12.367
256.91	19.929
257.28	14.748
257.65	21.122
258.02	18.944
258.39	15.142
258.76	16.388
259.14	15.774
259.51	15.805
259.88	14.596
260.25	18.127
260.62	14.740
260.99	16.149
261.36	17.718
261.73	14.613
262.10	14.244
262.47	17.746
262.85	14.206
263.22	11.966
263.59	13.960
263.96	12.363
264.33	17.232
264.70	14.211
265.07	15.601
265.44	14.899
265.81	10.706
266.18	13.317
266.55	12.439
266.92	13.022
267.29	13.194
267.66	12.615
268.03	13.636
268.40	14.252
268.77	12.649
269.14	11.937
269.51	16.479
269.88	12.821
270.25	13.093
270.62	13.258
270.99	14.194
271.36	15.021
271.73	11.682
272.10	12.826
272.47	11.828
272.84	13.420
273.21	12.579
273.58	9.389
273.95	10.692
274.32	11.777
274.69	13.276
275.06	11.220
275.43	12.128
275.80	11.022
276.17	11.202
276.54	15.177
276.91	11.067
277.28	9.766
277.65	13.153
278.02	12.008
278.39	13.477
278.76	12.364
279.13	11.887
279.50	11.359
279.87	11.355
280.23	10.778
280.60	12.379
280.97	11.275
281.34	10.265
281.71	10.909
282.08	11.324
282.45	9.818
282.82	12.789
283.19	8.200
283.56	10.000
283.92	10.660
284.29	9.877
284.66	8.893
285.03	10.850
285.40	9.859
285.77	9.091
286.14	9.326
286.51	10.833
286.87	9.915
287.24	11.726
287.61	9.149
287.98	10.390
288.35	10.301
288.72	8.723
289.08	11.268
289.45	8.731
289.82	10.569
290.19	9.576
290.56	7.351
290.93	8.912
291.29	8.129
291.66	9.292
292.03	11.773
292.40	9.985
292.77	9.172
293.13	8.507
293.50	8.309
293.87	8.741
294.24	8.296
294.60	7.278
294.97	8.866
295.34	10.578
295.71	9.801
296.08	6.553
296.44	8.528
296.81	8.983
297.18	9.350
297.55	6.860
297.91	8.443
298.28	10.174
298.65	9.269
299.02	9.881
299.38	8.101
299.75	6.199
300.12	7.024
300.48	8.000
300.85	8.138
301.22	6.369
301.59	6.944
301.95	8.312
302.32	7.959
302.69	10.036
303.05	7.758
303.42	7.654
303.79	8.494
304.15	6.876
304.52	7.416
304.89	7.085
305.25	6.148
305.62	8.720
305.99	7.674
306.35	7.159
306.72	7.399
307.09	7.214
307.45	8.671
307.82	6.585
308.19	8.720
308.55	8.306
308.92	7.841
309.29	7.920
309.65	7.529
310.02	8.668
310.38	7.742
310.75	6.969
311.12	7.369
311.48	6.897
311.85	8.071
312.22	7.804
312.58	7.069
312.95	8.448
313.31	7.282
313.68	8.004
314.05	9.961
314.41	8.342
314.78	7.654
315.14	7.646
315.51	8.342
315.87	9.010
316.24	7.547
316.61	8.090
316.97	7.534
317.34	7.045
317.70	7.744
318.07	7.892
318.43	7.339
318.80	9.560
319.16	7.533
319.53	8.349
319.89	7.905
320.26	8.600
320.62	9.226
320.99	9.596
321.35	8.687
321.72	9.138
322.08	9.181
322.45	9.154
322.81	9.109
323.18	9.345
323.54	8.905
323.91	8.962
324.27	9.082
324.64	8.015
325.00	8.386
325.37	8.644
325.73	11.041
326.10	9.356
326.46	7.796
326.83	9.318
327.19	9.906
327.56	7.927
327.92	9.274
328.29	10.293
328.65	9.761
329.01	9.838
329.38	8.233
329.74	8.864
330.11	8.200
330.47	9.458
330.84	10.478
331.20	9.107
331.56	9.633
331.93	9.074
332.29	9.228
332.66	9.558
333.02	9.689
333.38	10.027
333.75	9.537
334.11	10.231
334.48	9.583
334.84	9.926
335.20	9.091
335.57	8.885
335.93	7.768
336.29	9.158
336.66	8.656
337.02	8.235
337.38	9.537
337.75	8.556
338.11	8.953
338.47	8.195
338.84	9.716
339.20	7.890
339.56	9.124
339.93	8.818
340.29	8.514
340.65	8.556
341.02	9.424
341.38	8.541
341.74	8.684
342.11	9.170
342.47	8.811
342.83	8.990
343.20	8.918
343.56	8.677
343.92	8.421
344.28	9.609
344.65	9.114
345.01	8.502
345.37	7.461
345.73	8.714
346.10	8.781
346.46	8.390
346.82	9.226
347.19	8.020
347.55	9.524
347.91	8.981
348.27	8.874
348.63	8.110
349.00	8.981
349.36	8.210
349.72	8.741
350.08	9.157
350.45	8.706
350.81	8.936
351.17	8.671
351.53	9.091
351.89	8.581
352.26	8.761
352.62	8.741
352.98	8.752
353.34	8.628
353.70	7.692
354.07	8.548
354.43	9.286
354.79	8.206
355.15	8.380
355.51	9.832
355.87	8.898
356.24	8.306
356.60	8.661
356.96	8.769
357.32	8.831
357.68	8.661
358.04	9.026
358.40	9.818
358.77	9.077
359.13	8.603
359.49	8.706
359.85	8.016
360.21	8.852
360.57	9.183
360.93	9.308
361.29	8.919
361.66	7.585
362.02	9.627
362.38	9.202
362.74	9.077
363.10	7.920
363.46	9.024
363.82	8.390
364.18	8.737
364.54	9.510
364.90	9.348
365.26	8.456
365.62	8.473
365.98	7.816
366.35	7.736
366.71	8.821
367.07	7.939
367.43	8.491
367.79	9.279
368.15	9.555
368.51	8.648
368.87	9.136
369.23	8.925
369.59	8.762
369.95	8.529
370.31	8.547
370.67	8.406
371.03	9.663
371.39	9.548
371.75	8.529
372.11	9.246
372.47	9.604
372.83	10.159
373.19	8.382
373.55	8.647
373.91	9.573
374.27	9.416
374.63	8.800
374.99	8.828
375.35	9.351
375.71	9.253
376.07	10.151
376.42	9.697
376.78	9.410
377.14	9.159
377.50	10.000
377.86	9.043
378.22	9.166
378.58	8.459
378.94	9.742
379.30	8.715
379.66	10.533
380.02	9.889
380.38	8.440
380.74	9.664
381.09	9.597
381.45	9.650
381.81	10.995
382.17	10.127
382.53	8.931
382.89	10.988
383.25	9.694
383.61	9.665
383.97	9.506
384.32	10.231
384.68	9.913
385.04	10.203
385.40	9.969
385.76	10.319
386.12	10.039
386.48	11.139
386.83	10.904
387.19	10.451
387.55	10.575
387.91	10.459
388.27	9.381
388.62	11.186
388.98	10.074
389.34	11.014
389.70	10.546
390.06	10.837
390.42	10.506
390.77	10.878
391.13	10.913
391.49	10.279
391.85	10.821
392.20	10.410
392.56	10.227
392.92	10.359
393.28	9.882
393.64	10.612
393.99	11.301
394.35	10.794
394.71	11.104
395.07	10.654
395.42	10.445
395.78	11.069
396.14	11.421
396.50	11.967
396.85	11.252
397.21	10.419
397.57	10.911
397.92	11.118
398.28	10.202
398.64	10.454
399.00	11.416
399.35	10.491
399.71	10.880
400.07	10.645
400.42	11.227
400.78	11.460
401.14	10.610
401.49	11.463
401.85	10.405
402.21	10.599
402.57	10.734
402.92	10.340
403.28	11.056
403.63	11.696
403.99	10.446
404.35	11.152
404.70	10.612
405.06	11.299
405.42	10.356
405.77	10.629
406.13	10.722
406.49	10.763
406.84	11.636
407.20	10.816
407.55	10.785
407.91	10.867
408.27	10.466
408.62	10.897
408.98	10.662
409.34	10.763
409.69	11.419
410.05	11.276
410.40	10.336
410.76	11.051
411.11	10.676
411.47	10.351
411.83	10.996
412.18	11.255
412.54	11.208
412.89	12.410
413.25	11.216
413.60	11.118
413.96	11.233
414.31	11.118
414.67	10.710
415.03	11.325
415.38	12.049
415.74	10.611
416.09	12.149
416.45	11.312
416.80	11.236
417.16	11.997
417.51	11.612
417.87	10.597
418.22	11.356
418.58	11.943
418.93	10.811
419.29	10.503
419.64	12.091
420.00	10.976
420.35	11.246
420.71	11.297
421.06	11.277
421.42	11.520
421.77	10.930
422.12	10.556
422.48	10.038
422.83	11.124
423.19	11.492
423.54	10.737
423.90	11.594
424.25	10.664
424.61	10.893
424.96	10.554
425.31	11.185
425.67	10.562
426.02	11.314
426.38	10.379
426.73	11.176
427.09	10.638
427.44	10.868
427.79	10.811
428.15	11.726
428.50	11.469
428.85	11.561
429.21	11.044
429.56	10.886
429.92	10.518
430.27	10.973
430.62	10.753
430.98	10.794
431.33	10.773
431.68	10.890
432.04	10.596
432.39	11.365
432.74	10.952
433.10	10.809
433.45	11.079
433.80	10.310
434.16	10.791
434.51	10.842
434.86	11.117
435.22	10.951
435.57	10.638
435.92	11.059
436.28	10.439
436.63	11.755
436.98	10.876
437.34	11.151
437.69	11.494
438.04	10.624
438.39	11.582
438.75	10.691
439.10	11.061
439.45	11.275
439.81	11.299
440.16	9.994
440.51	11.306
440.86	11.754
441.22	10.901
441.57	11.146
441.92	10.645
442.27	11.195
442.63	9.847
442.98	11.268
443.33	10.978
443.68	10.583
444.03	10.688
444.39	10.370
444.74	11.093
445.09	11.321
445.44	10.716
445.79	10.787
446.15	11.593
446.50	11.255
446.85	10.329
447.20	10.454
447.55	10.944
447.91	10.811
448.26	10.907
448.61	11.419
448.96	11.739
449.31	11.192
449.66	11.536
450.02	10.474
450.37	11.451
450.72	11.224
451.07	10.360
451.42	10.517
451.77	10.570
452.12	11.490
452.47	11.754
452.83	11.422
453.18	10.575
453.53	11.503
453.88	11.045
454.23	11.715
454.58	11.629
454.93	11.570
455.28	11.409
455.63	11.104
455.98	11.488
456.34	10.992
456.69	10.708
457.04	11.331
457.39	11.514
457.74	10.737
458.09	11.386
458.44	10.661
458.79	10.358
459.14	11.625
459.49	10.917
459.84	11.579
460.19	10.077
460.54	10.590
460.89	11.135
461.24	11.415
461.59	11.737
461.94	10.419
462.29	11.395
462.64	11.104
462.99	11.256
463.34	11.800
463.69	11.257
464.04	10.841
464.39	11.246
464.74	10.458
465.09	11.158
465.44	10.748
465.79	10.235
466.14	10.892
466.49	10.901
466.84	10.917
467.19	11.648
467.54	11.812
467.89	10.804
468.24	11.227
468.59	11.661
468.94	11.240
469.29	10.797
469.64	12.584
469.99	11.908
470.34	11.625
470.68	11.422
471.03	11.905
471.38	11.814
471.73	11.392
472.08	11.908
472.43	11.558
472.78	10.731
473.13	10.847
473.48	11.548
473.83	10.976
474.17	10.641
474.52	11.911
474.87	10.975
475.22	11.259
475.57	10.317
475.92	10.781
476.27	10.767
476.61	11.418
476.96	10.775
477.31	10.832
477.66	10.832
478.01	10.925
478.36	11.052
478.70	10.540
479.05	11.395
479.40	10.747
479.75	10.625
480.10	10.338
480.45	10.519
480.79	10.033
481.14	10.616
481.49	10.584
481.84	10.745
482.19	10.541
482.53	10.459
482.88	10.982
483.23	10.654
483.58	10.464
483.92	10.637
484.27	10.240
484.62	10.000
484.97	10.367
485.31	10.479
485.66	9.022
486.01	8.456
486.36	8.282
486.70	8.236
487.05	8.773
487.40	8.810
487.75	9.200
488.09	9.463
488.44	9.873
488.79	9.946
489.13	10.084
489.48	9.951
489.83	9.668
490.17	10.478
490.52	10.275
490.87	10.131
491.22	10.323
491.56	9.704
491.91	10.423
492.26	10.243
492.60	10.323
492.95	10.103
493.30	10.187
493.64	9.706
493.99	9.935
494.34	10.870
494.68	10.394
495.03	9.821
495.37	10.470
495.72	10.331
496.07	10.441
496.41	10.088
496.76	10.070
497.11	10.131
497.45	9.176
497.80	10.269
498.14	10.145
498.49	10.146
498.84	10.307
499.18	9.810
499.53	10.256
499.87	10.158
500.22	10.127
500.56	10.534
500.91	10.000
501.26	10.194
501.60	10.441
501.95	9.899
502.29	10.684
502.64	10.009
502.98	9.584
503.33	9.598
503.67	9.652
504.02	10.009
504.36	10.154
504.71	10.650
505.06	10.554
505.40	10.452
505.75	9.981
506.09	9.621
506.44	9.916
506.78	9.888
507.13	10.449
507.47	10.354
507.82	10.993
508.16	10.537
508.51	10.452
508.85	9.682
509.19	10.816
509.54	11.071
509.88	10.149
510.23	10.848
510.57	10.733
510.92	10.150
511.26	10.740
511.61	10.581
511.95	9.551
512.30	10.233
512.64	9.995
512.98	10.932
513.33	11.563
513.67	10.566
514.02	10.335
514.36	10.486
514.70	10.957
515.05	9.872
515.39	10.768
515.74	10.867
516.08	11.627
516.42	10.877
516.77	11.538
517.11	10.211
517.46	11.512
517.80	10.859
518.14	10.539
518.49	11.260
518.83	10.170
519.17	10.624
519.52	11.205
519.86	11.238
520.20	11.098
520.55	11.191
520.89	11.253
521.23	11.821
521.58	11.465
521.92	10.778
522.26	11.409
522.61	11.589
522.95	11.479
523.29	10.164
523.64	11.220
523.98	10.290
524.32	11.460
524.66	11.846
525.01	10.478
525.35	10.781
525.69	11.145
526.04	10.343
526.38	10.860
526.72	11.043
527.06	11.551
527.41	9.839
527.75	11.125
528.09	11.368
528.43	10.707
528.78	10.817
529.12	10.788
529.46	11.819
529.80	11.572
530.15	11.526
530.49	10.892
530.83	11.139
531.17	11.619
531.51	11.803
531.86	11.097
532.20	11.930
532.54	11.531
532.88	12.003
533.22	10.493
533.57	11.296
533.91	10.897
534.25	10.875
534.59	10.616
534.93	11.124
535.27	10.742
535.62	11.538
535.96	11.425
536.30	11.380
536.64	11.912
536.98	11.015
537.32	11.257
537.66	11.667
538.01	11.192
538.35	11.571
538.69	11.742
539.03	10.201
539.37	10.160
539.71	9.462
540.05	10.523
540.39	11.229
540.73	10.737
541.07	12.395
541.42	10.959
541.76	11.742
542.10	10.608
542.44	10.795
542.78	11.397
543.12	11.260
543.46	10.557
543.80	11.646
544.14	10.077
544.48	11.048
544.82	10.520
545.16	11.516
545.50	10.411
545.84	9.543
546.18	10.909
546.52	11.425
546.86	11.203
547.20	11.126
547.54	11.089
547.88	11.607
548.22	11.083
548.56	11.447
548.90	10.243
549.24	10.707
549.58	10.982
549.92	11.058
550.26	11.222
550.60	10.996
550.94	10.423
551.28	10.315
551.62	11.718
551.96	10.877
552.30	11.468
552.64	10.953
552.98	11.186
553.32	11.800
553.66	11.929
554.00	11.256
554.34	10.076
554.68	12.232
555.02	10.649
555.36	11.413
555.69	10.758
556.03	10.902
556.37	11.596
556.71	10.641
557.05	10.014
557.39	10.847
557.73	11.150
558.07	11.240
558.41	11.360
558.75	11.242
559.08	12.155
559.42	10.582
559.76	11.618
560.10	11.706
560.44	11.251
560.78	9.980
561.12	10.950
561.45	11.473
561.79	10.415
562.13	10.396
562.47	11.680
562.81	10.739
563.15	11.304
563.48	11.008
563.82	10.502
564.16	10.661
564.50	9.635
564.84	10.746
565.17	10.039
565.51	10.863
565.85	10.660
566.19	11.209
566.52	10.386
566.86	10.307
567.20	10.495
567.54	10.217
567.88	9.886
568.21	10.952
568.55	9.403
568.89	9.047
569.23	9.002
569.56	9.352
569.90	8.830
570.24	8.540
570.57	8.739
570.91	8.436
571.25	8.740
571.59	8.542
571.92	8.497
572.26	8.463
572.60	8.378
572.93	8.756
573.27	8.814
573.61	8.766
573.95	8.191
574.28	8.116
574.62	8.358
574.96	7.981
575.29	7.759
575.63	8.308
575.97	7.967
576.30	8.099
576.64	8.137
576.98	8.070
577.31	7.602
577.65	7.752
577.98	7.760
578.32	7.585
578.66	7.987
578.99	7.806
579.33	7.771
579.67	7.760
580.00	8.032
580.34	8.045
580.67	7.918
581.01	8.230
581.35	7.670
581.68	7.402
582.02	7.242
582.35	7.450
582.69	7.826
583.02	7.491
583.36	8.185
583.70	8.167
584.03	8.150
584.37	8.748
584.70	7.941
585.04	8.293
585.37	8.108
585.71	8.271
586.04	8.287
586.38	7.837
586.72	8.230
587.05	8.313
587.39	7.863
587.72	8.142
588.06	8.111
588.39	8.752
588.73	8.360
589.06	8.881
589.40	8.788
589.73	8.729
590.07	9.004
590.40	8.148
590.73	8.665
591.07	9.280
591.40	9.911
591.74	9.221
592.07	8.901
592.41	9.301
592.74	8.502
593.08	8.361
593.41	8.478
593.75	7.901
594.08	8.314
594.41	9.332
594.75	8.207
595.08	8.697
595.42	8.441
595.75	8.440
596.09	8.975
596.42	9.273
596.75	8.653
597.09	9.437
597.42	8.516
597.75	8.624
598.09	8.957
598.42	8.677
598.76	8.350
599.09	8.514
599.42	8.079
599.76	8.748
600.09	7.905
600.42	8.510
600.76	8.500
601.09	8.962
601.42	8.409
601.76	8.273
602.09	8.498
602.42	9.275
602.76	9.109
603.09	9.245
603.42	8.708
603.76	8.384
604.09	8.492
604.42	8.398
604.76	9.110
605.09	8.781
605.42	8.893
605.75	9.230
606.09	8.337
606.42	8.418
606.75	8.917
607.09	9.167
607.42	8.644
607.75	8.692
608.08	8.467
608.42	9.009
608.75	9.062
609.08	8.094
609.41	9.472
609.75	8.576
610.08	9.614
610.41	8.566
610.74	8.893
611.07	8.597
611.41	9.666
611.74	9.452
612.07	9.420
612.40	9.549
612.73	9.579
613.07	9.483
613.40	9.742
613.73	9.649
614.06	9.086
614.39	9.229
614.72	9.316
615.06	10.084
615.39	9.713
615.72	9.560
616.05	8.931
616.38	9.672
616.71	9.620
617.05	9.894
617.38	9.381
617.71	9.249
618.04	9.135
618.37	9.403
618.70	10.392
619.03	10.855
619.36	10.115
619.69	9.930
620.03	10.852
620.36	10.294
620.69	10.685
621.02	10.841
621.35	9.475
621.68	10.514
622.01	10.449
622.34	10.666
622.67	10.266
623.00	10.492
623.33	10.079
623.66	10.436
623.99	9.720
624.32	9.629
624.65	9.816
624.99	10.127
625.32	9.486
625.65	10.819
625.98	10.300
626.31	11.353
626.64	11.673
626.97	10.308
627.30	9.892
627.63	11.731
627.96	11.438
628.29	10.761
628.62	11.619
628.95	12.642
629.28	11.953
629.61	12.282
629.94	11.905
630.26	10.582
630.59	10.963
630.92	12.165
631.25	11.550
631.58	10.811
631.91	10.649
632.24	11.392
632.57	12.067
632.90	11.842
633.23	12.864
633.56	12.090
633.89	13.024
634.22	12.145
634.55	13.254
634.88	12.575
635.20	13.978
635.53	13.855
635.86	11.139
636.19	12.235
636.52	11.534
636.85	13.517
637.18	11.636
637.51	13.002
637.83	9.494
638.16	13.683
638.49	12.343
638.82	13.654
639.15	12.750
639.48	14.838
639.81	13.673
640.13	14.453
640.46	15.302
640.79	13.606
641.12	12.242
641.45	13.128
641.77	13.402
642.10	14.035
642.43	12.162
642.76	14.241
643.09	15.798
643.41	13.505
643.74	14.815
644.07	13.110
644.40	14.417
644.73	16.535
645.05	14.422
645.38	12.322
645.71	15.137
646.04	13.455
646.36	14.691
646.69	13.712
647.02	15.136
647.35	15.808
647.67	15.575
648.00	15.122
648.33	12.706
648.66	12.879
648.98	13.643
649.31	12.855
649.64	14.499
649.96	14.456
650.29	14.692
650.62	13.592
650.94	14.425
651.27	16.723
651.60	14.642
651.92	14.058
652.25	12.541
652.58	14.642
652.90	15.482
653.23	12.481
653.56	14.173
653.88	13.788
654.21	15.324
654.54	14.686
654.86	14.642
655.19	12.703
655.52	7.591
655.84	5.338
656.17	6.716
656.49	9.147
656.82	9.430
657.15	7.310
657.47	5.694
657.80	4.572
658.13	4.732
658.45	7.219
658.78	7.490
659.10	7.928
659.43	9.020
659.75	9.469
660.08	10.443
660.41	12.849
660.73	14.740
661.06	13.376
661.38	15.636
661.71	15.769
662.03	18.540
662.36	14.911
662.68	15.060
663.01	15.152
663.33	15.711
663.66	17.437
663.98	15.983
664.31	15.336
664.63	16.194
664.96	12.877
665.28	15.574
665.61	15.984
665.93	14.085
666.26	15.822
666.58	16.318
666.91	17.759
667.23	17.978
667.56	15.119
667.88	16.667
668.21	16.844
668.53	15.401
668.86	17.965
669.18	17.484
669.50	16.739
669.83	19.172
670.15	16.444
670.48	16.122
670.80	15.517
671.13	15.499
671.45	17.234
671.77	14.460
672.10	17.006
672.42	13.781
672.75	14.925
673.07	14.085
673.39	14.286
673.72	12.500
674.04	13.529
674.37	15.146
674.69	13.906
675.01	17.992
675.34	19.097
675.66	20.842
675.98	16.293
676.31	17.437
676.63	17.410
676.95	15.304
677.28	17.056
677.60	16.044
677.92	19.620
678.25	18.686
678.57	14.542
678.89	14.429
679.22	15.324
679.54	15.267
679.86	15.963
680.18	14.490
680.51	16.135
680.83	16.370
681.15	16.604
681.48	16.446
681.80	15.087
682.12	15.517
682.44	14.120
682.77	15.071
683.09	19.313
683.41	15.078
683.73	18.985
684.06	17.562
684.38	16.830
684.70	15.310
685.02	16.135
685.34	14.469
685.67	12.937
685.99	12.199
686.31	15.017
686.63	13.428
686.96	14.464
687.28	16.065
687.60	13.587
687.92	14.991
688.24	15.779
688.56	16.867
688.89	14.938
689.21	16.157
689.53	17.745
689.85	16.630
690.17	13.872
690.49	18.259
690.82	14.019
691.14	15.848
691.46	17.722
691.78	16.265
692.10	16.322
692.42	16.766
692.74	15.768
693.06	16.170
693.39	17.454
693.71	15.939
694.03	18.737
694.35	15.152
694.67	15.332
694.99	17.805
695.31	15.686
695.63	17.943
695.95	15.648
696.27	12.437
696.59	17.358
696.91	18.394
697.23	14.789
697.56	16.418
697.88	12.883
698.20	13.333
698.52	16.774
698.84	17.372
699.16	16.129
699.48	14.014
699.80	15.700
700.12	22.338
700.44	14.589
700.76	19.613
701.08	17.241
701.40	19.274
701.72	21.866
702.04	22.727
702.36	17.847
702.68	19.263
703.00	19.391
703.32	15.691
703.64	15.818
703.96	16.992
704.28	16.860
704.60	20.821
704.91	22.849
705.23	22.581
705.55	17.940
705.87	25.914
706.19	18.375
706.51	19.938
706.83	21.212
707.15	20.728
707.47	17.677
707.79	18.182
708.11	17.123
708.43	16.190
708.74	16.071
709.06	18.701
709.38	18.635
709.70	18.895
710.02	18.694
710.34	19.394
710.66	20.000
710.98	21.307
711.29	19.477
711.61	22.419
711.93	20.192
712.25	23.151
712.57	22.426
712.89	22.837
713.20	20.973
713.52	20.066
713.84	23.101
714.16	21.951
714.48	18.678
714.80	24.924
715.11	18.156
715.43	15.134
715.75	19.710
716.07	19.808
716.39	18.809
716.70	20.930
717.02	22.302
717.34	16.608
717.66	25.000
717.97	23.904
718.29	21.481
718.61	22.628
718.93	23.162
719.24	22.837
719.56	20.000
719.88	21.695
720.20	21.622
720.51	19.164
720.83	24.907
721.15	21.269
721.46	21.631
721.78	25.448
722.10	26.792
722.42	25.940
722.73	21.348
723.05	22.541
723.37	21.862
723.68	25.483
724.00	22.358
724.32	19.355
724.63	21.545
724.95	22.176
725.27	25.911
725.58	21.875
725.90	23.723
726.22	24.528
726.53	22.917
726.85	23.549
727.16	22.420
727.48	22.695
727.80	21.591
728.11	22.826
728.43	19.231
728.74	23.297
729.06	26.277
729.38	26.471
729.69	22.420
730.01	18.089
730.32	18.403
730.64	22.074
730.96	13.861
731.27	22.185
731.59	18.349
731.90	20.991
732.22	19.876
732.53	18.885
732.85	20.833
733.16	18.650
733.48	21.595
733.80	18.831
734.11	22.611
734.43	20.414
734.74	19.714
735.06	17.479
735.37	21.965
735.69	18.471
736.00	23.203
736.32	24.299
736.63	15.655
736.95	20.447
737.26	12.925
737.58	18.710
737.89	23.077
738.21	20.819
738.52	18.929
738.83	21.132
739.15	21.923
739.46	24.818
739.78	19.444
740.09	23.385
740.41	28.065
740.72	18.118
741.04	21.481
741.35	24.583
741.66	23.556
741.98	21.226
742.29	29.187
742.61	29.741
742.92	22.172
743.23	19.231
743.55	24.800
743.86	23.684
744.18	30.531
744.49	27.751
744.80	27.230
745.12	29.545
745.43	24.670
745.74	27.928
746.06	27.523
746.37	27.803
746.68	29.864
747.00	27.315
747.31	26.190
747.62	22.566
747.94	25.991
748.25	22.979
748.56	25.991
748.88	23.762
749.19	27.500
749.50	27.907
749.82	25.203
750.13	26.122
750.44	24.818
750.75	21.053
751.07	26.367
751.38	19.861
751.69	22.022
752.01	20.301
752.32	17.329
752.63	21.277
752.94	20.902
753.26	28.800
753.57	25.203
753.88	23.437
754.19	22.500
754.51	22.917
754.82	19.134
755.13	19.245
755.44	21.805
755.75	23.358
756.07	18.085
756.38	15.328
756.69	22.483
757.00	19.760
757.31	17.211
757.63	16.374
757.94	18.767
758.25	17.157
758.56	17.037
758.87	17.473
759.18	17.273
759.50	16.614
759.81	19.938
760.12	17.812
760.43	20.630
760.74	17.391
761.05	22.316
761.36	18.182
761.67	19.034
761.99	19.565
762.30	24.306
762.61	25.954
762.92	21.484
763.23	25.210
763.54	27.200
763.85	19.531
764.16	19.615
764.47	24.715
764.78	20.848
765.10	18.038
765.41	18.879
765.72	19.461
766.03	19.436
766.34	20.000
766.65	26.383
766.96	24.786
767.27	27.919
767.58	32.812
767.89	31.053
768.20	36.207
768.51	19.797
768.82	30.734
769.13	27.642
769.44	25.101
769.75	24.034
770.06	19.266
770.37	25.792
770.68	25.926
770.99	24.000
771.30	21.311
771.61	24.664
771.92	29.098
772.23	26.891
772.54	24.103
772.85	32.461
773.16	31.915
773.47	33.696
773.78	28.934
774.09	22.619
774.39	32.164
774.70	33.333
775.01	41.304
775.32	33.333
775.63	36.184
775.94	35.971
776.25	36.220
776.56	38.060
776.87	47.541
777.18	39.062
777.48	39.695
777.79	37.879
778.10	37.037
778.41	36.607
778.72	37.956
779.03	36.242
779.34	28.859
779.65	31.081
779.95	26.994
780.26	37.255
780.57	44.138
780.88	40.625
781.19	36.090
781.50	37.162
781.80	33.333
782.11	27.684
782.42	32.278
782.73	32.515
783.04	35.811
783.34	30.986
783.65	44.521
783.96	40.299
784.27	32.168
784.57	24.460
784.88	32.407
785.19	49.206
785.50	39.623
785.81	44.776
786.11	44.262
786.42	39.535
786.73	43.363
787.04	43.396
787.34	50.893
787.65	47.000
787.96	46.847
788.26	42.149
788.57	44.915
788.88	47.934
789.19	37.500
789.49	44.697
789.80	41.985
790.11	46.667
790.41	58.416
790.72	60.241
791.03	45.652
791.33	54.651
791.64	51.546
791.95	47.525
792.25	62.222
792.56	55.844
792.87	53.846
793.17	63.291
793.48	55.172
793.79	48.276
794.09	46.591
794.40	34.454
794.70	39.706
795.01	29.630
795.32	35.971
795.62	40.157
795.93	44.828
796.23	47.788
796.54	50.588
796.85	64.865
797.15	74.648
797.46	65.152
797.76	66.265
798.07	55.696
798.37	60.000
798.68	57.576
798.99	61.972
799.29	66.234
799.60	57.955
799.90	67.123
800.21	74.627
800.51	65.517
800.82	77.193
801.12	68.852
801.43	75.758
801.73	56.757
802.04	71.429
802.34	58.025
802.65	73.438
802.95	84.746
803.26	84.375
803.56	77.143
803.87	61.538
804.17	75.000
804.48	85.185
804.78	77.586
805.09	73.529
805.39	75.000
805.70	75.000
806.00	77.049
806.30	84.848
806.61	63.415
806.91	48.101
807.22	63.158
807.52	49.254
807.83	71.831
808.13	75.000
808.43	70.000
808.74	55.263
809.04	81.159
809.35	65.672
809.65	71.053
809.95	98.387
810.26	71.186
810.56	74.603
810.86	90.909
811.17	104.762
811.47	95.000
811.77	77.778
812.08	83.636
812.38	106.000
812.69	105.556
812.99	129.545
813.29	87.755
813.59	76.190
813.90	110.204
814.20	67.273
814.50	78.462
814.81	55.882
815.11	89.796
815.41	73.770
815.72	111.905
816.02	94.545
816.32	130.952
816.62	107.500
816.93	107.317
817.23	119.048
817.53	113.636
817.84	145.455
818.14	91.304
818.44	104.444
818.74	129.412
819.04	97.500
819.35	114.286
819.65	111.765
819.95	128.571
820.25	150.000
820.56	141.026
820.86	120.455
821.16	104.651
821.46	100.000
821.76	120.000
822.07	100.000
822.37	120.000
822.67	112.121
822.97	98.039
823.27	171.429
823.57	137.838
823.88	145.000
824.18	156.667
824.48	121.429
824.78	148.000
825.08	150.000
825.38	135.135
825.69	112.195
825.99	166.667
826.29	103.448
826.59	147.368
826.89	97.368
827.19	147.059
827.49	125.806
827.79	127.273
828.09	111.364
828.39	95.745
828.70	106.122
829.00	155.556
829.30	125.806
829.60	125.000
829.90	206.667
830.20	142.857
830.50	182.609
830.80	195.652
831.10	173.333
831.40	163.333
831.70	152.174
832.00	184.615
832.30	125.926
832.60	225.000
832.90	183.333
833.20	271.429
833.50	138.710
833.80	189.655
834.10	156.250
834.40	176.923
834.70	183.333
835.00	242.857
835.30	168.571
835.60	246.154
835.90	151.724
836.20	300.000
836.50	168.966
836.80	168.000
837.10	127.778
837.40	190.476
837.70	211.765
838.00	162.963
838.30	123.810
838.60	228.571
838.90	200.000
839.19	215.000
839.49	307.143
839.79	265.000
840.09	215.000
840.39	171.429
840.69	221.739
840.99	211.111
841.29	360.000
841.59	233.333
841.88	268.750
842.18	179.310
842.48	219.048
842.78	173.333
843.08	226.087
843.38	128.125
843.68	783.333
843.97	188.462
844.27	162.069
844.57	271.429
844.87	337.500
845.17	200.000
845.47	1133.333
845.76	411.111
846.06	252.941
846.36	412.500
846.66	335.714
846.96	212.500
847.25	263.636
847.55	390.909
847.85	234.783
848.15	520.000
848.44	221.429
848.74	238.889
849.04	211.765
849.34	480.000
849.63	226.316
849.93	390.909
850.23	740.000
850.53	285.714
850.82	1750.000
851.12	-3200.000
851.42	3700.000
851.71	200.000
852.01	-1000.000
852.31	195.833
852.61	1466.667
852.90	185.714
853.20	208.000
853.50	241.176
853.79	238.095
854.09	212.500
854.39	268.750
854.68	143.243
854.98	177.419
855.28	150.000
855.57	186.207
855.87	196.296
856.17	163.158
856.46	140.000
856.76	252.941
857.05	151.724
857.35	166.667
857.65	266.667
857.94	226.087
858.24	207.692
858.53	195.000
858.83	195.455
859.13	353.333
859.42	0.000
859.72	377.778
860.01	418.182
860.31	200.000
860.60	215.789
860.90	191.304
861.20	466.667
861.49	441.667
861.79	-3600.000
862.08	587.500
862.38	304.762
862.67	307.692
862.97	305.882
863.26	500.000
863.56	244.444
863.85	375.000
864.15	525.000
864.44	280.000
864.74	716.667
865.03	575.000
865.33	215.789
865.62	354.545
865.92	384.615
866.21	383.333
866.51	0.000
866.80	363.636
867.10	660.000
867.39	384.615
867.69	409.091
867.98	226.316
868.27	381.818
868.57	231.579
868.86	-3000.000
869.16	293.750
869.45	1750.000
869.75	-3300.000
870.04	366.667
870.33	600.000
870.63	900.000
870.92	1900.000
871.22	585.714
871.51	288.235
871.80	247.619
872.10	292.857
>>>>>End Processed Spectral Data<<<<<
