SpectraSuite Data File
++++++++++++++++++++++++++++++++++++
Date: Wed May 13 16:30:53 PDT 2015
User: schluterlab
Dark Spectrum Present: Yes
Reference Spectrum Present: Yes
Number of Sampled Component Spectra: 1
Spectrometers: USB2E3373
Integration Time (usec): 3000 (USB2E3373)
Spectra Averaged: 3 (USB2E3373)
Boxcar Smoothing: 0 (USB2E3373)
Correct for Electrical Dark: No (USB2E3373)
Strobe/Lamp Enabled: No (USB2E3373)
Correct for Detector Non-linearity: No (USB2E3373)
Correct for Stray Light: No (USB2E3373)
Number of Pixels in Processed Spectrum: 2048
>>>>>Begin Processed Spectral Data<<<<<
178.53	0.000
178.91	-1375.000
179.29	-1375.000
179.67	-244.444
180.04	-1150.000
180.42	2400.000
180.80	880.000
181.18	-1100.000
181.56	442.857
181.94	0.000
182.31	-528.571
182.69	1800.000
183.07	-525.000
183.45	-388.889
183.83	390.909
184.20	-340.000
184.58	2300.000
184.96	4800.000
185.34	-880.000
185.72	-600.000
186.09	-2400.000
186.47	2150.000
186.85	2550.000
187.23	3800.000
187.61	-1833.333
187.98	1025.000
188.36	454.545
188.74	418.182
189.12	-820.000
189.49	550.000
189.87	-4500.000
190.25	-1100.000
190.63	385.714
191.00	361.538
191.38	933.333
191.76	-1100.000
192.14	1250.000
192.51	550.000
192.89	1000.000
193.27	637.500
193.65	-1100.000
194.02	550.000
194.40	780.000
194.78	520.000
195.15	450.000
195.53	570.000
195.91	-1650.000
196.29	318.750
196.66	315.789
197.04	-240.000
197.42	0.000
197.79	550.000
198.17	-4900.000
198.55	685.714
198.92	650.000
199.30	860.000
199.68	0.000
200.05	294.444
200.43	571.429
200.81	4000.000
201.18	1800.000
201.56	-1400.000
201.94	533.333
202.31	644.444
202.69	350.000
203.07	520.000
203.44	0.000
203.82	1050.000
204.19	642.857
204.57	428.571
204.95	612.500
205.32	1200.000
205.70	509.091
206.08	321.429
206.45	2400.000
206.83	318.750
207.20	850.000
207.58	700.000
207.96	300.000
208.33	700.000
208.71	-866.667
209.08	500.000
209.46	633.333
209.84	454.545
210.21	-1433.333
210.59	1200.000
210.96	-362.500
211.34	2300.000
211.71	610.000
212.09	600.000
212.46	0.000
212.84	1200.000
213.22	1100.000
213.59	-3400.000
213.97	750.000
214.34	528.571
214.72	518.182
215.09	940.000
215.47	-1300.000
215.84	-1900.000
216.22	2033.333
216.59	292.857
216.97	1200.000
217.34	481.818
217.72	-750.000
218.09	0.000
218.47	-4500.000
218.84	677.778
219.22	671.429
219.59	1600.000
219.97	-471.429
220.34	780.000
220.72	-1566.667
221.09	364.286
221.47	1325.000
221.84	-783.333
222.22	0.000
222.59	1300.000
222.97	-2000.000
223.34	1020.000
223.72	392.308
224.09	1080.000
224.46	1850.000
224.84	-3400.000
225.21	-960.000
225.59	-4000.000
225.96	510.000
226.34	255.000
226.71	2100.000
227.08	625.000
227.46	410.000
227.83	-1025.000
228.21	-1850.000
228.58	588.889
228.95	-1950.000
229.33	-2400.000
229.70	1533.333
230.08	671.429
230.45	-620.000
230.82	450.000
231.20	850.000
231.57	600.000
231.95	383.333
232.32	222.727
232.69	345.455
233.07	485.714
233.44	323.077
233.81	-1666.667
234.19	252.632
234.56	350.000
234.93	416.667
235.31	381.818
235.68	276.923
236.05	300.000
236.43	172.727
236.80	194.737
237.17	3700.000
237.55	209.524
237.92	200.000
238.29	200.000
238.67	154.839
239.04	196.552
239.41	122.222
239.79	106.522
240.16	114.286
240.53	97.727
240.91	78.431
241.28	96.000
241.65	76.000
242.02	69.565
242.40	58.065
242.77	66.667
243.14	56.989
243.51	51.685
243.89	56.471
244.26	45.556
244.63	51.613
245.00	41.489
245.38	36.634
245.75	53.271
246.12	32.110
246.49	40.876
246.87	39.200
247.24	39.231
247.61	32.857
247.98	37.908
248.36	27.027
248.73	21.656
249.10	35.032
249.47	27.684
249.84	22.995
250.22	29.412
250.59	27.219
250.96	24.747
251.33	23.697
251.70	24.752
252.08	25.238
252.45	22.870
252.82	20.870
253.19	22.128
253.56	21.569
253.94	25.311
254.31	19.922
254.68	19.615
255.05	16.236
255.42	17.073
255.79	18.015
256.16	21.300
256.54	16.254
256.91	20.285
257.28	13.309
257.65	17.492
258.02	14.286
258.39	20.189
258.76	13.378
259.14	19.048
259.51	14.286
259.88	13.043
260.25	16.616
260.62	12.139
260.99	13.665
261.36	13.814
261.73	12.321
262.10	15.698
262.47	16.901
262.85	12.535
263.22	9.402
263.59	15.670
263.96	10.440
264.33	12.533
264.70	10.789
265.07	15.090
265.44	13.889
265.81	11.679
266.18	13.065
266.55	12.683
266.92	11.794
267.29	12.963
267.66	11.697
268.03	12.273
268.40	11.682
268.77	10.740
269.14	10.360
269.51	11.964
269.88	13.054
270.25	11.964
270.62	12.135
270.99	13.548
271.36	9.657
271.73	7.944
272.10	12.174
272.47	11.183
272.84	14.069
273.21	11.950
273.58	11.354
273.95	9.224
274.32	11.364
274.69	11.563
275.06	10.039
275.43	10.213
275.80	10.822
276.17	11.202
276.54	11.850
276.91	10.870
277.28	9.180
277.65	10.832
278.02	9.938
278.39	13.281
278.76	12.727
279.13	9.811
279.50	11.732
279.87	10.359
280.23	10.978
280.60	9.284
280.97	10.721
281.34	9.912
281.71	8.545
282.08	9.021
282.45	9.636
282.82	10.124
283.19	7.308
283.56	7.895
283.92	9.137
284.29	8.818
284.66	8.711
285.03	8.861
285.40	9.859
285.77	8.586
286.14	7.254
286.51	9.833
286.87	9.231
287.24	9.121
287.61	11.396
287.98	8.929
288.35	7.924
288.72	7.944
289.08	8.920
289.45	9.720
289.82	10.244
290.19	8.163
290.56	8.882
290.93	7.251
291.29	7.975
291.66	7.817
292.03	10.320
292.40	9.838
292.77	6.953
293.13	10.000
293.50	9.913
293.87	8.741
294.24	8.148
294.60	7.715
294.97	9.448
295.34	9.309
295.71	8.239
296.08	8.405
296.44	8.253
296.81	8.587
297.18	9.214
297.55	5.409
297.91	7.916
298.28	7.497
298.65	9.399
299.02	9.091
299.38	6.906
299.75	6.334
300.12	7.535
300.48	10.000
300.85	8.878
301.22	9.427
301.59	8.965
301.95	10.076
302.32	9.499
302.69	9.080
303.05	9.939
303.42	9.383
303.79	10.532
304.15	8.858
304.52	8.575
304.89	10.221
305.25	9.745
305.62	10.419
305.99	10.272
306.35	10.179
306.72	9.978
307.09	11.432
307.45	12.838
307.82	10.379
308.19	10.927
308.55	11.111
308.92	11.493
309.29	11.510
309.65	10.604
310.02	12.579
310.38	11.935
310.75	11.193
311.12	12.999
311.48	12.748
311.85	14.361
312.22	12.903
312.58	12.266
312.95	13.728
313.31	11.942
313.68	14.449
314.05	14.892
314.41	13.869
314.78	14.300
315.14	14.300
315.51	14.109
315.87	14.554
316.24	15.392
316.61	15.400
316.97	14.971
317.34	15.362
317.70	16.826
318.07	16.458
318.43	16.830
318.80	16.870
319.16	17.608
319.53	17.917
319.89	19.524
320.26	19.800
320.62	19.345
320.99	20.202
321.35	19.394
321.72	20.021
322.08	21.422
322.45	23.184
322.81	21.996
323.18	22.832
323.54	23.377
323.91	24.811
324.27	26.195
324.64	25.349
325.00	25.879
325.37	28.025
325.73	29.354
326.10	29.656
326.46	30.466
326.83	30.544
327.19	31.768
327.56	32.056
327.92	32.808
328.29	32.919
328.65	33.886
329.01	35.199
329.38	35.985
329.74	35.642
330.11	36.098
330.47	37.006
330.84	38.879
331.20	37.523
331.56	37.982
331.93	39.167
332.29	38.332
332.66	39.204
333.02	40.037
333.38	38.573
333.75	40.374
334.11	41.370
334.48	40.639
334.84	41.544
335.20	41.636
335.57	41.704
335.93	41.071
336.29	40.842
336.66	41.479
337.02	41.810
337.38	41.759
337.75	40.731
338.11	40.645
338.47	41.621
338.84	42.255
339.20	41.743
339.56	42.883
339.93	41.909
340.29	42.844
340.65	42.335
341.02	42.059
341.38	42.260
341.74	41.579
342.11	42.358
342.47	42.555
342.83	42.038
343.20	41.732
343.56	41.281
343.92	41.316
344.28	41.412
344.65	43.766
345.01	42.172
345.37	40.995
345.73	42.301
346.10	42.455
346.46	41.525
346.82	42.751
347.19	42.022
347.55	40.394
347.91	41.262
348.27	41.742
348.63	42.308
349.00	41.990
349.36	42.447
349.72	41.780
350.08	40.924
350.45	42.229
350.81	41.836
351.17	42.301
351.53	41.769
351.89	40.842
352.26	42.936
352.62	43.063
352.98	41.329
353.34	42.153
353.70	42.390
354.07	41.129
354.43	41.508
354.79	41.191
355.15	41.261
355.51	42.366
355.87	42.857
356.24	41.775
356.60	41.219
356.96	42.397
357.32	42.355
357.68	41.732
358.04	41.013
358.40	41.489
358.77	42.175
359.13	40.726
359.49	41.255
359.85	41.111
360.21	42.265
360.57	42.179
360.93	43.077
361.29	42.782
361.66	42.105
362.02	42.612
362.38	42.129
362.74	42.560
363.10	40.859
363.46	41.673
363.82	42.252
364.18	41.703
364.54	43.982
364.90	42.280
365.26	43.162
365.62	42.513
365.98	42.148
366.35	40.903
366.71	41.938
367.07	42.170
367.43	42.743
367.79	41.899
368.15	42.170
368.51	42.224
368.87	42.684
369.23	42.868
369.59	43.519
369.95	42.132
370.31	43.590
370.67	42.391
371.03	44.120
371.39	42.128
371.75	43.235
372.11	42.888
372.47	43.035
372.83	44.092
373.19	42.341
373.55	43.237
373.91	43.741
374.27	42.612
374.63	42.400
374.99	43.856
375.35	42.708
375.71	42.906
376.07	42.798
376.42	44.017
376.78	43.738
377.14	44.301
377.50	43.907
377.86	42.686
378.22	44.058
378.58	42.481
378.94	44.500
379.30	44.720
379.66	44.099
380.02	44.349
380.38	43.473
380.74	44.118
381.09	45.966
381.45	45.237
381.81	44.410
382.17	44.904
382.53	44.654
382.89	45.123
383.25	44.215
383.61	45.663
383.97	44.715
384.32	44.604
384.68	43.556
385.04	43.946
385.40	43.653
385.76	44.287
386.12	44.754
386.48	45.563
386.83	45.927
387.19	45.578
387.55	44.094
387.91	45.586
388.27	45.371
388.62	45.298
388.98	44.963
389.34	44.806
389.70	45.310
390.06	46.705
390.42	45.850
390.77	45.165
391.13	47.033
391.49	44.987
391.85	43.857
392.20	45.363
392.56	45.202
392.92	44.968
393.28	44.675
393.64	45.144
393.99	46.121
394.35	45.968
394.71	45.609
395.07	43.863
395.42	45.859
395.78	45.802
396.14	44.941
396.50	46.679
396.85	45.327
397.21	44.945
397.57	45.381
397.92	46.214
398.28	45.516
398.64	44.922
399.00	45.048
399.35	44.783
399.71	44.907
400.07	44.766
400.42	46.626
400.78	45.838
401.14	45.183
401.49	45.672
401.85	44.646
402.21	44.491
402.57	44.664
402.92	45.145
403.28	44.909
403.63	45.668
403.99	46.369
404.35	44.848
404.70	44.365
405.06	43.564
405.42	45.540
405.77	44.571
406.13	44.131
406.49	45.535
406.84	44.182
407.20	44.031
407.55	46.139
407.91	45.733
408.27	46.458
408.62	44.371
408.98	44.118
409.34	43.850
409.69	44.258
410.05	44.734
410.40	44.404
410.76	45.281
411.11	44.270
411.47	45.559
411.83	44.716
412.18	43.290
412.54	44.334
412.89	43.494
413.25	43.447
413.60	44.719
413.96	43.473
414.31	44.471
414.67	43.916
415.03	44.437
415.38	43.943
415.74	45.659
416.09	45.591
416.45	44.511
416.80	44.481
417.16	45.509
417.51	44.725
417.87	44.188
418.22	46.562
418.58	45.771
418.93	44.902
419.29	45.003
419.64	43.892
420.00	44.695
420.35	44.870
420.71	44.889
421.06	43.914
421.42	44.795
421.77	44.843
422.12	43.683
422.48	43.605
422.83	44.613
423.19	43.812
423.54	44.631
423.90	45.159
424.25	45.059
424.61	44.881
424.96	45.190
425.31	45.183
425.67	44.775
426.02	44.343
426.38	46.032
426.73	44.470
427.09	44.195
427.44	45.256
427.79	44.738
428.15	45.357
428.50	44.997
428.85	44.994
429.21	45.058
429.56	44.427
429.92	44.036
430.27	44.638
430.62	44.137
430.98	44.837
431.33	45.000
431.68	45.340
432.04	44.675
432.39	45.631
432.74	45.242
433.10	46.010
433.45	44.956
433.80	45.399
434.16	45.459
434.51	44.526
434.86	45.439
435.22	45.303
435.57	43.891
435.92	46.226
436.28	47.034
436.63	47.296
436.98	45.049
437.34	46.273
437.69	45.624
438.04	46.262
438.39	45.910
438.75	46.136
439.10	46.145
439.45	46.222
439.81	46.042
440.16	46.302
440.51	46.339
440.86	47.134
441.22	47.052
441.57	46.285
441.92	46.725
442.27	46.825
442.63	46.130
442.98	47.380
443.33	46.304
443.68	46.567
444.03	46.901
444.39	46.543
444.74	47.240
445.09	47.062
445.44	46.036
445.79	45.967
446.15	46.533
446.50	46.473
446.85	46.814
447.20	47.374
447.55	48.074
447.91	47.711
448.26	47.357
448.61	47.032
448.96	47.951
449.31	47.919
449.66	47.777
450.02	47.688
450.37	47.336
450.72	47.885
451.07	47.166
451.42	47.660
451.77	48.738
452.12	47.575
452.47	48.383
452.83	49.359
453.18	47.861
453.53	48.237
453.88	48.080
454.23	48.237
454.58	47.910
454.93	49.396
455.28	48.379
455.63	47.937
455.98	49.702
456.34	49.058
456.69	48.403
457.04	49.721
457.39	48.334
457.74	48.404
458.09	48.534
458.44	48.404
458.79	46.529
459.14	49.210
459.49	48.745
459.84	48.698
460.19	49.204
460.54	48.438
460.89	48.875
461.24	49.423
461.59	49.913
461.94	48.089
462.29	49.258
462.64	49.458
462.99	49.642
463.34	50.267
463.69	49.969
464.04	50.145
464.39	47.884
464.74	48.723
465.09	49.457
465.44	48.975
465.79	47.987
466.14	48.440
466.49	48.387
466.84	49.562
467.19	49.185
467.54	48.875
467.89	49.220
468.24	47.993
468.59	49.267
468.94	49.175
469.29	49.679
469.64	49.866
469.99	50.474
470.34	49.273
470.68	50.287
471.03	50.068
471.38	50.243
471.73	49.967
472.08	49.539
472.43	49.623
472.78	48.914
473.13	50.321
473.48	51.124
473.83	51.280
474.17	49.471
474.52	50.062
474.87	50.963
475.22	50.725
475.57	49.275
475.92	49.655
476.27	49.098
476.61	50.414
476.96	49.093
477.31	50.131
477.66	49.508
478.01	48.406
478.36	48.440
478.70	50.415
479.05	50.532
479.40	49.744
479.75	49.517
480.10	49.404
480.45	48.596
480.79	48.877
481.14	50.049
481.49	49.976
481.84	49.428
482.19	49.796
482.53	49.541
482.88	49.186
483.23	48.785
483.58	49.682
483.92	49.766
484.27	48.976
484.62	48.405
484.97	48.877
485.31	49.726
485.66	48.623
486.01	46.979
486.36	45.134
486.70	43.869
487.05	44.971
487.40	46.195
487.75	46.906
488.09	47.437
488.44	48.799
488.79	49.259
489.13	49.618
489.48	50.000
489.83	50.065
490.17	49.408
490.52	49.911
490.87	49.073
491.22	49.977
491.56	50.251
491.91	49.418
492.26	49.012
492.60	50.138
492.95	49.252
493.30	48.832
493.64	50.210
493.99	50.000
494.34	49.584
494.68	50.962
495.03	50.000
495.37	49.418
495.72	50.049
496.07	51.183
496.41	49.336
496.76	50.088
497.11	50.113
497.45	50.256
497.80	50.480
498.14	50.580
498.49	50.439
498.84	49.616
499.18	51.619
499.53	50.712
499.87	50.280
500.22	50.730
500.56	51.505
500.91	50.048
501.26	50.356
501.60	51.448
501.95	51.054
502.29	52.062
502.64	50.931
502.98	51.613
503.33	49.223
503.67	50.812
504.02	49.813
504.36	50.398
504.71	50.855
505.06	50.940
505.40	51.045
505.75	49.904
506.09	51.749
506.44	50.962
506.78	50.609
507.13	51.742
507.47	51.515
507.82	51.722
508.16	52.229
508.51	52.613
508.85	49.950
509.19	52.041
509.54	52.143
509.88	51.726
510.23	51.877
510.57	53.302
510.92	52.926
511.26	52.158
511.61	50.674
511.95	51.409
512.30	51.909
512.64	52.445
512.98	52.787
513.33	52.355
513.67	51.494
514.02	52.652
514.36	53.195
514.70	52.684
515.05	52.259
515.39	53.561
515.74	52.928
516.08	54.276
516.42	53.385
516.77	53.679
517.11	53.163
517.46	53.160
517.80	55.285
518.14	53.098
518.49	55.893
518.83	53.580
519.17	53.349
519.52	52.801
519.86	54.193
520.20	53.873
520.55	55.236
520.89	54.745
521.23	55.368
521.58	54.442
521.92	55.175
522.26	53.691
522.61	55.950
522.95	53.346
523.29	54.656
523.64	54.573
523.98	55.761
524.32	54.343
524.66	54.119
525.01	54.167
525.35	55.328
525.69	54.741
526.04	56.075
526.38	54.851
526.72	54.601
527.06	56.372
527.41	54.022
527.75	54.920
528.09	55.491
528.43	55.704
528.78	54.456
529.12	54.061
529.46	55.175
529.80	56.002
530.15	55.888
530.49	53.908
530.83	55.000
531.17	56.593
531.51	56.096
531.86	55.290
532.20	55.932
532.54	54.709
532.88	54.750
533.22	54.903
533.57	55.617
533.91	54.124
534.25	55.711
534.59	55.461
534.93	54.967
535.27	54.375
535.62	54.090
535.96	55.681
536.30	56.389
536.64	55.634
536.98	55.674
537.32	56.024
537.66	55.400
538.01	55.695
538.35	55.527
538.69	56.477
539.03	55.101
539.37	55.208
539.71	54.763
540.05	55.817
540.39	55.615
540.73	54.398
541.07	55.873
541.42	56.230
541.76	56.645
542.10	55.886
542.44	56.291
542.78	56.061
543.12	54.255
543.46	55.475
543.80	56.278
544.14	54.044
544.48	56.381
544.82	54.843
545.16	56.278
545.50	55.206
545.84	54.973
546.18	55.758
546.52	55.884
546.86	55.876
547.20	55.158
547.54	56.246
547.88	56.059
548.22	55.230
548.56	54.528
548.90	54.033
549.24	56.162
549.58	55.935
549.92	57.005
550.26	58.452
550.60	55.394
550.94	56.197
551.28	55.523
551.62	56.219
551.96	57.474
552.30	56.997
552.64	55.172
552.98	57.153
553.32	54.754
553.66	55.351
554.00	56.417
554.34	54.451
554.68	57.654
555.02	57.546
555.36	55.811
555.69	56.563
556.03	54.980
556.37	57.094
556.71	55.593
557.05	56.583
557.39	57.313
557.73	56.316
558.07	56.708
558.41	56.729
558.75	56.503
559.08	57.718
559.42	57.143
559.76	56.324
560.10	56.531
560.44	56.464
560.78	55.356
561.12	56.794
561.45	57.106
561.79	55.438
562.13	56.003
562.47	58.470
562.81	58.159
563.15	57.324
563.48	56.698
563.82	57.143
564.16	56.900
564.50	55.534
564.84	56.511
565.17	56.628
565.51	56.613
565.85	56.472
566.19	55.604
566.52	57.251
566.86	55.455
567.20	57.488
567.54	56.107
567.88	54.970
568.21	54.656
568.55	54.196
568.89	53.940
569.23	53.610
569.56	52.024
569.90	52.943
570.24	53.032
570.57	51.445
570.91	51.164
571.25	51.297
571.59	51.753
571.92	51.094
572.26	50.982
572.60	51.922
572.93	50.675
573.27	51.494
573.61	51.787
573.95	51.370
574.28	51.055
574.62	50.559
574.96	49.725
575.29	49.806
575.63	49.873
575.97	50.221
576.30	50.531
576.64	50.240
576.98	50.413
577.31	50.693
577.65	50.641
577.98	50.181
578.32	49.702
578.66	50.042
578.99	49.874
579.33	50.109
579.67	50.012
580.00	51.618
580.34	50.807
580.67	50.012
581.01	50.618
581.35	50.665
581.68	50.679
582.02	49.309
582.35	49.403
582.69	50.275
583.02	49.864
583.36	50.911
583.70	51.748
584.03	51.620
584.37	51.647
584.70	52.064
585.04	50.783
585.37	50.885
585.71	51.551
586.04	49.795
586.38	50.601
586.72	51.919
587.05	50.883
587.39	50.712
587.72	51.095
588.06	50.907
588.39	50.782
588.73	51.833
589.06	52.446
589.40	52.761
589.73	52.270
590.07	51.851
590.40	52.210
590.73	54.020
591.07	53.602
591.40	54.281
591.74	54.329
592.07	53.578
592.41	53.948
592.74	52.809
593.08	52.765
593.41	52.199
593.75	50.999
594.08	51.894
594.41	52.598
594.75	53.494
595.08	52.720
595.42	53.520
595.75	52.386
596.09	53.286
596.42	53.045
596.75	53.820
597.09	54.632
597.42	52.951
597.75	54.118
598.09	53.609
598.42	53.436
598.76	53.020
599.09	52.261
599.42	52.111
599.76	52.526
600.09	52.568
600.42	52.520
600.76	52.000
601.09	52.787
601.42	52.968
601.76	52.486
602.09	53.478
602.42	54.379
602.76	53.809
603.09	53.304
603.42	53.924
603.76	52.134
604.09	52.540
604.42	53.486
604.76	54.703
605.09	53.823
605.42	54.382
605.75	54.719
606.09	54.128
606.42	53.658
606.75	53.214
607.09	52.951
607.42	54.172
607.75	53.671
608.08	53.018
608.42	54.818
608.75	54.644
609.08	54.672
609.41	53.879
609.75	55.455
610.08	54.948
610.41	54.516
610.74	56.244
611.07	54.743
611.41	55.299
611.74	55.455
612.07	55.642
612.40	56.506
612.73	55.053
613.07	56.196
613.40	55.714
613.73	55.270
614.06	56.720
614.39	55.375
614.72	55.053
615.06	56.828
615.39	55.839
615.72	54.346
616.05	54.333
616.38	55.364
616.71	58.314
617.05	58.009
617.38	56.705
617.71	58.018
618.04	58.293
618.37	56.180
618.70	57.374
619.03	58.421
619.36	58.045
619.69	58.803
620.03	58.310
620.36	57.687
620.69	59.110
621.02	59.071
621.35	59.593
621.68	59.969
622.01	60.139
622.34	58.926
622.67	59.240
623.00	57.887
623.33	57.398
623.66	59.971
623.99	60.088
624.32	57.703
624.65	58.051
624.99	58.286
625.32	58.074
625.65	58.828
625.98	61.261
626.31	59.409
626.64	60.735
626.97	59.850
627.30	61.097
627.63	61.772
627.96	61.648
628.29	61.855
628.62	61.391
628.95	64.245
629.28	61.496
629.61	62.786
629.94	64.286
630.26	63.775
630.59	62.154
630.92	62.165
631.25	61.106
631.58	63.063
631.91	62.069
632.24	61.709
632.57	62.539
632.90	63.158
633.23	63.647
633.56	65.763
633.89	64.892
634.22	64.018
634.55	67.219
634.88	65.269
635.20	65.114
635.53	67.108
635.86	68.069
636.19	64.235
636.52	65.859
636.85	64.948
637.18	63.710
637.51	66.312
637.83	61.776
638.16	67.519
638.49	64.358
638.82	66.751
639.15	65.125
639.48	63.965
639.81	68.097
640.13	66.146
640.46	67.114
640.79	66.843
641.12	66.850
641.45	67.179
641.77	70.103
642.10	68.567
642.43	66.967
642.76	67.957
643.09	70.092
643.41	68.437
643.74	70.370
644.07	67.835
644.40	69.018
644.73	67.717
645.05	68.938
645.38	68.246
645.71	70.853
646.04	70.598
646.36	72.120
646.69	69.231
647.02	69.728
647.35	70.619
647.67	72.389
648.00	68.618
648.33	69.142
648.66	66.212
648.98	69.865
649.31	68.012
649.64	67.862
649.96	68.852
650.29	66.509
650.62	69.579
650.94	67.585
651.27	71.453
651.60	70.549
651.92	66.454
652.25	70.847
652.58	69.626
652.90	67.615
653.23	66.718
653.56	68.819
653.88	70.681
654.21	71.090
654.54	70.957
654.86	68.069
655.19	64.189
655.52	48.655
655.84	46.164
656.17	58.750
656.49	77.870
656.82	78.892
657.15	59.396
657.47	44.518
657.80	33.938
658.13	36.290
658.45	53.989
658.78	54.250
659.10	55.153
659.43	58.203
659.75	61.501
660.08	65.759
660.41	70.577
660.73	70.648
661.06	72.611
661.38	73.273
661.71	71.154
662.03	73.767
662.36	71.173
662.68	70.482
663.01	71.919
663.33	74.310
663.66	75.420
663.98	77.322
664.31	72.269
664.63	69.433
664.96	69.014
665.28	72.541
665.61	70.760
665.93	69.819
666.26	72.414
666.58	75.732
666.91	72.727
667.23	75.056
667.56	72.354
667.88	73.291
668.21	73.348
668.53	70.499
668.86	70.130
669.18	74.200
669.50	74.130
669.83	72.767
670.15	75.333
670.48	72.767
670.80	72.629
671.13	73.036
671.45	72.553
671.77	73.320
672.10	69.501
672.42	67.491
672.75	66.833
673.07	70.599
673.39	66.908
673.72	70.703
674.04	71.961
674.37	70.874
674.69	73.211
675.01	69.247
675.34	74.538
675.66	75.368
675.98	72.098
676.31	70.168
676.63	73.036
676.95	69.392
677.28	73.598
677.60	69.451
677.92	73.629
678.25	71.663
678.57	69.323
678.89	71.142
679.22	69.155
679.54	70.038
679.86	65.688
680.18	68.157
680.51	69.326
680.83	66.370
681.15	70.189
681.48	71.456
681.80	72.147
682.12	68.008
682.44	67.892
682.77	71.894
683.09	75.751
683.41	71.840
683.73	73.289
684.06	70.248
684.38	67.710
684.70	68.798
685.02	68.293
685.34	66.300
685.67	66.958
685.99	65.636
686.31	68.259
686.63	66.784
686.96	66.250
687.28	65.704
687.60	67.210
687.92	69.470
688.24	69.582
688.56	70.683
688.89	72.407
689.21	74.672
689.53	70.772
689.85	73.392
690.17	67.702
690.49	70.276
690.82	74.299
691.14	71.205
691.46	67.089
691.78	67.470
692.10	69.628
692.42	69.461
692.74	67.427
693.06	66.809
693.39	70.021
693.71	70.742
694.03	71.158
694.35	71.645
694.67	69.565
694.99	74.878
695.31	70.833
695.63	73.923
695.95	72.372
696.27	72.081
696.59	73.575
696.91	72.798
697.23	65.258
697.56	70.576
697.88	65.849
698.20	68.125
698.52	66.452
698.84	68.820
699.16	70.276
699.48	71.734
699.80	72.947
700.12	78.701
700.44	77.188
700.76	75.414
701.08	77.011
701.40	72.905
701.72	78.717
702.04	77.273
702.36	71.105
702.68	72.805
703.00	72.853
703.32	71.809
703.64	72.654
703.96	73.816
704.28	71.221
704.60	74.780
704.91	74.184
705.23	74.487
705.55	80.731
705.87	84.385
706.19	81.272
706.51	71.340
706.83	76.970
707.15	74.230
707.47	70.707
707.79	71.744
708.11	68.265
708.43	67.143
708.74	69.133
709.06	71.429
709.38	73.228
709.70	76.744
710.02	74.777
710.34	71.212
710.66	72.537
710.98	73.864
711.29	69.186
711.61	77.286
711.93	75.321
712.25	80.386
712.57	80.147
712.89	77.163
713.20	72.948
713.52	74.013
713.84	71.835
714.16	71.646
714.48	73.851
714.80	82.067
715.11	72.622
715.43	74.777
715.75	73.623
716.07	71.885
716.39	73.041
716.70	77.076
717.02	75.540
717.34	75.618
717.66	75.373
717.97	88.048
718.29	74.444
718.61	74.818
718.93	81.618
719.24	76.817
719.56	72.881
719.88	74.915
720.20	74.324
720.51	74.564
720.83	78.439
721.15	77.239
721.46	72.695
721.78	74.194
722.10	76.981
722.42	82.707
722.73	73.408
723.05	78.689
723.37	75.304
723.68	75.676
724.00	77.236
724.32	81.452
724.63	82.520
724.95	82.427
725.27	83.401
725.58	77.344
725.90	82.117
726.22	80.377
726.53	74.653
726.85	76.451
727.16	73.310
727.48	74.468
727.80	76.894
728.11	69.203
728.43	78.077
728.74	77.419
729.06	77.737
729.38	80.882
729.69	77.224
730.01	67.577
730.32	70.139
730.64	69.900
730.96	67.657
731.27	74.172
731.59	70.948
731.90	70.554
732.22	75.776
732.53	72.755
732.85	69.231
733.16	65.273
733.48	74.086
733.80	71.753
734.11	68.790
734.43	68.639
734.74	70.286
735.06	67.335
735.37	73.121
735.69	70.382
736.00	74.183
736.32	71.028
736.63	69.329
736.95	67.732
737.26	69.728
737.58	73.871
737.89	71.237
738.21	72.355
738.52	73.929
738.83	74.717
739.15	73.462
739.46	76.642
739.78	76.736
740.09	72.923
740.41	69.677
740.72	70.732
741.04	74.074
741.35	76.667
741.66	82.667
741.98	73.113
742.29	84.689
742.61	79.741
742.92	73.303
743.23	82.479
743.55	74.400
743.86	77.193
744.18	80.088
744.49	84.689
744.80	85.915
745.12	79.545
745.43	83.700
745.74	81.532
746.06	79.358
746.37	85.202
746.68	74.661
747.00	87.037
747.31	79.048
747.62	79.204
747.94	74.449
748.25	80.000
748.56	78.414
748.88	77.723
749.19	88.000
749.50	76.744
749.82	69.106
750.13	73.469
750.44	70.803
750.75	75.439
751.07	71.061
751.38	75.261
751.69	74.007
752.01	75.188
752.32	72.563
752.63	69.858
752.94	82.787
753.26	81.200
753.57	70.732
753.88	75.781
754.19	71.786
754.51	72.917
754.82	71.480
755.13	73.962
755.44	74.060
755.75	70.438
756.07	70.567
756.38	69.343
756.69	71.141
757.00	67.665
757.31	65.282
757.63	65.497
757.94	63.807
758.25	61.765
758.56	60.741
758.87	65.591
759.18	68.182
759.50	65.831
759.81	65.732
760.12	65.625
760.43	67.908
760.74	63.043
761.05	70.904
761.36	61.765
761.67	67.898
761.99	66.460
762.30	71.181
762.61	73.664
762.92	69.141
763.23	73.109
763.54	70.800
763.85	71.875
764.16	72.308
764.47	74.144
764.78	66.431
765.10	63.924
765.41	69.617
765.72	68.862
766.03	63.950
766.34	64.333
766.65	78.723
766.96	69.658
767.27	82.741
767.58	81.250
767.89	80.526
768.20	89.655
768.51	75.635
768.82	77.523
769.13	67.886
769.44	74.899
769.75	78.112
770.06	71.560
770.37	77.828
770.68	78.241
770.99	73.778
771.30	73.361
771.61	73.094
771.92	65.984
772.23	79.412
772.54	80.000
772.85	77.487
773.16	82.447
773.47	80.978
773.78	84.264
774.09	81.548
774.39	78.363
774.70	79.012
775.01	94.203
775.32	90.850
775.63	86.842
775.94	88.489
776.25	94.488
776.56	96.269
776.87	95.902
777.18	93.750
777.48	93.130
777.79	91.667
778.10	94.074
778.41	103.571
778.72	85.401
779.03	87.248
779.34	85.906
779.65	73.649
779.95	77.301
780.26	88.889
780.57	92.414
780.88	96.094
781.19	94.737
781.50	87.162
781.80	87.421
782.11	79.096
782.42	80.380
782.73	71.166
783.04	87.162
783.34	95.775
783.65	93.151
783.96	91.791
784.27	86.014
784.57	82.014
784.88	74.074
785.19	90.476
785.50	97.170
785.81	85.075
786.11	99.180
786.42	87.597
786.73	84.956
787.04	101.887
787.34	86.607
787.65	103.000
787.96	101.802
788.26	88.430
788.57	107.627
788.88	101.653
789.19	89.583
789.49	90.909
789.80	92.366
790.11	97.143
790.41	112.871
790.72	118.072
791.03	106.522
791.33	106.977
791.64	92.784
791.95	97.030
792.25	107.778
792.56	136.364
792.87	124.359
793.17	113.924
793.48	124.138
793.79	108.046
794.09	103.409
794.40	87.395
794.70	89.706
795.01	80.741
795.32	77.698
795.62	85.039
795.93	100.862
796.23	92.035
796.54	110.588
796.85	112.162
797.15	133.803
797.46	113.636
797.76	108.434
798.07	113.924
798.37	127.692
798.68	119.697
798.99	108.451
799.29	119.481
799.60	95.455
799.90	119.178
800.21	131.343
800.51	136.207
800.82	128.070
801.12	145.902
801.43	121.212
801.73	113.514
802.04	120.635
802.34	111.111
802.65	131.250
802.95	142.373
803.26	134.375
803.56	112.857
803.87	106.154
804.17	119.118
804.48	153.704
804.78	129.310
805.09	111.765
805.39	150.000
805.70	132.143
806.00	137.705
806.30	109.091
806.61	104.878
806.91	98.734
807.22	105.263
807.52	97.015
807.83	123.944
808.13	125.000
808.43	118.333
808.74	97.368
809.04	131.884
809.35	125.373
809.65	117.105
809.95	151.613
810.26	113.559
810.56	126.984
810.86	168.182
811.17	176.190
811.47	133.333
811.77	151.852
812.08	143.636
812.38	140.000
812.69	186.111
812.99	179.545
813.29	130.612
813.59	123.810
813.90	136.735
814.20	130.909
814.50	104.615
814.81	132.353
815.11	151.020
815.41	116.393
815.72	183.333
816.02	134.545
816.32	152.381
816.62	157.500
816.93	148.780
817.23	157.143
817.53	161.364
817.84	181.818
818.14	163.043
818.44	142.222
818.74	223.529
819.04	150.000
819.35	191.429
819.65	176.471
819.95	232.143
820.25	295.000
820.56	169.231
820.86	170.455
821.16	160.465
821.46	128.205
821.76	164.000
822.07	191.429
822.37	180.000
822.67	200.000
822.97	101.961
823.27	232.143
823.57	167.568
823.88	157.500
824.18	230.000
824.48	154.762
824.78	248.000
825.08	212.500
825.38	189.189
825.69	168.293
825.99	279.167
826.29	155.172
826.59	160.526
826.89	194.737
827.19	200.000
827.49	225.806
827.79	163.636
828.09	154.545
828.39	138.298
828.70	116.327
829.00	207.407
829.30	196.774
829.60	180.000
829.90	400.000
830.20	275.000
830.50	243.478
830.80	230.435
831.10	236.667
831.40	223.333
831.70	213.043
832.00	242.308
832.30	229.630
832.60	331.250
832.90	236.667
833.20	442.857
833.50	167.742
833.80	182.759
834.10	206.250
834.40	230.769
834.70	311.111
835.00	319.048
835.30	157.143
835.60	346.154
835.90	200.000
836.20	407.143
836.50	241.379
836.80	204.000
837.10	169.444
837.40	295.238
837.70	323.529
838.00	214.815
838.30	219.048
838.60	314.286
838.90	253.846
839.19	265.000
839.49	371.429
839.79	305.000
840.09	240.000
840.39	252.381
840.69	230.435
840.99	316.667
841.29	490.000
841.59	408.333
841.88	400.000
842.18	196.552
842.48	285.714
842.78	240.000
843.08	243.478
843.38	175.000
843.68	816.667
843.97	223.077
844.27	179.310
844.57	276.190
844.87	331.250
845.17	225.926
845.47	1366.667
845.76	411.111
846.06	300.000
846.36	562.500
846.66	350.000
846.96	356.250
847.25	463.636
847.55	409.091
847.85	243.478
848.15	570.000
848.44	285.714
848.74	238.889
849.04	305.882
849.34	460.000
849.63	242.105
849.93	445.455
850.23	1020.000
850.53	414.286
850.82	1950.000
851.12	-3700.000
851.42	4800.000
851.71	285.000
852.01	-1366.667
852.31	237.500
852.61	1833.333
852.90	290.476
853.20	224.000
853.50	311.765
853.79	290.476
854.09	229.167
854.39	325.000
854.68	194.595
854.98	193.548
855.28	170.000
855.57	227.586
855.87	225.926
856.17	226.316
856.46	226.667
856.76	311.765
857.05	217.241
857.35	212.500
857.65	366.667
857.94	273.913
858.24	234.615
858.53	265.000
858.83	277.273
859.13	333.333
859.42	0.000
859.72	511.111
860.01	454.545
860.31	277.273
860.60	247.368
860.90	200.000
861.20	444.444
861.49	516.667
861.79	-4800.000
862.08	612.500
862.38	257.143
862.67	346.154
862.97	352.941
863.26	511.111
863.56	266.667
863.85	483.333
864.15	575.000
864.44	340.000
864.74	833.333
865.03	625.000
865.33	326.316
865.62	472.727
865.92	438.462
866.21	375.000
866.51	0.000
866.80	372.727
867.10	1040.000
867.39	353.846
867.69	400.000
867.98	342.105
868.27	418.182
868.57	278.947
868.86	-3900.000
869.16	306.250
869.45	2050.000
869.75	-3700.000
870.04	450.000
870.33	657.143
870.63	1150.000
870.92	2500.000
871.22	714.286
871.51	305.882
871.80	261.905
872.10	328.571
>>>>>End Processed Spectral Data<<<<<
