SpectraSuite Data File
++++++++++++++++++++++++++++++++++++
Date: Wed May 13 16:04:11 PDT 2015
User: schluterlab
Dark Spectrum Present: Yes
Reference Spectrum Present: Yes
Number of Sampled Component Spectra: 1
Spectrometers: USB2E3373
Integration Time (usec): 3000 (USB2E3373)
Spectra Averaged: 3 (USB2E3373)
Boxcar Smoothing: 0 (USB2E3373)
Correct for Electrical Dark: No (USB2E3373)
Strobe/Lamp Enabled: No (USB2E3373)
Correct for Detector Non-linearity: No (USB2E3373)
Correct for Stray Light: No (USB2E3373)
Number of Pixels in Processed Spectrum: 2048
>>>>>Begin Processed Spectral Data<<<<<
178.53	0.000
178.91	-725.000
179.29	-800.000
179.67	-72.222
180.04	-550.000
180.42	1300.000
180.80	500.000
181.18	-450.000
181.56	285.714
181.94	0.000
182.31	-328.571
182.69	900.000
183.07	-312.500
183.45	-122.222
183.83	318.182
184.20	-130.000
184.58	850.000
184.96	2100.000
185.34	-420.000
185.72	-287.500
186.09	-1400.000
186.47	1350.000
186.85	1550.000
187.23	2300.000
187.61	-700.000
187.98	700.000
188.36	281.818
188.74	381.818
189.12	-360.000
189.49	240.000
189.87	-2500.000
190.25	-500.000
190.63	250.000
191.00	223.077
191.38	500.000
191.76	-425.000
192.14	750.000
192.51	312.500
192.89	500.000
193.27	237.500
193.65	-525.000
194.02	230.000
194.40	440.000
194.78	290.000
195.15	216.667
195.53	400.000
195.91	-550.000
196.29	218.750
196.66	178.947
197.04	-170.000
197.42	0.000
197.79	300.000
198.17	-1000.000
198.55	342.857
198.92	387.500
199.30	500.000
199.68	0.000
200.05	150.000
200.43	385.714
200.81	2600.000
201.18	866.667
201.56	-866.667
201.94	266.667
202.31	444.444
202.69	166.667
203.07	280.000
203.44	0.000
203.82	575.000
204.19	442.857
204.57	235.714
204.95	250.000
205.32	500.000
205.70	209.091
206.08	214.286
206.45	1250.000
206.83	156.250
207.20	350.000
207.58	60.000
207.96	188.889
208.33	512.500
208.71	-433.333
209.08	514.286
209.46	266.667
209.84	245.455
210.21	-566.667
210.59	675.000
210.96	-200.000
211.34	1400.000
211.71	300.000
212.09	316.667
212.46	0.000
212.84	833.333
213.22	575.000
213.59	-2100.000
213.97	466.667
214.34	357.143
214.72	363.636
215.09	540.000
215.47	-800.000
215.84	-1250.000
216.22	833.333
216.59	235.714
216.97	750.000
217.34	181.818
217.72	-433.333
218.09	0.000
218.47	-2400.000
218.84	411.111
219.22	457.143
219.59	966.667
219.97	-200.000
220.34	560.000
220.72	-766.667
221.09	192.857
221.47	700.000
221.84	-466.667
222.22	0.000
222.59	650.000
222.97	-1250.000
223.34	640.000
223.72	176.923
224.09	700.000
224.46	1050.000
224.84	-1900.000
225.21	-420.000
225.59	-1600.000
225.96	330.000
226.34	140.000
226.71	1800.000
227.08	287.500
227.46	340.000
227.83	-475.000
228.21	-900.000
228.58	277.778
228.95	-950.000
229.33	-1300.000
229.70	666.667
230.08	457.143
230.45	-360.000
230.82	225.000
231.20	350.000
231.57	271.429
231.95	233.333
232.32	136.364
232.69	190.909
233.07	228.571
233.44	153.846
233.81	-666.667
234.19	152.632
234.56	191.667
234.93	183.333
235.31	200.000
235.68	161.538
236.05	164.286
236.43	78.788
236.80	126.316
237.17	1100.000
237.55	80.952
237.92	60.714
238.29	100.000
238.67	41.935
239.04	124.138
239.41	61.111
239.79	58.696
240.16	69.048
240.53	31.818
240.91	50.980
241.28	56.000
241.65	24.000
242.02	55.072
242.40	25.806
242.77	40.000
243.14	45.161
243.51	53.933
243.89	34.118
244.26	20.000
244.63	22.581
245.00	22.340
245.38	19.802
245.75	14.019
246.12	20.183
246.49	24.088
246.87	31.200
247.24	23.846
247.61	25.000
247.98	21.569
248.36	13.514
248.73	17.834
249.10	21.656
249.47	11.864
249.84	22.460
250.22	16.578
250.59	13.609
250.96	15.657
251.33	18.009
251.70	27.228
252.08	14.286
252.45	15.247
252.82	14.348
253.19	16.596
253.56	12.549
253.94	11.618
254.31	16.406
254.68	15.769
255.05	15.498
255.42	12.602
255.79	11.397
256.16	18.051
256.54	9.894
256.91	13.167
257.28	11.151
257.65	13.861
258.02	13.354
258.39	12.618
258.76	11.037
259.14	11.905
259.51	8.815
259.88	9.006
260.25	11.178
260.62	10.116
260.99	12.112
261.36	12.913
261.73	11.461
262.10	10.756
262.47	9.859
262.85	8.357
263.22	6.268
263.59	14.530
263.96	7.692
264.33	10.183
264.70	10.000
265.07	11.509
265.44	10.101
265.81	8.759
266.18	12.563
266.55	9.512
266.92	10.074
267.29	9.028
267.66	10.092
268.03	10.227
268.40	8.645
268.77	7.637
269.14	9.459
269.51	8.804
269.88	8.858
270.25	6.998
270.62	7.416
270.99	12.903
271.36	11.588
271.73	8.879
272.10	7.174
272.47	9.892
272.84	10.606
273.21	11.530
273.58	7.860
273.95	7.757
274.32	4.959
274.69	9.422
275.06	9.055
275.43	11.489
275.80	7.615
276.17	8.147
276.54	8.940
276.91	8.893
277.28	8.398
277.65	10.058
278.02	7.660
278.39	9.961
278.76	10.000
279.13	7.736
279.50	10.428
279.87	8.566
280.23	7.585
280.60	8.317
280.97	8.872
281.34	9.204
281.71	10.727
282.08	9.021
282.45	7.273
282.82	7.282
283.19	5.882
283.56	7.193
283.92	9.137
284.29	8.642
284.66	8.711
285.03	8.680
285.40	7.042
285.77	8.081
286.14	7.599
286.51	8.333
286.87	10.085
287.24	8.958
287.61	7.865
287.98	8.604
288.35	7.924
288.72	8.723
289.08	8.764
289.45	6.755
289.82	7.967
290.19	7.849
290.56	9.801
290.93	5.891
291.29	8.742
291.66	8.112
292.03	9.738
292.40	11.894
292.77	7.544
293.13	9.104
293.50	8.455
293.87	7.852
294.24	8.889
294.60	7.424
294.97	10.756
295.34	9.873
295.71	9.801
296.08	8.974
296.44	9.629
296.81	10.436
297.18	11.518
297.55	9.235
297.91	10.554
298.28	9.906
298.65	11.488
299.02	10.935
299.38	9.031
299.75	7.412
300.12	9.451
300.48	10.750
300.85	12.084
301.22	10.446
301.59	10.732
301.95	10.705
302.32	10.526
302.69	11.111
303.05	11.879
303.42	11.852
303.79	11.891
304.15	10.956
304.52	10.197
304.89	12.079
305.25	10.905
305.62	13.703
305.99	12.869
306.35	13.087
306.72	12.220
307.09	12.098
307.45	14.302
307.82	12.165
308.19	12.804
308.55	14.239
308.92	13.856
309.29	13.094
309.65	13.043
310.02	14.905
310.38	14.086
310.75	14.150
311.12	14.739
311.48	14.211
311.85	15.304
312.22	14.880
312.58	15.281
312.95	15.523
313.31	15.049
313.68	15.177
314.05	17.357
314.41	16.583
314.78	15.509
315.14	15.690
315.51	15.448
315.87	16.634
316.24	15.591
316.61	16.179
316.97	16.341
317.34	16.047
317.70	16.539
318.07	17.613
318.43	17.025
318.80	18.088
319.16	17.326
319.53	17.542
319.89	19.619
320.26	20.400
320.62	18.948
320.99	18.283
321.35	19.394
321.72	19.199
322.08	20.632
322.45	21.194
322.81	20.446
323.18	20.906
323.54	21.243
323.91	22.075
324.27	21.033
324.64	21.249
325.00	22.904
325.37	23.385
325.73	23.788
326.10	24.095
326.46	24.552
326.83	25.884
327.19	26.132
327.56	25.958
327.92	25.722
328.29	26.886
328.65	27.348
329.01	28.339
329.38	27.845
329.74	27.331
330.11	28.275
330.47	29.201
330.84	29.688
331.20	28.780
331.56	28.991
331.93	28.796
332.29	30.080
332.66	29.823
333.02	30.439
333.38	30.443
333.75	30.125
334.11	31.317
334.48	30.701
334.84	31.066
335.20	30.545
335.57	30.462
335.93	28.839
336.29	30.861
336.66	31.109
337.02	30.498
337.38	33.056
337.75	29.590
338.11	31.155
338.47	31.308
338.84	31.806
339.20	31.193
339.56	34.033
339.93	31.455
340.29	31.341
340.65	32.175
341.02	32.286
341.38	32.918
341.74	32.632
342.11	32.314
342.47	32.775
342.83	31.250
343.20	32.641
343.56	31.845
343.92	31.667
344.28	31.888
344.65	31.900
345.01	32.997
345.37	34.305
345.73	32.572
346.10	32.140
346.46	32.542
346.82	33.031
347.19	31.078
347.55	32.102
347.91	32.929
348.27	34.182
348.63	32.776
349.00	33.414
349.36	32.841
349.72	33.520
350.08	31.524
350.45	33.035
350.81	32.169
351.17	33.387
351.53	33.333
351.89	32.178
352.26	34.491
352.62	34.322
352.98	33.549
353.34	34.018
353.70	33.552
354.07	32.742
354.43	32.302
354.79	32.582
355.15	33.759
355.51	34.932
355.87	35.265
356.24	33.469
356.60	33.280
356.96	35.076
357.32	35.977
357.68	35.118
358.04	34.521
358.40	35.313
358.77	35.133
359.13	34.096
359.49	34.275
359.85	34.048
360.21	34.928
360.57	35.019
360.93	35.077
361.29	35.979
361.66	35.604
362.02	35.597
362.38	35.209
362.74	36.533
363.10	36.047
363.46	34.703
363.82	36.810
364.18	35.977
364.54	36.256
364.90	36.119
365.26	36.471
365.62	37.911
365.98	36.888
366.35	36.246
366.71	37.527
367.07	37.655
367.43	37.373
367.79	38.972
368.15	38.147
368.51	37.791
368.87	37.901
369.23	38.698
369.59	38.161
369.95	37.647
370.31	38.889
370.67	38.188
371.03	40.375
371.39	39.723
371.75	38.382
372.11	38.122
372.47	39.296
372.83	41.066
373.19	38.656
373.55	38.877
373.91	41.016
374.27	39.313
374.63	40.364
374.99	41.102
375.35	39.567
375.71	40.096
376.07	41.564
376.42	40.715
376.78	40.755
377.14	40.773
377.50	40.993
377.86	41.223
378.22	41.783
378.58	40.539
378.94	41.232
379.30	41.667
379.66	43.084
380.02	42.260
380.38	41.469
380.74	42.737
381.09	42.604
381.45	44.315
381.81	42.813
382.17	43.885
382.53	42.453
382.89	44.012
383.25	43.152
383.61	44.238
383.97	43.465
384.32	43.606
384.68	43.061
385.04	43.208
385.40	43.529
385.76	44.103
386.12	44.754
386.48	44.808
386.83	45.799
387.19	46.630
387.55	44.589
387.91	44.619
388.27	45.126
388.62	45.482
388.98	44.656
389.34	46.809
389.70	45.923
390.06	46.071
390.42	46.498
390.77	46.247
391.13	47.671
391.49	45.622
391.85	47.040
392.20	46.877
392.56	47.033
392.92	47.263
393.28	46.272
393.64	46.043
393.99	47.037
394.35	47.333
394.71	46.675
395.07	47.103
395.42	48.517
395.78	47.010
396.14	48.231
396.50	49.248
396.85	48.760
397.21	47.719
397.57	48.915
397.92	48.678
398.28	47.646
398.64	47.252
399.00	48.461
399.35	48.223
399.71	47.569
400.07	48.965
400.42	49.387
400.78	48.492
401.14	49.390
401.49	48.597
401.85	48.639
402.21	48.743
402.57	48.735
402.92	49.496
403.28	50.094
403.63	49.691
403.99	49.682
404.35	49.030
404.70	49.700
405.06	48.690
405.42	48.784
405.77	49.257
406.13	48.420
406.49	49.734
406.84	48.376
407.20	48.759
407.55	50.223
407.91	50.133
408.27	51.500
408.62	49.488
408.98	50.000
409.34	50.185
409.69	51.419
410.05	49.690
410.40	50.092
410.76	49.761
411.11	50.121
411.47	49.904
411.83	49.969
412.18	50.649
412.54	50.498
412.89	49.880
413.25	51.240
413.60	51.699
413.96	49.909
414.31	51.762
414.67	50.760
415.03	50.530
415.38	51.418
415.74	51.190
416.09	51.404
416.45	51.339
416.80	51.685
417.16	51.408
417.51	51.958
417.87	50.161
418.22	52.366
418.58	52.163
418.93	52.641
419.29	52.005
419.64	52.519
420.00	51.890
420.35	52.696
420.71	52.182
421.06	51.969
421.42	52.164
421.77	52.074
422.12	52.442
422.48	51.592
422.83	52.708
423.19	51.436
423.54	54.672
423.90	53.623
424.25	52.652
424.61	52.143
424.96	53.528
425.31	53.101
425.67	51.629
426.02	52.343
426.38	53.724
426.73	53.833
427.09	53.131
427.44	53.997
427.79	53.882
428.15	54.464
428.50	53.423
428.85	54.648
429.21	53.838
429.56	52.877
429.92	53.649
430.27	53.525
430.62	53.303
430.98	55.008
431.33	52.577
431.68	54.712
432.04	53.301
432.39	56.139
432.74	54.997
433.10	55.122
433.45	56.152
433.80	55.155
434.16	54.915
434.51	54.632
434.86	55.074
435.22	55.976
435.57	54.954
435.92	55.413
436.28	56.821
436.63	55.850
436.98	55.238
437.34	56.589
437.69	56.826
438.04	58.010
438.39	56.418
438.75	56.014
439.10	57.933
439.45	56.139
439.81	56.979
440.16	55.280
440.51	56.883
440.86	57.151
441.22	55.951
441.57	56.476
441.92	56.090
442.27	56.459
442.63	54.924
442.98	56.225
443.33	56.793
443.68	57.202
444.03	56.662
444.39	56.426
444.74	57.413
445.09	56.280
445.44	56.370
445.79	56.556
446.15	56.697
446.50	57.566
446.85	56.732
447.20	56.706
447.55	57.901
447.91	57.143
448.26	57.040
448.61	57.094
448.96	58.029
449.31	58.605
449.66	56.725
450.02	57.326
450.37	57.143
450.72	57.981
451.07	56.185
451.42	56.717
451.77	56.371
452.12	57.910
452.47	57.276
452.83	57.751
453.18	58.680
453.53	58.751
453.88	58.535
454.23	57.800
454.58	58.268
454.93	59.313
455.28	57.357
455.63	58.252
455.98	59.226
456.34	58.291
456.69	58.547
457.04	58.019
457.39	57.919
457.74	57.632
458.09	58.539
458.44	59.122
458.79	56.996
459.14	57.844
459.49	58.435
459.84	57.839
460.19	57.336
460.54	56.771
460.89	56.884
461.24	58.106
461.59	58.512
461.94	58.816
462.29	58.754
462.64	58.328
462.99	57.515
463.34	58.467
463.69	57.348
464.04	58.725
464.39	56.696
464.74	58.111
465.09	57.177
465.44	57.008
465.79	58.333
466.14	57.088
466.49	56.118
466.84	57.677
467.19	58.419
467.54	58.687
467.89	55.882
468.24	57.243
468.59	58.547
468.94	57.361
469.29	58.419
469.64	58.300
469.99	59.405
470.34	57.728
470.68	60.057
471.03	58.231
471.38	60.111
471.73	57.895
472.08	60.526
472.43	57.977
472.78	58.460
473.13	58.729
473.48	57.740
473.83	57.378
474.17	58.307
474.52	58.002
474.87	57.560
475.22	57.516
475.57	56.582
475.92	57.621
476.27	57.497
476.61	57.639
476.96	56.954
477.31	57.771
477.66	58.151
478.01	55.985
478.36	59.069
478.70	57.840
479.05	57.348
479.40	57.523
479.75	57.245
480.10	57.555
480.45	56.640
480.79	55.805
481.14	56.507
481.49	58.472
481.84	56.744
482.19	56.974
482.53	56.835
482.88	57.143
483.23	56.822
483.58	56.051
483.92	58.201
484.27	54.684
484.62	56.121
484.97	54.986
485.31	56.370
485.66	54.499
486.01	51.934
486.36	50.306
486.70	49.140
487.05	50.293
487.40	52.145
487.75	52.629
488.09	53.018
488.44	53.269
488.79	55.154
489.13	55.844
489.48	55.995
489.83	56.366
490.17	56.905
490.52	55.713
490.87	56.400
491.22	56.799
491.56	55.945
491.91	55.793
492.26	55.260
492.60	56.452
492.95	55.332
493.30	56.402
493.64	56.416
493.99	55.989
494.34	56.522
494.68	57.234
495.03	56.391
495.37	56.212
495.72	56.189
496.07	57.494
496.41	55.398
496.76	56.288
497.11	55.245
497.45	56.032
497.80	56.286
498.14	56.087
498.49	56.585
498.84	56.088
499.18	56.333
499.53	56.363
499.87	55.172
500.22	54.781
500.56	56.699
500.91	55.721
501.26	55.856
501.60	57.475
501.95	56.187
502.29	56.982
502.64	56.378
502.98	56.101
503.33	54.936
503.67	55.684
504.02	56.642
504.36	56.294
504.71	57.255
505.06	55.277
505.40	55.761
505.75	55.882
506.09	56.122
506.44	57.573
506.78	56.746
507.13	56.487
507.47	57.576
507.82	55.978
508.16	56.687
508.51	58.042
508.85	56.902
509.19	57.602
509.54	57.398
509.88	56.723
510.23	56.350
510.57	57.534
510.92	57.794
511.26	56.680
511.61	57.261
511.95	56.942
512.30	57.688
512.64	57.227
512.98	57.663
513.33	58.191
513.67	56.670
514.02	57.305
514.36	58.711
514.70	57.554
515.05	57.836
515.39	58.777
515.74	57.489
516.08	58.524
516.42	57.880
516.77	59.476
517.11	57.436
517.46	58.521
517.80	59.524
518.14	58.309
518.49	59.335
518.83	58.011
519.17	59.180
519.52	58.630
519.86	57.330
520.20	59.249
520.55	59.007
520.89	59.550
521.23	59.952
521.58	59.424
521.92	59.277
522.26	57.840
522.61	59.875
522.95	59.669
523.29	59.160
523.64	59.695
523.98	59.889
524.32	59.650
524.66	58.809
525.01	58.762
525.35	58.922
525.69	58.498
526.04	59.065
526.38	58.633
526.72	58.405
527.06	59.385
527.41	55.817
527.75	59.550
528.09	59.987
528.43	58.955
528.78	59.250
529.12	57.879
529.46	59.032
529.80	59.097
530.15	58.318
530.49	57.785
530.83	58.608
531.17	61.619
531.51	59.987
531.86	60.323
532.20	60.495
532.54	59.129
532.88	58.344
533.22	56.902
533.57	58.519
533.91	58.278
534.25	56.683
534.59	57.108
534.93	56.514
535.27	57.212
535.62	57.082
535.96	57.815
536.30	57.661
536.64	57.952
536.98	58.991
537.32	57.670
537.66	58.467
538.01	59.315
538.35	58.565
538.69	59.221
539.03	58.155
539.37	56.613
539.71	57.421
540.05	57.908
540.39	57.475
540.73	57.439
541.07	59.117
541.42	57.730
541.76	58.323
542.10	57.956
542.44	57.881
542.78	57.312
543.12	56.366
543.46	56.984
543.80	58.621
544.14	56.418
544.48	57.587
544.82	58.307
545.16	59.206
545.50	56.170
545.84	57.392
546.18	58.788
546.52	58.568
546.86	58.351
547.20	58.328
547.54	56.914
547.88	57.717
548.22	55.417
548.56	57.421
548.90	56.018
549.24	57.037
549.58	58.186
549.92	57.967
550.26	59.233
550.60	57.469
550.94	58.873
551.28	56.986
551.62	58.663
551.96	57.895
552.30	58.020
552.64	57.268
552.98	58.712
553.32	57.114
553.66	58.146
554.00	56.829
554.34	57.350
554.68	58.298
555.02	56.135
555.36	58.177
555.69	57.510
556.03	57.335
556.37	56.344
556.71	57.231
557.05	57.003
557.39	58.083
557.73	56.669
558.07	59.028
558.41	59.407
558.75	58.046
559.08	58.613
559.42	60.317
559.76	58.603
560.10	57.816
560.44	57.652
560.78	57.552
561.12	57.388
561.45	56.714
561.79	56.163
562.13	57.009
562.47	57.787
562.81	57.950
563.15	56.388
563.48	57.095
563.82	57.534
564.16	56.769
564.50	55.143
564.84	55.879
565.17	55.084
565.51	57.764
565.85	56.853
566.19	55.354
566.52	56.555
566.86	56.058
567.20	56.545
567.54	56.450
567.88	54.536
568.21	54.709
568.55	53.236
568.89	54.475
569.23	52.897
569.56	51.215
569.90	51.019
570.24	50.951
570.57	49.575
570.91	48.804
571.25	49.135
571.59	48.071
571.92	48.646
572.26	48.585
572.60	49.129
572.93	48.756
573.27	48.861
573.61	48.492
573.95	49.251
574.28	48.241
574.62	47.668
574.96	46.619
575.29	46.969
575.63	47.663
575.97	47.852
576.30	48.301
576.64	48.294
576.98	47.788
577.31	47.458
577.65	47.774
577.98	47.407
578.32	46.446
578.66	46.436
578.99	47.227
579.33	47.761
579.67	47.288
580.00	47.638
580.34	47.888
580.67	47.554
581.01	47.942
581.35	47.372
581.68	47.089
582.02	46.126
582.35	46.203
582.69	46.447
583.02	46.704
583.36	48.006
583.70	47.927
584.03	48.537
584.37	48.511
584.70	48.642
585.04	48.165
585.37	47.670
585.71	47.791
586.04	47.379
586.38	48.589
586.72	48.329
587.05	47.704
587.39	48.628
587.72	49.008
588.06	48.826
588.39	48.477
588.73	49.692
589.06	50.483
589.40	50.067
589.73	51.109
590.07	50.356
590.40	49.872
590.73	51.249
591.07	52.462
591.40	51.455
591.74	52.684
592.07	51.702
592.41	51.261
592.74	50.075
593.08	49.300
593.41	49.826
593.75	49.188
594.08	49.950
594.41	49.770
594.75	51.238
595.08	50.000
595.42	50.438
595.75	49.929
596.09	50.207
596.42	51.356
596.75	52.132
597.09	51.732
597.42	50.927
597.75	51.358
598.09	51.652
598.42	52.148
598.76	51.480
599.09	50.475
599.42	49.891
599.76	50.952
600.09	50.055
600.42	49.927
600.76	49.750
601.09	49.253
601.42	51.065
601.76	50.816
602.09	50.830
602.42	51.274
602.76	51.552
603.09	51.574
603.42	51.269
603.76	50.762
604.09	50.679
604.42	50.673
604.76	50.991
605.09	51.070
605.42	51.389
605.75	50.993
606.09	51.118
606.42	51.696
606.75	50.477
607.09	51.319
607.42	51.348
607.75	50.506
608.08	51.628
608.42	52.443
608.75	51.127
609.08	52.405
609.41	52.166
609.75	52.025
610.08	51.602
610.41	52.607
610.74	52.602
611.07	52.816
611.41	53.189
611.74	52.941
612.07	53.313
612.40	54.355
612.73	51.895
613.07	54.688
613.40	53.133
613.73	53.540
614.06	53.226
614.39	52.543
614.72	52.632
615.06	52.731
615.39	53.715
615.72	51.840
616.05	52.897
616.38	54.530
616.71	54.751
617.05	55.065
617.38	54.660
617.71	55.015
618.04	54.688
618.37	54.820
618.70	56.067
619.03	55.000
619.36	55.058
619.69	56.690
620.03	56.387
620.36	56.885
620.69	58.082
621.02	57.965
621.35	57.322
621.68	56.776
622.01	58.437
622.34	57.337
622.67	59.011
623.00	56.346
623.33	56.183
623.66	57.112
623.99	58.027
624.32	56.847
624.65	57.203
624.99	55.878
625.32	55.974
625.65	57.325
625.98	59.032
626.31	58.243
626.64	59.102
626.97	59.435
627.30	58.936
627.63	59.803
627.96	59.294
628.29	60.455
628.62	62.306
628.95	62.264
629.28	61.861
629.61	62.695
629.94	61.905
630.26	63.108
630.59	61.010
630.92	59.962
631.25	62.586
631.58	61.662
631.91	61.663
632.24	62.764
632.57	61.490
632.90	63.158
633.23	64.653
633.56	66.215
633.89	63.533
634.22	63.224
634.55	67.337
634.88	65.269
635.20	65.950
635.53	65.060
635.86	67.946
636.19	64.824
636.52	65.744
636.85	64.261
637.18	64.171
637.51	65.130
637.83	64.735
638.16	67.008
638.49	65.491
638.82	65.992
639.15	65.625
639.48	64.214
639.81	65.952
640.13	65.234
640.46	67.114
640.79	67.107
641.12	65.887
641.45	65.922
641.77	69.809
642.10	68.567
642.43	69.069
642.76	68.731
643.09	68.252
643.41	68.741
643.74	71.759
644.07	68.140
644.40	70.706
644.73	72.283
645.05	69.889
645.38	70.932
645.71	68.760
646.04	71.262
646.36	73.122
646.69	70.234
647.02	71.088
647.35	70.790
647.67	72.566
648.00	68.130
648.33	71.947
648.66	67.121
648.98	65.667
649.31	67.115
649.64	66.667
649.96	66.468
650.29	69.510
650.62	68.447
650.94	67.909
651.27	71.622
651.60	71.048
651.92	68.690
652.25	67.264
652.58	68.692
652.90	67.930
653.23	66.564
653.56	70.079
653.88	69.889
654.21	66.035
654.54	67.657
654.86	64.953
655.19	63.243
655.52	48.416
655.84	42.876
656.17	53.477
656.49	69.996
656.82	69.691
657.15	52.654
657.47	38.960
657.80	30.452
658.13	31.634
658.45	47.359
658.78	47.507
659.10	49.313
659.43	51.021
659.75	54.399
660.08	59.241
660.41	64.246
660.73	67.726
661.06	69.268
661.38	72.364
661.71	73.077
662.03	76.726
662.36	70.775
662.68	71.888
663.01	72.323
663.33	75.584
663.66	75.420
663.98	73.650
664.31	72.059
664.63	70.040
664.96	69.618
665.28	72.951
665.61	71.150
665.93	69.014
666.26	73.225
666.58	73.013
666.91	73.784
667.23	75.955
667.56	69.546
667.88	74.786
668.21	73.987
668.53	76.356
668.86	71.429
669.18	74.200
669.50	76.304
669.83	74.510
670.15	76.667
670.48	74.728
670.80	71.983
671.13	72.399
671.45	71.277
671.77	74.338
672.10	69.316
672.42	66.961
672.75	64.677
673.07	67.430
673.39	68.716
673.72	67.969
674.04	67.451
674.37	70.097
674.69	73.415
675.01	69.247
675.34	73.306
675.66	76.000
675.98	72.709
676.31	71.218
676.63	72.399
676.95	75.681
677.28	72.664
677.60	73.187
677.92	72.363
678.25	72.895
678.57	72.908
678.89	68.537
679.22	67.387
679.54	69.466
679.86	70.275
680.18	65.832
680.51	69.858
680.83	66.726
681.15	68.491
681.48	69.565
681.80	68.665
682.12	68.582
682.44	67.118
682.77	69.246
683.09	72.961
683.41	72.506
683.73	71.523
684.06	72.107
684.38	65.949
684.70	69.380
685.02	68.105
685.34	67.033
685.67	63.636
685.99	64.261
686.31	64.164
686.63	63.604
686.96	65.179
687.28	64.260
687.60	67.391
687.92	65.996
688.24	65.589
688.56	72.691
688.89	69.710
689.21	72.489
689.53	69.311
689.85	75.388
690.17	66.253
690.49	69.639
690.82	71.262
691.14	66.964
691.46	66.878
691.78	67.269
692.10	71.488
692.42	67.265
692.74	67.842
693.06	70.426
693.39	69.405
693.71	68.122
694.03	67.789
694.35	66.667
694.67	70.709
694.99	71.707
695.31	69.608
695.63	70.096
695.95	73.594
696.27	69.289
696.59	70.466
696.91	72.021
697.23	65.962
697.56	66.951
697.88	65.644
698.20	65.000
698.52	67.312
698.84	67.483
699.16	67.742
699.48	69.834
699.80	70.773
700.12	74.805
700.44	72.149
700.76	73.481
701.08	71.552
701.40	70.112
701.72	76.385
702.04	73.864
702.36	70.538
702.68	75.921
703.00	71.468
703.32	71.543
703.64	71.046
703.96	71.031
704.28	72.093
704.60	76.246
704.91	75.964
705.23	70.381
705.55	79.734
705.87	77.741
706.19	80.565
706.51	71.340
706.83	73.030
707.15	73.109
707.47	66.667
707.79	72.236
708.11	67.808
708.43	67.381
708.74	61.224
709.06	67.532
709.38	67.454
709.70	73.256
710.02	72.404
710.34	70.909
710.66	74.627
710.98	69.886
711.29	70.930
711.61	75.811
711.93	68.590
712.25	75.241
712.57	79.412
712.89	75.087
713.20	67.781
713.52	77.303
713.84	71.519
714.16	68.293
714.48	70.115
714.80	74.468
715.11	70.029
715.43	69.139
715.75	65.507
716.07	69.649
716.39	69.906
716.70	72.425
717.02	74.460
717.34	72.792
717.66	76.493
717.97	74.502
718.29	72.593
718.61	73.723
718.93	72.426
719.24	69.204
719.56	63.729
719.88	70.169
720.20	72.973
720.51	73.519
720.83	78.810
721.15	70.896
721.46	70.922
721.78	69.176
722.10	76.226
722.42	74.060
722.73	70.037
723.05	78.689
723.37	75.709
723.68	75.676
724.00	76.016
724.32	76.210
724.63	77.236
724.95	76.151
725.27	75.304
725.58	72.656
725.90	72.628
726.22	69.811
726.53	68.403
726.85	70.307
727.16	66.548
727.48	69.149
727.80	73.485
728.11	69.928
728.43	70.769
728.74	67.025
729.06	71.533
729.38	75.000
729.69	71.530
730.01	60.068
730.32	68.403
730.64	67.224
730.96	68.647
731.27	62.583
731.59	64.220
731.90	62.099
732.22	69.876
732.53	62.848
732.85	66.026
733.16	66.559
733.48	66.113
733.80	65.584
734.11	66.242
734.43	64.201
734.74	62.857
735.06	63.324
735.37	65.318
735.69	67.834
736.00	68.954
736.32	65.109
736.63	62.939
736.95	63.259
737.26	61.224
737.58	63.871
737.89	66.890
738.21	69.625
738.52	66.071
738.83	61.132
739.15	68.846
739.46	73.358
739.78	67.014
740.09	62.769
740.41	63.871
740.72	65.505
741.04	64.444
741.35	68.750
741.66	76.000
741.98	65.094
742.29	72.249
742.61	68.103
742.92	71.493
743.23	71.368
743.55	64.800
743.86	69.737
744.18	76.991
744.49	80.861
744.80	79.812
745.12	73.636
745.43	72.247
745.74	74.324
746.06	74.771
746.37	69.955
746.68	74.208
747.00	80.556
747.31	75.714
747.62	68.584
747.94	72.247
748.25	60.000
748.56	73.568
748.88	72.277
749.19	80.000
749.50	69.302
749.82	63.415
750.13	71.837
750.44	67.518
750.75	64.912
751.07	65.595
751.38	66.202
751.69	69.675
752.01	67.669
752.32	63.899
752.63	65.603
752.94	68.443
753.26	69.200
753.57	63.821
753.88	73.047
754.19	62.500
754.51	62.847
754.82	60.650
755.13	69.057
755.44	63.534
755.75	64.234
756.07	63.830
756.38	61.679
756.69	64.430
757.00	59.581
757.31	62.611
757.63	60.526
757.94	57.909
758.25	55.392
758.56	54.074
758.87	58.871
759.18	57.879
759.50	57.367
759.81	60.436
760.12	60.312
760.43	58.453
760.74	55.163
761.05	60.169
761.36	55.348
761.67	60.795
761.99	62.112
762.30	63.194
762.61	63.740
762.92	61.719
763.23	60.924
763.54	66.000
763.85	62.891
764.16	63.846
764.47	67.681
764.78	61.837
765.10	56.013
765.41	57.522
765.72	55.090
766.03	56.740
766.34	59.000
766.65	64.681
766.96	58.547
767.27	70.051
767.58	71.875
767.89	72.105
768.20	72.414
768.51	70.051
768.82	63.761
769.13	63.008
769.44	60.324
769.75	65.236
770.06	67.431
770.37	68.778
770.68	63.889
770.99	63.111
771.30	57.377
771.61	64.126
771.92	62.705
772.23	61.765
772.54	64.615
772.85	69.110
773.16	70.213
773.47	67.391
773.78	64.975
774.09	74.405
774.39	73.684
774.70	75.309
775.01	84.058
775.32	78.431
775.63	61.842
775.94	74.101
776.25	81.890
776.56	75.373
776.87	76.230
777.18	75.000
777.48	75.573
777.79	77.273
778.10	69.630
778.41	80.357
778.72	75.912
779.03	69.799
779.34	70.470
779.65	65.541
779.95	69.939
780.26	69.935
780.57	73.793
780.88	74.219
781.19	73.684
781.50	80.405
781.80	66.667
782.11	66.102
782.42	63.291
782.73	61.350
783.04	71.622
783.34	71.831
783.65	76.712
783.96	76.119
784.27	68.531
784.57	72.662
784.88	73.148
785.19	83.333
785.50	77.358
785.81	70.149
786.11	78.689
786.42	74.419
786.73	69.027
787.04	80.189
787.34	71.429
787.65	95.000
787.96	75.676
788.26	81.818
788.57	70.339
788.88	80.165
789.19	59.722
789.49	74.242
789.80	71.756
790.11	86.667
790.41	81.188
790.72	83.133
791.03	82.609
791.33	86.047
791.64	78.351
791.95	72.277
792.25	77.778
792.56	96.104
792.87	101.282
793.17	100.000
793.48	91.954
793.79	73.563
794.09	79.545
794.40	71.429
794.70	74.265
795.01	63.704
795.32	59.712
795.62	63.780
795.93	71.552
796.23	76.106
796.54	72.941
796.85	94.595
797.15	105.634
797.46	93.939
797.76	80.723
798.07	79.747
798.37	84.615
798.68	83.333
798.99	80.282
799.29	80.519
799.60	75.000
799.90	91.781
800.21	94.030
800.51	98.276
800.82	100.000
801.12	109.836
801.43	83.333
801.73	77.027
802.04	80.952
802.34	75.309
802.65	85.938
802.95	100.000
803.26	98.438
803.56	78.571
803.87	81.538
804.17	76.471
804.48	103.704
804.78	82.759
805.09	82.353
805.39	92.308
805.70	101.786
806.00	96.721
806.30	83.333
806.61	96.341
806.91	74.684
807.22	88.158
807.52	68.657
807.83	85.915
808.13	103.125
808.43	101.667
808.74	78.947
809.04	88.406
809.35	101.493
809.65	64.474
809.95	109.677
810.26	79.661
810.56	79.365
810.86	106.818
811.17	130.952
811.47	100.000
811.77	94.444
812.08	94.545
812.38	100.000
812.69	113.889
812.99	131.818
813.29	120.408
813.59	88.095
813.90	120.408
814.20	103.636
814.50	70.769
814.81	83.824
815.11	122.449
815.41	72.131
815.72	126.190
816.02	96.364
816.32	119.048
816.62	110.000
816.93	102.439
817.23	111.905
817.53	100.000
817.84	133.333
818.14	82.609
818.44	95.556
818.74	155.882
819.04	130.000
819.35	117.143
819.65	120.588
819.95	110.714
820.25	170.000
820.56	141.026
820.86	111.364
821.16	106.977
821.46	94.872
821.76	112.000
822.07	120.000
822.37	115.000
822.67	106.061
822.97	88.235
823.27	178.571
823.57	108.108
823.88	120.000
824.18	140.000
824.48	130.952
824.78	132.000
825.08	158.333
825.38	124.324
825.69	97.561
825.99	200.000
826.29	117.241
826.59	78.947
826.89	113.158
827.19	126.471
827.49	148.387
827.79	134.091
828.09	90.909
828.39	100.000
828.70	97.959
829.00	151.852
829.30	129.032
829.60	105.000
829.90	186.667
830.20	110.714
830.50	156.522
830.80	108.696
831.10	183.333
831.40	110.000
831.70	134.783
832.00	169.231
832.30	111.111
832.60	181.250
832.90	140.000
833.20	264.286
833.50	154.839
833.80	158.621
834.10	118.750
834.40	146.154
834.70	155.556
835.00	195.238
835.30	122.857
835.60	207.692
835.90	168.966
836.20	207.143
836.50	131.034
836.80	136.000
837.10	122.222
837.40	152.381
837.70	200.000
838.00	107.407
838.30	142.857
838.60	180.952
838.90	142.308
839.19	190.000
839.49	285.714
839.79	185.000
840.09	170.000
840.39	195.238
840.69	200.000
840.99	150.000
841.29	340.000
841.59	266.667
841.88	225.000
842.18	124.138
842.48	161.905
842.78	133.333
843.08	182.609
843.38	115.625
843.68	516.667
843.97	180.769
844.27	155.172
844.57	223.810
844.87	231.250
845.17	155.556
845.47	1000.000
845.76	233.333
846.06	170.588
846.36	275.000
846.66	192.857
846.96	206.250
847.25	190.909
847.55	290.909
847.85	182.609
848.15	230.000
848.44	278.571
848.74	155.556
849.04	194.118
849.34	340.000
849.63	105.263
849.93	254.545
850.23	580.000
850.53	257.143
850.82	1000.000
851.12	-2500.000
851.42	2600.000
851.71	170.000
852.01	-566.667
852.31	154.167
852.61	1066.667
852.90	180.952
853.20	192.000
853.50	229.412
853.79	123.810
854.09	141.667
854.39	156.250
854.68	124.324
854.98	132.258
855.28	153.333
855.57	144.828
855.87	151.852
856.17	142.105
856.46	146.667
856.76	158.824
857.05	131.034
857.35	141.667
857.65	213.333
857.94	152.174
858.24	169.231
858.53	230.000
858.83	186.364
859.13	200.000
859.42	0.000
859.72	233.333
860.01	300.000
860.31	186.364
860.60	142.105
860.90	147.826
861.20	233.333
861.49	283.333
861.79	-1700.000
862.08	375.000
862.38	171.429
862.67	153.846
862.97	188.235
863.26	344.444
863.56	127.778
863.85	191.667
864.15	362.500
864.44	300.000
864.74	483.333
865.03	375.000
865.33	184.211
865.62	290.909
865.92	246.154
866.21	166.667
866.51	0.000
866.80	181.818
867.10	620.000
867.39	246.154
867.69	136.364
867.98	147.368
868.27	354.545
868.57	226.316
868.86	-1600.000
869.16	231.250
869.45	900.000
869.75	-2100.000
870.04	266.667
870.33	385.714
870.63	650.000
870.92	1450.000
871.22	400.000
871.51	217.647
871.80	128.571
872.10	157.143
>>>>>End Processed Spectral Data<<<<<
