SpectraSuite Data File
++++++++++++++++++++++++++++++++++++
Date: Wed May 13 16:23:42 PDT 2015
User: schluterlab
Dark Spectrum Present: Yes
Reference Spectrum Present: Yes
Number of Sampled Component Spectra: 1
Spectrometers: USB2E3373
Integration Time (usec): 3000 (USB2E3373)
Spectra Averaged: 3 (USB2E3373)
Boxcar Smoothing: 0 (USB2E3373)
Correct for Electrical Dark: No (USB2E3373)
Strobe/Lamp Enabled: No (USB2E3373)
Correct for Detector Non-linearity: No (USB2E3373)
Correct for Stray Light: No (USB2E3373)
Number of Pixels in Processed Spectrum: 2048
>>>>>Begin Processed Spectral Data<<<<<
178.53	0.000
178.91	-1075.000
179.29	-1550.000
179.67	-166.667
180.04	-1025.000
180.42	2550.000
180.80	1120.000
181.18	-1025.000
181.56	614.286
181.94	0.000
182.31	-457.143
182.69	1800.000
183.07	-450.000
183.45	-477.778
183.83	400.000
184.20	-330.000
184.58	2250.000
184.96	5700.000
185.34	-740.000
185.72	-575.000
186.09	-2450.000
186.47	2500.000
186.85	2150.000
187.23	4900.000
187.61	-1566.667
187.98	1325.000
188.36	518.182
188.74	427.273
189.12	-740.000
189.49	470.000
189.87	-5300.000
190.25	-1150.000
190.63	378.571
191.00	400.000
191.38	733.333
191.76	-1000.000
192.14	1150.000
192.51	600.000
192.89	1050.000
193.27	612.500
193.65	-825.000
194.02	490.000
194.40	940.000
194.78	540.000
195.15	483.333
195.53	630.000
195.91	-2200.000
196.29	287.500
196.66	321.053
197.04	-330.000
197.42	0.000
197.79	630.000
198.17	-4800.000
198.55	571.429
198.92	600.000
199.30	920.000
199.68	0.000
200.05	338.889
200.43	800.000
200.81	4400.000
201.18	1400.000
201.56	-1200.000
201.94	477.778
202.31	533.333
202.69	433.333
203.07	440.000
203.44	0.000
203.82	1225.000
204.19	714.286
204.57	364.286
204.95	712.500
205.32	1333.333
205.70	500.000
206.08	435.714
206.45	2900.000
206.83	356.250
207.20	883.333
207.58	760.000
207.96	327.778
208.33	700.000
208.71	-650.000
209.08	842.857
209.46	566.667
209.84	445.455
210.21	-1400.000
210.59	1375.000
210.96	-425.000
211.34	2900.000
211.71	550.000
212.09	783.333
212.46	0.000
212.84	1733.333
213.22	1350.000
213.59	-3600.000
213.97	800.000
214.34	714.286
214.72	590.909
215.09	1040.000
215.47	-2100.000
215.84	-2350.000
216.22	1700.000
216.59	400.000
216.97	1275.000
217.34	472.727
217.72	-700.000
218.09	0.000
218.47	-4300.000
218.84	544.444
219.22	700.000
219.59	1266.667
219.97	-671.429
220.34	860.000
220.72	-1633.333
221.09	407.143
221.47	1450.000
221.84	-733.333
222.22	0.000
222.59	1375.000
222.97	-2200.000
223.34	1200.000
223.72	384.615
224.09	980.000
224.46	2250.000
224.84	-3900.000
225.21	-880.000
225.59	-4000.000
225.96	520.000
226.34	280.000
226.71	2550.000
227.08	600.000
227.46	440.000
227.83	-950.000
228.21	-2200.000
228.58	544.444
228.95	-2250.000
229.33	-1450.000
229.70	1600.000
230.08	714.286
230.45	-840.000
230.82	450.000
231.20	883.333
231.57	642.857
231.95	433.333
232.32	245.455
232.69	463.636
233.07	757.143
233.44	369.231
233.81	-1566.667
234.19	289.474
234.56	425.000
234.93	325.000
235.31	472.727
235.68	376.923
236.05	335.714
236.43	190.909
236.80	247.368
237.17	3700.000
237.55	295.238
237.92	192.857
238.29	271.429
238.67	183.871
239.04	206.897
239.41	138.889
239.79	121.739
240.16	128.571
240.53	138.636
240.91	101.961
241.28	114.000
241.65	106.000
242.02	92.754
242.40	91.935
242.77	101.667
243.14	70.968
243.51	87.640
243.89	80.000
244.26	62.222
244.63	61.290
245.00	68.085
245.38	64.356
245.75	59.813
246.12	59.633
246.49	64.234
246.87	64.000
247.24	57.692
247.61	55.000
247.98	50.327
248.36	43.919
248.73	45.223
249.10	47.134
249.47	41.243
249.84	47.594
250.22	40.642
250.59	40.828
250.96	45.455
251.33	42.654
251.70	41.089
252.08	45.714
252.45	34.529
252.82	40.870
253.19	40.000
253.56	36.471
253.94	43.568
254.31	41.016
254.68	37.692
255.05	39.483
255.42	38.211
255.79	38.603
256.16	38.989
256.54	34.276
256.91	34.520
257.28	33.813
257.65	33.993
258.02	35.404
258.39	29.968
258.76	32.107
259.14	33.333
259.51	31.307
259.88	31.366
260.25	35.650
260.62	31.214
260.99	29.503
261.36	35.135
261.73	32.092
262.10	29.942
262.47	31.268
262.85	30.084
263.22	31.054
263.59	34.758
263.96	30.495
264.33	29.765
264.70	30.789
265.07	30.691
265.44	28.535
265.81	27.494
266.18	29.899
266.55	29.756
266.92	31.204
267.29	30.324
267.66	27.982
268.03	29.545
268.40	30.374
268.77	26.969
269.14	29.279
269.51	32.054
269.88	27.739
270.25	29.571
270.62	28.315
270.99	30.108
271.36	29.828
271.73	30.374
272.10	27.826
272.47	29.677
272.84	28.571
273.21	27.883
273.58	29.694
273.95	25.786
274.32	26.653
274.69	26.981
275.06	25.787
275.43	27.660
275.80	26.854
276.17	24.236
276.54	27.443
276.91	25.692
277.28	27.539
277.65	25.919
278.02	27.743
278.39	27.344
278.76	25.818
279.13	25.660
279.50	26.816
279.87	24.104
280.23	26.347
280.60	24.565
280.97	23.845
281.34	26.903
281.71	26.909
282.08	28.023
282.45	24.545
282.82	25.577
283.19	24.421
283.56	26.667
283.92	26.227
284.29	23.810
284.66	24.682
285.03	24.412
285.40	25.352
285.77	27.609
286.14	22.625
286.51	24.167
286.87	24.786
287.24	25.244
287.61	23.917
287.98	25.812
288.35	22.504
288.72	23.988
289.08	24.100
289.45	23.229
289.82	24.553
290.19	22.763
290.56	22.511
290.93	21.903
291.29	23.313
291.66	20.649
292.03	21.948
292.40	23.642
292.77	20.562
293.13	21.642
293.50	20.554
293.87	22.222
294.24	22.222
294.60	21.106
294.97	21.657
295.34	22.144
295.71	21.591
296.08	20.370
296.44	20.495
296.81	19.815
297.18	21.545
297.55	18.470
297.91	19.789
298.28	19.411
298.65	20.757
299.02	20.949
299.38	18.061
299.75	18.059
300.12	19.540
300.48	19.125
300.85	18.372
301.22	20.127
301.59	18.561
301.95	18.388
302.32	18.100
302.69	18.638
303.05	17.818
303.42	19.012
303.79	18.347
304.15	17.133
304.52	17.613
304.89	18.002
305.25	16.705
305.62	18.913
305.99	19.599
306.35	18.121
306.72	18.274
307.09	19.090
307.45	19.369
307.82	17.076
308.19	17.550
308.55	18.878
308.92	17.508
309.29	17.951
309.65	16.649
310.02	17.970
310.38	18.710
310.75	17.635
311.12	17.912
311.48	18.286
311.85	17.610
312.22	18.106
312.58	16.736
312.95	17.740
313.31	18.350
313.68	17.360
314.05	20.316
314.41	19.397
314.78	18.530
315.14	18.570
315.51	18.744
315.87	18.713
316.24	17.676
316.61	18.421
316.97	18.885
317.34	18.200
317.70	19.120
318.07	19.153
318.43	20.254
318.80	20.619
319.16	20.621
319.53	19.606
319.89	20.190
320.26	21.600
320.62	20.635
320.99	21.515
321.35	21.515
321.72	21.663
322.08	22.014
322.45	23.383
322.81	22.578
323.18	23.025
323.54	22.171
323.91	23.208
324.27	23.423
324.64	22.740
325.00	23.625
325.37	25.387
325.73	25.045
326.10	24.184
326.46	23.656
326.83	24.849
327.19	25.705
327.56	24.826
327.92	24.497
328.29	25.288
328.65	25.875
329.01	26.715
329.38	25.347
329.74	25.115
330.11	26.673
330.47	26.171
330.84	27.574
331.20	26.958
331.56	26.239
331.93	25.370
332.29	26.797
332.66	26.991
333.02	26.965
333.38	27.733
333.75	26.649
334.11	26.779
334.48	26.797
334.84	28.033
335.20	26.455
335.57	25.929
335.93	25.357
336.29	27.473
336.66	26.330
337.02	25.973
337.38	27.685
337.75	25.847
338.11	26.679
338.47	27.256
338.84	27.223
339.20	25.872
339.56	28.467
339.93	25.818
340.29	27.355
340.65	27.540
341.02	26.527
341.38	26.690
341.74	26.491
342.11	26.987
342.47	26.872
342.83	26.541
343.20	27.706
343.56	26.116
343.92	26.491
344.28	26.020
344.65	26.741
345.01	26.263
345.37	25.729
345.73	26.819
346.10	27.536
346.46	26.356
346.82	26.277
347.19	25.815
347.55	26.519
347.91	27.589
348.27	27.034
348.63	26.254
349.00	27.023
349.36	26.190
349.72	26.624
350.08	26.256
350.45	27.909
350.81	27.457
351.17	26.742
351.53	27.109
351.89	26.733
352.26	27.624
352.62	27.586
352.98	27.310
353.34	27.116
353.70	26.268
354.07	27.177
354.43	25.556
354.79	25.986
355.15	26.417
355.51	26.539
355.87	27.592
356.24	26.629
356.60	26.464
356.96	26.951
357.32	26.002
357.68	28.268
358.04	26.366
358.40	27.633
358.77	26.526
359.13	26.204
359.49	27.216
359.85	26.032
360.21	27.592
360.57	28.638
360.93	27.769
361.29	27.740
361.66	25.387
362.02	27.985
362.38	28.213
362.74	27.530
363.10	27.017
363.46	26.412
363.82	27.967
364.18	27.093
364.54	28.158
364.90	28.258
365.26	26.838
365.62	28.780
365.98	26.735
366.35	27.221
366.71	28.344
367.07	28.696
367.43	28.520
367.79	29.693
368.15	29.023
368.51	27.762
368.87	29.193
369.23	27.725
369.59	28.820
369.95	28.382
370.31	28.632
370.67	27.464
371.03	29.813
371.39	28.936
371.75	28.235
372.11	28.450
372.47	29.545
372.83	29.539
373.19	27.818
373.55	28.455
373.91	29.750
374.27	28.797
374.63	28.873
374.99	29.802
375.35	29.100
375.71	28.855
376.07	29.630
376.42	28.748
376.78	30.351
377.14	29.104
377.50	29.205
377.86	29.122
378.22	29.772
378.58	29.449
378.94	30.107
379.30	28.753
379.66	30.647
380.02	30.405
380.38	30.480
380.74	30.012
381.09	30.868
381.45	32.145
381.81	31.757
382.17	30.573
382.53	31.635
382.89	31.296
383.25	31.707
383.61	32.838
383.97	31.957
384.32	30.942
384.68	31.475
385.04	31.100
385.40	32.198
385.76	31.695
386.12	32.319
386.48	32.284
386.83	33.291
387.19	33.148
387.55	33.024
387.91	32.830
388.27	33.599
388.62	34.296
388.98	32.248
389.34	32.916
389.70	33.354
390.06	33.587
390.42	33.333
390.77	33.842
391.13	33.504
391.49	33.312
391.85	32.081
392.20	33.123
392.56	33.270
392.92	33.137
393.28	32.485
393.64	33.993
393.99	32.865
394.35	34.119
394.71	33.061
395.07	32.648
395.42	33.993
395.78	32.888
396.14	33.582
396.50	35.150
396.85	34.139
397.21	34.155
397.57	32.982
397.92	33.714
398.28	33.408
398.64	34.110
399.00	32.960
399.35	34.010
399.71	32.928
400.07	33.708
400.42	33.926
400.78	34.379
401.14	33.415
401.49	34.328
401.85	33.575
402.21	32.754
402.57	33.621
402.92	34.174
403.28	34.603
403.63	33.168
403.99	35.287
404.35	32.606
404.70	33.993
405.06	32.790
405.42	33.188
405.77	32.400
406.13	32.167
406.49	34.063
406.84	33.018
407.20	32.801
407.55	34.078
407.91	33.733
408.27	33.504
408.62	32.571
408.98	33.027
409.34	33.272
409.69	34.323
410.05	33.395
410.40	33.578
410.76	33.333
411.11	32.871
411.47	32.588
411.83	33.109
412.18	31.478
412.54	32.690
412.89	32.892
413.25	33.825
413.60	32.736
413.96	32.423
414.31	33.171
414.67	33.460
415.03	33.841
415.38	33.054
415.74	33.891
416.09	33.965
416.45	34.203
416.80	33.047
417.16	33.244
417.51	33.776
417.87	33.462
418.22	33.186
418.58	33.376
418.93	33.477
419.29	32.209
419.64	33.942
420.00	33.293
420.35	32.406
420.71	33.353
421.06	32.757
421.42	32.632
421.77	32.904
422.12	31.555
422.48	32.272
422.83	32.906
423.19	32.707
423.54	32.559
423.90	33.275
424.25	33.166
424.61	32.619
424.96	33.236
425.31	32.226
425.67	30.899
426.02	31.771
426.38	32.662
426.73	31.363
427.09	33.252
427.44	32.490
427.79	31.857
428.15	32.619
428.50	31.480
428.85	32.241
429.21	31.971
429.56	31.985
429.92	31.706
430.27	31.678
430.62	31.439
430.98	31.655
431.33	31.598
431.68	31.728
432.04	31.629
432.39	31.696
432.74	31.418
433.10	32.145
433.45	32.128
433.80	31.098
434.16	31.944
434.51	30.579
434.86	31.756
435.22	32.240
435.57	32.158
435.92	31.422
436.28	32.740
436.63	33.002
436.98	30.910
437.34	32.499
437.69	32.030
438.04	32.715
438.39	32.239
438.75	31.784
439.10	32.346
439.45	31.641
439.81	32.085
440.16	31.112
440.51	31.517
440.86	32.079
441.22	31.591
441.57	31.794
441.92	30.706
442.27	31.593
442.63	31.227
442.98	32.225
443.33	32.011
443.68	31.544
444.03	31.040
444.39	31.013
444.74	30.736
445.09	31.267
445.44	29.688
445.79	31.024
446.15	31.233
446.50	30.749
446.85	31.244
447.20	30.954
447.55	31.267
447.91	31.329
448.26	30.718
448.61	31.769
448.96	31.728
449.31	32.115
449.66	30.895
450.02	31.031
450.37	30.499
450.72	30.908
451.07	30.408
451.42	30.699
451.77	31.063
452.12	30.831
452.47	31.841
452.83	31.235
453.18	31.540
453.53	30.489
453.88	30.301
454.23	30.663
454.58	30.951
454.93	31.024
455.28	29.800
455.63	30.643
455.98	31.369
456.34	31.407
456.69	30.870
457.04	30.712
457.39	30.392
457.74	30.180
458.09	30.477
458.44	30.901
458.79	30.694
459.14	31.038
459.49	30.998
459.84	29.972
460.19	29.758
460.54	28.588
460.89	29.786
461.24	31.087
461.59	30.564
461.94	30.271
462.29	30.445
462.64	29.355
462.99	29.148
463.34	30.600
463.69	30.144
464.04	30.725
464.39	29.217
464.74	29.887
465.09	30.036
465.44	29.307
465.79	28.635
466.14	29.776
466.49	29.310
466.84	29.947
467.19	29.873
467.54	30.000
467.89	29.112
468.24	29.668
468.59	29.426
468.94	28.711
469.29	29.242
469.64	30.656
469.99	29.905
470.34	29.392
470.68	30.460
471.03	28.912
471.38	29.534
471.73	29.780
472.08	30.395
472.43	28.769
472.78	29.361
473.13	29.525
473.48	28.589
473.83	28.354
474.17	28.376
474.52	28.846
474.87	28.838
475.22	28.323
475.57	28.748
475.92	28.625
476.27	28.354
476.61	28.958
476.96	28.147
477.31	27.943
477.66	29.158
478.01	28.489
478.36	28.027
478.70	28.141
479.05	28.275
479.40	28.506
479.75	27.860
480.10	27.485
480.45	27.701
480.79	26.660
481.14	27.593
481.49	27.765
481.84	26.978
482.19	28.669
482.53	27.706
482.88	27.780
483.23	28.131
483.58	27.707
483.92	27.882
484.27	25.969
484.62	27.241
484.97	26.646
485.31	27.911
485.66	27.016
486.01	25.847
486.36	24.396
486.70	23.737
487.05	24.650
487.40	25.204
487.75	26.123
488.09	26.236
488.44	25.584
488.79	27.052
489.13	26.471
489.48	27.243
489.83	25.939
490.17	27.576
490.52	25.996
490.87	26.820
491.22	26.967
491.56	26.150
491.91	26.710
492.26	26.045
492.60	26.083
492.95	26.006
493.30	26.402
493.64	26.272
493.99	25.952
494.34	26.549
494.68	26.832
495.03	27.021
495.37	26.570
495.72	26.267
496.07	26.729
496.41	25.398
496.76	25.945
497.11	25.439
497.45	25.710
497.80	26.152
498.14	25.652
498.49	26.390
498.84	26.942
499.18	25.333
499.53	26.068
499.87	26.421
500.22	25.106
500.56	26.165
500.91	25.192
501.26	25.557
501.60	27.053
501.95	25.298
502.29	26.476
502.64	25.512
502.98	25.806
503.33	25.823
503.67	25.615
504.02	26.427
504.36	24.942
504.71	25.940
505.06	25.639
505.40	25.474
505.75	25.313
506.09	24.976
506.44	26.048
506.78	25.572
507.13	26.502
507.47	25.707
507.82	25.633
508.16	25.684
508.51	26.129
508.85	26.117
509.19	26.071
509.54	25.765
509.88	25.657
510.23	25.090
510.57	26.109
510.92	26.152
511.26	25.540
511.61	25.674
511.95	24.948
512.30	24.973
512.64	25.309
512.98	25.831
513.33	26.124
513.67	24.760
514.02	25.162
514.36	25.997
514.70	25.180
515.05	25.153
515.39	25.855
515.74	25.563
516.08	25.433
516.42	25.860
516.77	26.254
517.11	25.361
517.46	25.677
517.80	25.958
518.14	25.246
518.49	25.963
518.83	25.455
519.17	25.924
519.52	25.127
519.86	25.157
520.20	25.491
520.55	25.554
520.89	25.547
521.23	25.573
521.58	25.210
521.92	24.862
522.26	24.893
522.61	25.794
522.95	25.353
523.29	25.076
523.64	25.793
523.98	25.940
524.32	25.271
524.66	25.737
525.01	25.490
525.35	24.411
525.69	25.062
526.04	25.545
526.38	25.320
526.72	25.399
527.06	25.863
527.41	23.948
527.75	25.788
528.09	25.562
528.43	26.386
528.78	25.323
529.12	24.909
529.46	25.168
529.80	25.371
530.15	26.044
530.49	24.923
530.83	24.684
531.17	25.326
531.51	26.719
531.86	24.645
532.20	25.098
532.54	25.561
532.88	25.546
533.22	24.297
533.57	24.568
533.91	24.262
534.25	25.152
534.59	25.259
534.93	25.223
535.27	25.045
535.62	25.458
535.96	25.047
536.30	24.603
536.64	24.598
536.98	25.946
537.32	24.819
537.66	24.400
538.01	25.016
538.35	24.434
538.69	25.399
539.03	24.301
539.37	23.706
539.71	23.202
540.05	24.052
540.39	25.183
540.73	24.709
541.07	25.762
541.42	24.918
541.76	25.548
542.10	25.550
542.44	24.040
542.78	24.901
543.12	24.440
543.46	24.066
543.80	24.984
544.14	23.556
544.48	24.635
544.82	23.926
545.16	23.682
545.50	24.036
545.84	24.126
546.18	24.175
546.52	24.432
546.86	23.918
547.20	24.747
547.54	24.983
547.88	24.745
548.22	24.222
548.56	24.214
548.90	23.175
549.24	22.896
549.58	23.874
549.92	24.519
550.26	24.290
550.60	23.790
550.94	24.225
551.28	22.531
551.62	25.377
551.96	24.000
552.30	24.437
552.64	23.867
552.98	24.203
553.32	24.477
553.66	24.472
554.00	24.296
554.34	23.810
554.68	24.821
555.02	24.048
555.36	23.730
555.69	23.816
556.03	24.226
556.37	23.329
556.71	23.465
557.05	24.510
557.39	24.073
557.73	23.783
558.07	24.511
558.41	23.661
558.75	24.688
559.08	23.714
559.42	23.356
559.76	24.412
560.10	23.269
560.44	22.991
560.78	23.154
561.12	23.351
561.45	23.403
561.79	23.797
562.13	23.139
562.47	23.975
562.81	23.361
563.15	23.344
563.48	23.873
563.82	23.875
564.16	21.910
564.50	23.112
564.84	23.388
565.17	22.844
565.51	23.514
565.85	22.970
566.19	22.668
566.52	23.686
566.86	22.604
567.20	23.290
567.54	23.516
567.88	22.759
568.21	23.598
568.55	22.194
568.89	22.325
569.23	21.569
569.56	21.174
569.90	21.623
570.24	21.708
570.57	21.387
570.91	20.750
571.25	21.062
571.59	20.383
571.92	20.334
572.26	20.999
572.60	20.901
572.93	21.109
573.27	21.177
573.61	21.301
573.95	20.775
574.28	20.628
574.62	21.016
574.96	20.119
575.29	20.369
575.63	20.859
575.97	20.281
576.30	20.844
576.64	20.091
576.98	20.613
577.31	20.518
577.65	20.087
577.98	20.426
578.32	19.241
578.66	19.727
578.99	19.973
579.33	20.407
579.67	20.068
580.00	20.403
580.34	20.242
580.67	20.964
581.01	20.598
581.35	20.168
581.68	19.974
582.02	19.591
582.35	19.566
582.69	19.860
583.02	19.816
583.36	20.383
583.70	20.554
584.03	20.585
584.37	20.738
584.70	20.899
585.04	21.111
585.37	20.014
585.71	20.395
586.04	20.222
586.38	20.350
586.72	20.685
587.05	20.647
587.39	19.974
587.72	20.433
588.06	20.518
588.39	19.973
588.73	20.329
589.06	21.066
589.40	20.741
589.73	20.908
590.07	20.463
590.40	20.460
590.73	20.648
591.07	21.449
591.40	20.962
591.74	21.732
592.07	20.942
592.41	21.496
592.74	20.712
593.08	20.520
593.41	20.057
593.75	19.706
594.08	19.812
594.41	20.608
594.75	21.035
595.08	19.757
595.42	20.350
595.75	19.729
596.09	20.954
596.42	20.825
596.75	21.022
597.09	21.515
597.42	20.067
597.75	21.173
598.09	21.043
598.42	20.619
598.76	20.308
599.09	20.068
599.42	19.578
599.76	20.278
600.09	20.000
600.42	20.161
600.76	19.964
601.09	20.291
601.42	20.320
601.76	20.835
602.09	20.198
602.42	20.701
602.76	20.516
603.09	20.063
603.42	20.344
603.76	19.665
604.09	19.891
604.42	20.424
604.76	20.582
605.09	20.315
605.42	20.009
605.75	20.902
606.09	20.293
606.42	20.065
606.75	20.448
607.09	20.804
607.42	19.769
607.75	20.338
608.08	20.061
608.42	20.977
608.75	20.559
609.08	20.259
609.41	20.324
609.75	20.010
610.08	20.688
610.41	20.205
610.74	20.624
611.07	20.751
611.41	20.510
611.74	21.267
612.07	20.859
612.40	21.091
612.73	20.368
613.07	21.821
613.40	21.222
613.73	20.136
614.06	20.538
614.39	21.133
614.72	20.895
615.06	20.588
615.39	20.754
615.72	20.552
616.05	20.043
616.38	20.567
616.71	21.021
617.05	22.320
617.38	21.046
617.71	20.240
618.04	21.454
618.37	20.106
618.70	21.033
619.03	20.592
619.36	22.064
619.69	22.042
620.03	22.047
620.36	22.527
620.69	22.055
621.02	22.198
621.35	21.378
621.68	21.885
622.01	21.981
622.34	21.256
622.67	21.445
623.00	20.396
623.33	19.728
623.66	22.159
623.99	20.398
624.32	21.683
624.65	22.246
624.99	20.609
625.32	20.130
625.65	20.135
625.98	23.136
626.31	21.851
626.64	21.469
626.97	21.446
627.30	21.613
627.63	23.134
627.96	22.288
628.29	22.047
628.62	22.598
628.95	23.019
629.28	21.989
629.61	21.907
629.94	21.143
630.26	21.735
630.59	22.593
630.92	22.031
631.25	22.409
631.58	21.822
631.91	21.501
632.24	22.468
632.57	22.875
632.90	24.232
633.23	21.924
633.56	23.277
633.89	22.990
634.22	23.723
634.55	23.432
634.88	22.515
635.20	23.895
635.53	23.012
635.86	22.401
636.19	22.588
636.52	22.722
636.85	23.024
637.18	23.041
637.51	23.404
637.83	20.592
638.16	23.274
638.49	22.922
638.82	23.009
639.15	23.375
639.48	23.815
639.81	23.458
640.13	24.479
640.46	24.430
640.79	24.835
641.12	23.109
641.45	24.302
641.77	22.828
642.10	26.023
642.43	22.673
642.76	24.149
643.09	24.387
643.41	24.127
643.74	24.074
644.07	23.018
644.40	24.693
644.73	24.724
645.05	25.832
645.38	23.855
645.71	23.671
646.04	25.748
646.36	25.876
646.69	26.087
647.02	24.320
647.35	24.399
647.67	26.372
648.00	27.317
648.33	22.277
648.66	23.485
648.98	26.387
649.31	24.066
649.64	24.514
649.96	25.186
650.29	24.171
650.62	24.757
650.94	23.663
651.27	25.169
651.60	24.293
651.92	23.642
652.25	22.638
652.58	23.988
652.90	24.013
653.23	24.499
653.56	23.937
653.88	25.198
654.21	24.803
654.54	25.083
654.86	24.611
655.19	23.784
655.52	16.139
655.84	15.332
656.17	19.648
656.49	26.542
656.82	26.846
657.15	20.310
657.47	15.097
657.80	11.808
658.13	12.169
658.45	18.465
658.78	18.296
659.10	19.503
659.43	20.116
659.75	20.858
660.08	22.025
660.41	24.860
660.73	25.413
661.06	24.363
661.38	27.636
661.71	27.115
662.03	26.627
662.36	23.260
662.68	26.908
663.01	26.061
663.33	24.204
663.66	24.370
663.98	26.134
664.31	24.580
664.63	25.911
664.96	26.157
665.28	27.049
665.61	26.316
665.93	23.340
666.26	25.761
666.58	25.523
666.91	28.330
667.23	27.865
667.56	24.190
667.88	28.632
668.21	26.013
668.53	25.597
668.86	26.623
669.18	28.998
669.50	28.043
669.83	29.847
670.15	28.222
670.48	25.708
670.80	26.724
671.13	26.115
671.45	23.191
671.77	26.069
672.10	25.139
672.42	24.912
672.75	23.881
673.07	24.120
673.39	22.604
673.72	25.586
674.04	25.490
674.37	24.078
674.69	23.108
675.01	24.895
675.34	27.926
675.66	26.947
675.98	26.477
676.31	26.471
676.63	26.327
676.95	25.157
677.28	26.869
677.60	26.813
677.92	27.215
678.25	24.846
678.57	25.896
678.89	24.048
679.22	24.361
679.54	26.527
679.86	23.670
680.18	25.760
680.51	25.000
680.83	24.555
681.15	25.283
681.48	24.386
681.80	23.404
682.12	24.713
682.44	23.017
682.77	23.625
683.09	30.258
683.41	24.612
683.73	25.607
684.06	24.174
684.38	22.701
684.70	25.581
685.02	25.328
685.34	23.810
685.67	22.028
685.99	23.196
686.31	23.038
686.63	22.085
686.96	24.286
687.28	22.924
687.60	22.645
687.92	23.400
688.24	23.764
688.56	23.896
688.89	26.556
689.21	25.109
689.53	25.887
689.85	26.608
690.17	24.224
690.49	26.327
690.82	25.701
691.14	24.777
691.46	23.840
691.78	25.301
692.10	26.446
692.42	25.150
692.74	23.444
693.06	25.319
693.39	25.257
693.71	25.764
694.03	24.842
694.35	24.026
694.67	24.714
694.99	28.049
695.31	25.980
695.63	24.880
695.95	28.362
696.27	23.858
696.59	26.684
696.91	24.093
697.23	24.178
697.56	25.586
697.88	21.268
698.20	23.958
698.52	27.097
698.84	24.276
699.16	23.963
699.48	26.603
699.80	28.019
700.12	30.390
700.44	30.239
700.76	26.796
701.08	27.586
701.40	25.978
701.72	26.531
702.04	31.534
702.36	24.646
702.68	29.745
703.00	27.978
703.32	26.064
703.64	24.665
703.96	29.805
704.28	29.360
704.60	29.912
704.91	32.047
705.23	30.499
705.55	29.236
705.87	33.887
706.19	30.035
706.51	32.399
706.83	30.303
707.15	31.092
707.47	28.283
707.79	28.010
708.11	25.342
708.43	25.476
708.74	24.490
709.06	30.390
709.38	27.822
709.70	27.616
710.02	28.783
710.34	26.061
710.66	29.851
710.98	27.273
711.29	29.942
711.61	31.563
711.93	30.449
712.25	35.370
712.57	29.412
712.89	30.450
713.20	29.483
713.52	32.237
713.84	31.013
714.16	28.049
714.48	29.023
714.80	33.435
715.11	29.971
715.43	27.596
715.75	31.304
716.07	27.796
716.39	31.661
716.70	32.558
717.02	30.216
717.34	33.216
717.66	31.716
717.97	37.450
718.29	27.778
718.61	31.752
718.93	31.985
719.24	29.758
719.56	29.153
719.88	29.831
720.20	31.081
720.51	31.359
720.83	31.970
721.15	30.224
721.46	36.170
721.78	32.616
722.10	28.302
722.42	34.211
722.73	30.337
723.05	34.016
723.37	29.960
723.68	36.293
724.00	29.268
724.32	34.274
724.63	35.366
724.95	30.126
725.27	33.603
725.58	33.203
725.90	32.117
726.22	32.453
726.53	30.556
726.85	32.765
727.16	29.893
727.48	28.723
727.80	35.985
728.11	32.609
728.43	29.615
728.74	30.824
729.06	30.292
729.38	33.824
729.69	32.384
730.01	28.669
730.32	28.472
730.64	29.097
730.96	25.083
731.27	35.099
731.59	29.052
731.90	32.945
732.22	28.571
732.53	29.102
732.85	28.205
733.16	28.939
733.48	33.223
733.80	28.247
734.11	29.936
734.43	31.361
734.74	24.857
735.06	25.215
735.37	29.191
735.69	27.707
736.00	31.699
736.32	29.283
736.63	28.115
736.95	27.796
737.26	23.129
737.58	27.419
737.89	27.425
738.21	29.352
738.52	31.786
738.83	32.830
739.15	29.231
739.46	30.292
739.78	30.208
740.09	29.846
740.41	32.581
740.72	28.571
741.04	30.000
741.35	30.000
741.66	36.000
741.98	33.491
742.29	36.842
742.61	39.655
742.92	33.032
743.23	35.897
743.55	32.400
743.86	34.649
744.18	38.496
744.49	38.756
744.80	41.315
745.12	40.000
745.43	37.445
745.74	38.288
746.06	41.743
746.37	36.323
746.68	33.484
747.00	32.870
747.31	31.429
747.62	32.301
747.94	32.599
748.25	28.936
748.56	33.921
748.88	37.129
749.19	33.500
749.50	31.628
749.82	34.146
750.13	31.837
750.44	30.657
750.75	30.526
751.07	33.762
751.38	30.314
751.69	32.491
752.01	31.203
752.32	29.964
752.63	27.660
752.94	31.557
753.26	37.600
753.57	28.862
753.88	34.375
754.19	27.500
754.51	34.722
754.82	27.076
755.13	32.830
755.44	34.962
755.75	30.657
756.07	29.433
756.38	30.292
756.69	30.201
757.00	25.749
757.31	29.080
757.63	26.316
757.94	26.810
758.25	24.020
758.56	24.691
758.87	27.151
759.18	29.091
759.50	28.840
759.81	32.087
760.12	27.187
760.43	27.794
760.74	24.728
761.05	26.554
761.36	26.738
761.67	24.148
761.99	28.571
762.30	30.903
762.61	33.588
762.92	35.156
763.23	30.252
763.54	30.400
763.85	32.813
764.16	32.308
764.47	35.361
764.78	27.208
765.10	25.316
765.41	29.204
765.72	28.443
766.03	28.213
766.34	26.667
766.65	38.723
766.96	32.479
767.27	38.071
767.58	42.708
767.89	40.526
768.20	44.828
768.51	33.503
768.82	40.826
769.13	30.488
769.44	33.603
769.75	34.764
770.06	30.275
770.37	33.937
770.68	38.889
770.99	36.889
771.30	32.377
771.61	37.220
771.92	33.197
772.23	38.655
772.54	38.462
772.85	38.220
773.16	40.957
773.47	40.761
773.78	40.609
774.09	40.476
774.39	46.199
774.70	43.210
775.01	43.478
775.32	49.020
775.63	51.316
775.94	48.921
776.25	63.780
776.56	48.507
776.87	51.639
777.18	53.125
777.48	48.092
777.79	48.485
778.10	55.556
778.41	50.000
778.72	36.496
779.03	48.993
779.34	44.966
779.65	37.838
779.95	40.491
780.26	48.366
780.57	48.966
780.88	54.688
781.19	44.361
781.50	45.270
781.80	44.654
782.11	40.113
782.42	46.835
782.73	44.172
783.04	47.973
783.34	48.592
783.65	56.849
783.96	44.030
784.27	46.853
784.57	47.482
784.88	52.778
785.19	59.524
785.50	61.321
785.81	52.985
786.11	55.738
786.42	52.713
786.73	53.982
787.04	58.491
787.34	55.357
787.65	57.000
787.96	54.054
788.26	47.934
788.57	61.017
788.88	61.983
789.19	57.639
789.49	54.545
789.80	55.725
790.11	65.714
790.41	69.307
790.72	61.446
791.03	70.652
791.33	66.279
791.64	57.732
791.95	57.426
792.25	63.333
792.56	67.532
792.87	78.205
793.17	73.418
793.48	67.816
793.79	67.816
794.09	68.182
794.40	47.899
794.70	61.029
795.01	48.889
795.32	46.763
795.62	50.394
795.93	43.966
796.23	63.717
796.54	60.000
796.85	64.865
797.15	74.648
797.46	75.758
797.76	79.518
798.07	74.684
798.37	80.000
798.68	81.818
798.99	85.915
799.29	84.416
799.60	59.091
799.90	83.562
800.21	95.522
800.51	79.310
800.82	92.982
801.12	95.082
801.43	81.818
801.73	87.838
802.04	92.063
802.34	71.605
802.65	96.875
802.95	96.610
803.26	104.688
803.56	75.714
803.87	90.769
804.17	80.882
804.48	101.852
804.78	91.379
805.09	86.765
805.39	69.231
805.70	101.786
806.00	101.639
806.30	69.697
806.61	89.024
806.91	59.494
807.22	72.368
807.52	85.075
807.83	74.648
808.13	96.875
808.43	93.333
808.74	78.947
809.04	78.261
809.35	86.567
809.65	76.316
809.95	106.452
810.26	81.356
810.56	93.651
810.86	111.364
811.17	126.190
811.47	103.333
811.77	96.296
812.08	120.000
812.38	108.000
812.69	130.556
812.99	122.727
813.29	118.367
813.59	104.762
813.90	132.653
814.20	83.636
814.50	75.385
814.81	88.235
815.11	100.000
815.41	83.607
815.72	140.476
816.02	109.091
816.32	114.286
816.62	110.000
816.93	117.073
817.23	126.190
817.53	122.727
817.84	157.576
818.14	123.913
818.44	100.000
818.74	173.529
819.04	137.500
819.35	151.429
819.65	152.941
819.95	146.429
820.25	205.000
820.56	153.846
820.86	109.091
821.16	137.209
821.46	151.282
821.76	130.000
822.07	148.571
822.37	152.500
822.67	127.273
822.97	111.765
823.27	185.714
823.57	145.946
823.88	155.000
824.18	160.000
824.48	133.333
824.78	248.000
825.08	175.000
825.38	135.135
825.69	129.268
825.99	195.833
826.29	131.034
826.59	144.737
826.89	136.842
827.19	129.412
827.49	145.161
827.79	134.091
828.09	120.455
828.39	125.532
828.70	116.327
829.00	118.519
829.30	158.065
829.60	135.000
829.90	293.333
830.20	182.143
830.50	204.348
830.80	204.348
831.10	176.667
831.40	166.667
831.70	160.870
832.00	219.231
832.30	200.000
832.60	287.500
832.90	196.667
833.20	364.286
833.50	206.452
833.80	179.310
834.10	184.375
834.40	207.692
834.70	288.889
835.00	295.238
835.30	125.714
835.60	269.231
835.90	179.310
836.20	300.000
836.50	193.103
836.80	184.000
837.10	158.333
837.40	252.381
837.70	323.529
838.00	185.185
838.30	180.952
838.60	266.667
838.90	173.077
839.19	210.000
839.49	350.000
839.79	260.000
840.09	295.000
840.39	247.619
840.69	247.826
840.99	311.111
841.29	460.000
841.59	333.333
841.88	281.250
842.18	131.034
842.48	280.952
842.78	196.667
843.08	213.043
843.38	178.125
843.68	733.333
843.97	250.000
844.27	193.103
844.57	261.905
844.87	325.000
845.17	200.000
845.47	1100.000
845.76	400.000
846.06	282.353
846.36	525.000
846.66	364.286
846.96	312.500
847.25	427.273
847.55	463.636
847.85	260.870
848.15	500.000
848.44	335.714
848.74	272.222
849.04	270.588
849.34	520.000
849.63	205.263
849.93	454.545
850.23	960.000
850.53	314.286
850.82	2400.000
851.12	-4500.000
851.42	4700.000
851.71	265.000
852.01	-1100.000
852.31	200.000
852.61	1366.667
852.90	257.143
853.20	220.000
853.50	305.882
853.79	285.714
854.09	220.833
854.39	300.000
854.68	148.649
854.98	177.419
855.28	143.333
855.57	224.138
855.87	214.815
856.17	226.316
856.46	186.667
856.76	241.176
857.05	179.310
857.35	200.000
857.65	320.000
857.94	221.739
858.24	215.385
858.53	265.000
858.83	236.364
859.13	300.000
859.42	0.000
859.72	511.111
860.01	454.545
860.31	218.182
860.60	231.579
860.90	239.130
861.20	555.556
861.49	516.667
861.79	-4600.000
862.08	637.500
862.38	276.190
862.67	284.615
862.97	323.529
863.26	600.000
863.56	277.778
863.85	350.000
864.15	475.000
864.44	400.000
864.74	800.000
865.03	637.500
865.33	300.000
865.62	418.182
865.92	407.692
866.21	375.000
866.51	0.000
866.80	390.909
867.10	1100.000
867.39	469.231
867.69	381.818
867.98	247.368
868.27	381.818
868.57	273.684
868.86	-3200.000
869.16	337.500
869.45	1900.000
869.75	-2900.000
870.04	408.333
870.33	514.286
870.63	1200.000
870.92	2400.000
871.22	757.143
871.51	329.412
871.80	180.952
872.10	371.429
>>>>>End Processed Spectral Data<<<<<
